{
  "AcquisitionMatrixPE": 82,
  "AcquisitionNumber": 1,
  "AcquisitionTime": "09:29:53.615000",
  "BandwidthPerPixelPhaseEncode": 24.888,
  "BaseResolution": 82,
  "BodyPartExamined": "BRAIN",
  "ConsistencyInfo": "N4_VE11C_LATEST_20160120",
  "ConversionSoftware": "dcm2niix",
  "ConversionSoftwareVersion": "v1.0.20201102",
  "DerivedVendorReportedEchoSpacing": 0.00049,
  "DeviceSerialNumber": "66112",
  "DwellTime": 2e-06,
  "EchoTime": 0.0272,
  "EchoTrainLength": 82,
  "EffectiveEchoSpacing": 0.00049,
  "FlipAngle": 44,
  "ImageComments": "Unaliased MB8/PE3",
  "ImageOrientationPatientDICOM": [0.999003, 0.0308328, 0.0322912, -0.0266832, 0.992187, -0.12187],
  "ImageType": [
    "ORIGINAL",
    "PRIMARY",
    "M",
    "MB",
    "ND",
    "NORM",
    "MOSAIC"
],
  "ImagingFrequency": 123.252,
  "InPlanePhaseEncodingDirectionDICOM": "COL",
  "InstitutionAddress": "Maynard 3,Hanover,NH,US,03755",
  "InstitutionName": "Dartmouth College - PBS",
  "InstitutionalDepartmentName": "Department",
  "MRAcquisitionType": "2D",
  "MagneticFieldStrength": 3,
  "Manufacturer": "Siemens",
  "ManufacturersModelName": "Prisma",
  "Modality": "MR",
  "MultibandAccelerationFactor": 8,
  "PartialFourier": 1,
  "PatientPosition": "HFS",
  "PercentPhaseFOV": 100,
  "PercentSampling": 100,
  "PhaseEncodingDirection": "j-",
  "PhaseEncodingSteps": 82,
  "PhaseResolution": 1,
  "PixelBandwidth": 3050,
  "ProcedureStepDescription": "Wager_Wager^1076_spacetop",
  "ProtocolName": "func_run-03_task-social_acq-ap-mb8",
  "PulseSequenceDetails": "%CustomerSeq%\\cmrr_mbep2d_bold",
  "ReceiveCoilActiveElements": "HEA;HEP",
  "ReceiveCoilName": "Head_32",
  "ReconMatrixPE": 82,
  "RepetitionTime": 0.46,
  "SAR": 0.084214,
  "ScanOptions": "FS",
  "ScanningSequence": "EP",
  "SequenceName": "epfid2d1_82",
  "SequenceVariant": "SK\\SS",
  "SeriesDescription": "func_run-03_task-social_acq-ap-mb8",
  "SeriesNumber": 12,
  "ShimSetting": [4163, -7697, -7335, 545, -16, -174, 34, 86],
  "SliceThickness": 2.7,
  "SliceTiming": [0, 0.25, 0.0625, 0.3125, 0.125, 0.3775, 0.1875, 0, 0.25, 0.0625, 0.3125, 0.125, 0.3775, 0.1875, 0, 0.25, 0.0625, 0.3125, 0.125, 0.3775, 0.1875, 0, 0.25, 0.0625, 0.3125, 0.125, 0.3775, 0.1875, 0, 0.25, 0.0625, 0.3125, 0.125, 0.3775, 0.1875, 0, 0.25, 0.0625, 0.3125, 0.125, 0.3775, 0.1875, 0, 0.25, 0.0625, 0.3125, 0.125, 0.3775, 0.1875, 0, 0.25, 0.0625, 0.3125, 0.125, 0.3775, 0.1875],
  "SoftwareVersions": "syngo MR E11",
  "SpacingBetweenSlices": 2.7,
  "StationName": "AWP66112",
  "TaskName": "social",
  "TotalReadoutTime": 0.03969,
  "TxRefAmp": 265.751,
  "WipMemBlock": "a9690c8d-8d83-4fb7-95f5-6a3016e19351||Sequence: R016 ve11c/master r/e634e98; Dec 19 2017 11:00:25 by eja",
  "dcmmeta_affine": [
    [-2.6802515983581543, -0.07158919423818588, 0.09665048867464066, 112.81173706054688],
    [-0.08272223174571991, 2.661966323852539, -0.32639333605766296, -78.74846649169922],
    [0.08663485199213028, 0.32696717977523804, 2.6784560680389404, -111.80175018310547],
    [0.0, 0.0, 0.0, 1.0]
],
  "dcmmeta_reorient_transform": [
    [0.0, -1.0, 0.0, 81.0],
    [1.0, 0.0, 0.0, 0.0],
    [0.0, 0.0, 1.0, 0.0],
    [0.0, 0.0, 0.0, 1.0]
],
  "dcmmeta_shape": [82, 82, 56, 872],
  "dcmmeta_slice_dim": 2,
  "dcmmeta_version": 0.6,
  "global": {
    "const": {
      "AccessionNumber": "A003841",
      "AcquisitionMatrix": [82, 0, 0, 82],
      "AngioFlag": "N",
      "BitsAllocated": 16,
      "BitsStored": 16,
      "BodyPartExamined": "BRAIN",
      "Columns": 656,
      "EchoNumbers": 1,
      "EchoTime": 27.2,
      "EchoTrainLength": 82,
      "FlipAngle": 44.0,
      "HighBit": 15,
      "ImageOrientationPatient": [0.99900281119217, 0.03083283230284, 0.03229117034628, -0.0266832441017, 0.99218738629392, -0.1218695817809],
      "ImagePositionPatient": [-855.69909403626, -924.59638537743, -16.342031824724],
      "ImageType": [
        "ORIGINAL",
        "PRIMARY",
        "M",
        "MB",
        "ND",
        "NORM",
        "MOSAIC"
],
      "ImagedNucleus": "1H",
      "ImagingFrequency": 123.252235,
      "InPlanePhaseEncodingDirection": "COL",
      "MRAcquisitionType": "2D",
      "MagneticFieldStrength": 3.0,
      "Manufacturer": "SIEMENS",
      "ManufacturerModelName": "Prisma",
      "Modality": "MR",
      "NumberOfAverages": 1.0,
      "NumberOfPhaseEncodingSteps": 82,
      "PercentPhaseFieldOfView": 100.0,
      "PercentSampling": 100.0,
      "PerformedProcedureStepStartTime": "085253.866000",
      "PhotometricInterpretation": "MONOCHROME2",
      "PixelBandwidth": 3050.0,
      "PixelRepresentation": 0,
      "PixelSpacing": [2.6829268932343, 2.6829268932343],
      "ProtocolName": "func_run-03_task-social_acq-ap-mb8",
      "RepetitionTime": 460.0,
      "Rows": 656,
      "SAR": 0.08421397360587,
      "SamplesPerPixel": 1,
      "ScanOptions": "FS",
      "ScanningSequence": "EP",
      "SequenceName": "epfid2d1_82",
      "SequenceVariant": [
        "SK",
        "SS"
],
      "SeriesDescription": "func_run-03_task-social_acq-ap-mb8",
      "SeriesNumber": 12,
      "SeriesTime": "093015.630000",
      "SliceLocation": -97.351770125509,
      "SliceThickness": 2.7000000476837,
      "SmallestImagePixelValue": 0,
      "SoftwareVersions": "syngo MR E11",
      "SpacingBetweenSlices": 2.7000000642971,
      "SpecificCharacterSet": "ISO_IR 100",
      "StudyID": "2",
      "StudyTime": "085253.773000",
      "TransmitCoilName": "Body",
      "VariableFlipAngleFlag": "N",
      "WindowCenterWidthExplanation": "Algo1",
      "dBdt": 0.0},
    "slices": {}
  },
  "time": {
    "samples": {
      "AcquisitionNumber": [1, 2, 3, 4, 5, 6, 7, 8, 9, 10, 11, 12, 13, 14, 15, 16, 17, 18, 19, 20, 21, 22, 23, 24, 25, 26, 27, 28, 29, 30, 31, 32, 33, 34, 35, 36, 37, 38, 39, 40, 41, 42, 43, 44, 45, 46, 47, 48, 49, 50, 51, 52, 53, 54, 55, 56, 57, 58, 59, 60, 61, 62, 63, 64, 65, 66, 67, 68, 69, 70, 71, 72, 73, 74, 75, 76, 77, 78, 79, 80, 81, 82, 83, 84, 85, 86, 87, 88, 89, 90, 91, 92, 93, 94, 95, 96, 97, 98, 99, 100, 101, 102, 103, 104, 105, 106, 107, 108, 109, 110, 111, 112, 113, 114, 115, 116, 117, 118, 119, 120, 121, 122, 123, 124, 125, 126, 127, 128, 129, 130, 131, 132, 133, 134, 135, 136, 137, 138, 139, 140, 141, 142, 143, 144, 145, 146, 147, 148, 149, 150, 151, 152, 153, 154, 155, 156, 157, 158, 159, 160, 161, 162, 163, 164, 165, 166, 167, 168, 169, 170, 171, 172, 173, 174, 175, 176, 177, 178, 179, 180, 181, 182, 183, 184, 185, 186, 187, 188, 189, 190, 191, 192, 193, 194, 195, 196, 197, 198, 199, 200, 201, 202, 203, 204, 205, 206, 207, 208, 209, 210, 211, 212, 213, 214, 215, 216, 217, 218, 219, 220, 221, 222, 223, 224, 225, 226, 227, 228, 229, 230, 231, 232, 233, 234, 235, 236, 237, 238, 239, 240, 241, 242, 243, 244, 245, 246, 247, 248, 249, 250, 251, 252, 253, 254, 255, 256, 257, 258, 259, 260, 261, 262, 263, 264, 265, 266, 267, 268, 269, 270, 271, 272, 273, 274, 275, 276, 277, 278, 279, 280, 281, 282, 283, 284, 285, 286, 287, 288, 289, 290, 291, 292, 293, 294, 295, 296, 297, 298, 299, 300, 301, 302, 303, 304, 305, 306, 307, 308, 309, 310, 311, 312, 313, 314, 315, 316, 317, 318, 319, 320, 321, 322, 323, 324, 325, 326, 327, 328, 329, 330, 331, 332, 333, 334, 335, 336, 337, 338, 339, 340, 341, 342, 343, 344, 345, 346, 347, 348, 349, 350, 351, 352, 353, 354, 355, 356, 357, 358, 359, 360, 361, 362, 363, 364, 365, 366, 367, 368, 369, 370, 371, 372, 373, 374, 375, 376, 377, 378, 379, 380, 381, 382, 383, 384, 385, 386, 387, 388, 389, 390, 391, 392, 393, 394, 395, 396, 397, 398, 399, 400, 401, 402, 403, 404, 405, 406, 407, 408, 409, 410, 411, 412, 413, 414, 415, 416, 417, 418, 419, 420, 421, 422, 423, 424, 425, 426, 427, 428, 429, 430, 431, 432, 433, 434, 435, 436, 437, 438, 439, 440, 441, 442, 443, 444, 445, 446, 447, 448, 449, 450, 451, 452, 453, 454, 455, 456, 457, 458, 459, 460, 461, 462, 463, 464, 465, 466, 467, 468, 469, 470, 471, 472, 473, 474, 475, 476, 477, 478, 479, 480, 481, 482, 483, 484, 485, 486, 487, 488, 489, 490, 491, 492, 493, 494, 495, 496, 497, 498, 499, 500, 501, 502, 503, 504, 505, 506, 507, 508, 509, 510, 511, 512, 513, 514, 515, 516, 517, 518, 519, 520, 521, 522, 523, 524, 525, 526, 527, 528, 529, 530, 531, 532, 533, 534, 535, 536, 537, 538, 539, 540, 541, 542, 543, 544, 545, 546, 547, 548, 549, 550, 551, 552, 553, 554, 555, 556, 557, 558, 559, 560, 561, 562, 563, 564, 565, 566, 567, 568, 569, 570, 571, 572, 573, 574, 575, 576, 577, 578, 579, 580, 581, 582, 583, 584, 585, 586, 587, 588, 589, 590, 591, 592, 593, 594, 595, 596, 597, 598, 599, 600, 601, 602, 603, 604, 605, 606, 607, 608, 609, 610, 611, 612, 613, 614, 615, 616, 617, 618, 619, 620, 621, 622, 623, 624, 625, 626, 627, 628, 629, 630, 631, 632, 633, 634, 635, 636, 637, 638, 639, 640, 641, 642, 643, 644, 645, 646, 647, 648, 649, 650, 651, 652, 653, 654, 655, 656, 657, 658, 659, 660, 661, 662, 663, 664, 665, 666, 667, 668, 669, 670, 671, 672, 673, 674, 675, 676, 677, 678, 679, 680, 681, 682, 683, 684, 685, 686, 687, 688, 689, 690, 691, 692, 693, 694, 695, 696, 697, 698, 699, 700, 701, 702, 703, 704, 705, 706, 707, 708, 709, 710, 711, 712, 713, 714, 715, 716, 717, 718, 719, 720, 721, 722, 723, 724, 725, 726, 727, 728, 729, 730, 731, 732, 733, 734, 735, 736, 737, 738, 739, 740, 741, 742, 743, 744, 745, 746, 747, 748, 749, 750, 751, 752, 753, 754, 755, 756, 757, 758, 759, 760, 761, 762, 763, 764, 765, 766, 767, 768, 769, 770, 771, 772, 773, 774, 775, 776, 777, 778, 779, 780, 781, 782, 783, 784, 785, 786, 787, 788, 789, 790, 791, 792, 793, 794, 795, 796, 797, 798, 799, 800, 801, 802, 803, 804, 805, 806, 807, 808, 809, 810, 811, 812, 813, 814, 815, 816, 817, 818, 819, 820, 821, 822, 823, 824, 825, 826, 827, 828, 829, 830, 831, 832, 833, 834, 835, 836, 837, 838, 839, 840, 841, 842, 843, 844, 845, 846, 847, 848, 849, 850, 851, 852, 853, 854, 855, 856, 857, 858, 859, 860, 861, 862, 863, 864, 865, 866, 867, 868, 869, 870, 871, 872],
      "AcquisitionTime": ["092953.615000", "092954.075000", "092954.535000", "092954.995000", "092955.455000", "092955.915000", "092956.375000", "092956.835000", "092957.295000", "092957.755000", "092958.215000", "092958.675000", "092959.135000", "092959.595000", "093000.055000", "093000.515000", "093000.975000", "093001.435000", "093001.895000", "093002.355000", "093002.815000", "093003.275000", "093003.735000", "093004.195000", "093004.655000", "093005.115000", "093005.575000", "093006.035000", "093006.495000", "093006.955000", "093007.415000", "093007.875000", "093008.335000", "093008.795000", "093009.255000", "093009.715000", "093010.175000", "093010.635000", "093011.095000", "093011.555000", "093012.015000", "093012.475000", "093012.935000", "093013.395000", "093013.855000", "093014.315000", "093014.775000", "093015.235000", "093015.695000", "093016.155000", "093016.615000", "093017.075000", "093017.535000", "093017.995000", "093018.455000", "093018.915000", "093019.375000", "093019.835000", "093020.295000", "093020.755000", "093021.215000", "093021.675000", "093022.135000", "093022.595000", "093023.055000", "093023.515000", "093023.975000", "093024.435000", "093024.895000", "093025.355000", "093025.815000", "093026.275000", "093026.735000", "093027.195000", "093027.655000", "093028.115000", "093028.575000", "093029.035000", "093029.495000", "093029.955000", "093030.415000", "093030.875000", "093031.335000", "093031.795000", "093032.255000", "093032.715000", "093033.175000", "093033.635000", "093034.095000", "093034.555000", "093035.015000", "093035.475000", "093035.935000", "093036.395000", "093036.855000", "093037.315000", "093037.775000", "093038.235000", "093038.695000", "093039.155000", "093039.615000", "093040.075000", "093040.535000", "093040.995000", "093041.455000", "093041.915000", "093042.375000", "093042.835000", "093043.295000", "093043.755000", "093044.215000", "093044.675000", "093045.135000", "093045.595000", "093046.055000", "093046.515000", "093046.975000", "093047.435000", "093047.895000", "093048.355000", "093048.815000", "093049.275000", "093049.735000", "093050.195000", "093050.655000", "093051.115000", "093051.575000", "093052.035000", "093052.495000", "093052.955000", "093053.415000", "093053.875000", "093054.335000", "093054.795000", "093055.255000", "093055.715000", "093056.175000", "093056.635000", "093057.095000", "093057.555000", "093058.015000", "093058.475000", "093058.935000", "093059.395000", "093059.855000", "093100.315000", "093100.775000", "093101.235000", "093101.695000", "093102.155000", "093102.615000", "093103.075000", "093103.535000", "093103.995000", "093104.455000", "093104.915000", "093105.375000", "093105.835000", "093106.295000", "093106.755000", "093107.215000", "093107.675000", "093108.135000", "093108.595000", "093109.055000", "093109.515000", "093109.975000", "093110.435000", "093110.895000", "093111.355000", "093111.815000", "093112.275000", "093112.735000", "093113.195000", "093113.655000", "093114.115000", "093114.575000", "093115.035000", "093115.495000", "093115.955000", "093116.415000", "093116.875000", "093117.335000", "093117.795000", "093118.255000", "093118.715000", "093119.175000", "093119.635000", "093120.095000", "093120.555000", "093121.015000", "093121.475000", "093121.935000", "093122.395000", "093122.855000", "093123.315000", "093123.775000", "093124.235000", "093124.695000", "093125.155000", "093125.615000", "093126.075000", "093126.535000", "093126.995000", "093127.455000", "093127.915000", "093128.375000", "093128.835000", "093129.295000", "093129.755000", "093130.215000", "093130.675000", "093131.135000", "093131.595000", "093132.055000", "093132.515000", "093132.975000", "093133.435000", "093133.895000", "093134.355000", "093134.815000", "093135.275000", "093135.735000", "093136.195000", "093136.655000", "093137.115000", "093137.575000", "093138.035000", "093138.495000", "093138.955000", "093139.415000", "093139.875000", "093140.335000", "093140.795000", "093141.255000", "093141.715000", "093142.175000", "093142.635000", "093143.095000", "093143.555000", "093144.015000", "093144.475000", "093144.935000", "093145.395000", "093145.855000", "093146.315000", "093146.775000", "093147.235000", "093147.695000", "093148.155000", "093148.615000", "093149.075000", "093149.535000", "093149.995000", "093150.455000", "093150.915000", "093151.375000", "093151.835000", "093152.295000", "093152.755000", "093153.215000", "093153.675000", "093154.135000", "093154.595000", "093155.055000", "093155.515000", "093155.975000", "093156.435000", "093156.895000", "093157.355000", "093157.815000", "093158.275000", "093158.735000", "093159.195000", "093159.655000", "093200.115000", "093200.575000", "093201.035000", "093201.495000", "093201.955000", "093202.415000", "093202.875000", "093203.335000", "093203.795000", "093204.255000", "093204.715000", "093205.175000", "093205.635000", "093206.095000", "093206.555000", "093207.015000", "093207.475000", "093207.935000", "093208.395000", "093208.855000", "093209.315000", "093209.775000", "093210.235000", "093210.695000", "093211.155000", "093211.615000", "093212.075000", "093212.535000", "093212.995000", "093213.455000", "093213.915000", "093214.375000", "093214.835000", "093215.295000", "093215.755000", "093216.215000", "093216.675000", "093217.135000", "093217.595000", "093218.055000", "093218.515000", "093218.975000", "093219.435000", "093219.895000", "093220.355000", "093220.815000", "093221.275000", "093221.735000", "093222.195000", "093222.655000", "093223.115000", "093223.575000", "093224.035000", "093224.495000", "093224.955000", "093225.415000", "093225.875000", "093226.335000", "093226.795000", "093227.255000", "093227.715000", "093228.175000", "093228.635000", "093229.095000", "093229.555000", "093230.015000", "093230.475000", "093230.935000", "093231.395000", "093231.855000", "093232.315000", "093232.775000", "093233.235000", "093233.695000", "093234.155000", "093234.615000", "093235.075000", "093235.535000", "093235.995000", "093236.455000", "093236.915000", "093237.375000", "093237.835000", "093238.295000", "093238.755000", "093239.215000", "093239.675000", "093240.135000", "093240.595000", "093241.055000", "093241.515000", "093241.975000", "093242.435000", "093242.895000", "093243.355000", "093243.815000", "093244.275000", "093244.735000", "093245.195000", "093245.655000", "093246.115000", "093246.575000", "093247.035000", "093247.495000", "093247.955000", "093248.415000", "093248.875000", "093249.335000", "093249.795000", "093250.255000", "093250.715000", "093251.175000", "093251.635000", "093252.095000", "093252.555000", "093253.015000", "093253.475000", "093253.935000", "093254.395000", "093254.855000", "093255.315000", "093255.775000", "093256.235000", "093256.695000", "093257.155000", "093257.615000", "093258.075000", "093258.535000", "093258.995000", "093259.455000", "093259.915000", "093300.375000", "093300.835000", "093301.295000", "093301.755000", "093302.215000", "093302.675000", "093303.135000", "093303.595000", "093304.055000", "093304.515000", "093304.975000", "093305.435000", "093305.895000", "093306.355000", "093306.815000", "093307.275000", "093307.735000", "093308.195000", "093308.655000", "093309.115000", "093309.575000", "093310.035000", "093310.495000", "093310.955000", "093311.415000", "093311.875000", "093312.335000", "093312.795000", "093313.255000", "093313.715000", "093314.175000", "093314.635000", "093315.095000", "093315.555000", "093316.015000", "093316.475000", "093316.935000", "093317.395000", "093317.855000", "093318.315000", "093318.775000", "093319.235000", "093319.695000", "093320.155000", "093320.615000", "093321.075000", "093321.535000", "093321.995000", "093322.455000", "093322.915000", "093323.375000", "093323.835000", "093324.295000", "093324.755000", "093325.215000", "093325.675000", "093326.135000", "093326.595000", "093327.055000", "093327.515000", "093327.975000", "093328.435000", "093328.895000", "093329.355000", "093329.815000", "093330.275000", "093330.735000", "093331.195000", "093331.655000", "093332.115000", "093332.575000", "093333.035000", "093333.495000", "093333.955000", "093334.415000", "093334.875000", "093335.335000", "093335.795000", "093336.255000", "093336.715000", "093337.175000", "093337.635000", "093338.095000", "093338.555000", "093339.015000", "093339.475000", "093339.935000", "093340.395000", "093340.855000", "093341.315000", "093341.775000", "093342.235000", "093342.695000", "093343.155000", "093343.615000", "093344.075000", "093344.535000", "093344.995000", "093345.455000", "093345.915000", "093346.375000", "093346.835000", "093347.295000", "093347.755000", "093348.215000", "093348.675000", "093349.135000", "093349.595000", "093350.055000", "093350.515000", "093350.975000", "093351.435000", "093351.895000", "093352.355000", "093352.815000", "093353.275000", "093353.735000", "093354.195000", "093354.655000", "093355.115000", "093355.575000", "093356.035000", "093356.495000", "093356.955000", "093357.415000", "093357.875000", "093358.335000", "093358.795000", "093359.255000", "093359.715000", "093400.175000", "093400.635000", "093401.095000", "093401.555000", "093402.015000", "093402.475000", "093402.935000", "093403.395000", "093403.855000", "093404.315000", "093404.775000", "093405.235000", "093405.695000", "093406.155000", "093406.615000", "093407.075000", "093407.535000", "093407.995000", "093408.455000", "093408.915000", "093409.375000", "093409.835000", "093410.295000", "093410.755000", "093411.215000", "093411.675000", "093412.135000", "093412.595000", "093413.055000", "093413.515000", "093413.975000", "093414.435000", "093414.895000", "093415.355000", "093415.815000", "093416.275000", "093416.735000", "093417.195000", "093417.655000", "093418.115000", "093418.575000", "093419.035000", "093419.495000", "093419.955000", "093420.415000", "093420.875000", "093421.335000", "093421.795000", "093422.255000", "093422.715000", "093423.175000", "093423.635000", "093424.095000", "093424.555000", "093425.015000", "093425.475000", "093425.935000", "093426.395000", "093426.855000", "093427.315000", "093427.775000", "093428.235000", "093428.695000", "093429.155000", "093429.615000", "093430.075000", "093430.535000", "093430.995000", "093431.455000", "093431.915000", "093432.375000", "093432.835000", "093433.295000", "093433.755000", "093434.215000", "093434.675000", "093435.135000", "093435.595000", "093436.055000", "093436.515000", "093436.975000", "093437.435000", "093437.895000", "093438.355000", "093438.815000", "093439.275000", "093439.735000", "093440.195000", "093440.655000", "093441.115000", "093441.575000", "093442.035000", "093442.495000", "093442.955000", "093443.415000", "093443.875000", "093444.335000", "093444.795000", "093445.255000", "093445.715000", "093446.175000", "093446.635000", "093447.095000", "093447.555000", "093448.015000", "093448.475000", "093448.935000", "093449.395000", "093449.855000", "093450.315000", "093450.775000", "093451.235000", "093451.695000", "093452.155000", "093452.615000", "093453.075000", "093453.535000", "093453.995000", "093454.455000", "093454.915000", "093455.375000", "093455.835000", "093456.295000", "093456.755000", "093457.215000", "093457.675000", "093458.135000", "093458.595000", "093459.055000", "093459.515000", "093459.975000", "093500.435000", "093500.895000", "093501.355000", "093501.815000", "093502.275000", "093502.735000", "093503.195000", "093503.655000", "093504.115000", "093504.575000", "093505.035000", "093505.495000", "093505.955000", "093506.415000", "093506.875000", "093507.335000", "093507.795000", "093508.255000", "093508.715000", "093509.175000", "093509.635000", "093510.095000", "093510.555000", "093511.015000", "093511.475000", "093511.935000", "093512.395000", "093512.855000", "093513.315000", "093513.775000", "093514.235000", "093514.695000", "093515.155000", "093515.615000", "093516.075000", "093516.535000", "093516.995000", "093517.455000", "093517.915000", "093518.375000", "093518.835000", "093519.295000", "093519.755000", "093520.215000", "093520.675000", "093521.135000", "093521.595000", "093522.055000", "093522.515000", "093522.975000", "093523.435000", "093523.895000", "093524.355000", "093524.815000", "093525.275000", "093525.735000", "093526.195000", "093526.655000", "093527.115000", "093527.575000", "093528.035000", "093528.495000", "093528.955000", "093529.415000", "093529.875000", "093530.335000", "093530.795000", "093531.255000", "093531.715000", "093532.175000", "093532.635000", "093533.095000", "093533.555000", "093534.015000", "093534.475000", "093534.935000", "093535.395000", "093535.855000", "093536.315000", "093536.775000", "093537.235000", "093537.695000", "093538.155000", "093538.615000", "093539.075000", "093539.535000", "093539.995000", "093540.455000", "093540.915000", "093541.375000", "093541.835000", "093542.295000", "093542.755000", "093543.215000", "093543.675000", "093544.135000", "093544.595000", "093545.055000", "093545.515000", "093545.975000", "093546.435000", "093546.895000", "093547.355000", "093547.815000", "093548.275000", "093548.735000", "093549.195000", "093549.655000", "093550.115000", "093550.575000", "093551.035000", "093551.495000", "093551.955000", "093552.415000", "093552.875000", "093553.335000", "093553.795000", "093554.255000", "093554.715000", "093555.175000", "093555.635000", "093556.095000", "093556.555000", "093557.015000", "093557.475000", "093557.935000", "093558.395000", "093558.855000", "093559.315000", "093559.775000", "093600.235000", "093600.695000", "093601.155000", "093601.615000", "093602.075000", "093602.535000", "093602.995000", "093603.455000", "093603.915000", "093604.375000", "093604.835000", "093605.295000", "093605.755000", "093606.215000", "093606.675000", "093607.135000", "093607.595000", "093608.055000", "093608.515000", "093608.975000", "093609.435000", "093609.895000", "093610.355000", "093610.815000", "093611.275000", "093611.735000", "093612.195000", "093612.655000", "093613.115000", "093613.575000", "093614.035000", "093614.495000", "093614.955000", "093615.415000", "093615.875000", "093616.335000", "093616.795000", "093617.255000", "093617.715000", "093618.175000", "093618.635000", "093619.095000", "093619.555000", "093620.015000", "093620.475000", "093620.935000", "093621.395000", "093621.855000", "093622.315000", "093622.775000", "093623.235000", "093623.695000", "093624.155000", "093624.615000", "093625.075000", "093625.535000", "093625.995000", "093626.455000", "093626.915000", "093627.375000", "093627.835000", "093628.295000", "093628.755000", "093629.215000", "093629.675000", "093630.135000", "093630.595000", "093631.055000", "093631.515000", "093631.975000", "093632.435000", "093632.895000", "093633.355000", "093633.815000", "093634.275000"],
