{
  "AcquisitionMatrixPE": 82,
  "AcquisitionNumber": 1,
  "AcquisitionTime": "09:15:33.977500",
  "BandwidthPerPixelPhaseEncode": 24.888,
  "BaseResolution": 82,
  "BodyPartExamined": "BRAIN",
  "ConsistencyInfo": "N4_VE11C_LATEST_20160120",
  "ConversionSoftware": "dcm2niix",
  "ConversionSoftwareVersion": "v1.0.20201102",
  "DerivedVendorReportedEchoSpacing": 0.00049,
  "DeviceSerialNumber": "66112",
  "DwellTime": 2e-06,
  "EchoTime": 0.0272,
  "EchoTrainLength": 82,
  "EffectiveEchoSpacing": 0.00049,
  "FlipAngle": 44,
  "ImageComments": "Unaliased MB8/PE3",
  "ImageOrientationPatientDICOM": [0.999003, 0.0308328, 0.0322912, -0.0266832, 0.992187, -0.12187],
  "ImageType": [
    "ORIGINAL",
    "PRIMARY",
    "M",
    "MB",
    "ND",
    "NORM",
    "MOSAIC"
],
  "ImagingFrequency": 123.252,
  "InPlanePhaseEncodingDirectionDICOM": "COL",
  "InstitutionAddress": "Maynard 3,Hanover,NH,US,03755",
  "InstitutionName": "Dartmouth College - PBS",
  "InstitutionalDepartmentName": "Department",
  "MRAcquisitionType": "2D",
  "MagneticFieldStrength": 3,
  "Manufacturer": "Siemens",
  "ManufacturersModelName": "Prisma",
  "Modality": "MR",
  "MultibandAccelerationFactor": 8,
  "PartialFourier": 1,
  "PatientPosition": "HFS",
  "PercentPhaseFOV": 100,
  "PercentSampling": 100,
  "PhaseEncodingDirection": "j-",
  "PhaseEncodingSteps": 82,
  "PhaseResolution": 1,
  "PixelBandwidth": 3050,
  "ProcedureStepDescription": "Wager_Wager^1076_spacetop",
  "ProtocolName": "func_run-01_task-social_acq-ap-mb8",
  "PulseSequenceDetails": "%CustomerSeq%\\cmrr_mbep2d_bold",
  "ReceiveCoilActiveElements": "HEA;HEP",
  "ReceiveCoilName": "Head_32",
  "ReconMatrixPE": 82,
  "RepetitionTime": 0.46,
  "SAR": 0.084214,
  "ScanOptions": "FS",
  "ScanningSequence": "EP",
  "SequenceName": "epfid2d1_82",
  "SequenceVariant": "SK\\SS",
  "SeriesDescription": "func_run-01_task-social_acq-ap-mb8",
  "SeriesNumber": 8,
  "ShimSetting": [4163, -7697, -7335, 545, -16, -174, 34, 86],
  "SliceThickness": 2.7,
  "SliceTiming": [0, 0.25, 0.0625, 0.3125, 0.125, 0.3775, 0.1875, 0, 0.25, 0.0625, 0.3125, 0.125, 0.3775, 0.1875, 0, 0.25, 0.0625, 0.3125, 0.125, 0.3775, 0.1875, 0, 0.25, 0.0625, 0.3125, 0.125, 0.3775, 0.1875, 0, 0.25, 0.0625, 0.3125, 0.125, 0.3775, 0.1875, 0, 0.25, 0.0625, 0.3125, 0.125, 0.3775, 0.1875, 0, 0.25, 0.0625, 0.3125, 0.125, 0.3775, 0.1875, 0, 0.25, 0.0625, 0.3125, 0.125, 0.3775, 0.1875],
  "SoftwareVersions": "syngo MR E11",
  "SpacingBetweenSlices": 2.7,
  "StationName": "AWP66112",
  "TaskName": "social",
  "TotalReadoutTime": 0.03969,
  "TxRefAmp": 265.751,
  "WipMemBlock": "14aa35ee-2825-4939-831d-889311129c88||Sequence: R016 ve11c/master r/e634e98; Dec 19 2017 11:00:25 by eja",
  "dcmmeta_affine": [
    [-2.6802515983581543, -0.07158919423818588, 0.09665048867464066, 112.81173706054688],
    [-0.08272223174571991, 2.661966323852539, -0.32639333605766296, -78.74846649169922],
    [0.08663485199213028, 0.32696717977523804, 2.6784560680389404, -111.80175018310547],
    [0.0, 0.0, 0.0, 1.0]
],
  "dcmmeta_reorient_transform": [
    [0.0, -1.0, 0.0, 81.0],
    [1.0, 0.0, 0.0, 0.0],
    [0.0, 0.0, 1.0, 0.0],
    [0.0, 0.0, 0.0, 1.0]
],
  "dcmmeta_shape": [82, 82, 56, 872],
  "dcmmeta_slice_dim": 2,
  "dcmmeta_version": 0.6,
  "global": {
    "const": {
      "AccessionNumber": "A003841",
      "AcquisitionMatrix": [82, 0, 0, 82],
      "AngioFlag": "N",
      "BitsAllocated": 16,
      "BitsStored": 16,
      "BodyPartExamined": "BRAIN",
      "Columns": 656,
      "EchoNumbers": 1,
      "EchoTime": 27.2,
      "EchoTrainLength": 82,
      "FlipAngle": 44.0,
      "HighBit": 15,
      "ImageOrientationPatient": [0.99900281119217, 0.03083283230284, 0.03229117034628, -0.0266832441017, 0.99218738629392, -0.1218695817809],
      "ImagePositionPatient": [-855.69909403626, -924.59638537743, -16.342031824724],
      "ImageType": [
        "ORIGINAL",
        "PRIMARY",
        "M",
        "MB",
        "ND",
        "NORM",
        "MOSAIC"
],
      "ImagedNucleus": "1H",
      "ImagingFrequency": 123.252227,
      "InPlanePhaseEncodingDirection": "COL",
      "MRAcquisitionType": "2D",
      "MagneticFieldStrength": 3.0,
      "Manufacturer": "SIEMENS",
      "ManufacturerModelName": "Prisma",
      "Modality": "MR",
      "NumberOfAverages": 1.0,
      "NumberOfPhaseEncodingSteps": 82,
      "PercentPhaseFieldOfView": 100.0,
      "PercentSampling": 100.0,
      "PerformedProcedureStepStartTime": "085253.866000",
      "PhotometricInterpretation": "MONOCHROME2",
      "PixelBandwidth": 3050.0,
      "PixelRepresentation": 0,
      "PixelSpacing": [2.6829268932343, 2.6829268932343],
      "ProtocolName": "func_run-01_task-social_acq-ap-mb8",
      "RepetitionTime": 460.0,
      "Rows": 656,
      "SAR": 0.08421397360587,
      "SamplesPerPixel": 1,
      "ScanOptions": "FS",
      "ScanningSequence": "EP",
      "SequenceName": "epfid2d1_82",
      "SequenceVariant": [
        "SK",
        "SS"
],
      "SeriesDescription": "func_run-01_task-social_acq-ap-mb8",
      "SeriesNumber": 8,
      "SeriesTime": "091555.708000",
      "SliceLocation": -97.351770125509,
      "SliceThickness": 2.7000000476837,
      "SmallestImagePixelValue": 0,
      "SoftwareVersions": "syngo MR E11",
      "SpacingBetweenSlices": 2.7000000642971,
      "SpecificCharacterSet": "ISO_IR 100",
      "StudyID": "2",
      "StudyTime": "085253.773000",
      "TransmitCoilName": "Body",
      "VariableFlipAngleFlag": "N",
      "WindowCenterWidthExplanation": "Algo1",
      "dBdt": 0.0},
    "slices": {}
  },
  "time": {
    "samples": {
      "AcquisitionNumber": [1, 2, 3, 4, 5, 6, 7, 8, 9, 10, 11, 12, 13, 14, 15, 16, 17, 18, 19, 20, 21, 22, 23, 24, 25, 26, 27, 28, 29, 30, 31, 32, 33, 34, 35, 36, 37, 38, 39, 40, 41, 42, 43, 44, 45, 46, 47, 48, 49, 50, 51, 52, 53, 54, 55, 56, 57, 58, 59, 60, 61, 62, 63, 64, 65, 66, 67, 68, 69, 70, 71, 72, 73, 74, 75, 76, 77, 78, 79, 80, 81, 82, 83, 84, 85, 86, 87, 88, 89, 90, 91, 92, 93, 94, 95, 96, 97, 98, 99, 100, 101, 102, 103, 104, 105, 106, 107, 108, 109, 110, 111, 112, 113, 114, 115, 116, 117, 118, 119, 120, 121, 122, 123, 124, 125, 126, 127, 128, 129, 130, 131, 132, 133, 134, 135, 136, 137, 138, 139, 140, 141, 142, 143, 144, 145, 146, 147, 148, 149, 150, 151, 152, 153, 154, 155, 156, 157, 158, 159, 160, 161, 162, 163, 164, 165, 166, 167, 168, 169, 170, 171, 172, 173, 174, 175, 176, 177, 178, 179, 180, 181, 182, 183, 184, 185, 186, 187, 188, 189, 190, 191, 192, 193, 194, 195, 196, 197, 198, 199, 200, 201, 202, 203, 204, 205, 206, 207, 208, 209, 210, 211, 212, 213, 214, 215, 216, 217, 218, 219, 220, 221, 222, 223, 224, 225, 226, 227, 228, 229, 230, 231, 232, 233, 234, 235, 236, 237, 238, 239, 240, 241, 242, 243, 244, 245, 246, 247, 248, 249, 250, 251, 252, 253, 254, 255, 256, 257, 258, 259, 260, 261, 262, 263, 264, 265, 266, 267, 268, 269, 270, 271, 272, 273, 274, 275, 276, 277, 278, 279, 280, 281, 282, 283, 284, 285, 286, 287, 288, 289, 290, 291, 292, 293, 294, 295, 296, 297, 298, 299, 300, 301, 302, 303, 304, 305, 306, 307, 308, 309, 310, 311, 312, 313, 314, 315, 316, 317, 318, 319, 320, 321, 322, 323, 324, 325, 326, 327, 328, 329, 330, 331, 332, 333, 334, 335, 336, 337, 338, 339, 340, 341, 342, 343, 344, 345, 346, 347, 348, 349, 350, 351, 352, 353, 354, 355, 356, 357, 358, 359, 360, 361, 362, 363, 364, 365, 366, 367, 368, 369, 370, 371, 372, 373, 374, 375, 376, 377, 378, 379, 380, 381, 382, 383, 384, 385, 386, 387, 388, 389, 390, 391, 392, 393, 394, 395, 396, 397, 398, 399, 400, 401, 402, 403, 404, 405, 406, 407, 408, 409, 410, 411, 412, 413, 414, 415, 416, 417, 418, 419, 420, 421, 422, 423, 424, 425, 426, 427, 428, 429, 430, 431, 432, 433, 434, 435, 436, 437, 438, 439, 440, 441, 442, 443, 444, 445, 446, 447, 448, 449, 450, 451, 452, 453, 454, 455, 456, 457, 458, 459, 460, 461, 462, 463, 464, 465, 466, 467, 468, 469, 470, 471, 472, 473, 474, 475, 476, 477, 478, 479, 480, 481, 482, 483, 484, 485, 486, 487, 488, 489, 490, 491, 492, 493, 494, 495, 496, 497, 498, 499, 500, 501, 502, 503, 504, 505, 506, 507, 508, 509, 510, 511, 512, 513, 514, 515, 516, 517, 518, 519, 520, 521, 522, 523, 524, 525, 526, 527, 528, 529, 530, 531, 532, 533, 534, 535, 536, 537, 538, 539, 540, 541, 542, 543, 544, 545, 546, 547, 548, 549, 550, 551, 552, 553, 554, 555, 556, 557, 558, 559, 560, 561, 562, 563, 564, 565, 566, 567, 568, 569, 570, 571, 572, 573, 574, 575, 576, 577, 578, 579, 580, 581, 582, 583, 584, 585, 586, 587, 588, 589, 590, 591, 592, 593, 594, 595, 596, 597, 598, 599, 600, 601, 602, 603, 604, 605, 606, 607, 608, 609, 610, 611, 612, 613, 614, 615, 616, 617, 618, 619, 620, 621, 622, 623, 624, 625, 626, 627, 628, 629, 630, 631, 632, 633, 634, 635, 636, 637, 638, 639, 640, 641, 642, 643, 644, 645, 646, 647, 648, 649, 650, 651, 652, 653, 654, 655, 656, 657, 658, 659, 660, 661, 662, 663, 664, 665, 666, 667, 668, 669, 670, 671, 672, 673, 674, 675, 676, 677, 678, 679, 680, 681, 682, 683, 684, 685, 686, 687, 688, 689, 690, 691, 692, 693, 694, 695, 696, 697, 698, 699, 700, 701, 702, 703, 704, 705, 706, 707, 708, 709, 710, 711, 712, 713, 714, 715, 716, 717, 718, 719, 720, 721, 722, 723, 724, 725, 726, 727, 728, 729, 730, 731, 732, 733, 734, 735, 736, 737, 738, 739, 740, 741, 742, 743, 744, 745, 746, 747, 748, 749, 750, 751, 752, 753, 754, 755, 756, 757, 758, 759, 760, 761, 762, 763, 764, 765, 766, 767, 768, 769, 770, 771, 772, 773, 774, 775, 776, 777, 778, 779, 780, 781, 782, 783, 784, 785, 786, 787, 788, 789, 790, 791, 792, 793, 794, 795, 796, 797, 798, 799, 800, 801, 802, 803, 804, 805, 806, 807, 808, 809, 810, 811, 812, 813, 814, 815, 816, 817, 818, 819, 820, 821, 822, 823, 824, 825, 826, 827, 828, 829, 830, 831, 832, 833, 834, 835, 836, 837, 838, 839, 840, 841, 842, 843, 844, 845, 846, 847, 848, 849, 850, 851, 852, 853, 854, 855, 856, 857, 858, 859, 860, 861, 862, 863, 864, 865, 866, 867, 868, 869, 870, 871, 872],
      "AcquisitionTime": ["091533.977500", "091534.437500", "091534.897500", "091535.357500", "091535.817500", "091536.277500", "091536.737500", "091537.197500", "091537.657500", "091538.117500", "091538.577500", "091539.037500", "091539.497500", "091539.957500", "091540.417500", "091540.877500", "091541.337500", "091541.797500", "091542.257500", "091542.717500", "091543.177500", "091543.637500", "091544.097500", "091544.557500", "091545.017500", "091545.477500", "091545.937500", "091546.397500", "091546.857500", "091547.317500", "091547.777500", "091548.237500", "091548.697500", "091549.157500", "091549.617500", "091550.077500", "091550.537500", "091550.997500", "091551.457500", "091551.917500", "091552.377500", "091552.837500", "091553.297500", "091553.757500", "091554.217500", "091554.677500", "091555.137500", "091555.597500", "091556.057500", "091556.517500", "091556.977500", "091557.437500", "091557.897500", "091558.357500", "091558.817500", "091559.277500", "091559.737500", "091600.197500", "091600.657500", "091601.117500", "091601.577500", "091602.037500", "091602.497500", "091602.957500", "091603.417500", "091603.877500", "091604.337500", "091604.797500", "091605.257500", "091605.717500", "091606.177500", "091606.637500", "091607.097500", "091607.557500", "091608.017500", "091608.477500", "091608.937500", "091609.397500", "091609.857500", "091610.317500", "091610.777500", "091611.237500", "091611.697500", "091612.157500", "091612.617500", "091613.077500", "091613.537500", "091613.997500", "091614.457500", "091614.917500", "091615.377500", "091615.837500", "091616.297500", "091616.757500", "091617.217500", "091617.677500", "091618.137500", "091618.597500", "091619.057500", "091619.517500", "091619.977500", "091620.437500", "091620.897500", "091621.357500", "091621.817500", "091622.277500", "091622.737500", "091623.197500", "091623.657500", "091624.117500", "091624.577500", "091625.037500", "091625.497500", "091625.957500", "091626.417500", "091626.877500", "091627.337500", "091627.797500", "091628.257500", "091628.717500", "091629.177500", "091629.637500", "091630.097500", "091630.557500", "091631.017500", "091631.477500", "091631.937500", "091632.397500", "091632.857500", "091633.317500", "091633.777500", "091634.237500", "091634.697500", "091635.157500", "091635.617500", "091636.077500", "091636.537500", "091636.997500", "091637.457500", "091637.917500", "091638.377500", "091638.837500", "091639.297500", "091639.757500", "091640.217500", "091640.677500", "091641.137500", "091641.597500", "091642.057500", "091642.517500", "091642.977500", "091643.437500", "091643.897500", "091644.357500", "091644.817500", "091645.277500", "091645.737500", "091646.197500", "091646.657500", "091647.117500", "091647.577500", "091648.037500", "091648.497500", "091648.957500", "091649.417500", "091649.877500", "091650.337500", "091650.797500", "091651.257500", "091651.717500", "091652.177500", "091652.637500", "091653.097500", "091653.557500", "091654.017500", "091654.477500", "091654.937500", "091655.397500", "091655.857500", "091656.317500", "091656.777500", "091657.237500", "091657.697500", "091658.157500", "091658.617500", "091659.077500", "091659.537500", "091659.997500", "091700.457500", "091700.917500", "091701.377500", "091701.837500", "091702.297500", "091702.757500", "091703.217500", "091703.677500", "091704.137500", "091704.597500", "091705.057500", "091705.517500", "091705.977500", "091706.437500", "091706.897500", "091707.357500", "091707.817500", "091708.277500", "091708.737500", "091709.197500", "091709.657500", "091710.117500", "091710.577500", "091711.037500", "091711.497500", "091711.957500", "091712.417500", "091712.877500", "091713.337500", "091713.797500", "091714.257500", "091714.717500", "091715.177500", "091715.637500", "091716.097500", "091716.557500", "091717.017500", "091717.477500", "091717.937500", "091718.397500", "091718.857500", "091719.317500", "091719.777500", "091720.237500", "091720.697500", "091721.157500", "091721.617500", "091722.077500", "091722.537500", "091722.997500", "091723.457500", "091723.917500", "091724.377500", "091724.837500", "091725.297500", "091725.757500", "091726.217500", "091726.677500", "091727.137500", "091727.597500", "091728.057500", "091728.517500", "091728.977500", "091729.437500", "091729.897500", "091730.357500", "091730.817500", "091731.277500", "091731.737500", "091732.197500", "091732.657500", "091733.117500", "091733.577500", "091734.037500", "091734.497500", "091734.957500", "091735.417500", "091735.877500", "091736.337500", "091736.797500", "091737.257500", "091737.717500", "091738.177500", "091738.637500", "091739.097500", "091739.557500", "091740.017500", "091740.477500", "091740.937500", "091741.397500", "091741.857500", "091742.317500", "091742.777500", "091743.237500", "091743.697500", "091744.157500", "091744.617500", "091745.077500", "091745.537500", "091745.997500", "091746.457500", "091746.917500", "091747.377500", "091747.837500", "091748.297500", "091748.757500", "091749.217500", "091749.677500", "091750.137500", "091750.597500", "091751.057500", "091751.517500", "091751.977500", "091752.437500", "091752.897500", "091753.357500", "091753.817500", "091754.277500", "091754.737500", "091755.197500", "091755.657500", "091756.117500", "091756.577500", "091757.037500", "091757.497500", "091757.957500", "091758.417500", "091758.877500", "091759.337500", "091759.797500", "091800.257500", "091800.717500", "091801.177500", "091801.637500", "091802.097500", "091802.557500", "091803.017500", "091803.477500", "091803.937500", "091804.397500", "091804.857500", "091805.317500", "091805.777500", "091806.237500", "091806.697500", "091807.157500", "091807.617500", "091808.077500", "091808.537500", "091808.997500", "091809.457500", "091809.917500", "091810.377500", "091810.837500", "091811.297500", "091811.757500", "091812.217500", "091812.677500", "091813.137500", "091813.597500", "091814.057500", "091814.517500", "091814.977500", "091815.437500", "091815.897500", "091816.357500", "091816.817500", "091817.277500", "091817.737500", "091818.197500", "091818.657500", "091819.117500", "091819.577500", "091820.037500", "091820.497500", "091820.957500", "091821.417500", "091821.877500", "091822.337500", "091822.797500", "091823.257500", "091823.717500", "091824.177500", "091824.637500", "091825.097500", "091825.557500", "091826.017500", "091826.477500", "091826.937500", "091827.397500", "091827.857500", "091828.317500", "091828.777500", "091829.237500", "091829.697500", "091830.157500", "091830.617500", "091831.077500", "091831.537500", "091831.997500", "091832.457500", "091832.917500", "091833.377500", "091833.837500", "091834.297500", "091834.757500", "091835.217500", "091835.677500", "091836.137500", "091836.597500", "091837.057500", "091837.517500", "091837.977500", "091838.437500", "091838.897500", "091839.357500", "091839.817500", "091840.277500", "091840.737500", "091841.197500", "091841.657500", "091842.117500", "091842.577500", "091843.037500", "091843.497500", "091843.957500", "091844.417500", "091844.877500", "091845.337500", "091845.797500", "091846.257500", "091846.717500", "091847.177500", "091847.637500", "091848.097500", "091848.557500", "091849.017500", "091849.477500", "091849.937500", "091850.397500", "091850.857500", "091851.317500", "091851.777500", "091852.237500", "091852.697500", "091853.157500", "091853.617500", "091854.077500", "091854.537500", "091854.997500", "091855.457500", "091855.917500", "091856.377500", "091856.837500", "091857.297500", "091857.757500", "091858.217500", "091858.677500", "091859.137500", "091859.597500", "091900.057500", "091900.517500", "091900.977500", "091901.437500", "091901.897500", "091902.357500", "091902.817500", "091903.277500", "091903.737500", "091904.197500", "091904.657500", "091905.117500", "091905.577500", "091906.037500", "091906.497500", "091906.957500", "091907.417500", "091907.877500", "091908.337500", "091908.797500", "091909.257500", "091909.717500", "091910.177500", "091910.637500", "091911.097500", "091911.557500", "091912.017500", "091912.477500", "091912.937500", "091913.397500", "091913.857500", "091914.317500", "091914.777500", "091915.237500", "091915.697500", "091916.157500", "091916.617500", "091917.077500", "091917.537500", "091917.997500", "091918.457500", "091918.917500", "091919.377500", "091919.837500", "091920.297500", "091920.757500", "091921.217500", "091921.677500", "091922.137500", "091922.597500", "091923.057500", "091923.517500", "091923.977500", "091924.437500", "091924.897500", "091925.357500", "091925.817500", "091926.277500", "091926.737500", "091927.197500", "091927.657500", "091928.117500", "091928.577500", "091929.037500", "091929.497500", "091929.957500", "091930.417500", "091930.877500", "091931.337500", "091931.797500", "091932.257500", "091932.717500", "091933.177500", "091933.637500", "091934.097500", "091934.557500", "091935.017500", "091935.477500", "091935.937500", "091936.397500", "091936.857500", "091937.317500", "091937.777500", "091938.237500", "091938.697500", "091939.157500", "091939.617500", "091940.077500", "091940.537500", "091940.997500", "091941.457500", "091941.917500", "091942.377500", "091942.837500", "091943.297500", "091943.757500", "091944.217500", "091944.677500", "091945.137500", "091945.597500", "091946.057500", "091946.517500", "091946.977500", "091947.437500", "091947.897500", "091948.357500", "091948.817500", "091949.277500", "091949.737500", "091950.197500", "091950.657500", "091951.117500", "091951.577500", "091952.037500", "091952.497500", "091952.957500", "091953.417500", "091953.877500", "091954.337500", "091954.797500", "091955.257500", "091955.717500", "091956.177500", "091956.637500", "091957.097500", "091957.557500", "091958.017500", "091958.477500", "091958.937500", "091959.397500", "091959.857500", "092000.317500", "092000.777500", "092001.237500", "092001.697500", "092002.157500", "092002.617500", "092003.077500", "092003.537500", "092003.997500", "092004.457500", "092004.917500", "092005.377500", "092005.837500", "092006.297500", "092006.757500", "092007.217500", "092007.677500", "092008.137500", "092008.597500", "092009.057500", "092009.517500", "092009.977500", "092010.437500", "092010.897500", "092011.357500", "092011.817500", "092012.277500", "092012.737500", "092013.197500", "092013.657500", "092014.117500", "092014.577500", "092015.037500", "092015.497500", "092015.957500", "092016.417500", "092016.877500", "092017.337500", "092017.797500", "092018.257500", "092018.717500", "092019.177500", "092019.637500", "092020.097500", "092020.557500", "092021.017500", "092021.477500", "092021.937500", "092022.397500", "092022.857500", "092023.317500", "092023.777500", "092024.237500", "092024.697500", "092025.157500", "092025.617500", "092026.077500", "092026.537500", "092026.997500", "092027.457500", "092027.917500", "092028.377500", "092028.837500", "092029.297500", "092029.757500", "092030.217500", "092030.677500", "092031.137500", "092031.597500", "092032.057500", "092032.517500", "092032.977500", "092033.437500", "092033.897500", "092034.357500", "092034.817500", "092035.277500", "092035.737500", "092036.197500", "092036.657500", "092037.117500", "092037.577500", "092038.037500", "092038.497500", "092038.957500", "092039.417500", "092039.877500", "092040.337500", "092040.797500", "092041.257500", "092041.717500", "092042.177500", "092042.637500", "092043.097500", "092043.557500", "092044.017500", "092044.477500", "092044.937500", "092045.397500", "092045.857500", "092046.317500", "092046.777500", "092047.237500", "092047.697500", "092048.157500", "092048.617500", "092049.077500", "092049.537500", "092049.997500", "092050.457500", "092050.917500", "092051.377500", "092051.837500", "092052.297500", "092052.757500", "092053.217500", "092053.677500", "092054.137500", "092054.597500", "092055.057500", "092055.517500", "092055.977500", "092056.437500", "092056.897500", "092057.357500", "092057.817500", "092058.277500", "092058.737500", "092059.197500", "092059.657500", "092100.117500", "092100.577500", "092101.037500", "092101.497500", "092101.957500", "092102.417500", "092102.877500", "092103.337500", "092103.797500", "092104.257500", "092104.717500", "092105.177500", "092105.637500", "092106.097500", "092106.557500", "092107.017500", "092107.477500", "092107.937500", "092108.397500", "092108.857500", "092109.317500", "092109.777500", "092110.237500", "092110.697500", "092111.157500", "092111.617500", "092112.077500", "092112.537500", "092112.997500", "092113.457500", "092113.917500", "092114.377500", "092114.837500", "092115.297500", "092115.757500", "092116.217500", "092116.677500", "092117.137500", "092117.597500", "092118.057500", "092118.517500", "092118.977500", "092119.437500", "092119.897500", "092120.357500", "092120.817500", "092121.277500", "092121.737500", "092122.197500", "092122.657500", "092123.117500", "092123.577500", "092124.037500", "092124.497500", "092124.957500", "092125.417500", "092125.877500", "092126.337500", "092126.797500", "092127.257500", "092127.717500", "092128.177500", "092128.637500", "092129.097500", "092129.557500", "092130.017500", "092130.477500", "092130.937500", "092131.397500", "092131.857500", "092132.317500", "092132.777500", "092133.237500", "092133.697500", "092134.157500", "092134.617500", "092135.077500", "092135.537500", "092135.997500", "092136.457500", "092136.917500", "092137.377500", "092137.837500", "092138.297500", "092138.757500", "092139.217500", "092139.677500", "092140.137500", "092140.597500", "092141.057500", "092141.517500", "092141.977500", "092142.437500", "092142.897500", "092143.357500", "092143.817500", "092144.277500", "092144.737500", "092145.197500", "092145.657500", "092146.117500", "092146.577500", "092147.037500", "092147.497500", "092147.957500", "092148.417500", "092148.877500", "092149.337500", "092149.797500", "092150.257500", "092150.717500", "092151.177500", "092151.637500", "092152.097500", "092152.557500", "092153.017500", "092153.477500", "092153.937500", "092154.397500", "092154.857500", "092155.317500", "092155.777500", "092156.237500", "092156.697500", "092157.157500", "092157.617500", "092158.077500", "092158.537500", "092158.997500", "092159.457500", "092159.917500", "092200.377500", "092200.837500", "092201.297500", "092201.757500", "092202.217500", "092202.677500", "092203.137500", "092203.597500", "092204.057500", "092204.517500", "092204.977500", "092205.437500", "092205.897500", "092206.357500", "092206.817500", "092207.277500", "092207.737500", "092208.197500", "092208.657500", "092209.117500", "092209.577500", "092210.037500", "092210.497500", "092210.957500", "092211.417500", "092211.877500", "092212.337500", "092212.797500", "092213.257500", "092213.717500", "092214.177500", "092214.637500"],
