{
  "AcquisitionMatrixPE": 140,
  "AcquisitionNumber": 1,
  "AcquisitionTime": "14:38:13.052500",
  "BandwidthPerPixelPhaseEncode": 10.352,
  "BaseResolution": 140,
  "BodyPartExamined": "BRAIN",
  "ConsistencyInfo": "N4_VE11E_LATEST_20181129",
  "ConversionSoftware": "dcm2niix",
  "ConversionSoftwareVersion": "v1.0.20201102",
  "DerivedVendorReportedEchoSpacing": 0.000689998,
  "DeviceSerialNumber": "66112",
  "DiffusionScheme": "Monopolar",
  "DwellTime": 2.1e-06,
  "EchoTime": 0.0884,
  "EchoTrainLength": 105,
  "EffectiveEchoSpacing": 0.000689998,
  "FlipAngle": 90,
  "ImageComments": "Unaliased MB3/PE3 SENSE1",
  "ImageOrientationPatientDICOM": [0.992656, 0.0400876, -0.114132, -0.0261671, 0.992313, 0.120952],
  "ImageType": [
    "ORIGINAL",
    "PRIMARY",
    "DIFFUSION",
    "NONE",
    "MB",
    "ND",
    "MOSAIC"
],
  "ImagingFrequency": 123.252,
  "InPlanePhaseEncodingDirectionDICOM": "COL",
  "InstitutionAddress": "Maynard 3,Hanover,NH,US,03755",
  "InstitutionName": "Dartmouth College - PBS",
  "InstitutionalDepartmentName": "Department",
  "MRAcquisitionType": "2D",
  "MagneticFieldStrength": 3,
  "Manufacturer": "Siemens",
  "ManufacturersModelName": "Prisma",
  "Modality": "MR",
  "MultibandAccelerationFactor": 3,
  "PartialFourier": 0.75,
  "PatientPosition": "HFS",
  "PercentPhaseFOV": 100,
  "PercentSampling": 100,
  "PhaseEncodingDirection": "j-",
  "PhaseEncodingSteps": 105,
  "PhaseResolution": 1,
  "PixelBandwidth": 1700,
  "ProcedureStepDescription": "Wager_Wager^1076_spacetop",
  "ProtocolName": "dwi_acq-96dir-6b0-mb",
  "PulseSequenceDetails": "%CustomerSeq%\\cmrr_mbep2d_diff",
  "ReceiveCoilActiveElements": "HEA;HEP",
  "ReceiveCoilName": "Head_32",
  "ReconMatrixPE": 140,
  "RepetitionTime": 4.11,
  "SAR": 0.232363,
  "ScanOptions": "PFP\\FS",
  "ScanningSequence": "EP",
  "SequenceName": "ep_b5#1",
  "SequenceVariant": "SK\\SS",
  "SeriesDescription": "dwi_acq-96dir-6b0-mb",
  "SeriesNumber": 8,
  "ShimSetting": [4116, -7709, -7308, 530, -37, -43, -110, 101],
  "SliceThickness": 1.7,
  "SliceTiming": [0, 2.1225, 0.1525, 2.2725, 0.3025, 2.425, 0.455, 2.575, 0.6075, 2.7275, 0.7575, 2.88, 0.91, 3.03, 1.06, 3.1825, 1.2125, 3.3325, 1.365, 3.485, 1.515, 3.6375, 1.6675, 3.7875, 1.8175, 3.94, 1.97, 0, 2.1225, 0.1525, 2.2725, 0.3025, 2.425, 0.455, 2.575, 0.6075, 2.7275, 0.7575, 2.88, 0.91, 3.03, 1.06, 3.1825, 1.2125, 3.3325, 1.365, 3.485, 1.515, 3.6375, 1.6675, 3.7875, 1.8175, 3.94, 1.97, 0, 2.1225, 0.1525, 2.2725, 0.3025, 2.425, 0.455, 2.575, 0.6075, 2.7275, 0.7575, 2.88, 0.91, 3.03, 1.06, 3.1825, 1.2125, 3.3325, 1.365, 3.485, 1.515, 3.6375, 1.6675, 3.7875, 1.8175, 3.94, 1.97],
  "SoftwareVersions": "syngo MR E11",
  "SpacingBetweenSlices": 1.7,
  "StationName": "AWP66112",
  "TotalReadoutTime": 0.0959097,
  "TxRefAmp": 256.632,
  "WipMemBlock": "f6e84910-66c4-411c-895a-9d2f60694398||Sequence: R016 ve11e/master r/434b28f1; Aug  7 2019 19:06:17 by eja",
  "dcmmeta_affine": [
    [-1.701696753501892, -0.044857803732156754, -0.20077654719352722, 133.34112548828125],
    [-0.06872159242630005, 1.701108694076538, 0.19903159141540527, -106.69292449951172],
    [-0.19565565884113312, -0.20734652876853943, 1.6763279438018799, -58.669090270996094],
    [0.0, 0.0, 0.0, 1.0]
],
  "dcmmeta_reorient_transform": [
    [0.0, -1.0, 0.0, 139.0],
    [1.0, 0.0, 0.0, 0.0],
    [0.0, 0.0, 1.0, 0.0],
    [0.0, 0.0, 0.0, 1.0]
],
  "dcmmeta_shape": [140, 140, 81, 103],
  "dcmmeta_slice_dim": 2,
  "dcmmeta_version": 0.6,
  "global": {
    "const": {
      "AccessionNumber": "A003891",
      "AcquisitionMatrix": [140, 0, 0, 140],
      "AngioFlag": "N",
      "BitsAllocated": 16,
      "BitsStored": 16,
      "BodyPartExamined": "BRAIN",
      "Columns": 1260,
      "EchoNumbers": 1,
      "EchoTime": 88.4,
      "EchoTrainLength": 105,
      "FlipAngle": 90.0,
      "HighBit": 15,
      "ImageOrientationPatient": [0.99265641844286, 0.04008759584621, -0.1141324650722, -0.0261670521087, 0.99231339058927, 0.1209521402918],
      "ImagePositionPatient": [-1054.9356918045, -1120.8661366532, -94.037147198508],
      "ImageType": [
        "ORIGINAL",
        "PRIMARY",
        "DIFFUSION",
        "NONE",
        "MB",
        "ND",
        "MOSAIC"
],
      "ImagedNucleus": "1H",
      "ImagingFrequency": 123.252229,
      "InPlanePhaseEncodingDirection": "COL",
      "MRAcquisitionType": "2D",
      "MagneticFieldStrength": 3.0,
      "Manufacturer": "SIEMENS",
      "ManufacturerModelName": "Prisma",
      "Modality": "MR",
      "NumberOfAverages": 1.0,
      "NumberOfPhaseEncodingSteps": 105,
      "PercentPhaseFieldOfView": 100.0,
      "PercentSampling": 100.0,
      "PerformedProcedureStepStartTime": "141327.636000",
      "PhotometricInterpretation": "MONOCHROME2",
      "PixelBandwidth": 1700.0,
      "PixelRepresentation": 0,
      "PixelSpacing": [1.7142857313156, 1.7142857313156],
      "ProtocolName": "dwi_acq-96dir-6b0-mb",
      "RepetitionTime": 4110.0,
      "Rows": 1260,
      "SAR": 0.2323625871501,
      "SamplesPerPixel": 1,
      "ScanOptions": [
        "PFP",
        "FS"
],
      "ScanningSequence": "EP",
      "SequenceVariant": [
        "SK",
        "SS"
],
      "SeriesDescription": "dwi_acq-96dir-6b0-mb",
      "SeriesNumber": 8,
      "SeriesTime": "143955.504000",
      "SliceLocation": -86.091570180375,
      "SliceThickness": 1.7000000476837,
      "SmallestImagePixelValue": 0,
      "SoftwareVersions": "syngo MR E11",
      "SpacingBetweenSlices": 1.7000000020004,
      "SpecificCharacterSet": "ISO_IR 100",
      "StudyID": "1",
      "StudyTime": "141327.556000",
      "TransmitCoilName": "Body",
      "VariableFlipAngleFlag": "N",
      "WindowCenterWidthExplanation": "Algo1"
    },
    "slices": {}
  },
  "time": {
    "samples": {
      "AcquisitionNumber": [1, 2, 3, 4, 5, 6, 7, 8, 9, 10, 11, 12, 13, 14, 15, 16, 17, 18, 19, 20, 21, 22, 23, 24, 25, 26, 27, 28, 29, 30, 31, 32, 33, 34, 35, 36, 37, 38, 39, 40, 41, 42, 43, 44, 45, 46, 47, 48, 49, 50, 51, 52, 53, 54, 55, 56, 57, 58, 59, 60, 61, 62, 63, 64, 65, 66, 67, 68, 69, 70, 71, 72, 73, 74, 75, 76, 77, 78, 79, 80, 81, 82, 83, 84, 85, 86, 87, 88, 89, 90, 91, 92, 93, 94, 95, 96, 97, 98, 99, 100, 101, 102, 103],
      "AcquisitionTime": ["143813.052500", "143817.162500", "143821.272500", "143825.382500", "143829.492500", "143833.602500", "143837.712500", "143841.822500", "143845.932500", "143850.042500", "143854.152500", "143858.262500", "143902.372500", "143906.482500", "143910.592500", "143914.702500", "143918.812500", "143922.922500", "143927.032500", "143931.142500", "143935.252500", "143939.362500", "143943.472500", "143947.582500", "143951.692500", "143955.802500", "143959.912500", "144004.022500", "144008.132500", "144012.242500", "144016.352500", "144020.462500", "144024.572500", "144028.682500", "144032.792500", "144036.902500", "144041.012500", "144045.122500", "144049.232500", "144053.342500", "144057.452500", "144101.562500", "144105.672500", "144109.782500", "144113.892500", "144118.002500", "144122.112500", "144126.222500", "144130.332500", "144134.442500", "144138.552500", "144142.662500", "144146.772500", "144150.882500", "144154.992500", "144159.102500", "144203.212500", "144207.322500", "144211.432500", "144215.542500", "144219.652500", "144223.762500", "144227.872500", "144231.982500", "144236.092500", "144240.202500", "144244.312500", "144248.422500", "144252.532500", "144256.642500", "144300.752500", "144304.862500", "144308.972500", "144313.082500", "144317.192500", "144321.302500", "144325.412500", "144329.522500", "144333.632500", "144337.742500", "144341.852500", "144345.962500", "144350.072500", "144354.182500", "144358.292500", "144402.402500", "144406.512500", "144410.622500", "144414.732500", "144418.842500", "144422.952500", "144427.062500", "144431.172500", "144435.282500", "144439.392500", "144443.502500", "144447.612500", "144451.722500", "144455.832500", "144459.942500", "144504.052500", "144508.162500", "144512.272500"],
      "ContentTime": ["143955.508000", "143955.511000", "143955.514000", "143955.517000", "143955.520000", "143955.531000", "143955.534000", "143955.537000", "143955.540000", "143955.543000", "143955.548000", "143955.551000", "143955.554000", "143955.557000", "143955.560000", "143955.563000", "143955.566000", "143955.569000", "143955.572000", "143955.575000", "143955.585000", "143955.588000", "143955.591000", "143955.594000", "144115.503000", "144115.506000", "144115.509000", "144115.512000", "144115.515000", "144115.518000", "144115.521000", "144115.524000", "144115.527000", "144115.530000", "144115.533000", "144115.536000", "144115.539000", "144115.542000", "144115.545000", "144115.548000", "144115.551000", "144115.554000", "144115.557000", "144115.560000", "144255.503000", "144255.507000", "144255.510000", "144255.513000", "144255.516000", "144255.519000", "144255.522000", "144255.524000", "144255.527000", "144255.530000", "144255.533000", "144255.536000", "144255.539000", "144255.542000", "144255.545000", "144255.548000", "144255.551000", "144255.554000", "144255.557000", "144255.560000", "144255.563000", "144255.566000", "144255.569000", "144255.572000", "144435.503000", "144435.507000", "144435.510000", "144435.513000", "144435.516000", "144435.519000", "144435.522000", "144435.525000", "144435.528000", "144435.531000", "144435.534000", "144435.537000", "144435.540000", "144435.542000", "144435.545000", "144435.548000", "144435.551000", "144435.554000", "144435.557000", "144435.561000", "144435.564000", "144435.567000", "144435.570000", "144435.573000", "144517.435000", "144517.439000", "144517.442000", "144517.445000", "144517.448000", "144517.451000", "144517.454000", "144517.457000", "144517.460000", "144517.463000", "144517.466000"],
      "InstanceCreationTime": ["143955.508000", "143955.511000", "143955.514000", "143955.517000", "143955.520000", "143955.531000", "143955.534000", "143955.537000", "143955.540000", "143955.543000", "143955.548000", "143955.551000", "143955.554000", "143955.557000", "143955.560000", "143955.563000", "143955.566000", "143955.569000", "143955.572000", "143955.575000", "143955.585000", "143955.588000", "143955.591000", "143955.594000", "144115.503000", "144115.506000", "144115.509000", "144115.512000", "144115.515000", "144115.518000", "144115.521000", "144115.524000", "144115.527000", "144115.530000", "144115.533000", "144115.536000", "144115.539000", "144115.542000", "144115.545000", "144115.548000", "144115.551000", "144115.554000", "144115.557000", "144115.560000", "144255.503000", "144255.507000", "144255.510000", "144255.513000", "144255.516000", "144255.519000", "144255.522000", "144255.524000", "144255.527000", "144255.530000", "144255.533000", "144255.536000", "144255.539000", "144255.542000", "144255.545000", "144255.548000", "144255.551000", "144255.554000", "144255.557000", "144255.560000", "144255.563000", "144255.566000", "144255.569000", "144255.572000", "144435.503000", "144435.507000", "144435.510000", "144435.513000", "144435.516000", "144435.519000", "144435.522000", "144435.525000", "144435.528000", "144435.531000", "144435.534000", "144435.537000", "144435.540000", "144435.542000", "144435.545000", "144435.548000", "144435.551000", "144435.554000", "144435.557000", "144435.561000", "144435.564000", "144435.567000", "144435.570000", "144435.573000", "144517.435000", "144517.439000", "144517.442000", "144517.445000", "144517.448000", "144517.451000", "144517.454000", "144517.457000", "144517.460000", "144517.463000", "144517.466000"],
      "InstanceNumber": [1, 2, 3, 4, 5, 6, 7, 8, 9, 10, 11, 12, 13, 14, 15, 16, 17, 18, 19, 20, 21, 22, 23, 24, 25, 26, 27, 28, 29, 30, 31, 32, 33, 34, 35, 36, 37, 38, 39, 40, 41, 42, 43, 44, 45, 46, 47, 48, 49, 50, 51, 52, 53, 54, 55, 56, 57, 58, 59, 60, 61, 62, 63, 64, 65, 66, 67, 68, 69, 70, 71, 72, 73, 74, 75, 76, 77, 78, 79, 80, 81, 82, 83, 84, 85, 86, 87, 88, 89, 90, 91, 92, 93, 94, 95, 96, 97, 98, 99, 100, 101, 102, 103],
      "LargestImagePixelValue": [65535, 65535, 59221, 61742, 59108, 62012, 60447, 60630, 65535, 41445, 41928, 40651, 42989, 45115, 42408, 41265, 41592, 44927, 40166, 38256, 40215, 42560, 42378, 40062, 65535, 20769, 21712, 23986, 20709, 22530, 23507, 19761, 24644, 19775, 20996, 22525, 22962, 22061, 21153, 22846, 65535, 13189, 13905, 13877, 13988, 11466, 10976, 14235, 14351, 13046, 14264, 13730, 11537, 13074, 12285, 11167, 13854, 12865, 12733, 13637, 10365, 13126, 11912, 10094, 11177, 12576, 12531, 11031, 12830, 12324, 12029, 10833, 13750, 65535, 13458, 11469, 13029, 10545, 14201, 11418, 11431, 14778, 11473, 11569, 11764, 12560, 14103, 14185, 13248, 14351, 11624, 13502, 12270, 11278, 13452, 14444, 11176, 10841, 12976, 12031, 13235, 10877, 65535],
      "SequenceName": [
 "ep_b5#1",
 "ep_b5#1",
 "ep_b500#2",
 "ep_b500#3",
 "ep_b500#4",
 "ep_b505#5",
 "ep_b495#6",
 "ep_b500#7",
 "ep_b5#8",
 "ep_b1000#9",
 "ep_b1005#10",
 "ep_b995#11",
 "ep_b1005#12",
 "ep_b995#13",
 "ep_b995#14",
 "ep_b1005#15",
 "ep_b1000#16",
 "ep_b1005#17",
 "ep_b995#18",
 "ep_b1000#19",
 "ep_b995#20",
 "ep_b1000#21",
 "ep_b1005#22",
 "ep_b1005#23",
 "ep_b5#24",
 "ep_b2000#25",
 "ep_b1995#26",
 "ep_b1995#27",
 "ep_b1995#28",
 "ep_b2005#29",
 "ep_b2010#30",
 "ep_b2005#31",
 "ep_b2010#32",
 "ep_b2000#33",
 "ep_b1990#34",
 "ep_b1995#35",
 "ep_b2005#36",
 "ep_b2000#37",
 "ep_b2005#38",
 "ep_b2000#39",
 "ep_b5#40",
 "ep_b3000#41",
 "ep_b3005#42",
 "ep_b3010#43",
 "ep_b3010#44",
 "ep_b3000#45",
 "ep_b3000#46",
 "ep_b2990#47",
 "ep_b3005#48",
 "ep_b3000#49",
 "ep_b2990#50",
 "ep_b2990#51",
 "ep_b2995#52",
 "ep_b2995#53",
 "ep_b3010#54",
 "ep_b3000#55",
 "ep_b2995#56",
 "ep_b2995#57",
 "ep_b2990#58",
 "ep_b2990#59",
 "ep_b3000#60",
 "ep_b2990#61",
 "ep_b2990#62",
 "ep_b2995#63",
 "ep_b3005#64",
 "ep_b3010#65",
 "ep_b2995#66",
 "ep_b3005#67",
 "ep_b3005#68",
 "ep_b3005#69",
 "ep_b3005#70",
 "ep_b3005#71",
 "ep_b2990#72",
 "ep_b5#73",
 "ep_b3010#74",
 "ep_b3000#75",
 "ep_b3005#76",
 "ep_b3005#77",
 "ep_b2995#78",
 "ep_b3005#79",
 "ep_b3000#80",
 "ep_b3010#81",
 "ep_b3005#82",
 "ep_b3005#83",
 "ep_b3000#84",
 "ep_b3005#85",
 "ep_b3010#86",
 "ep_b3010#87",
 "ep_b2990#88",
 "ep_b3010#89",
 "ep_b2995#90",
 "ep_b2995#91",
 "ep_b2990#92",
 "ep_b2995#93",
 "ep_b3005#94",
 "ep_b3010#95",
 "ep_b2995#96",
 "ep_b3000#97",
 "ep_b2990#98",
 "ep_b3000#99",
 "ep_b2995#100",
 "ep_b2995#101",
 "ep_b5#102"
],
      "WindowCenter": [10383.0, 10392.0, 7146.0, 7193.0, 7134.0, 7113.0, 7214.0, 7157.0, 10407.0, 5351.0, 5340.0, 5349.0, 5341.0, 5424.0, 5388.0, 5334.0, 5376.0, 5378.0, 5386.0, 5298.0, 5385.0, 5366.0, 5349.0, 5328.0, 10382.0, 3401.0, 3425.0, 3477.0, 3444.0, 3425.0, 3447.0, 3399.0, 3454.0, 3387.0, 3491.0, 3482.0, 3420.0, 3394.0, 3414.0, 3418.0, 10370.0, 2414.0, 2418.0, 2469.0, 2479.0, 2360.0, 2358.0, 2491.0, 2438.0, 2411.0, 2479.0, 2493.0, 2407.0, 2459.0, 2435.0, 2360.0, 2468.0, 2388.0, 2484.0, 2497.0, 2349.0, 2457.0, 2459.0, 2380.0, 2398.0, 2457.0, 2383.0, 2347.0, 2413.0, 2388.0, 2379.0, 2420.0, 2492.0, 10381.0, 2438.0, 2366.0, 2406.0, 2363.0, 2461.0, 2358.0, 2361.0, 2477.0, 2391.0, 2364.0, 2364.0, 2402.0, 2449.0, 2446.0, 2439.0, 2464.0, 2395.0, 2430.0, 2427.0, 2363.0, 2434.0, 2465.0, 2403.0, 2331.0, 2442.0, 2378.0, 2413.0, 2411.0, 10364.0],
      "WindowWidth": [23578.0, 23611.0, 15275.0, 15371.0, 15256.0, 15226.0, 15413.0, 15278.0, 23661.0, 11618.0, 11653.0, 11646.0, 11620.0, 11789.0, 11708.0, 11611.0, 11662.0, 11684.0, 11696.0, 11532.0, 11699.0, 11639.0, 11660.0, 11586.0, 23576.0, 7783.0, 7825.0, 7931.0, 7848.0, 7831.0, 7900.0, 7774.0, 7900.0, 7760.0, 7960.0, 7951.0, 7809.0, 7758.0, 7815.0, 7793.0, 23538.0, 5820.0, 5805.0, 5926.0, 5936.0, 5714.0, 5705.0, 5957.0, 5820.0, 5803.0, 5935.0, 5959.0, 5822.0, 5922.0, 5879.0, 5715.0, 5926.0, 5731.0, 5957.0, 5977.0, 5692.0, 5902.0, 5919.0, 5765.0, 5777.0, 5908.0, 5746.0, 5689.0, 5817.0, 5772.0, 5766.0, 5845.0, 5959.0, 23549.0, 5857.0, 5704.0, 5781.0, 5723.0, 5887.0, 5703.0, 5715.0, 5930.0, 5788.0, 5733.0, 5732.0, 5799.0, 5872.0, 5860.0, 5863.0, 5908.0, 5806.0, 5815.0, 5836.0, 5734.0, 5844.0, 5913.0, 5806.0, 5650.0, 5875.0, 5724.0, 5815.0, 5836.0, 23499.0]
    },
    "slices": {}
  }
}