{
  "AcquisitionMatrixPE": 82,
  "AcquisitionNumber": 1,
  "AcquisitionTime": "21:41:26.890000",
  "BandwidthPerPixelPhaseEncode": 24.888,
  "BaseResolution": 82,
  "BodyPartExamined": "BRAIN",
  "ConsistencyInfo": "N4_VE11E_LATEST_20181129",
  "ConversionSoftware": "dcm2niix",
  "ConversionSoftwareVersion": "v1.0.20201102",
  "DerivedVendorReportedEchoSpacing": 0.00049,
  "DeviceSerialNumber": "66112",
  "DwellTime": 2e-06,
  "EchoTime": 0.0272,
  "EchoTrainLength": 82,
  "EffectiveEchoSpacing": 0.00049,
  "FlipAngle": 44,
  "ImageComments": "Unaliased MB8/PE3",
  "ImageOrientationPatientDICOM": [0.999572, -0.0250743, 0.0150649, 0.0247781, 0.999502, 0.0195314],
  "ImageType": [
    "ORIGINAL",
    "PRIMARY",
    "M",
    "MB",
    "ND",
    "NORM",
    "MOSAIC"
],
  "ImagingFrequency": 123.252,
  "InPlanePhaseEncodingDirectionDICOM": "COL",
  "InstitutionAddress": "Maynard 3,Hanover,NH,US,03755",
  "InstitutionName": "Dartmouth College - PBS",
  "InstitutionalDepartmentName": "Department",
  "MRAcquisitionType": "2D",
  "MagneticFieldStrength": 3,
  "Manufacturer": "Siemens",
  "ManufacturersModelName": "Prisma",
  "Modality": "MR",
  "MultibandAccelerationFactor": 8,
  "PartialFourier": 1,
  "PatientPosition": "HFS",
  "PercentPhaseFOV": 100,
  "PercentSampling": 100,
  "PhaseEncodingDirection": "j-",
  "PhaseEncodingSteps": 82,
  "PhaseResolution": 1,
  "PixelBandwidth": 3050,
  "ProcedureStepDescription": "Wager_Wager^1076_spacetop",
  "ProtocolName": "func_run-01_task-faces_acq-ap-mb8",
  "PulseSequenceDetails": "%CustomerSeq%\\cmrr_mbep2d_bold",
  "ReceiveCoilActiveElements": "HEA;HEP",
  "ReceiveCoilName": "Head_32",
  "ReconMatrixPE": 82,
  "RepetitionTime": 0.46,
  "SAR": 0.0853169,
  "ScanOptions": "FS",
  "ScanningSequence": "EP",
  "SequenceName": "epfid2d1_82",
  "SequenceVariant": "SK\\SS",
  "SeriesDescription": "func_run-01_task-faces_acq-ap-mb8",
  "SeriesNumber": 16,
  "ShimSetting": [4143, -7724, -7290, 825, -29, -140, -98, 28],
  "SliceThickness": 2.7,
  "SliceTiming": [0, 0.25, 0.0625, 0.315, 0.125, 0.3775, 0.1875, 0, 0.25, 0.0625, 0.315, 0.125, 0.3775, 0.1875, 0, 0.25, 0.0625, 0.315, 0.125, 0.3775, 0.1875, 0, 0.25, 0.0625, 0.315, 0.125, 0.3775, 0.1875, 0, 0.25, 0.0625, 0.315, 0.125, 0.3775, 0.1875, 0, 0.25, 0.0625, 0.315, 0.125, 0.3775, 0.1875, 0, 0.25, 0.0625, 0.315, 0.125, 0.3775, 0.1875, 0, 0.25, 0.0625, 0.315, 0.125, 0.3775, 0.1875],
  "SoftwareVersions": "syngo MR E11",
  "SpacingBetweenSlices": 2.7,
  "StationName": "AWP66112",
  "TaskName": "faces",
  "TotalReadoutTime": 0.03969,
  "TxRefAmp": 238.611,
  "WipMemBlock": "6255bd61-64c6-411a-8967-8643a1b2657d||Sequence: R016 ve11e/master r/434b28f1; Aug  7 2019 18:53:46 by eja",
  "dcmmeta_affine": [
    [-2.681778907775879, 0.066477932035923, 0.041977208107709885, 111.59534454345703],
    [0.06727239489555359, 2.681591272354126, 0.05170442909002304, -98.89216613769531],
    [0.04041796922683716, -0.05240138992667198, 2.699178457260132, -77.53936767578125],
    [0.0, 0.0, 0.0, 1.0]
],
  "dcmmeta_reorient_transform": [
    [0.0, -1.0, 0.0, 81.0],
    [1.0, 0.0, 0.0, 0.0],
    [0.0, 0.0, 1.0, 0.0],
    [0.0, 0.0, 0.0, 1.0]
],
  "dcmmeta_shape": [82, 82, 56, 914],
  "dcmmeta_slice_dim": 2,
  "dcmmeta_version": 0.6,
  "global": {
    "const": {
      "AccessionNumber": "A004040",
      "AcquisitionMatrix": [82, 0, 0, 82],
      "AngioFlag": "N",
      "BitsAllocated": 16,
      "BitsStored": 16,
      "BodyPartExamined": "BRAIN",
      "Columns": 656,
      "EchoNumbers": 1,
      "EchoTime": 27.2,
      "EchoTrainLength": 82,
      "FlipAngle": 44.0,
      "HighBit": 15,
      "ImageOrientationPatient": [0.99957207401745, -0.0250742553728, 0.01506487842455, 0.02477813703989, 0.99950215972714, 0.01953142661504],
      "ImagePositionPatient": [-905.72973710652, -868.62622353107, -108.42303590387],
      "ImageType": [
        "ORIGINAL",
        "PRIMARY",
        "M",
        "MB",
        "ND",
        "NORM",
        "MOSAIC"
],
      "ImagedNucleus": "1H",
      "ImagingFrequency": 123.252228,
      "InPlanePhaseEncodingDirection": "COL",
      "MRAcquisitionType": "2D",
      "MagneticFieldStrength": 3.0,
      "Manufacturer": "SIEMENS",
      "ManufacturerModelName": "Prisma",
      "Modality": "MR",
      "NumberOfAverages": 1.0,
      "NumberOfPhaseEncodingSteps": 82,
      "PercentPhaseFieldOfView": 100.0,
      "PercentSampling": 100.0,
      "PerformedProcedureStepStartTime": "205837.639000",
      "PhotometricInterpretation": "MONOCHROME2",
      "PixelBandwidth": 3050.0,
      "PixelRepresentation": 0,
      "PixelSpacing": [2.6829268932343, 2.6829268932343],
      "ProtocolName": "func_run-01_task-faces_acq-ap-mb8",
      "RepetitionTime": 460.0,
      "Rows": 656,
      "SAR": 0.08531688848529,
      "SamplesPerPixel": 1,
      "ScanOptions": "FS",
      "ScanningSequence": "EP",
      "SequenceName": "epfid2d1_82",
      "SequenceVariant": [
        "SK",
        "SS"
],
      "SeriesDescription": "func_run-01_task-faces_acq-ap-mb8",
      "SeriesNumber": 16,
      "SeriesTime": "214136.517000",
      "SliceLocation": -77.674554304852,
      "SliceThickness": 2.7000000476837,
      "SmallestImagePixelValue": 0,
      "SoftwareVersions": "syngo MR E11",
      "SpacingBetweenSlices": 2.699999885115,
      "SpecificCharacterSet": "ISO_IR 100",
      "StudyID": "2",
      "StudyTime": "205837.492000",
      "TransmitCoilName": "Body",
      "VariableFlipAngleFlag": "N",
      "WindowCenterWidthExplanation": "Algo1"
    },
    "slices": {}
  },
  "time": {
    "samples": {
      "AcquisitionNumber": [1, 2, 3, 4, 5, 6, 7, 8, 9, 10, 11, 12, 13, 14, 15, 16, 17, 18, 19, 20, 21, 22, 23, 24, 25, 26, 27, 28, 29, 30, 31, 32, 33, 34, 35, 36, 37, 38, 39, 40, 41, 42, 43, 44, 45, 46, 47, 48, 49, 50, 51, 52, 53, 54, 55, 56, 57, 58, 59, 60, 61, 62, 63, 64, 65, 66, 67, 68, 69, 70, 71, 72, 73, 74, 75, 76, 77, 78, 79, 80, 81, 82, 83, 84, 85, 86, 87, 88, 89, 90, 91, 92, 93, 94, 95, 96, 97, 98, 99, 100, 101, 102, 103, 104, 105, 106, 107, 108, 109, 110, 111, 112, 113, 114, 115, 116, 117, 118, 119, 120, 121, 122, 123, 124, 125, 126, 127, 128, 129, 130, 131, 132, 133, 134, 135, 136, 137, 138, 139, 140, 141, 142, 143, 144, 145, 146, 147, 148, 149, 150, 151, 152, 153, 154, 155, 156, 157, 158, 159, 160, 161, 162, 163, 164, 165, 166, 167, 168, 169, 170, 171, 172, 173, 174, 175, 176, 177, 178, 179, 180, 181, 182, 183, 184, 185, 186, 187, 188, 189, 190, 191, 192, 193, 194, 195, 196, 197, 198, 199, 200, 201, 202, 203, 204, 205, 206, 207, 208, 209, 210, 211, 212, 213, 214, 215, 216, 217, 218, 219, 220, 221, 222, 223, 224, 225, 226, 227, 228, 229, 230, 231, 232, 233, 234, 235, 236, 237, 238, 239, 240, 241, 242, 243, 244, 245, 246, 247, 248, 249, 250, 251, 252, 253, 254, 255, 256, 257, 258, 259, 260, 261, 262, 263, 264, 265, 266, 267, 268, 269, 270, 271, 272, 273, 274, 275, 276, 277, 278, 279, 280, 281, 282, 283, 284, 285, 286, 287, 288, 289, 290, 291, 292, 293, 294, 295, 296, 297, 298, 299, 300, 301, 302, 303, 304, 305, 306, 307, 308, 309, 310, 311, 312, 313, 314, 315, 316, 317, 318, 319, 320, 321, 322, 323, 324, 325, 326, 327, 328, 329, 330, 331, 332, 333, 334, 335, 336, 337, 338, 339, 340, 341, 342, 343, 344, 345, 346, 347, 348, 349, 350, 351, 352, 353, 354, 355, 356, 357, 358, 359, 360, 361, 362, 363, 364, 365, 366, 367, 368, 369, 370, 371, 372, 373, 374, 375, 376, 377, 378, 379, 380, 381, 382, 383, 384, 385, 386, 387, 388, 389, 390, 391, 392, 393, 394, 395, 396, 397, 398, 399, 400, 401, 402, 403, 404, 405, 406, 407, 408, 409, 410, 411, 412, 413, 414, 415, 416, 417, 418, 419, 420, 421, 422, 423, 424, 425, 426, 427, 428, 429, 430, 431, 432, 433, 434, 435, 436, 437, 438, 439, 440, 441, 442, 443, 444, 445, 446, 447, 448, 449, 450, 451, 452, 453, 454, 455, 456, 457, 458, 459, 460, 461, 462, 463, 464, 465, 466, 467, 468, 469, 470, 471, 472, 473, 474, 475, 476, 477, 478, 479, 480, 481, 482, 483, 484, 485, 486, 487, 488, 489, 490, 491, 492, 493, 494, 495, 496, 497, 498, 499, 500, 501, 502, 503, 504, 505, 506, 507, 508, 509, 510, 511, 512, 513, 514, 515, 516, 517, 518, 519, 520, 521, 522, 523, 524, 525, 526, 527, 528, 529, 530, 531, 532, 533, 534, 535, 536, 537, 538, 539, 540, 541, 542, 543, 544, 545, 546, 547, 548, 549, 550, 551, 552, 553, 554, 555, 556, 557, 558, 559, 560, 561, 562, 563, 564, 565, 566, 567, 568, 569, 570, 571, 572, 573, 574, 575, 576, 577, 578, 579, 580, 581, 582, 583, 584, 585, 586, 587, 588, 589, 590, 591, 592, 593, 594, 595, 596, 597, 598, 599, 600, 601, 602, 603, 604, 605, 606, 607, 608, 609, 610, 611, 612, 613, 614, 615, 616, 617, 618, 619, 620, 621, 622, 623, 624, 625, 626, 627, 628, 629, 630, 631, 632, 633, 634, 635, 636, 637, 638, 639, 640, 641, 642, 643, 644, 645, 646, 647, 648, 649, 650, 651, 652, 653, 654, 655, 656, 657, 658, 659, 660, 661, 662, 663, 664, 665, 666, 667, 668, 669, 670, 671, 672, 673, 674, 675, 676, 677, 678, 679, 680, 681, 682, 683, 684, 685, 686, 687, 688, 689, 690, 691, 692, 693, 694, 695, 696, 697, 698, 699, 700, 701, 702, 703, 704, 705, 706, 707, 708, 709, 710, 711, 712, 713, 714, 715, 716, 717, 718, 719, 720, 721, 722, 723, 724, 725, 726, 727, 728, 729, 730, 731, 732, 733, 734, 735, 736, 737, 738, 739, 740, 741, 742, 743, 744, 745, 746, 747, 748, 749, 750, 751, 752, 753, 754, 755, 756, 757, 758, 759, 760, 761, 762, 763, 764, 765, 766, 767, 768, 769, 770, 771, 772, 773, 774, 775, 776, 777, 778, 779, 780, 781, 782, 783, 784, 785, 786, 787, 788, 789, 790, 791, 792, 793, 794, 795, 796, 797, 798, 799, 800, 801, 802, 803, 804, 805, 806, 807, 808, 809, 810, 811, 812, 813, 814, 815, 816, 817, 818, 819, 820, 821, 822, 823, 824, 825, 826, 827, 828, 829, 830, 831, 832, 833, 834, 835, 836, 837, 838, 839, 840, 841, 842, 843, 844, 845, 846, 847, 848, 849, 850, 851, 852, 853, 854, 855, 856, 857, 858, 859, 860, 861, 862, 863, 864, 865, 866, 867, 868, 869, 870, 871, 872, 873, 874, 875, 876, 877, 878, 879, 880, 881, 882, 883, 884, 885, 886, 887, 888, 889, 890, 891, 892, 893, 894, 895, 896, 897, 898, 899, 900, 901, 902, 903, 904, 905, 906, 907, 908, 909, 910, 911, 912, 913, 914],
      "AcquisitionTime": ["214126.890000", "214127.350000", "214127.810000", "214128.270000", "214128.730000", "214129.190000", "214129.650000", "214130.110000", "214130.570000", "214131.030000", "214131.490000", "214131.950000", "214132.410000", "214132.870000", "214133.330000", "214133.790000", "214134.250000", "214134.710000", "214135.170000", "214135.630000", "214136.090000", "214136.550000", "214137.010000", "214137.470000", "214137.930000", "214138.390000", "214138.850000", "214139.310000", "214139.770000", "214140.230000", "214140.690000", "214141.150000", "214141.610000", "214142.070000", "214142.530000", "214142.990000", "214143.450000", "214143.910000", "214144.370000", "214144.830000", "214145.290000", "214145.750000", "214146.210000", "214146.670000", "214147.130000", "214147.590000", "214148.050000", "214148.510000", "214148.970000", "214149.430000", "214149.890000", "214150.350000", "214150.810000", "214151.270000", "214151.730000", "214152.190000", "214152.650000", "214153.110000", "214153.570000", "214154.030000", "214154.490000", "214154.950000", "214155.410000", "214155.870000", "214156.330000", "214156.790000", "214157.250000", "214157.710000", "214158.170000", "214158.630000", "214159.090000", "214159.550000", "214200.010000", "214200.470000", "214200.930000", "214201.390000", "214201.850000", "214202.310000", "214202.770000", "214203.230000", "214203.690000", "214204.150000", "214204.610000", "214205.070000", "214205.530000", "214205.990000", "214206.450000", "214206.910000", "214207.370000", "214207.830000", "214208.290000", "214208.750000", "214209.210000", "214209.670000", "214210.130000", "214210.590000", "214211.050000", "214211.510000", "214211.970000", "214212.430000", "214212.890000", "214213.350000", "214213.810000", "214214.270000", "214214.730000", "214215.190000", "214215.650000", "214216.110000", "214216.570000", "214217.030000", "214217.490000", "214217.950000", "214218.410000", "214218.870000", "214219.330000", "214219.790000", "214220.250000", "214220.710000", "214221.170000", "214221.630000", "214222.090000", "214222.550000", "214223.010000", "214223.470000", "214223.930000", "214224.390000", "214224.850000", "214225.310000", "214225.770000", "214226.230000", "214226.690000", "214227.150000", "214227.610000", "214228.070000", "214228.530000", "214228.990000", "214229.450000", "214229.910000", "214230.370000", "214230.830000", "214231.290000", "214231.750000", "214232.210000", "214232.670000", "214233.130000", "214233.590000", "214234.050000", "214234.510000", "214234.970000", "214235.430000", "214235.890000", "214236.350000", "214236.810000", "214237.270000", "214237.730000", "214238.190000", "214238.650000", "214239.110000", "214239.570000", "214240.030000", "214240.490000", "214240.950000", "214241.410000", "214241.870000", "214242.330000", "214242.790000", "214243.250000", "214243.710000", "214244.170000", "214244.630000", "214245.090000", "214245.550000", "214246.010000", "214246.470000", "214246.930000", "214247.390000", "214247.850000", "214248.310000", "214248.770000", "214249.230000", "214249.690000", "214250.150000", "214250.610000", "214251.070000", "214251.530000", "214251.990000", "214252.450000", "214252.910000", "214253.370000", "214253.830000", "214254.290000", "214254.750000", "214255.210000", "214255.670000", "214256.130000", "214256.590000", "214257.050000", "214257.510000", "214257.970000", "214258.430000", "214258.890000", "214259.350000", "214259.810000", "214300.270000", "214300.730000", "214301.190000", "214301.650000", "214302.110000", "214302.570000", "214303.030000", "214303.490000", "214303.950000", "214304.410000", "214304.870000", "214305.330000", "214305.790000", "214306.250000", "214306.710000", "214307.170000", "214307.630000", "214308.090000", "214308.550000", "214309.010000", "214309.470000", "214309.930000", "214310.390000", "214310.850000", "214311.310000", "214311.770000", "214312.230000", "214312.690000", "214313.150000", "214313.610000", "214314.070000", "214314.530000", "214314.990000", "214315.450000", "214315.910000", "214316.370000", "214316.830000", "214317.290000", "214317.750000", "214318.210000", "214318.670000", "214319.130000", "214319.590000", "214320.050000", "214320.510000", "214320.970000", "214321.430000", "214321.890000", "214322.350000", "214322.810000", "214323.270000", "214323.730000", "214324.190000", "214324.650000", "214325.110000", "214325.570000", "214326.030000", "214326.490000", "214326.950000", "214327.410000", "214327.870000", "214328.330000", "214328.790000", "214329.250000", "214329.710000", "214330.170000", "214330.630000", "214331.090000", "214331.550000", "214332.010000", "214332.470000", "214332.930000", "214333.390000", "214333.850000", "214334.310000", "214334.770000", "214335.230000", "214335.690000", "214336.150000", "214336.610000", "214337.070000", "214337.530000", "214337.990000", "214338.450000", "214338.910000", "214339.370000", "214339.830000", "214340.290000", "214340.750000", "214341.210000", "214341.670000", "214342.130000", "214342.590000", "214343.050000", "214343.510000", "214343.970000", "214344.430000", "214344.890000", "214345.350000", "214345.810000", "214346.270000", "214346.730000", "214347.190000", "214347.650000", "214348.110000", "214348.570000", "214349.030000", "214349.490000", "214349.950000", "214350.410000", "214350.870000", "214351.330000", "214351.790000", "214352.250000", "214352.710000", "214353.170000", "214353.630000", "214354.090000", "214354.550000", "214355.010000", "214355.470000", "214355.930000", "214356.390000", "214356.850000", "214357.310000", "214357.770000", "214358.230000", "214358.690000", "214359.150000", "214359.610000", "214400.070000", "214400.530000", "214400.990000", "214401.450000", "214401.910000", "214402.370000", "214402.830000", "214403.290000", "214403.750000", "214404.210000", "214404.670000", "214405.130000", "214405.590000", "214406.050000", "214406.510000", "214406.970000", "214407.430000", "214407.890000", "214408.350000", "214408.810000", "214409.270000", "214409.730000", "214410.190000", "214410.650000", "214411.110000", "214411.570000", "214412.030000", "214412.490000", "214412.950000", "214413.410000", "214413.870000", "214414.330000", "214414.790000", "214415.250000", "214415.710000", "214416.170000", "214416.630000", "214417.090000", "214417.550000", "214418.010000", "214418.470000", "214418.930000", "214419.390000", "214419.850000", "214420.310000", "214420.770000", "214421.230000", "214421.690000", "214422.150000", "214422.610000", "214423.070000", "214423.530000", "214423.990000", "214424.450000", "214424.910000", "214425.370000", "214425.830000", "214426.290000", "214426.750000", "214427.210000", "214427.670000", "214428.130000", "214428.590000", "214429.050000", "214429.510000", "214429.970000", "214430.430000", "214430.890000", "214431.350000", "214431.810000", "214432.270000", "214432.730000", "214433.190000", "214433.650000", "214434.110000", "214434.570000", "214435.030000", "214435.490000", "214435.950000", "214436.410000", "214436.870000", "214437.330000", "214437.790000", "214438.250000", "214438.710000", "214439.170000", "214439.630000", "214440.090000", "214440.550000", "214441.010000", "214441.470000", "214441.930000", "214442.390000", "214442.850000", "214443.310000", "214443.770000", "214444.230000", "214444.690000", "214445.150000", "214445.610000", "214446.070000", "214446.530000", "214446.990000", "214447.450000", "214447.910000", "214448.370000", "214448.830000", "214449.290000", "214449.750000", "214450.210000", "214450.670000", "214451.130000", "214451.590000", "214452.050000", "214452.510000", "214452.970000", "214453.430000", "214453.890000", "214454.350000", "214454.810000", "214455.270000", "214455.730000", "214456.190000", "214456.650000", "214457.110000", "214457.570000", "214458.030000", "214458.490000", "214458.950000", "214459.410000", "214459.870000", "214500.330000", "214500.790000", "214501.250000", "214501.710000", "214502.170000", "214502.630000", "214503.090000", "214503.550000", "214504.010000", "214504.470000", "214504.930000", "214505.390000", "214505.850000", "214506.310000", "214506.770000", "214507.230000", "214507.690000", "214508.150000", "214508.610000", "214509.070000", "214509.530000", "214509.990000", "214510.450000", "214510.910000", "214511.370000", "214511.830000", "214512.290000", "214512.750000", "214513.210000", "214513.670000", "214514.130000", "214514.590000", "214515.050000", "214515.510000", "214515.970000", "214516.430000", "214516.890000", "214517.350000", "214517.810000", "214518.270000", "214518.730000", "214519.190000", "214519.650000", "214520.110000", "214520.570000", "214521.030000", "214521.490000", "214521.950000", "214522.410000", "214522.870000", "214523.330000", "214523.790000", "214524.250000", "214524.710000", "214525.170000", "214525.630000", "214526.090000", "214526.550000", "214527.010000", "214527.470000", "214527.930000", "214528.390000", "214528.850000", "214529.310000", "214529.770000", "214530.230000", "214530.690000", "214531.150000", "214531.610000", "214532.070000", "214532.530000", "214532.990000", "214533.450000", "214533.910000", "214534.370000", "214534.830000", "214535.290000", "214535.750000", "214536.210000", "214536.670000", "214537.130000", "214537.590000", "214538.050000", "214538.510000", "214538.970000", "214539.430000", "214539.890000", "214540.350000", "214540.810000", "214541.270000", "214541.730000", "214542.190000", "214542.650000", "214543.110000", "214543.570000", "214544.030000", "214544.490000", "214544.950000", "214545.410000", "214545.870000", "214546.330000", "214546.790000", "214547.250000", "214547.710000", "214548.170000", "214548.630000", "214549.090000", "214549.550000", "214550.010000", "214550.470000", "214550.930000", "214551.390000", "214551.850000", "214552.310000", "214552.770000", "214553.230000", "214553.690000", "214554.150000", "214554.610000", "214555.070000", "214555.530000", "214555.990000", "214556.450000", "214556.910000", "214557.370000", "214557.830000", "214558.290000", "214558.750000", "214559.210000", "214559.670000", "214600.130000", "214600.590000", "214601.050000", "214601.510000", "214601.970000", "214602.430000", "214602.890000", "214603.350000", "214603.810000", "214604.270000", "214604.730000", "214605.190000", "214605.650000", "214606.110000", "214606.570000", "214607.030000", "214607.490000", "214607.950000", "214608.410000", "214608.870000", "214609.330000", "214609.790000", "214610.250000", "214610.710000", "214611.170000", "214611.630000", "214612.090000", "214612.550000", "214613.010000", "214613.470000", "214613.930000", "214614.390000", "214614.850000", "214615.310000", "214615.770000", "214616.230000", "214616.690000", "214617.150000", "214617.610000", "214618.070000", "214618.530000", "214618.990000", "214619.450000", "214619.910000", "214620.370000", "214620.830000", "214621.290000", "214621.750000", "214622.210000", "214622.670000", "214623.130000", "214623.590000", "214624.050000", "214624.510000", "214624.970000", "214625.430000", "214625.890000", "214626.350000", "214626.810000", "214627.270000", "214627.730000", "214628.190000", "214628.650000", "214629.110000", "214629.570000", "214630.030000", "214630.490000", "214630.950000", "214631.410000", "214631.870000", "214632.330000", "214632.790000", "214633.250000", "214633.710000", "214634.170000", "214634.630000", "214635.090000", "214635.550000", "214636.010000", "214636.470000", "214636.930000", "214637.390000", "214637.850000", "214638.310000", "214638.770000", "214639.230000", "214639.690000", "214640.150000", "214640.610000", "214641.070000", "214641.530000", "214641.990000", "214642.450000", "214642.910000", "214643.370000", "214643.830000", "214644.290000", "214644.750000", "214645.210000", "214645.670000", "214646.130000", "214646.590000", "214647.050000", "214647.510000", "214647.970000", "214648.430000", "214648.890000", "214649.350000", "214649.810000", "214650.270000", "214650.730000", "214651.190000", "214651.650000", "214652.110000", "214652.570000", "214653.030000", "214653.490000", "214653.950000", "214654.410000", "214654.870000", "214655.330000", "214655.790000", "214656.250000", "214656.710000", "214657.170000", "214657.630000", "214658.090000", "214658.550000", "214659.010000", "214659.470000", "214659.930000", "214700.390000", "214700.850000", "214701.310000", "214701.770000", "214702.230000", "214702.690000", "214703.150000", "214703.610000", "214704.070000", "214704.530000", "214704.990000", "214705.450000", "214705.910000", "214706.370000", "214706.830000", "214707.290000", "214707.750000", "214708.210000", "214708.670000", "214709.130000", "214709.590000", "214710.050000", "214710.510000", "214710.970000", "214711.430000", "214711.890000", "214712.350000", "214712.810000", "214713.270000", "214713.730000", "214714.190000", "214714.650000", "214715.110000", "214715.570000", "214716.030000", "214716.490000", "214716.950000", "214717.410000", "214717.870000", "214718.330000", "214718.790000", "214719.250000", "214719.710000", "214720.170000", "214720.630000", "214721.090000", "214721.550000", "214722.010000", "214722.470000", "214722.930000", "214723.390000", "214723.850000", "214724.310000", "214724.770000", "214725.230000", "214725.690000", "214726.150000", "214726.610000", "214727.070000", "214727.530000", "214727.990000", "214728.450000", "214728.910000", "214729.370000", "214729.830000", "214730.290000", "214730.750000", "214731.210000", "214731.670000", "214732.130000", "214732.590000", "214733.050000", "214733.510000", "214733.970000", "214734.430000", "214734.890000", "214735.350000", "214735.810000", "214736.270000", "214736.730000", "214737.190000", "214737.650000", "214738.110000", "214738.570000", "214739.030000", "214739.490000", "214739.950000", "214740.410000", "214740.870000", "214741.330000", "214741.790000", "214742.250000", "214742.710000", "214743.170000", "214743.630000", "214744.090000", "214744.550000", "214745.010000", "214745.470000", "214745.930000", "214746.390000", "214746.850000", "214747.310000", "214747.770000", "214748.230000", "214748.690000", "214749.150000", "214749.610000", "214750.070000", "214750.530000", "214750.990000", "214751.450000", "214751.910000", "214752.370000", "214752.830000", "214753.290000", "214753.750000", "214754.210000", "214754.670000", "214755.130000", "214755.590000", "214756.050000", "214756.510000", "214756.970000", "214757.430000", "214757.890000", "214758.350000", "214758.810000", "214759.270000", "214759.730000", "214800.190000", "214800.650000", "214801.110000", "214801.570000", "214802.030000", "214802.490000", "214802.950000", "214803.410000", "214803.870000", "214804.330000", "214804.790000", "214805.250000", "214805.710000", "214806.170000", "214806.630000", "214807.090000", "214807.550000", "214808.010000", "214808.470000", "214808.930000", "214809.390000", "214809.850000", "214810.310000", "214810.770000", "214811.230000", "214811.690000", "214812.150000", "214812.610000", "214813.070000", "214813.530000", "214813.990000", "214814.450000", "214814.910000", "214815.370000", "214815.830000", "214816.290000", "214816.750000", "214817.210000", "214817.670000", "214818.130000", "214818.590000", "214819.050000", "214819.510000", "214819.970000", "214820.430000", "214820.890000", "214821.350000", "214821.810000", "214822.270000", "214822.730000", "214823.190000", "214823.650000", "214824.110000", "214824.570000", "214825.030000", "214825.490000", "214825.950000", "214826.410000", "214826.870000"],
