{
  "AcquisitionMatrixPE": 82,
  "AcquisitionNumber": 1,
  "AcquisitionTime": "21:48:50.030000",
  "BandwidthPerPixelPhaseEncode": 24.888,
  "BaseResolution": 82,
  "BodyPartExamined": "BRAIN",
  "ConsistencyInfo": "N4_VE11E_LATEST_20181129",
  "ConversionSoftware": "dcm2niix",
  "ConversionSoftwareVersion": "v1.0.20201102",
  "DerivedVendorReportedEchoSpacing": 0.00049,
  "DeviceSerialNumber": "66112",
  "DwellTime": 2e-06,
  "EchoTime": 0.0272,
  "EchoTrainLength": 82,
  "EffectiveEchoSpacing": 0.00049,
  "FlipAngle": 44,
  "ImageComments": "Unaliased MB8/PE3",
  "ImageOrientationPatientDICOM": [0.999572, -0.0250743, 0.0150649, 0.0247781, 0.999502, 0.0195314],
  "ImageType": [
    "ORIGINAL",
    "PRIMARY",
    "M",
    "MB",
    "ND",
    "NORM",
    "MOSAIC"
],
  "ImagingFrequency": 123.252,
  "InPlanePhaseEncodingDirectionDICOM": "COL",
  "InstitutionAddress": "Maynard 3,Hanover,NH,US,03755",
  "InstitutionName": "Dartmouth College - PBS",
  "InstitutionalDepartmentName": "Department",
  "MRAcquisitionType": "2D",
  "MagneticFieldStrength": 3,
  "Manufacturer": "Siemens",
  "ManufacturersModelName": "Prisma",
  "Modality": "MR",
  "MultibandAccelerationFactor": 8,
  "PartialFourier": 1,
  "PatientPosition": "HFS",
  "PercentPhaseFOV": 100,
  "PercentSampling": 100,
  "PhaseEncodingDirection": "j-",
  "PhaseEncodingSteps": 82,
  "PhaseResolution": 1,
  "PixelBandwidth": 3050,
  "ProcedureStepDescription": "Wager_Wager^1076_spacetop",
  "ProtocolName": "func_run-02_task-faces_acq-ap-mb8",
  "PulseSequenceDetails": "%CustomerSeq%\\cmrr_mbep2d_bold",
  "ReceiveCoilActiveElements": "HEA;HEP",
  "ReceiveCoilName": "Head_32",
  "ReconMatrixPE": 82,
  "RepetitionTime": 0.46,
  "SAR": 0.0853169,
  "ScanOptions": "FS",
  "ScanningSequence": "EP",
  "SequenceName": "epfid2d1_82",
  "SequenceVariant": "SK\\SS",
  "SeriesDescription": "func_run-02_task-faces_acq-ap-mb8",
  "SeriesNumber": 18,
  "ShimSetting": [4143, -7724, -7290, 825, -29, -140, -98, 28],
  "SliceThickness": 2.7,
  "SliceTiming": [0, 0.2525, 0.0625, 0.315, 0.125, 0.3775, 0.19, 0, 0.2525, 0.0625, 0.315, 0.125, 0.3775, 0.19, 0, 0.2525, 0.0625, 0.315, 0.125, 0.3775, 0.19, 0, 0.2525, 0.0625, 0.315, 0.125, 0.3775, 0.19, 0, 0.2525, 0.0625, 0.315, 0.125, 0.3775, 0.19, 0, 0.2525, 0.0625, 0.315, 0.125, 0.3775, 0.19, 0, 0.2525, 0.0625, 0.315, 0.125, 0.3775, 0.19, 0, 0.2525, 0.0625, 0.315, 0.125, 0.3775, 0.19],
  "SoftwareVersions": "syngo MR E11",
  "SpacingBetweenSlices": 2.7,
  "StationName": "AWP66112",
  "TaskName": "faces",
  "TotalReadoutTime": 0.03969,
  "TxRefAmp": 238.611,
  "WipMemBlock": "d5cd873e-d173-43bb-945c-7d1265aa2a7d||Sequence: R016 ve11e/master r/434b28f1; Aug  7 2019 18:53:46 by eja",
  "dcmmeta_affine": [
    [-2.681778907775879, 0.066477932035923, 0.041977208107709885, 111.59534454345703],
    [0.06727239489555359, 2.681591272354126, 0.05170442909002304, -98.89216613769531],
    [0.04041796922683716, -0.05240138992667198, 2.699178457260132, -77.53936767578125],
    [0.0, 0.0, 0.0, 1.0]
],
  "dcmmeta_reorient_transform": [
    [0.0, -1.0, 0.0, 81.0],
    [1.0, 0.0, 0.0, 0.0],
    [0.0, 0.0, 1.0, 0.0],
    [0.0, 0.0, 0.0, 1.0]
],
  "dcmmeta_shape": [82, 82, 56, 914],
  "dcmmeta_slice_dim": 2,
  "dcmmeta_version": 0.6,
  "global": {
    "const": {
      "AccessionNumber": "A004040",
      "AcquisitionMatrix": [82, 0, 0, 82],
      "AngioFlag": "N",
      "BitsAllocated": 16,
      "BitsStored": 16,
      "BodyPartExamined": "BRAIN",
      "Columns": 656,
      "EchoNumbers": 1,
      "EchoTime": 27.2,
      "EchoTrainLength": 82,
      "FlipAngle": 44.0,
      "HighBit": 15,
      "ImageOrientationPatient": [0.99957207401745, -0.0250742553728, 0.01506487842455, 0.02477813703989, 0.99950215972714, 0.01953142661504],
      "ImagePositionPatient": [-905.72973710652, -868.62622353107, -108.42303590387],
      "ImageType": [
        "ORIGINAL",
        "PRIMARY",
        "M",
        "MB",
        "ND",
        "NORM",
        "MOSAIC"
],
      "ImagedNucleus": "1H",
      "ImagingFrequency": 123.25223,
      "InPlanePhaseEncodingDirection": "COL",
      "MRAcquisitionType": "2D",
      "MagneticFieldStrength": 3.0,
      "Manufacturer": "SIEMENS",
      "ManufacturerModelName": "Prisma",
      "Modality": "MR",
      "NumberOfAverages": 1.0,
      "NumberOfPhaseEncodingSteps": 82,
      "PercentPhaseFieldOfView": 100.0,
      "PercentSampling": 100.0,
      "PerformedProcedureStepStartTime": "205837.639000",
      "PhotometricInterpretation": "MONOCHROME2",
      "PixelBandwidth": 3050.0,
      "PixelRepresentation": 0,
      "PixelSpacing": [2.6829268932343, 2.6829268932343],
      "ProtocolName": "func_run-02_task-faces_acq-ap-mb8",
      "RepetitionTime": 460.0,
      "Rows": 656,
      "SAR": 0.08531688848529,
      "SamplesPerPixel": 1,
      "ScanOptions": "FS",
      "ScanningSequence": "EP",
      "SequenceName": "epfid2d1_82",
      "SequenceVariant": [
        "SK",
        "SS"
],
      "SeriesDescription": "func_run-02_task-faces_acq-ap-mb8",
      "SeriesNumber": 18,
      "SeriesTime": "214916.609000",
      "SliceLocation": -77.674554304852,
      "SliceThickness": 2.7000000476837,
      "SmallestImagePixelValue": 0,
      "SoftwareVersions": "syngo MR E11",
      "SpacingBetweenSlices": 2.699999885115,
      "SpecificCharacterSet": "ISO_IR 100",
      "StudyID": "2",
      "StudyTime": "205837.492000",
      "TransmitCoilName": "Body",
      "VariableFlipAngleFlag": "N",
      "WindowCenterWidthExplanation": "Algo1"
    },
    "slices": {}
  },
  "time": {
    "samples": {
      "AcquisitionNumber": [1, 2, 3, 4, 5, 6, 7, 8, 9, 10, 11, 12, 13, 14, 15, 16, 17, 18, 19, 20, 21, 22, 23, 24, 25, 26, 27, 28, 29, 30, 31, 32, 33, 34, 35, 36, 37, 38, 39, 40, 41, 42, 43, 44, 45, 46, 47, 48, 49, 50, 51, 52, 53, 54, 55, 56, 57, 58, 59, 60, 61, 62, 63, 64, 65, 66, 67, 68, 69, 70, 71, 72, 73, 74, 75, 76, 77, 78, 79, 80, 81, 82, 83, 84, 85, 86, 87, 88, 89, 90, 91, 92, 93, 94, 95, 96, 97, 98, 99, 100, 101, 102, 103, 104, 105, 106, 107, 108, 109, 110, 111, 112, 113, 114, 115, 116, 117, 118, 119, 120, 121, 122, 123, 124, 125, 126, 127, 128, 129, 130, 131, 132, 133, 134, 135, 136, 137, 138, 139, 140, 141, 142, 143, 144, 145, 146, 147, 148, 149, 150, 151, 152, 153, 154, 155, 156, 157, 158, 159, 160, 161, 162, 163, 164, 165, 166, 167, 168, 169, 170, 171, 172, 173, 174, 175, 176, 177, 178, 179, 180, 181, 182, 183, 184, 185, 186, 187, 188, 189, 190, 191, 192, 193, 194, 195, 196, 197, 198, 199, 200, 201, 202, 203, 204, 205, 206, 207, 208, 209, 210, 211, 212, 213, 214, 215, 216, 217, 218, 219, 220, 221, 222, 223, 224, 225, 226, 227, 228, 229, 230, 231, 232, 233, 234, 235, 236, 237, 238, 239, 240, 241, 242, 243, 244, 245, 246, 247, 248, 249, 250, 251, 252, 253, 254, 255, 256, 257, 258, 259, 260, 261, 262, 263, 264, 265, 266, 267, 268, 269, 270, 271, 272, 273, 274, 275, 276, 277, 278, 279, 280, 281, 282, 283, 284, 285, 286, 287, 288, 289, 290, 291, 292, 293, 294, 295, 296, 297, 298, 299, 300, 301, 302, 303, 304, 305, 306, 307, 308, 309, 310, 311, 312, 313, 314, 315, 316, 317, 318, 319, 320, 321, 322, 323, 324, 325, 326, 327, 328, 329, 330, 331, 332, 333, 334, 335, 336, 337, 338, 339, 340, 341, 342, 343, 344, 345, 346, 347, 348, 349, 350, 351, 352, 353, 354, 355, 356, 357, 358, 359, 360, 361, 362, 363, 364, 365, 366, 367, 368, 369, 370, 371, 372, 373, 374, 375, 376, 377, 378, 379, 380, 381, 382, 383, 384, 385, 386, 387, 388, 389, 390, 391, 392, 393, 394, 395, 396, 397, 398, 399, 400, 401, 402, 403, 404, 405, 406, 407, 408, 409, 410, 411, 412, 413, 414, 415, 416, 417, 418, 419, 420, 421, 422, 423, 424, 425, 426, 427, 428, 429, 430, 431, 432, 433, 434, 435, 436, 437, 438, 439, 440, 441, 442, 443, 444, 445, 446, 447, 448, 449, 450, 451, 452, 453, 454, 455, 456, 457, 458, 459, 460, 461, 462, 463, 464, 465, 466, 467, 468, 469, 470, 471, 472, 473, 474, 475, 476, 477, 478, 479, 480, 481, 482, 483, 484, 485, 486, 487, 488, 489, 490, 491, 492, 493, 494, 495, 496, 497, 498, 499, 500, 501, 502, 503, 504, 505, 506, 507, 508, 509, 510, 511, 512, 513, 514, 515, 516, 517, 518, 519, 520, 521, 522, 523, 524, 525, 526, 527, 528, 529, 530, 531, 532, 533, 534, 535, 536, 537, 538, 539, 540, 541, 542, 543, 544, 545, 546, 547, 548, 549, 550, 551, 552, 553, 554, 555, 556, 557, 558, 559, 560, 561, 562, 563, 564, 565, 566, 567, 568, 569, 570, 571, 572, 573, 574, 575, 576, 577, 578, 579, 580, 581, 582, 583, 584, 585, 586, 587, 588, 589, 590, 591, 592, 593, 594, 595, 596, 597, 598, 599, 600, 601, 602, 603, 604, 605, 606, 607, 608, 609, 610, 611, 612, 613, 614, 615, 616, 617, 618, 619, 620, 621, 622, 623, 624, 625, 626, 627, 628, 629, 630, 631, 632, 633, 634, 635, 636, 637, 638, 639, 640, 641, 642, 643, 644, 645, 646, 647, 648, 649, 650, 651, 652, 653, 654, 655, 656, 657, 658, 659, 660, 661, 662, 663, 664, 665, 666, 667, 668, 669, 670, 671, 672, 673, 674, 675, 676, 677, 678, 679, 680, 681, 682, 683, 684, 685, 686, 687, 688, 689, 690, 691, 692, 693, 694, 695, 696, 697, 698, 699, 700, 701, 702, 703, 704, 705, 706, 707, 708, 709, 710, 711, 712, 713, 714, 715, 716, 717, 718, 719, 720, 721, 722, 723, 724, 725, 726, 727, 728, 729, 730, 731, 732, 733, 734, 735, 736, 737, 738, 739, 740, 741, 742, 743, 744, 745, 746, 747, 748, 749, 750, 751, 752, 753, 754, 755, 756, 757, 758, 759, 760, 761, 762, 763, 764, 765, 766, 767, 768, 769, 770, 771, 772, 773, 774, 775, 776, 777, 778, 779, 780, 781, 782, 783, 784, 785, 786, 787, 788, 789, 790, 791, 792, 793, 794, 795, 796, 797, 798, 799, 800, 801, 802, 803, 804, 805, 806, 807, 808, 809, 810, 811, 812, 813, 814, 815, 816, 817, 818, 819, 820, 821, 822, 823, 824, 825, 826, 827, 828, 829, 830, 831, 832, 833, 834, 835, 836, 837, 838, 839, 840, 841, 842, 843, 844, 845, 846, 847, 848, 849, 850, 851, 852, 853, 854, 855, 856, 857, 858, 859, 860, 861, 862, 863, 864, 865, 866, 867, 868, 869, 870, 871, 872, 873, 874, 875, 876, 877, 878, 879, 880, 881, 882, 883, 884, 885, 886, 887, 888, 889, 890, 891, 892, 893, 894, 895, 896, 897, 898, 899, 900, 901, 902, 903, 904, 905, 906, 907, 908, 909, 910, 911, 912, 913, 914],
      "AcquisitionTime": ["214850.030000", "214850.490000", "214850.950000", "214851.410000", "214851.870000", "214852.330000", "214852.790000", "214853.250000", "214853.710000", "214854.170000", "214854.630000", "214855.090000", "214855.550000", "214856.010000", "214856.470000", "214856.930000", "214857.390000", "214857.850000", "214858.310000", "214858.770000", "214859.230000", "214859.690000", "214900.150000", "214900.610000", "214901.070000", "214901.530000", "214901.990000", "214902.450000", "214902.910000", "214903.370000", "214903.830000", "214904.290000", "214904.750000", "214905.210000", "214905.670000", "214906.130000", "214906.590000", "214907.050000", "214907.510000", "214907.970000", "214908.430000", "214908.890000", "214909.350000", "214909.810000", "214910.270000", "214910.730000", "214911.190000", "214911.650000", "214912.110000", "214912.570000", "214913.030000", "214913.490000", "214913.950000", "214914.410000", "214914.870000", "214915.330000", "214915.790000", "214916.250000", "214916.710000", "214917.170000", "214917.630000", "214918.090000", "214918.550000", "214919.010000", "214919.470000", "214919.930000", "214920.390000", "214920.850000", "214921.310000", "214921.770000", "214922.230000", "214922.690000", "214923.150000", "214923.610000", "214924.070000", "214924.530000", "214924.990000", "214925.450000", "214925.910000", "214926.370000", "214926.830000", "214927.290000", "214927.750000", "214928.210000", "214928.670000", "214929.130000", "214929.590000", "214930.050000", "214930.510000", "214930.970000", "214931.430000", "214931.890000", "214932.350000", "214932.810000", "214933.270000", "214933.730000", "214934.190000", "214934.650000", "214935.110000", "214935.570000", "214936.030000", "214936.490000", "214936.950000", "214937.410000", "214937.870000", "214938.330000", "214938.790000", "214939.250000", "214939.710000", "214940.170000", "214940.630000", "214941.090000", "214941.550000", "214942.010000", "214942.470000", "214942.930000", "214943.390000", "214943.850000", "214944.310000", "214944.770000", "214945.230000", "214945.690000", "214946.150000", "214946.610000", "214947.070000", "214947.530000", "214947.990000", "214948.450000", "214948.910000", "214949.370000", "214949.830000", "214950.290000", "214950.750000", "214951.210000", "214951.670000", "214952.130000", "214952.590000", "214953.050000", "214953.510000", "214953.970000", "214954.430000", "214954.890000", "214955.350000", "214955.810000", "214956.270000", "214956.730000", "214957.190000", "214957.650000", "214958.110000", "214958.570000", "214959.030000", "214959.490000", "214959.950000", "215000.410000", "215000.870000", "215001.330000", "215001.790000", "215002.250000", "215002.710000", "215003.170000", "215003.630000", "215004.090000", "215004.550000", "215005.010000", "215005.470000", "215005.930000", "215006.390000", "215006.850000", "215007.310000", "215007.770000", "215008.230000", "215008.690000", "215009.150000", "215009.610000", "215010.070000", "215010.530000", "215010.990000", "215011.450000", "215011.910000", "215012.370000", "215012.830000", "215013.290000", "215013.750000", "215014.210000", "215014.670000", "215015.130000", "215015.590000", "215016.050000", "215016.510000", "215016.970000", "215017.430000", "215017.890000", "215018.350000", "215018.810000", "215019.270000", "215019.730000", "215020.190000", "215020.650000", "215021.110000", "215021.570000", "215022.030000", "215022.490000", "215022.950000", "215023.410000", "215023.870000", "215024.330000", "215024.790000", "215025.250000", "215025.710000", "215026.170000", "215026.630000", "215027.090000", "215027.550000", "215028.010000", "215028.470000", "215028.930000", "215029.390000", "215029.850000", "215030.310000", "215030.770000", "215031.230000", "215031.690000", "215032.150000", "215032.610000", "215033.070000", "215033.530000", "215033.990000", "215034.450000", "215034.910000", "215035.370000", "215035.830000", "215036.290000", "215036.750000", "215037.210000", "215037.670000", "215038.130000", "215038.590000", "215039.050000", "215039.510000", "215039.970000", "215040.430000", "215040.890000", "215041.350000", "215041.810000", "215042.270000", "215042.730000", "215043.190000", "215043.650000", "215044.110000", "215044.570000", "215045.030000", "215045.490000", "215045.950000", "215046.410000", "215046.870000", "215047.330000", "215047.790000", "215048.250000", "215048.710000", "215049.170000", "215049.630000", "215050.090000", "215050.550000", "215051.010000", "215051.470000", "215051.930000", "215052.390000", "215052.850000", "215053.310000", "215053.770000", "215054.230000", "215054.690000", "215055.150000", "215055.610000", "215056.070000", "215056.530000", "215056.990000", "215057.450000", "215057.910000", "215058.370000", "215058.830000", "215059.290000", "215059.750000", "215100.210000", "215100.670000", "215101.130000", "215101.590000", "215102.050000", "215102.510000", "215102.970000", "215103.430000", "215103.890000", "215104.350000", "215104.810000", "215105.270000", "215105.730000", "215106.190000", "215106.650000", "215107.110000", "215107.570000", "215108.030000", "215108.490000", "215108.950000", "215109.410000", "215109.870000", "215110.330000", "215110.790000", "215111.250000", "215111.710000", "215112.170000", "215112.630000", "215113.090000", "215113.550000", "215114.010000", "215114.470000", "215114.930000", "215115.390000", "215115.850000", "215116.310000", "215116.770000", "215117.230000", "215117.690000", "215118.150000", "215118.610000", "215119.070000", "215119.530000", "215119.990000", "215120.450000", "215120.910000", "215121.370000", "215121.830000", "215122.290000", "215122.750000", "215123.210000", "215123.670000", "215124.130000", "215124.590000", "215125.050000", "215125.510000", "215125.970000", "215126.430000", "215126.890000", "215127.350000", "215127.810000", "215128.270000", "215128.730000", "215129.190000", "215129.650000", "215130.110000", "215130.570000", "215131.030000", "215131.490000", "215131.950000", "215132.410000", "215132.870000", "215133.330000", "215133.790000", "215134.250000", "215134.710000", "215135.170000", "215135.630000", "215136.090000", "215136.550000", "215137.010000", "215137.470000", "215137.930000", "215138.390000", "215138.850000", "215139.310000", "215139.770000", "215140.230000", "215140.690000", "215141.150000", "215141.610000", "215142.070000", "215142.530000", "215142.990000", "215143.450000", "215143.910000", "215144.370000", "215144.830000", "215145.290000", "215145.750000", "215146.210000", "215146.670000", "215147.130000", "215147.590000", "215148.050000", "215148.510000", "215148.970000", "215149.430000", "215149.890000", "215150.350000", "215150.810000", "215151.270000", "215151.730000", "215152.190000", "215152.650000", "215153.110000", "215153.570000", "215154.030000", "215154.490000", "215154.950000", "215155.410000", "215155.870000", "215156.330000", "215156.790000", "215157.250000", "215157.710000", "215158.170000", "215158.630000", "215159.090000", "215159.550000", "215200.010000", "215200.470000", "215200.930000", "215201.390000", "215201.850000", "215202.310000", "215202.770000", "215203.230000", "215203.690000", "215204.150000", "215204.610000", "215205.070000", "215205.530000", "215205.990000", "215206.450000", "215206.910000", "215207.370000", "215207.830000", "215208.290000", "215208.750000", "215209.210000", "215209.670000", "215210.130000", "215210.590000", "215211.050000", "215211.510000", "215211.970000", "215212.430000", "215212.890000", "215213.350000", "215213.810000", "215214.270000", "215214.730000", "215215.190000", "215215.650000", "215216.110000", "215216.570000", "215217.030000", "215217.490000", "215217.950000", "215218.410000", "215218.870000", "215219.330000", "215219.790000", "215220.250000", "215220.710000", "215221.170000", "215221.630000", "215222.090000", "215222.550000", "215223.010000", "215223.470000", "215223.930000", "215224.390000", "215224.850000", "215225.310000", "215225.770000", "215226.230000", "215226.690000", "215227.150000", "215227.610000", "215228.070000", "215228.530000", "215228.990000", "215229.450000", "215229.910000", "215230.370000", "215230.830000", "215231.290000", "215231.750000", "215232.210000", "215232.670000", "215233.130000", "215233.590000", "215234.050000", "215234.510000", "215234.970000", "215235.430000", "215235.890000", "215236.350000", "215236.810000", "215237.270000", "215237.730000", "215238.190000", "215238.650000", "215239.110000", "215239.570000", "215240.030000", "215240.490000", "215240.950000", "215241.410000", "215241.870000", "215242.330000", "215242.790000", "215243.250000", "215243.710000", "215244.170000", "215244.630000", "215245.090000", "215245.550000", "215246.010000", "215246.470000", "215246.930000", "215247.390000", "215247.850000", "215248.310000", "215248.770000", "215249.230000", "215249.690000", "215250.150000", "215250.610000", "215251.070000", "215251.530000", "215251.990000", "215252.450000", "215252.910000", "215253.370000", "215253.830000", "215254.290000", "215254.750000", "215255.210000", "215255.670000", "215256.130000", "215256.590000", "215257.050000", "215257.510000", "215257.970000", "215258.430000", "215258.890000", "215259.350000", "215259.810000", "215300.270000", "215300.730000", "215301.190000", "215301.650000", "215302.110000", "215302.570000", "215303.030000", "215303.490000", "215303.950000", "215304.410000", "215304.870000", "215305.330000", "215305.790000", "215306.250000", "215306.710000", "215307.170000", "215307.630000", "215308.090000", "215308.550000", "215309.010000", "215309.470000", "215309.930000", "215310.390000", "215310.850000", "215311.310000", "215311.770000", "215312.230000", "215312.690000", "215313.150000", "215313.610000", "215314.070000", "215314.530000", "215314.990000", "215315.450000", "215315.910000", "215316.370000", "215316.830000", "215317.290000", "215317.750000", "215318.210000", "215318.670000", "215319.130000", "215319.590000", "215320.050000", "215320.510000", "215320.970000", "215321.430000", "215321.890000", "215322.350000", "215322.810000", "215323.270000", "215323.730000", "215324.190000", "215324.650000", "215325.110000", "215325.570000", "215326.030000", "215326.490000", "215326.950000", "215327.410000", "215327.870000", "215328.330000", "215328.790000", "215329.250000", "215329.710000", "215330.170000", "215330.630000", "215331.090000", "215331.550000", "215332.010000", "215332.470000", "215332.930000", "215333.390000", "215333.850000", "215334.310000", "215334.770000", "215335.230000", "215335.690000", "215336.150000", "215336.610000", "215337.070000", "215337.530000", "215337.990000", "215338.450000", "215338.910000", "215339.370000", "215339.830000", "215340.290000", "215340.750000", "215341.210000", "215341.670000", "215342.130000", "215342.590000", "215343.050000", "215343.510000", "215343.970000", "215344.430000", "215344.890000", "215345.350000", "215345.810000", "215346.270000", "215346.730000", "215347.190000", "215347.650000", "215348.110000", "215348.570000", "215349.030000", "215349.490000", "215349.950000", "215350.410000", "215350.870000", "215351.330000", "215351.790000", "215352.250000", "215352.710000", "215353.170000", "215353.630000", "215354.090000", "215354.550000", "215355.010000", "215355.470000", "215355.930000", "215356.390000", "215356.850000", "215357.310000", "215357.770000", "215358.230000", "215358.690000", "215359.150000", "215359.610000", "215400.070000", "215400.530000", "215400.990000", "215401.450000", "215401.910000", "215402.370000", "215402.830000", "215403.290000", "215403.750000", "215404.210000", "215404.670000", "215405.130000", "215405.590000", "215406.050000", "215406.510000", "215406.970000", "215407.430000", "215407.890000", "215408.350000", "215408.810000", "215409.270000", "215409.730000", "215410.190000", "215410.650000", "215411.110000", "215411.570000", "215412.030000", "215412.490000", "215412.950000", "215413.410000", "215413.870000", "215414.330000", "215414.790000", "215415.250000", "215415.710000", "215416.170000", "215416.630000", "215417.090000", "215417.550000", "215418.010000", "215418.470000", "215418.930000", "215419.390000", "215419.850000", "215420.310000", "215420.770000", "215421.230000", "215421.690000", "215422.150000", "215422.610000", "215423.070000", "215423.530000", "215423.990000", "215424.450000", "215424.910000", "215425.370000", "215425.830000", "215426.290000", "215426.750000", "215427.210000", "215427.670000", "215428.130000", "215428.590000", "215429.050000", "215429.510000", "215429.970000", "215430.430000", "215430.890000", "215431.350000", "215431.810000", "215432.270000", "215432.730000", "215433.190000", "215433.650000", "215434.110000", "215434.570000", "215435.030000", "215435.490000", "215435.950000", "215436.410000", "215436.870000", "215437.330000", "215437.790000", "215438.250000", "215438.710000", "215439.170000", "215439.630000", "215440.090000", "215440.550000", "215441.010000", "215441.470000", "215441.930000", "215442.390000", "215442.850000", "215443.310000", "215443.770000", "215444.230000", "215444.690000", "215445.150000", "215445.610000", "215446.070000", "215446.530000", "215446.990000", "215447.450000", "215447.910000", "215448.370000", "215448.830000", "215449.290000", "215449.750000", "215450.210000", "215450.670000", "215451.130000", "215451.590000", "215452.050000", "215452.510000", "215452.970000", "215453.430000", "215453.890000", "215454.350000", "215454.810000", "215455.270000", "215455.730000", "215456.190000", "215456.650000", "215457.110000", "215457.570000", "215458.030000", "215458.490000", "215458.950000", "215459.410000", "215459.870000", "215500.330000", "215500.790000", "215501.250000", "215501.710000", "215502.170000", "215502.630000", "215503.090000", "215503.550000", "215504.010000", "215504.470000", "215504.930000", "215505.390000", "215505.850000", "215506.310000", "215506.770000", "215507.230000", "215507.690000", "215508.150000", "215508.610000", "215509.070000", "215509.530000", "215509.990000", "215510.450000", "215510.910000", "215511.370000", "215511.830000", "215512.290000", "215512.750000", "215513.210000", "215513.670000", "215514.130000", "215514.590000", "215515.050000", "215515.510000", "215515.970000", "215516.430000", "215516.890000", "215517.350000", "215517.810000", "215518.270000", "215518.730000", "215519.190000", "215519.650000", "215520.110000", "215520.570000", "215521.030000", "215521.490000", "215521.950000", "215522.410000", "215522.870000", "215523.330000", "215523.790000", "215524.250000", "215524.710000", "215525.170000", "215525.630000", "215526.090000", "215526.550000", "215527.010000", "215527.470000", "215527.930000", "215528.390000", "215528.850000", "215529.310000", "215529.770000", "215530.230000", "215530.690000", "215531.150000", "215531.610000", "215532.070000", "215532.530000", "215532.990000", "215533.450000", "215533.910000", "215534.370000", "215534.830000", "215535.290000", "215535.750000", "215536.210000", "215536.670000", "215537.130000", "215537.590000", "215538.050000", "215538.510000", "215538.970000", "215539.430000", "215539.890000", "215540.350000", "215540.810000", "215541.270000", "215541.730000", "215542.190000", "215542.650000", "215543.110000", "215543.570000", "215544.030000", "215544.490000", "215544.950000", "215545.410000", "215545.870000", "215546.330000", "215546.790000", "215547.250000", "215547.710000", "215548.170000", "215548.630000", "215549.090000", "215549.550000", "215550.010000"],
