{
  "AcquisitionMatrixPE": 82,
  "AcquisitionNumber": 1,
  "AcquisitionTime": "22:36:56.947500",
  "BandwidthPerPixelPhaseEncode": 24.888,
  "BaseResolution": 82,
  "BodyPartExamined": "BRAIN",
  "ConsistencyInfo": "N4_VE11E_LATEST_20181129",
  "ConversionSoftware": "dcm2niix",
  "ConversionSoftwareVersion": "v1.0.20201102",
  "DerivedVendorReportedEchoSpacing": 0.00049,
  "DeviceSerialNumber": "66112",
  "DwellTime": 2e-06,
  "EchoTime": 0.0272,
  "EchoTrainLength": 82,
  "EffectiveEchoSpacing": 0.00049,
  "FlipAngle": 44,
  "ImageComments": "Unaliased MB8/PE3",
  "ImageOrientationPatientDICOM": [0.999766, -0.02119, 0.00431713, 0.0211166, 0.999643, 0.0163878],
  "ImageType": [
    "ORIGINAL",
    "PRIMARY",
    "M",
    "MB",
    "ND",
    "NORM",
    "MOSAIC"
],
  "ImagingFrequency": 123.252,
  "InPlanePhaseEncodingDirectionDICOM": "COL",
  "InstitutionAddress": "Maynard 3,Hanover,NH,US,03755",
  "InstitutionName": "Dartmouth College - PBS",
  "InstitutionalDepartmentName": "Department",
  "MRAcquisitionType": "2D",
  "MagneticFieldStrength": 3,
  "Manufacturer": "Siemens",
  "ManufacturersModelName": "Prisma",
  "Modality": "MR",
  "MultibandAccelerationFactor": 8,
  "PartialFourier": 1,
  "PatientPosition": "HFS",
  "PercentPhaseFOV": 100,
  "PercentSampling": 100,
  "PhaseEncodingDirection": "j-",
  "PhaseEncodingSteps": 82,
  "PhaseResolution": 1,
  "PixelBandwidth": 3050,
  "ProcedureStepDescription": "Wager_Wager^1076_spacetop",
  "ProtocolName": "func_run-04_task-alignvideo_acq-ap-mb8",
  "PulseSequenceDetails": "%CustomerSeq%\\cmrr_mbep2d_bold",
  "ReceiveCoilActiveElements": "HEA;HEP",
  "ReceiveCoilName": "Head_32",
  "ReconMatrixPE": 82,
  "RepetitionTime": 0.46,
  "SAR": 0.0853169,
  "ScanOptions": "FS",
  "ScanningSequence": "EP",
  "SequenceName": "epfid2d1_82",
  "SequenceVariant": "SK\\SS",
  "SeriesDescription": "func_run-04_task-alignvideo_acq-ap-mb8",
  "SeriesNumber": 34,
  "ShimSetting": [4144, -7726, -7291, 827, -21, -157, -97, 27],
  "SliceThickness": 2.7,
  "SliceTiming": [0, 0.2525, 0.0625, 0.315, 0.125, 0.3775, 0.1875, 0, 0.2525, 0.0625, 0.315, 0.125, 0.3775, 0.1875, 0, 0.2525, 0.0625, 0.315, 0.125, 0.3775, 0.1875, 0, 0.2525, 0.0625, 0.315, 0.125, 0.3775, 0.1875, 0, 0.2525, 0.0625, 0.315, 0.125, 0.3775, 0.1875, 0, 0.2525, 0.0625, 0.315, 0.125, 0.3775, 0.1875, 0, 0.2525, 0.0625, 0.315, 0.125, 0.3775, 0.1875, 0, 0.2525, 0.0625, 0.315, 0.125, 0.3775, 0.1875],
  "SoftwareVersions": "syngo MR E11",
  "SpacingBetweenSlices": 2.7,
  "StationName": "AWP66112",
  "TaskName": "alignvideo",
  "TotalReadoutTime": 0.03969,
  "TxRefAmp": 238.611,
  "WipMemBlock": "6ede5c65-31e7-4dc5-bc18-f6b29ca3a0b3||Sequence: R016 ve11e/master r/434b28f1; Aug  7 2019 18:53:46 by eja",
  "dcmmeta_affine": [
    [-2.6822993755340576, 0.05665440112352371, 0.01258968748152256, 112.70344543457031],
    [0.056851278990507126, 2.6819682121276855, 0.043990664184093475, -99.23693084716797],
    [0.011582547798752785, -0.043967362493276596, 2.6996123790740967, -78.84504699707031],
    [0.0, 0.0, 0.0, 1.0]
],
  "dcmmeta_reorient_transform": [
    [0.0, -1.0, 0.0, 81.0],
    [1.0, 0.0, 0.0, 0.0],
    [0.0, 0.0, 1.0, 0.0],
    [0.0, 0.0, 0.0, 1.0]
],
  "dcmmeta_shape": [82, 82, 56, 914],
  "dcmmeta_slice_dim": 2,
  "dcmmeta_version": 0.6,
  "global": {
    "const": {
      "AccessionNumber": "A004040",
      "AcquisitionMatrix": [82, 0, 0, 82],
      "AngioFlag": "N",
      "BitsAllocated": 16,
      "BitsStored": 16,
      "BodyPartExamined": "BRAIN",
      "Columns": 656,
      "EchoNumbers": 1,
      "EchoTime": 27.2,
      "EchoTrainLength": 82,
      "FlipAngle": 44.0,
      "HighBit": 15,
      "ImageOrientationPatient": [0.99976614534707, -0.0211900211449, 0.00431713119257, 0.02111663973131, 0.99964269937628, 0.01638783421186],
      "ImagePositionPatient": [-903.37221788045, -871.41107710993, -98.349230463938],
      "ImageType": [
        "ORIGINAL",
        "PRIMARY",
        "M",
        "MB",
        "ND",
        "NORM",
        "MOSAIC"
],
      "ImagedNucleus": "1H",
      "ImagingFrequency": 123.252234,
      "InPlanePhaseEncodingDirection": "COL",
      "MRAcquisitionType": "2D",
      "MagneticFieldStrength": 3.0,
      "Manufacturer": "SIEMENS",
      "ManufacturerModelName": "Prisma",
      "Modality": "MR",
      "NumberOfAverages": 1.0,
      "NumberOfPhaseEncodingSteps": 82,
      "PercentPhaseFieldOfView": 100.0,
      "PercentSampling": 100.0,
      "PerformedProcedureStepStartTime": "205837.639000",
      "PhotometricInterpretation": "MONOCHROME2",
      "PixelBandwidth": 3050.0,
      "PixelRepresentation": 0,
      "PixelSpacing": [2.6829268932343, 2.6829268932343],
      "ProtocolName": "func_run-04_task-alignvideo_acq-ap-mb8",
      "RepetitionTime": 460.0,
      "Rows": 656,
      "SAR": 0.08531689587625,
      "SamplesPerPixel": 1,
      "ScanOptions": "FS",
      "ScanningSequence": "EP",
      "SequenceName": "epfid2d1_82",
      "SequenceVariant": [
        "SK",
        "SS"
],
      "SeriesDescription": "func_run-04_task-alignvideo_acq-ap-mb8",
      "SeriesNumber": 34,
      "SeriesTime": "223716.521000",
      "SliceLocation": -79.925059938414,
      "SliceThickness": 2.7000000476837,
      "SmallestImagePixelValue": 0,
      "SoftwareVersions": "syngo MR E11",
      "SpacingBetweenSlices": 2.7000000339907,
      "SpecificCharacterSet": "ISO_IR 100",
      "StudyID": "2",
      "StudyTime": "205837.492000",
      "TransmitCoilName": "Body",
      "VariableFlipAngleFlag": "N",
      "WindowCenterWidthExplanation": "Algo1"
    },
    "slices": {}
  },
  "time": {
    "samples": {
      "AcquisitionNumber": [1, 2, 3, 4, 5, 6, 7, 8, 9, 10, 11, 12, 13, 14, 15, 16, 17, 18, 19, 20, 21, 22, 23, 24, 25, 26, 27, 28, 29, 30, 31, 32, 33, 34, 35, 36, 37, 38, 39, 40, 41, 42, 43, 44, 45, 46, 47, 48, 49, 50, 51, 52, 53, 54, 55, 56, 57, 58, 59, 60, 61, 62, 63, 64, 65, 66, 67, 68, 69, 70, 71, 72, 73, 74, 75, 76, 77, 78, 79, 80, 81, 82, 83, 84, 85, 86, 87, 88, 89, 90, 91, 92, 93, 94, 95, 96, 97, 98, 99, 100, 101, 102, 103, 104, 105, 106, 107, 108, 109, 110, 111, 112, 113, 114, 115, 116, 117, 118, 119, 120, 121, 122, 123, 124, 125, 126, 127, 128, 129, 130, 131, 132, 133, 134, 135, 136, 137, 138, 139, 140, 141, 142, 143, 144, 145, 146, 147, 148, 149, 150, 151, 152, 153, 154, 155, 156, 157, 158, 159, 160, 161, 162, 163, 164, 165, 166, 167, 168, 169, 170, 171, 172, 173, 174, 175, 176, 177, 178, 179, 180, 181, 182, 183, 184, 185, 186, 187, 188, 189, 190, 191, 192, 193, 194, 195, 196, 197, 198, 199, 200, 201, 202, 203, 204, 205, 206, 207, 208, 209, 210, 211, 212, 213, 214, 215, 216, 217, 218, 219, 220, 221, 222, 223, 224, 225, 226, 227, 228, 229, 230, 231, 232, 233, 234, 235, 236, 237, 238, 239, 240, 241, 242, 243, 244, 245, 246, 247, 248, 249, 250, 251, 252, 253, 254, 255, 256, 257, 258, 259, 260, 261, 262, 263, 264, 265, 266, 267, 268, 269, 270, 271, 272, 273, 274, 275, 276, 277, 278, 279, 280, 281, 282, 283, 284, 285, 286, 287, 288, 289, 290, 291, 292, 293, 294, 295, 296, 297, 298, 299, 300, 301, 302, 303, 304, 305, 306, 307, 308, 309, 310, 311, 312, 313, 314, 315, 316, 317, 318, 319, 320, 321, 322, 323, 324, 325, 326, 327, 328, 329, 330, 331, 332, 333, 334, 335, 336, 337, 338, 339, 340, 341, 342, 343, 344, 345, 346, 347, 348, 349, 350, 351, 352, 353, 354, 355, 356, 357, 358, 359, 360, 361, 362, 363, 364, 365, 366, 367, 368, 369, 370, 371, 372, 373, 374, 375, 376, 377, 378, 379, 380, 381, 382, 383, 384, 385, 386, 387, 388, 389, 390, 391, 392, 393, 394, 395, 396, 397, 398, 399, 400, 401, 402, 403, 404, 405, 406, 407, 408, 409, 410, 411, 412, 413, 414, 415, 416, 417, 418, 419, 420, 421, 422, 423, 424, 425, 426, 427, 428, 429, 430, 431, 432, 433, 434, 435, 436, 437, 438, 439, 440, 441, 442, 443, 444, 445, 446, 447, 448, 449, 450, 451, 452, 453, 454, 455, 456, 457, 458, 459, 460, 461, 462, 463, 464, 465, 466, 467, 468, 469, 470, 471, 472, 473, 474, 475, 476, 477, 478, 479, 480, 481, 482, 483, 484, 485, 486, 487, 488, 489, 490, 491, 492, 493, 494, 495, 496, 497, 498, 499, 500, 501, 502, 503, 504, 505, 506, 507, 508, 509, 510, 511, 512, 513, 514, 515, 516, 517, 518, 519, 520, 521, 522, 523, 524, 525, 526, 527, 528, 529, 530, 531, 532, 533, 534, 535, 536, 537, 538, 539, 540, 541, 542, 543, 544, 545, 546, 547, 548, 549, 550, 551, 552, 553, 554, 555, 556, 557, 558, 559, 560, 561, 562, 563, 564, 565, 566, 567, 568, 569, 570, 571, 572, 573, 574, 575, 576, 577, 578, 579, 580, 581, 582, 583, 584, 585, 586, 587, 588, 589, 590, 591, 592, 593, 594, 595, 596, 597, 598, 599, 600, 601, 602, 603, 604, 605, 606, 607, 608, 609, 610, 611, 612, 613, 614, 615, 616, 617, 618, 619, 620, 621, 622, 623, 624, 625, 626, 627, 628, 629, 630, 631, 632, 633, 634, 635, 636, 637, 638, 639, 640, 641, 642, 643, 644, 645, 646, 647, 648, 649, 650, 651, 652, 653, 654, 655, 656, 657, 658, 659, 660, 661, 662, 663, 664, 665, 666, 667, 668, 669, 670, 671, 672, 673, 674, 675, 676, 677, 678, 679, 680, 681, 682, 683, 684, 685, 686, 687, 688, 689, 690, 691, 692, 693, 694, 695, 696, 697, 698, 699, 700, 701, 702, 703, 704, 705, 706, 707, 708, 709, 710, 711, 712, 713, 714, 715, 716, 717, 718, 719, 720, 721, 722, 723, 724, 725, 726, 727, 728, 729, 730, 731, 732, 733, 734, 735, 736, 737, 738, 739, 740, 741, 742, 743, 744, 745, 746, 747, 748, 749, 750, 751, 752, 753, 754, 755, 756, 757, 758, 759, 760, 761, 762, 763, 764, 765, 766, 767, 768, 769, 770, 771, 772, 773, 774, 775, 776, 777, 778, 779, 780, 781, 782, 783, 784, 785, 786, 787, 788, 789, 790, 791, 792, 793, 794, 795, 796, 797, 798, 799, 800, 801, 802, 803, 804, 805, 806, 807, 808, 809, 810, 811, 812, 813, 814, 815, 816, 817, 818, 819, 820, 821, 822, 823, 824, 825, 826, 827, 828, 829, 830, 831, 832, 833, 834, 835, 836, 837, 838, 839, 840, 841, 842, 843, 844, 845, 846, 847, 848, 849, 850, 851, 852, 853, 854, 855, 856, 857, 858, 859, 860, 861, 862, 863, 864, 865, 866, 867, 868, 869, 870, 871, 872, 873, 874, 875, 876, 877, 878, 879, 880, 881, 882, 883, 884, 885, 886, 887, 888, 889, 890, 891, 892, 893, 894, 895, 896, 897, 898, 899, 900, 901, 902, 903, 904, 905, 906, 907, 908, 909, 910, 911, 912, 913, 914],
      "AcquisitionTime": ["223656.947500", "223657.407500", "223657.867500", "223658.327500", "223658.787500", "223659.247500", "223659.707500", "223700.167500", "223700.627500", "223701.087500", "223701.547500", "223702.007500", "223702.467500", "223702.927500", "223703.387500", "223703.847500", "223704.307500", "223704.767500", "223705.227500", "223705.687500", "223706.147500", "223706.607500", "223707.067500", "223707.527500", "223707.987500", "223708.447500", "223708.907500", "223709.367500", "223709.827500", "223710.287500", "223710.747500", "223711.207500", "223711.667500", "223712.127500", "223712.587500", "223713.047500", "223713.507500", "223713.967500", "223714.427500", "223714.887500", "223715.347500", "223715.807500", "223716.267500", "223716.727500", "223717.187500", "223717.647500", "223718.107500", "223718.567500", "223719.027500", "223719.487500", "223719.947500", "223720.407500", "223720.867500", "223721.327500", "223721.787500", "223722.247500", "223722.707500", "223723.167500", "223723.627500", "223724.087500", "223724.547500", "223725.007500", "223725.467500", "223725.927500", "223726.387500", "223726.847500", "223727.307500", "223727.767500", "223728.227500", "223728.687500", "223729.147500", "223729.607500", "223730.067500", "223730.527500", "223730.987500", "223731.447500", "223731.907500", "223732.367500", "223732.827500", "223733.287500", "223733.747500", "223734.207500", "223734.667500", "223735.127500", "223735.587500", "223736.047500", "223736.507500", "223736.967500", "223737.427500", "223737.887500", "223738.347500", "223738.807500", "223739.267500", "223739.727500", "223740.187500", "223740.647500", "223741.107500", "223741.567500", "223742.027500", "223742.487500", "223742.947500", "223743.407500", "223743.867500", "223744.327500", "223744.787500", "223745.247500", "223745.707500", "223746.167500", "223746.627500", "223747.087500", "223747.547500", "223748.007500", "223748.467500", "223748.927500", "223749.387500", "223749.847500", "223750.307500", "223750.767500", "223751.227500", "223751.687500", "223752.147500", "223752.607500", "223753.067500", "223753.527500", "223753.987500", "223754.447500", "223754.907500", "223755.367500", "223755.827500", "223756.287500", "223756.747500", "223757.207500", "223757.667500", "223758.127500", "223758.587500", "223759.047500", "223759.507500", "223759.967500", "223800.427500", "223800.887500", "223801.347500", "223801.807500", "223802.267500", "223802.727500", "223803.187500", "223803.647500", "223804.107500", "223804.567500", "223805.027500", "223805.487500", "223805.947500", "223806.407500", "223806.867500", "223807.327500", "223807.787500", "223808.247500", "223808.707500", "223809.167500", "223809.627500", "223810.087500", "223810.547500", "223811.007500", "223811.467500", "223811.927500", "223812.387500", "223812.847500", "223813.307500", "223813.767500", "223814.227500", "223814.687500", "223815.147500", "223815.607500", "223816.067500", "223816.527500", "223816.987500", "223817.447500", "223817.907500", "223818.367500", "223818.827500", "223819.287500", "223819.747500", "223820.207500", "223820.667500", "223821.127500", "223821.587500", "223822.047500", "223822.507500", "223822.967500", "223823.427500", "223823.887500", "223824.347500", "223824.807500", "223825.267500", "223825.727500", "223826.187500", "223826.647500", "223827.107500", "223827.567500", "223828.027500", "223828.487500", "223828.947500", "223829.407500", "223829.867500", "223830.327500", "223830.787500", "223831.247500", "223831.707500", "223832.167500", "223832.627500", "223833.087500", "223833.547500", "223834.007500", "223834.467500", "223834.927500", "223835.387500", "223835.847500", "223836.307500", "223836.767500", "223837.227500", "223837.687500", "223838.147500", "223838.607500", "223839.067500", "223839.527500", "223839.987500", "223840.447500", "223840.907500", "223841.367500", "223841.827500", "223842.287500", "223842.747500", "223843.207500", "223843.667500", "223844.127500", "223844.587500", "223845.047500", "223845.507500", "223845.967500", "223846.427500", "223846.887500", "223847.347500", "223847.807500", "223848.267500", "223848.727500", "223849.187500", "223849.647500", "223850.107500", "223850.567500", "223851.027500", "223851.487500", "223851.947500", "223852.407500", "223852.867500", "223853.327500", "223853.787500", "223854.247500", "223854.707500", "223855.167500", "223855.627500", "223856.087500", "223856.547500", "223857.007500", "223857.467500", "223857.927500", "223858.387500", "223858.847500", "223859.307500", "223859.767500", "223900.227500", "223900.687500", "223901.147500", "223901.607500", "223902.067500", "223902.527500", "223902.987500", "223903.447500", "223903.907500", "223904.367500", "223904.827500", "223905.287500", "223905.747500", "223906.207500", "223906.667500", "223907.127500", "223907.587500", "223908.047500", "223908.507500", "223908.967500", "223909.427500", "223909.887500", "223910.347500", "223910.807500", "223911.267500", "223911.727500", "223912.187500", "223912.647500", "223913.107500", "223913.567500", "223914.027500", "223914.487500", "223914.947500", "223915.407500", "223915.867500", "223916.327500", "223916.787500", "223917.247500", "223917.707500", "223918.167500", "223918.627500", "223919.087500", "223919.547500", "223920.007500", "223920.467500", "223920.927500", "223921.387500", "223921.847500", "223922.307500", "223922.767500", "223923.227500", "223923.687500", "223924.147500", "223924.607500", "223925.067500", "223925.527500", "223925.987500", "223926.447500", "223926.907500", "223927.367500", "223927.827500", "223928.287500", "223928.747500", "223929.207500", "223929.667500", "223930.127500", "223930.587500", "223931.047500", "223931.507500", "223931.967500", "223932.427500", "223932.887500", "223933.347500", "223933.807500", "223934.267500", "223934.727500", "223935.187500", "223935.647500", "223936.107500", "223936.567500", "223937.027500", "223937.487500", "223937.947500", "223938.407500", "223938.867500", "223939.327500", "223939.787500", "223940.247500", "223940.707500", "223941.167500", "223941.627500", "223942.087500", "223942.547500", "223943.007500", "223943.467500", "223943.927500", "223944.387500", "223944.847500", "223945.307500", "223945.767500", "223946.227500", "223946.687500", "223947.147500", "223947.607500", "223948.067500", "223948.527500", "223948.987500", "223949.447500", "223949.907500", "223950.367500", "223950.827500", "223951.287500", "223951.747500", "223952.207500", "223952.667500", "223953.127500", "223953.587500", "223954.047500", "223954.507500", "223954.967500", "223955.427500", "223955.887500", "223956.347500", "223956.807500", "223957.267500", "223957.727500", "223958.187500", "223958.647500", "223959.107500", "223959.567500", "224000.027500", "224000.487500", "224000.947500", "224001.407500", "224001.867500", "224002.327500", "224002.787500", "224003.247500", "224003.707500", "224004.167500", "224004.627500", "224005.087500", "224005.547500", "224006.007500", "224006.467500", "224006.927500", "224007.387500", "224007.847500", "224008.307500", "224008.767500", "224009.227500", "224009.687500", "224010.147500", "224010.607500", "224011.067500", "224011.527500", "224011.987500", "224012.447500", "224012.907500", "224013.367500", "224013.827500", "224014.287500", "224014.747500", "224015.207500", "224015.667500", "224016.127500", "224016.587500", "224017.047500", "224017.507500", "224017.967500", "224018.427500", "224018.887500", "224019.347500", "224019.807500", "224020.267500", "224020.727500", "224021.187500", "224021.647500", "224022.107500", "224022.567500", "224023.027500", "224023.487500", "224023.947500", "224024.407500", "224024.867500", "224025.327500", "224025.787500", "224026.247500", "224026.707500", "224027.167500", "224027.627500", "224028.087500", "224028.547500", "224029.007500", "224029.467500", "224029.927500", "224030.387500", "224030.847500", "224031.307500", "224031.767500", "224032.227500", "224032.687500", "224033.147500", "224033.607500", "224034.067500", "224034.527500", "224034.987500", "224035.447500", "224035.907500", "224036.367500", "224036.827500", "224037.287500", "224037.747500", "224038.207500", "224038.667500", "224039.127500", "224039.587500", "224040.047500", "224040.507500", "224040.967500", "224041.427500", "224041.887500", "224042.347500", "224042.807500", "224043.267500", "224043.727500", "224044.187500", "224044.647500", "224045.107500", "224045.567500", "224046.027500", "224046.487500", "224046.947500", "224047.407500", "224047.867500", "224048.327500", "224048.787500", "224049.247500", "224049.707500", "224050.167500", "224050.627500", "224051.087500", "224051.547500", "224052.007500", "224052.467500", "224052.927500", "224053.387500", "224053.847500", "224054.307500", "224054.767500", "224055.227500", "224055.687500", "224056.147500", "224056.607500", "224057.067500", "224057.527500", "224057.987500", "224058.447500", "224058.907500", "224059.367500", "224059.827500", "224100.287500", "224100.747500", "224101.207500", "224101.667500", "224102.127500", "224102.587500", "224103.047500", "224103.507500", "224103.967500", "224104.427500", "224104.887500", "224105.347500", "224105.807500", "224106.267500", "224106.727500", "224107.187500", "224107.647500", "224108.107500", "224108.567500", "224109.027500", "224109.487500", "224109.947500", "224110.407500", "224110.867500", "224111.327500", "224111.787500", "224112.247500", "224112.707500", "224113.167500", "224113.627500", "224114.087500", "224114.547500", "224115.007500", "224115.467500", "224115.927500", "224116.387500", "224116.847500", "224117.307500", "224117.767500", "224118.227500", "224118.687500", "224119.147500", "224119.607500", "224120.067500", "224120.527500", "224120.987500", "224121.447500", "224121.907500", "224122.367500", "224122.827500", "224123.287500", "224123.747500", "224124.207500", "224124.667500", "224125.127500", "224125.587500", "224126.047500", "224126.507500", "224126.967500", "224127.427500", "224127.887500", "224128.347500", "224128.807500", "224129.267500", "224129.727500", "224130.187500", "224130.647500", "224131.107500", "224131.567500", "224132.027500", "224132.487500", "224132.947500", "224133.407500", "224133.867500", "224134.327500", "224134.787500", "224135.247500", "224135.707500", "224136.167500", "224136.627500", "224137.087500", "224137.547500", "224138.007500", "224138.467500", "224138.927500", "224139.387500", "224139.847500", "224140.307500", "224140.767500", "224141.227500", "224141.687500", "224142.147500", "224142.607500", "224143.067500", "224143.527500", "224143.987500", "224144.447500", "224144.907500", "224145.367500", "224145.827500", "224146.287500", "224146.747500", "224147.207500", "224147.667500", "224148.127500", "224148.587500", "224149.047500", "224149.507500", "224149.967500", "224150.427500", "224150.887500", "224151.347500", "224151.807500", "224152.267500", "224152.727500", "224153.187500", "224153.647500", "224154.107500", "224154.567500", "224155.027500", "224155.487500", "224155.947500", "224156.407500", "224156.867500", "224157.327500", "224157.787500", "224158.247500", "224158.707500", "224159.167500", "224159.627500", "224200.087500", "224200.547500", "224201.007500", "224201.467500", "224201.927500", "224202.387500", "224202.847500", "224203.307500", "224203.767500", "224204.227500", "224204.687500", "224205.147500", "224205.607500", "224206.067500", "224206.527500", "224206.987500", "224207.447500", "224207.907500", "224208.367500", "224208.827500", "224209.287500", "224209.747500", "224210.207500", "224210.667500", "224211.127500", "224211.587500", "224212.047500", "224212.507500", "224212.967500", "224213.427500", "224213.887500", "224214.347500", "224214.807500", "224215.267500", "224215.727500", "224216.187500", "224216.647500", "224217.107500", "224217.567500", "224218.027500", "224218.487500", "224218.947500", "224219.407500", "224219.867500", "224220.327500", "224220.787500", "224221.247500", "224221.707500", "224222.167500", "224222.627500", "224223.087500", "224223.547500", "224224.007500", "224224.467500", "224224.927500", "224225.387500", "224225.847500", "224226.307500", "224226.767500", "224227.227500", "224227.687500", "224228.147500", "224228.607500", "224229.067500", "224229.527500", "224229.987500", "224230.447500", "224230.907500", "224231.367500", "224231.827500", "224232.287500", "224232.747500", "224233.207500", "224233.667500", "224234.127500", "224234.587500", "224235.047500", "224235.507500", "224235.967500", "224236.427500", "224236.887500", "224237.347500", "224237.807500", "224238.267500", "224238.727500", "224239.187500", "224239.647500", "224240.107500", "224240.567500", "224241.027500", "224241.487500", "224241.947500", "224242.407500", "224242.867500", "224243.327500", "224243.787500", "224244.247500", "224244.707500", "224245.167500", "224245.627500", "224246.087500", "224246.547500", "224247.007500", "224247.467500", "224247.927500", "224248.387500", "224248.847500", "224249.307500", "224249.767500", "224250.227500", "224250.687500", "224251.147500", "224251.607500", "224252.067500", "224252.527500", "224252.987500", "224253.447500", "224253.907500", "224254.367500", "224254.827500", "224255.287500", "224255.747500", "224256.207500", "224256.667500", "224257.127500", "224257.587500", "224258.047500", "224258.507500", "224258.967500", "224259.427500", "224259.887500", "224300.347500", "224300.807500", "224301.267500", "224301.727500", "224302.187500", "224302.647500", "224303.107500", "224303.567500", "224304.027500", "224304.487500", "224304.947500", "224305.407500", "224305.867500", "224306.327500", "224306.787500", "224307.247500", "224307.707500", "224308.167500", "224308.627500", "224309.087500", "224309.547500", "224310.007500", "224310.467500", "224310.927500", "224311.387500", "224311.847500", "224312.307500", "224312.767500", "224313.227500", "224313.687500", "224314.147500", "224314.607500", "224315.067500", "224315.527500", "224315.987500", "224316.447500", "224316.907500", "224317.367500", "224317.827500", "224318.287500", "224318.747500", "224319.207500", "224319.667500", "224320.127500", "224320.587500", "224321.047500", "224321.507500", "224321.967500", "224322.427500", "224322.887500", "224323.347500", "224323.807500", "224324.267500", "224324.727500", "224325.187500", "224325.647500", "224326.107500", "224326.567500", "224327.027500", "224327.487500", "224327.947500", "224328.407500", "224328.867500", "224329.327500", "224329.787500", "224330.247500", "224330.707500", "224331.167500", "224331.627500", "224332.087500", "224332.547500", "224333.007500", "224333.467500", "224333.927500", "224334.387500", "224334.847500", "224335.307500", "224335.767500", "224336.227500", "224336.687500", "224337.147500", "224337.607500", "224338.067500", "224338.527500", "224338.987500", "224339.447500", "224339.907500", "224340.367500", "224340.827500", "224341.287500", "224341.747500", "224342.207500", "224342.667500", "224343.127500", "224343.587500", "224344.047500", "224344.507500", "224344.967500", "224345.427500", "224345.887500", "224346.347500", "224346.807500", "224347.267500", "224347.727500", "224348.187500", "224348.647500", "224349.107500", "224349.567500", "224350.027500", "224350.487500", "224350.947500", "224351.407500", "224351.867500", "224352.327500", "224352.787500", "224353.247500", "224353.707500", "224354.167500", "224354.627500", "224355.087500", "224355.547500", "224356.007500", "224356.467500", "224356.927500"],
