{
  "AcquisitionMatrixPE": 82,
  "AcquisitionNumber": 1,
  "AcquisitionTime": "14:40:21.597500",
  "BandwidthPerPixelPhaseEncode": 24.888,
  "BaseResolution": 82,
  "BodyPartExamined": "BRAIN",
  "ConsistencyInfo": "N4_VE11E_LATEST_20181129",
  "ConversionSoftware": "dcm2niix",
  "ConversionSoftwareVersion": "v1.0.20201102",
  "DerivedVendorReportedEchoSpacing": 0.00049,
  "DeviceSerialNumber": "66112",
  "DwellTime": 2e-06,
  "EchoTime": 0.0272,
  "EchoTrainLength": 82,
  "EffectiveEchoSpacing": 0.00049,
  "FlipAngle": 44,
  "ImageComments": "Unaliased MB8/PE3",
  "ImageOrientationPatientDICOM": [0.999961, -0.00321585, 0.00824772, 0.00279245, 0.998703, 0.0508429],
  "ImageType": [
    "ORIGINAL",
    "PRIMARY",
    "M",
    "MB",
    "ND",
    "NORM",
    "MOSAIC"
],
  "ImagingFrequency": 123.252,
  "InPlanePhaseEncodingDirectionDICOM": "COL",
  "InstitutionAddress": "Maynard 3,Hanover,NH,US,03755",
  "InstitutionName": "Dartmouth College - PBS",
  "InstitutionalDepartmentName": "Department",
  "MRAcquisitionType": "2D",
  "MagneticFieldStrength": 3,
  "Manufacturer": "Siemens",
  "ManufacturersModelName": "Prisma",
  "Modality": "MR",
  "MultibandAccelerationFactor": 8,
  "PartialFourier": 1,
  "PatientPosition": "HFS",
  "PercentPhaseFOV": 100,
  "PercentSampling": 100,
  "PhaseEncodingDirection": "j-",
  "PhaseEncodingSteps": 82,
  "PhaseResolution": 1,
  "PixelBandwidth": 3050,
  "ProcedureStepDescription": "Wager_Wager^1076_spacetop",
  "ProtocolName": "func_run-02_task-social_acq-ap-mb8",
  "PulseSequenceDetails": "%CustomerSeq%\\cmrr_mbep2d_bold",
  "ReceiveCoilActiveElements": "HEA;HEP",
  "ReceiveCoilName": "Head_32",
  "ReconMatrixPE": 82,
  "RepetitionTime": 0.46,
  "SAR": 0.102103,
  "ScanOptions": "FS",
  "ScanningSequence": "EP",
  "SequenceName": "epfid2d1_82",
  "SequenceVariant": "SK\\SS",
  "SeriesDescription": "func_run-02_task-social_acq-ap-mb8",
  "SeriesNumber": 10,
  "ShimSetting": [4137, -7760, -7234, 515, -85, -270, -4, 55],
  "SliceThickness": 2.7,
  "SliceTiming": [0, 0.25, 0.0625, 0.3125, 0.125, 0.3775, 0.1875, 0, 0.25, 0.0625, 0.3125, 0.125, 0.3775, 0.1875, 0, 0.25, 0.0625, 0.3125, 0.125, 0.3775, 0.1875, 0, 0.25, 0.0625, 0.3125, 0.125, 0.3775, 0.1875, 0, 0.25, 0.0625, 0.3125, 0.125, 0.3775, 0.1875, 0, 0.25, 0.0625, 0.3125, 0.125, 0.3775, 0.1875, 0, 0.25, 0.0625, 0.3125, 0.125, 0.3775, 0.1875, 0, 0.25, 0.0625, 0.3125, 0.125, 0.3775, 0.1875],
  "SoftwareVersions": "syngo MR E11",
  "SpacingBetweenSlices": 2.7,
  "StationName": "AWP66112",
  "TaskName": "social",
  "TotalReadoutTime": 0.03969,
  "TxRefAmp": 292.835,
  "WipMemBlock": "c4fc771b-edf0-4a0b-b5ee-750a2951e645||Sequence: R016 ve11e/master r/434b28f1; Aug  7 2019 18:53:46 by eja",
  "dcmmeta_affine": [
    [-2.682821750640869, 0.007491948548704386, 0.022681424394249916, 111.6929702758789],
    [0.00862790085375309, 2.6794464588165283, 0.1372082233428955, -91.71205139160156],
    [0.022128039970993996, -0.1364077478647232, 2.696415901184082, -68.9209976196289],
    [0.0, 0.0, 0.0, 1.0]
],
  "dcmmeta_reorient_transform": [
    [0.0, -1.0, 0.0, 81.0],
    [1.0, 0.0, 0.0, 0.0],
    [0.0, 0.0, 1.0, 0.0],
    [0.0, 0.0, 0.0, 1.0]
],
  "dcmmeta_shape": [82, 82, 56, 872],
  "dcmmeta_slice_dim": 2,
  "dcmmeta_version": 0.6,
  "global": {
    "const": {
      "AccessionNumber": "A004026",
      "AcquisitionMatrix": [82, 0, 0, 82],
      "AngioFlag": "N",
      "BitsAllocated": 16,
      "BitsStored": 16,
      "BodyPartExamined": "BRAIN",
      "Columns": 656,
      "EchoNumbers": 1,
      "EchoTime": 27.2,
      "EchoTrainLength": 82,
      "FlipAngle": 44.0,
      "HighBit": 15,
      "ImageOrientationPatient": [0.99996081590166, -0.0032158539287, 0.00824772361262, 0.00279245354836, 0.99870276018873, 0.05084288538814],
      "ImagePositionPatient": [-884.41985378778, -891.84805081656, -125.4697917869],
      "ImageType": [
        "ORIGINAL",
        "PRIMARY",
        "M",
        "MB",
        "ND",
        "NORM",
        "MOSAIC"
],
      "ImagedNucleus": "1H",
      "ImagingFrequency": 123.252143,
      "InPlanePhaseEncodingDirection": "COL",
      "MRAcquisitionType": "2D",
      "MagneticFieldStrength": 3.0,
      "Manufacturer": "SIEMENS",
      "ManufacturerModelName": "Prisma",
      "Modality": "MR",
      "NumberOfAverages": 1.0,
      "NumberOfPhaseEncodingSteps": 82,
      "PercentPhaseFieldOfView": 100.0,
      "PercentSampling": 100.0,
      "PerformedProcedureStepStartTime": "142443.706000",
      "PhotometricInterpretation": "MONOCHROME2",
      "PixelBandwidth": 3050.0,
      "PixelRepresentation": 0,
      "PixelSpacing": [2.6829268932343, 2.6829268932343],
      "ProtocolName": "func_run-02_task-social_acq-ap-mb8",
      "RepetitionTime": 460.0,
      "Rows": 656,
      "SAR": 0.10210310703973,
      "SamplesPerPixel": 1,
      "ScanOptions": "FS",
      "ScanningSequence": "EP",
      "SequenceName": "epfid2d1_82",
      "SequenceVariant": [
        "SK",
        "SS"
],
      "SeriesDescription": "func_run-02_task-social_acq-ap-mb8",
      "SeriesNumber": 10,
      "SeriesTime": "144037.846000",
      "SliceLocation": -72.551839684296,
      "SliceThickness": 2.7000000476837,
      "SmallestImagePixelValue": 0,
      "SoftwareVersions": "syngo MR E11",
      "SpacingBetweenSlices": 2.699999948923,
      "SpecificCharacterSet": "ISO_IR 100",
      "StudyID": "1",
      "StudyTime": "142443.658000",
      "TransmitCoilName": "Body",
      "VariableFlipAngleFlag": "N",
      "WindowCenterWidthExplanation": "Algo1"
    },
    "slices": {}
  },
  "time": {
    "samples": {
      "AcquisitionNumber": [1, 2, 3, 4, 5, 6, 7, 8, 9, 10, 11, 12, 13, 14, 15, 16, 17, 18, 19, 20, 21, 22, 23, 24, 25, 26, 27, 28, 29, 30, 31, 32, 33, 34, 35, 36, 37, 38, 39, 40, 41, 42, 43, 44, 45, 46, 47, 48, 49, 50, 51, 52, 53, 54, 55, 56, 57, 58, 59, 60, 61, 62, 63, 64, 65, 66, 67, 68, 69, 70, 71, 72, 73, 74, 75, 76, 77, 78, 79, 80, 81, 82, 83, 84, 85, 86, 87, 88, 89, 90, 91, 92, 93, 94, 95, 96, 97, 98, 99, 100, 101, 102, 103, 104, 105, 106, 107, 108, 109, 110, 111, 112, 113, 114, 115, 116, 117, 118, 119, 120, 121, 122, 123, 124, 125, 126, 127, 128, 129, 130, 131, 132, 133, 134, 135, 136, 137, 138, 139, 140, 141, 142, 143, 144, 145, 146, 147, 148, 149, 150, 151, 152, 153, 154, 155, 156, 157, 158, 159, 160, 161, 162, 163, 164, 165, 166, 167, 168, 169, 170, 171, 172, 173, 174, 175, 176, 177, 178, 179, 180, 181, 182, 183, 184, 185, 186, 187, 188, 189, 190, 191, 192, 193, 194, 195, 196, 197, 198, 199, 200, 201, 202, 203, 204, 205, 206, 207, 208, 209, 210, 211, 212, 213, 214, 215, 216, 217, 218, 219, 220, 221, 222, 223, 224, 225, 226, 227, 228, 229, 230, 231, 232, 233, 234, 235, 236, 237, 238, 239, 240, 241, 242, 243, 244, 245, 246, 247, 248, 249, 250, 251, 252, 253, 254, 255, 256, 257, 258, 259, 260, 261, 262, 263, 264, 265, 266, 267, 268, 269, 270, 271, 272, 273, 274, 275, 276, 277, 278, 279, 280, 281, 282, 283, 284, 285, 286, 287, 288, 289, 290, 291, 292, 293, 294, 295, 296, 297, 298, 299, 300, 301, 302, 303, 304, 305, 306, 307, 308, 309, 310, 311, 312, 313, 314, 315, 316, 317, 318, 319, 320, 321, 322, 323, 324, 325, 326, 327, 328, 329, 330, 331, 332, 333, 334, 335, 336, 337, 338, 339, 340, 341, 342, 343, 344, 345, 346, 347, 348, 349, 350, 351, 352, 353, 354, 355, 356, 357, 358, 359, 360, 361, 362, 363, 364, 365, 366, 367, 368, 369, 370, 371, 372, 373, 374, 375, 376, 377, 378, 379, 380, 381, 382, 383, 384, 385, 386, 387, 388, 389, 390, 391, 392, 393, 394, 395, 396, 397, 398, 399, 400, 401, 402, 403, 404, 405, 406, 407, 408, 409, 410, 411, 412, 413, 414, 415, 416, 417, 418, 419, 420, 421, 422, 423, 424, 425, 426, 427, 428, 429, 430, 431, 432, 433, 434, 435, 436, 437, 438, 439, 440, 441, 442, 443, 444, 445, 446, 447, 448, 449, 450, 451, 452, 453, 454, 455, 456, 457, 458, 459, 460, 461, 462, 463, 464, 465, 466, 467, 468, 469, 470, 471, 472, 473, 474, 475, 476, 477, 478, 479, 480, 481, 482, 483, 484, 485, 486, 487, 488, 489, 490, 491, 492, 493, 494, 495, 496, 497, 498, 499, 500, 501, 502, 503, 504, 505, 506, 507, 508, 509, 510, 511, 512, 513, 514, 515, 516, 517, 518, 519, 520, 521, 522, 523, 524, 525, 526, 527, 528, 529, 530, 531, 532, 533, 534, 535, 536, 537, 538, 539, 540, 541, 542, 543, 544, 545, 546, 547, 548, 549, 550, 551, 552, 553, 554, 555, 556, 557, 558, 559, 560, 561, 562, 563, 564, 565, 566, 567, 568, 569, 570, 571, 572, 573, 574, 575, 576, 577, 578, 579, 580, 581, 582, 583, 584, 585, 586, 587, 588, 589, 590, 591, 592, 593, 594, 595, 596, 597, 598, 599, 600, 601, 602, 603, 604, 605, 606, 607, 608, 609, 610, 611, 612, 613, 614, 615, 616, 617, 618, 619, 620, 621, 622, 623, 624, 625, 626, 627, 628, 629, 630, 631, 632, 633, 634, 635, 636, 637, 638, 639, 640, 641, 642, 643, 644, 645, 646, 647, 648, 649, 650, 651, 652, 653, 654, 655, 656, 657, 658, 659, 660, 661, 662, 663, 664, 665, 666, 667, 668, 669, 670, 671, 672, 673, 674, 675, 676, 677, 678, 679, 680, 681, 682, 683, 684, 685, 686, 687, 688, 689, 690, 691, 692, 693, 694, 695, 696, 697, 698, 699, 700, 701, 702, 703, 704, 705, 706, 707, 708, 709, 710, 711, 712, 713, 714, 715, 716, 717, 718, 719, 720, 721, 722, 723, 724, 725, 726, 727, 728, 729, 730, 731, 732, 733, 734, 735, 736, 737, 738, 739, 740, 741, 742, 743, 744, 745, 746, 747, 748, 749, 750, 751, 752, 753, 754, 755, 756, 757, 758, 759, 760, 761, 762, 763, 764, 765, 766, 767, 768, 769, 770, 771, 772, 773, 774, 775, 776, 777, 778, 779, 780, 781, 782, 783, 784, 785, 786, 787, 788, 789, 790, 791, 792, 793, 794, 795, 796, 797, 798, 799, 800, 801, 802, 803, 804, 805, 806, 807, 808, 809, 810, 811, 812, 813, 814, 815, 816, 817, 818, 819, 820, 821, 822, 823, 824, 825, 826, 827, 828, 829, 830, 831, 832, 833, 834, 835, 836, 837, 838, 839, 840, 841, 842, 843, 844, 845, 846, 847, 848, 849, 850, 851, 852, 853, 854, 855, 856, 857, 858, 859, 860, 861, 862, 863, 864, 865, 866, 867, 868, 869, 870, 871, 872],
      "AcquisitionTime": ["144021.597500", "144022.057500", "144022.517500", "144022.977500", "144023.437500", "144023.897500", "144024.357500", "144024.817500", "144025.277500", "144025.737500", "144026.197500", "144026.657500", "144027.117500", "144027.577500", "144028.037500", "144028.497500", "144028.957500", "144029.417500", "144029.877500", "144030.337500", "144030.797500", "144031.257500", "144031.717500", "144032.177500", "144032.637500", "144033.097500", "144033.557500", "144034.017500", "144034.477500", "144034.937500", "144035.397500", "144035.857500", "144036.317500", "144036.777500", "144037.237500", "144037.697500", "144038.157500", "144038.617500", "144039.077500", "144039.537500", "144039.997500", "144040.457500", "144040.917500", "144041.377500", "144041.837500", "144042.297500", "144042.757500", "144043.217500", "144043.677500", "144044.137500", "144044.597500", "144045.057500", "144045.517500", "144045.977500", "144046.437500", "144046.897500", "144047.357500", "144047.817500", "144048.277500", "144048.737500", "144049.197500", "144049.657500", "144050.117500", "144050.577500", "144051.037500", "144051.497500", "144051.957500", "144052.417500", "144052.877500", "144053.337500", "144053.797500", "144054.257500", "144054.717500", "144055.177500", "144055.637500", "144056.097500", "144056.557500", "144057.017500", "144057.477500", "144057.937500", "144058.397500", "144058.857500", "144059.317500", "144059.777500", "144100.237500", "144100.697500", "144101.157500", "144101.617500", "144102.077500", "144102.537500", "144102.997500", "144103.457500", "144103.917500", "144104.377500", "144104.837500", "144105.297500", "144105.757500", "144106.217500", "144106.677500", "144107.137500", "144107.597500", "144108.057500", "144108.517500", "144108.977500", "144109.437500", "144109.897500", "144110.357500", "144110.817500", "144111.277500", "144111.737500", "144112.197500", "144112.657500", "144113.117500", "144113.577500", "144114.037500", "144114.497500", "144114.957500", "144115.417500", "144115.877500", "144116.337500", "144116.797500", "144117.257500", "144117.717500", "144118.177500", "144118.637500", "144119.097500", "144119.557500", "144120.017500", "144120.477500", "144120.937500", "144121.397500", "144121.857500", "144122.317500", "144122.777500", "144123.237500", "144123.697500", "144124.157500", "144124.617500", "144125.077500", "144125.537500", "144125.997500", "144126.457500", "144126.917500", "144127.377500", "144127.837500", "144128.297500", "144128.757500", "144129.217500", "144129.677500", "144130.137500", "144130.597500", "144131.057500", "144131.517500", "144131.977500", "144132.437500", "144132.897500", "144133.357500", "144133.817500", "144134.277500", "144134.737500", "144135.197500", "144135.657500", "144136.117500", "144136.577500", "144137.037500", "144137.497500", "144137.957500", "144138.417500", "144138.877500", "144139.337500", "144139.797500", "144140.257500", "144140.717500", "144141.177500", "144141.637500", "144142.097500", "144142.557500", "144143.017500", "144143.477500", "144143.937500", "144144.397500", "144144.857500", "144145.317500", "144145.777500", "144146.237500", "144146.697500", "144147.157500", "144147.617500", "144148.077500", "144148.537500", "144148.997500", "144149.457500", "144149.917500", "144150.377500", "144150.837500", "144151.297500", "144151.757500", "144152.217500", "144152.677500", "144153.137500", "144153.597500", "144154.057500", "144154.517500", "144154.977500", "144155.437500", "144155.897500", "144156.357500", "144156.817500", "144157.277500", "144157.737500", "144158.197500", "144158.657500", "144159.117500", "144159.577500", "144200.037500", "144200.497500", "144200.957500", "144201.417500", "144201.877500", "144202.337500", "144202.797500", "144203.257500", "144203.717500", "144204.177500", "144204.637500", "144205.097500", "144205.557500", "144206.017500", "144206.477500", "144206.937500", "144207.397500", "144207.857500", "144208.317500", "144208.777500", "144209.237500", "144209.697500", "144210.157500", "144210.617500", "144211.077500", "144211.537500", "144211.997500", "144212.457500", "144212.917500", "144213.377500", "144213.837500", "144214.297500", "144214.757500", "144215.217500", "144215.677500", "144216.137500", "144216.597500", "144217.057500", "144217.517500", "144217.977500", "144218.437500", "144218.897500", "144219.357500", "144219.817500", "144220.277500", "144220.737500", "144221.197500", "144221.657500", "144222.117500", "144222.577500", "144223.037500", "144223.497500", "144223.957500", "144224.417500", "144224.877500", "144225.337500", "144225.797500", "144226.257500", "144226.717500", "144227.177500", "144227.637500", "144228.097500", "144228.557500", "144229.017500", "144229.477500", "144229.937500", "144230.397500", "144230.857500", "144231.317500", "144231.777500", "144232.237500", "144232.697500", "144233.157500", "144233.617500", "144234.077500", "144234.537500", "144234.997500", "144235.457500", "144235.917500", "144236.377500", "144236.837500", "144237.297500", "144237.757500", "144238.217500", "144238.677500", "144239.137500", "144239.597500", "144240.057500", "144240.517500", "144240.977500", "144241.437500", "144241.897500", "144242.357500", "144242.817500", "144243.277500", "144243.737500", "144244.197500", "144244.657500", "144245.117500", "144245.577500", "144246.037500", "144246.497500", "144246.957500", "144247.417500", "144247.877500", "144248.337500", "144248.797500", "144249.257500", "144249.717500", "144250.177500", "144250.637500", "144251.097500", "144251.557500", "144252.017500", "144252.477500", "144252.937500", "144253.397500", "144253.857500", "144254.317500", "144254.777500", "144255.237500", "144255.697500", "144256.157500", "144256.617500", "144257.077500", "144257.537500", "144257.997500", "144258.457500", "144258.917500", "144259.377500", "144259.837500", "144300.297500", "144300.757500", "144301.217500", "144301.677500", "144302.137500", "144302.597500", "144303.057500", "144303.517500", "144303.977500", "144304.437500", "144304.897500", "144305.357500", "144305.817500", "144306.277500", "144306.737500", "144307.197500", "144307.657500", "144308.117500", "144308.577500", "144309.037500", "144309.497500", "144309.957500", "144310.417500", "144310.877500", "144311.337500", "144311.797500", "144312.257500", "144312.717500", "144313.177500", "144313.637500", "144314.097500", "144314.557500", "144315.017500", "144315.477500", "144315.937500", "144316.397500", "144316.857500", "144317.317500", "144317.777500", "144318.237500", "144318.697500", "144319.157500", "144319.617500", "144320.077500", "144320.537500", "144320.997500", "144321.457500", "144321.917500", "144322.377500", "144322.837500", "144323.297500", "144323.757500", "144324.217500", "144324.677500", "144325.137500", "144325.597500", "144326.057500", "144326.517500", "144326.977500", "144327.437500", "144327.897500", "144328.357500", "144328.817500", "144329.277500", "144329.737500", "144330.197500", "144330.657500", "144331.117500", "144331.577500", "144332.037500", "144332.497500", "144332.957500", "144333.417500", "144333.877500", "144334.337500", "144334.797500", "144335.257500", "144335.717500", "144336.177500", "144336.637500", "144337.097500", "144337.557500", "144338.017500", "144338.477500", "144338.937500", "144339.397500", "144339.857500", "144340.317500", "144340.777500", "144341.237500", "144341.697500", "144342.157500", "144342.617500", "144343.077500", "144343.537500", "144343.997500", "144344.457500", "144344.917500", "144345.377500", "144345.837500", "144346.297500", "144346.757500", "144347.217500", "144347.677500", "144348.137500", "144348.597500", "144349.057500", "144349.517500", "144349.977500", "144350.437500", "144350.897500", "144351.357500", "144351.817500", "144352.277500", "144352.737500", "144353.197500", "144353.657500", "144354.117500", "144354.577500", "144355.037500", "144355.497500", "144355.957500", "144356.417500", "144356.877500", "144357.337500", "144357.797500", "144358.257500", "144358.717500", "144359.177500", "144359.637500", "144400.097500", "144400.557500", "144401.017500", "144401.477500", "144401.937500", "144402.397500", "144402.857500", "144403.317500", "144403.777500", "144404.237500", "144404.697500", "144405.157500", "144405.617500", "144406.077500", "144406.537500", "144406.997500", "144407.457500", "144407.917500", "144408.377500", "144408.837500", "144409.297500", "144409.757500", "144410.217500", "144410.677500", "144411.137500", "144411.597500", "144412.057500", "144412.517500", "144412.977500", "144413.437500", "144413.897500", "144414.357500", "144414.817500", "144415.277500", "144415.737500", "144416.197500", "144416.657500", "144417.117500", "144417.577500", "144418.037500", "144418.497500", "144418.957500", "144419.417500", "144419.877500", "144420.337500", "144420.797500", "144421.257500", "144421.717500", "144422.177500", "144422.637500", "144423.097500", "144423.557500", "144424.017500", "144424.477500", "144424.937500", "144425.397500", "144425.857500", "144426.317500", "144426.777500", "144427.237500", "144427.697500", "144428.157500", "144428.617500", "144429.077500", "144429.537500", "144429.997500", "144430.457500", "144430.917500", "144431.377500", "144431.837500", "144432.297500", "144432.757500", "144433.217500", "144433.677500", "144434.137500", "144434.597500", "144435.057500", "144435.517500", "144435.977500", "144436.437500", "144436.897500", "144437.357500", "144437.817500", "144438.277500", "144438.737500", "144439.197500", "144439.657500", "144440.117500", "144440.577500", "144441.037500", "144441.497500", "144441.957500", "144442.417500", "144442.877500", "144443.337500", "144443.797500", "144444.257500", "144444.717500", "144445.177500", "144445.637500", "144446.097500", "144446.557500", "144447.017500", "144447.477500", "144447.937500", "144448.397500", "144448.857500", "144449.317500", "144449.777500", "144450.237500", "144450.697500", "144451.157500", "144451.617500", "144452.077500", "144452.537500", "144452.997500", "144453.457500", "144453.917500", "144454.377500", "144454.837500", "144455.297500", "144455.757500", "144456.217500", "144456.677500", "144457.137500", "144457.597500", "144458.057500", "144458.517500", "144458.977500", "144459.437500", "144459.897500", "144500.357500", "144500.817500", "144501.277500", "144501.737500", "144502.197500", "144502.657500", "144503.117500", "144503.577500", "144504.037500", "144504.497500", "144504.957500", "144505.417500", "144505.877500", "144506.337500", "144506.797500", "144507.257500", "144507.717500", "144508.177500", "144508.637500", "144509.097500", "144509.557500", "144510.017500", "144510.477500", "144510.937500", "144511.397500", "144511.857500", "144512.317500", "144512.777500", "144513.237500", "144513.697500", "144514.157500", "144514.617500", "144515.077500", "144515.537500", "144515.997500", "144516.457500", "144516.917500", "144517.377500", "144517.837500", "144518.297500", "144518.757500", "144519.217500", "144519.677500", "144520.137500", "144520.597500", "144521.057500", "144521.517500", "144521.977500", "144522.437500", "144522.897500", "144523.357500", "144523.817500", "144524.277500", "144524.737500", "144525.197500", "144525.657500", "144526.117500", "144526.577500", "144527.037500", "144527.497500", "144527.957500", "144528.417500", "144528.877500", "144529.337500", "144529.797500", "144530.257500", "144530.717500", "144531.177500", "144531.637500", "144532.097500", "144532.557500", "144533.017500", "144533.477500", "144533.937500", "144534.397500", "144534.857500", "144535.317500", "144535.777500", "144536.237500", "144536.697500", "144537.157500", "144537.617500", "144538.077500", "144538.537500", "144538.997500", "144539.457500", "144539.917500", "144540.377500", "144540.837500", "144541.297500", "144541.757500", "144542.217500", "144542.677500", "144543.137500", "144543.597500", "144544.057500", "144544.517500", "144544.977500", "144545.437500", "144545.897500", "144546.357500", "144546.817500", "144547.277500", "144547.737500", "144548.197500", "144548.657500", "144549.117500", "144549.577500", "144550.037500", "144550.497500", "144550.957500", "144551.417500", "144551.877500", "144552.337500", "144552.797500", "144553.257500", "144553.717500", "144554.177500", "144554.637500", "144555.097500", "144555.557500", "144556.017500", "144556.477500", "144556.937500", "144557.397500", "144557.857500", "144558.317500", "144558.777500", "144559.237500", "144559.697500", "144600.157500", "144600.617500", "144601.077500", "144601.537500", "144601.997500", "144602.457500", "144602.917500", "144603.377500", "144603.837500", "144604.297500", "144604.757500", "144605.217500", "144605.677500", "144606.137500", "144606.597500", "144607.057500", "144607.517500", "144607.977500", "144608.437500", "144608.897500", "144609.357500", "144609.817500", "144610.277500", "144610.737500", "144611.197500", "144611.657500", "144612.117500", "144612.577500", "144613.037500", "144613.497500", "144613.957500", "144614.417500", "144614.877500", "144615.337500", "144615.797500", "144616.257500", "144616.717500", "144617.177500", "144617.637500", "144618.097500", "144618.557500", "144619.017500", "144619.477500", "144619.937500", "144620.397500", "144620.857500", "144621.317500", "144621.777500", "144622.237500", "144622.697500", "144623.157500", "144623.617500", "144624.077500", "144624.537500", "144624.997500", "144625.457500", "144625.917500", "144626.377500", "144626.837500", "144627.297500", "144627.757500", "144628.217500", "144628.677500", "144629.137500", "144629.597500", "144630.057500", "144630.517500", "144630.977500", "144631.437500", "144631.897500", "144632.357500", "144632.817500", "144633.277500", "144633.737500", "144634.197500", "144634.657500", "144635.117500", "144635.577500", "144636.037500", "144636.497500", "144636.957500", "144637.417500", "144637.877500", "144638.337500", "144638.797500", "144639.257500", "144639.717500", "144640.177500", "144640.637500", "144641.097500", "144641.557500", "144642.017500", "144642.477500", "144642.937500", "144643.397500", "144643.857500", "144644.317500", "144644.777500", "144645.237500", "144645.697500", "144646.157500", "144646.617500", "144647.077500", "144647.537500", "144647.997500", "144648.457500", "144648.917500", "144649.377500", "144649.837500", "144650.297500", "144650.757500", "144651.217500", "144651.677500", "144652.137500", "144652.597500", "144653.057500", "144653.517500", "144653.977500", "144654.437500", "144654.897500", "144655.357500", "144655.817500", "144656.277500", "144656.737500", "144657.197500", "144657.657500", "144658.117500", "144658.577500", "144659.037500", "144659.497500", "144659.957500", "144700.417500", "144700.877500", "144701.337500", "144701.797500", "144702.257500"],
