{
  "AcquisitionMatrixPE": 82,
  "AcquisitionNumber": 1,
  "AcquisitionTime": "14:55:40.757500",
  "BandwidthPerPixelPhaseEncode": 24.888,
  "BaseResolution": 82,
  "BodyPartExamined": "BRAIN",
  "ConsistencyInfo": "N4_VE11E_LATEST_20181129",
  "ConversionSoftware": "dcm2niix",
  "ConversionSoftwareVersion": "v1.0.20201102",
  "DerivedVendorReportedEchoSpacing": 0.00049,
  "DeviceSerialNumber": "66112",
  "DwellTime": 2e-06,
  "EchoTime": 0.0272,
  "EchoTrainLength": 82,
  "EffectiveEchoSpacing": 0.00049,
  "FlipAngle": 44,
  "ImageComments": "Unaliased MB8/PE3",
  "ImageOrientationPatientDICOM": [0.999961, -0.00321585, 0.00824772, 0.00279245, 0.998703, 0.0508429],
  "ImageType": [
    "ORIGINAL",
    "PRIMARY",
    "M",
    "MB",
    "ND",
    "NORM",
    "MOSAIC"
],
  "ImagingFrequency": 123.252,
  "InPlanePhaseEncodingDirectionDICOM": "COL",
  "InstitutionAddress": "Maynard 3,Hanover,NH,US,03755",
  "InstitutionName": "Dartmouth College - PBS",
  "InstitutionalDepartmentName": "Department",
  "MRAcquisitionType": "2D",
  "MagneticFieldStrength": 3,
  "Manufacturer": "Siemens",
  "ManufacturersModelName": "Prisma",
  "Modality": "MR",
  "MultibandAccelerationFactor": 8,
  "PartialFourier": 1,
  "PatientPosition": "HFS",
  "PercentPhaseFOV": 100,
  "PercentSampling": 100,
  "PhaseEncodingDirection": "j-",
  "PhaseEncodingSteps": 82,
  "PhaseResolution": 1,
  "PixelBandwidth": 3050,
  "ProcedureStepDescription": "Wager_Wager^1076_spacetop",
  "ProtocolName": "func_run-06_task-social_acq-ap-mb8",
  "PulseSequenceDetails": "%CustomerSeq%\\cmrr_mbep2d_bold",
  "ReceiveCoilActiveElements": "HEA;HEP",
  "ReceiveCoilName": "Head_32",
  "ReconMatrixPE": 82,
  "RepetitionTime": 0.46,
  "SAR": 0.102103,
  "ScanOptions": "FS",
  "ScanningSequence": "EP",
  "SequenceName": "epfid2d1_82",
  "SequenceVariant": "SK\\SS",
  "SeriesDescription": "func_run-06_task-social_acq-ap-mb8",
  "SeriesNumber": 14,
  "ShimSetting": [4137, -7760, -7234, 515, -85, -270, -4, 55],
  "SliceThickness": 2.7,
  "SliceTiming": [0, 0.2525, 0.0625, 0.315, 0.1275, 0.3775, 0.19, 0, 0.2525, 0.0625, 0.315, 0.1275, 0.3775, 0.19, 0, 0.2525, 0.0625, 0.315, 0.1275, 0.3775, 0.19, 0, 0.2525, 0.0625, 0.315, 0.1275, 0.3775, 0.19, 0, 0.2525, 0.0625, 0.315, 0.1275, 0.3775, 0.19, 0, 0.2525, 0.0625, 0.315, 0.1275, 0.3775, 0.19, 0, 0.2525, 0.0625, 0.315, 0.1275, 0.3775, 0.19, 0, 0.2525, 0.0625, 0.315, 0.1275, 0.3775, 0.19],
  "SoftwareVersions": "syngo MR E11",
  "SpacingBetweenSlices": 2.7,
  "StationName": "AWP66112",
  "TaskName": "social",
  "TotalReadoutTime": 0.03969,
  "TxRefAmp": 292.835,
  "WipMemBlock": "d62b1199-bcba-4129-941b-23e2f4cb6a73||Sequence: R016 ve11e/master r/434b28f1; Aug  7 2019 18:53:46 by eja",
  "dcmmeta_affine": [
    [-2.682821750640869, 0.007491948548704386, 0.022681424394249916, 111.6929702758789],
    [0.00862790085375309, 2.6794464588165283, 0.1372082233428955, -91.71205139160156],
    [0.022128039970993996, -0.1364077478647232, 2.696415901184082, -68.9209976196289],
    [0.0, 0.0, 0.0, 1.0]
],
  "dcmmeta_reorient_transform": [
    [0.0, -1.0, 0.0, 81.0],
    [1.0, 0.0, 0.0, 0.0],
    [0.0, 0.0, 1.0, 0.0],
    [0.0, 0.0, 0.0, 1.0]
],
  "dcmmeta_shape": [82, 82, 56, 872],
  "dcmmeta_slice_dim": 2,
  "dcmmeta_version": 0.6,
  "global": {
    "const": {
      "AccessionNumber": "A004026",
      "AcquisitionMatrix": [82, 0, 0, 82],
      "AngioFlag": "N",
      "BitsAllocated": 16,
      "BitsStored": 16,
      "BodyPartExamined": "BRAIN",
      "Columns": 656,
      "EchoNumbers": 1,
      "EchoTime": 27.2,
      "EchoTrainLength": 82,
      "FlipAngle": 44.0,
      "HighBit": 15,
      "ImageOrientationPatient": [0.99996081590166, -0.0032158539287, 0.00824772361262, 0.00279245354836, 0.99870276018873, 0.05084288538814],
      "ImagePositionPatient": [-884.41985378778, -891.84805081656, -125.4697917869],
      "ImageType": [
        "ORIGINAL",
        "PRIMARY",
        "M",
        "MB",
        "ND",
        "NORM",
        "MOSAIC"
],
      "ImagedNucleus": "1H",
      "ImagingFrequency": 123.252147,
      "InPlanePhaseEncodingDirection": "COL",
      "MRAcquisitionType": "2D",
      "MagneticFieldStrength": 3.0,
      "Manufacturer": "SIEMENS",
      "ManufacturerModelName": "Prisma",
      "Modality": "MR",
      "NumberOfAverages": 1.0,
      "NumberOfPhaseEncodingSteps": 82,
      "PercentPhaseFieldOfView": 100.0,
      "PercentSampling": 100.0,
      "PerformedProcedureStepStartTime": "142443.706000",
      "PhotometricInterpretation": "MONOCHROME2",
      "PixelBandwidth": 3050.0,
      "PixelRepresentation": 0,
      "PixelSpacing": [2.6829268932343, 2.6829268932343],
      "ProtocolName": "func_run-06_task-social_acq-ap-mb8",
      "RepetitionTime": 460.0,
      "Rows": 656,
      "SAR": 0.10210310703973,
      "SamplesPerPixel": 1,
      "ScanOptions": "FS",
      "ScanningSequence": "EP",
      "SequenceName": "epfid2d1_82",
      "SequenceVariant": [
        "SK",
        "SS"
],
      "SeriesDescription": "func_run-06_task-social_acq-ap-mb8",
      "SeriesNumber": 14,
      "SeriesTime": "145557.787000",
      "SliceLocation": -72.551839684296,
      "SliceThickness": 2.7000000476837,
      "SmallestImagePixelValue": 0,
      "SoftwareVersions": "syngo MR E11",
      "SpacingBetweenSlices": 2.699999948923,
      "SpecificCharacterSet": "ISO_IR 100",
      "StudyID": "1",
      "StudyTime": "142443.658000",
      "TransmitCoilName": "Body",
      "VariableFlipAngleFlag": "N",
      "WindowCenterWidthExplanation": "Algo1"
    },
    "slices": {}
  },
  "time": {
    "samples": {
      "AcquisitionNumber": [1, 2, 3, 4, 5, 6, 7, 8, 9, 10, 11, 12, 13, 14, 15, 16, 17, 18, 19, 20, 21, 22, 23, 24, 25, 26, 27, 28, 29, 30, 31, 32, 33, 34, 35, 36, 37, 38, 39, 40, 41, 42, 43, 44, 45, 46, 47, 48, 49, 50, 51, 52, 53, 54, 55, 56, 57, 58, 59, 60, 61, 62, 63, 64, 65, 66, 67, 68, 69, 70, 71, 72, 73, 74, 75, 76, 77, 78, 79, 80, 81, 82, 83, 84, 85, 86, 87, 88, 89, 90, 91, 92, 93, 94, 95, 96, 97, 98, 99, 100, 101, 102, 103, 104, 105, 106, 107, 108, 109, 110, 111, 112, 113, 114, 115, 116, 117, 118, 119, 120, 121, 122, 123, 124, 125, 126, 127, 128, 129, 130, 131, 132, 133, 134, 135, 136, 137, 138, 139, 140, 141, 142, 143, 144, 145, 146, 147, 148, 149, 150, 151, 152, 153, 154, 155, 156, 157, 158, 159, 160, 161, 162, 163, 164, 165, 166, 167, 168, 169, 170, 171, 172, 173, 174, 175, 176, 177, 178, 179, 180, 181, 182, 183, 184, 185, 186, 187, 188, 189, 190, 191, 192, 193, 194, 195, 196, 197, 198, 199, 200, 201, 202, 203, 204, 205, 206, 207, 208, 209, 210, 211, 212, 213, 214, 215, 216, 217, 218, 219, 220, 221, 222, 223, 224, 225, 226, 227, 228, 229, 230, 231, 232, 233, 234, 235, 236, 237, 238, 239, 240, 241, 242, 243, 244, 245, 246, 247, 248, 249, 250, 251, 252, 253, 254, 255, 256, 257, 258, 259, 260, 261, 262, 263, 264, 265, 266, 267, 268, 269, 270, 271, 272, 273, 274, 275, 276, 277, 278, 279, 280, 281, 282, 283, 284, 285, 286, 287, 288, 289, 290, 291, 292, 293, 294, 295, 296, 297, 298, 299, 300, 301, 302, 303, 304, 305, 306, 307, 308, 309, 310, 311, 312, 313, 314, 315, 316, 317, 318, 319, 320, 321, 322, 323, 324, 325, 326, 327, 328, 329, 330, 331, 332, 333, 334, 335, 336, 337, 338, 339, 340, 341, 342, 343, 344, 345, 346, 347, 348, 349, 350, 351, 352, 353, 354, 355, 356, 357, 358, 359, 360, 361, 362, 363, 364, 365, 366, 367, 368, 369, 370, 371, 372, 373, 374, 375, 376, 377, 378, 379, 380, 381, 382, 383, 384, 385, 386, 387, 388, 389, 390, 391, 392, 393, 394, 395, 396, 397, 398, 399, 400, 401, 402, 403, 404, 405, 406, 407, 408, 409, 410, 411, 412, 413, 414, 415, 416, 417, 418, 419, 420, 421, 422, 423, 424, 425, 426, 427, 428, 429, 430, 431, 432, 433, 434, 435, 436, 437, 438, 439, 440, 441, 442, 443, 444, 445, 446, 447, 448, 449, 450, 451, 452, 453, 454, 455, 456, 457, 458, 459, 460, 461, 462, 463, 464, 465, 466, 467, 468, 469, 470, 471, 472, 473, 474, 475, 476, 477, 478, 479, 480, 481, 482, 483, 484, 485, 486, 487, 488, 489, 490, 491, 492, 493, 494, 495, 496, 497, 498, 499, 500, 501, 502, 503, 504, 505, 506, 507, 508, 509, 510, 511, 512, 513, 514, 515, 516, 517, 518, 519, 520, 521, 522, 523, 524, 525, 526, 527, 528, 529, 530, 531, 532, 533, 534, 535, 536, 537, 538, 539, 540, 541, 542, 543, 544, 545, 546, 547, 548, 549, 550, 551, 552, 553, 554, 555, 556, 557, 558, 559, 560, 561, 562, 563, 564, 565, 566, 567, 568, 569, 570, 571, 572, 573, 574, 575, 576, 577, 578, 579, 580, 581, 582, 583, 584, 585, 586, 587, 588, 589, 590, 591, 592, 593, 594, 595, 596, 597, 598, 599, 600, 601, 602, 603, 604, 605, 606, 607, 608, 609, 610, 611, 612, 613, 614, 615, 616, 617, 618, 619, 620, 621, 622, 623, 624, 625, 626, 627, 628, 629, 630, 631, 632, 633, 634, 635, 636, 637, 638, 639, 640, 641, 642, 643, 644, 645, 646, 647, 648, 649, 650, 651, 652, 653, 654, 655, 656, 657, 658, 659, 660, 661, 662, 663, 664, 665, 666, 667, 668, 669, 670, 671, 672, 673, 674, 675, 676, 677, 678, 679, 680, 681, 682, 683, 684, 685, 686, 687, 688, 689, 690, 691, 692, 693, 694, 695, 696, 697, 698, 699, 700, 701, 702, 703, 704, 705, 706, 707, 708, 709, 710, 711, 712, 713, 714, 715, 716, 717, 718, 719, 720, 721, 722, 723, 724, 725, 726, 727, 728, 729, 730, 731, 732, 733, 734, 735, 736, 737, 738, 739, 740, 741, 742, 743, 744, 745, 746, 747, 748, 749, 750, 751, 752, 753, 754, 755, 756, 757, 758, 759, 760, 761, 762, 763, 764, 765, 766, 767, 768, 769, 770, 771, 772, 773, 774, 775, 776, 777, 778, 779, 780, 781, 782, 783, 784, 785, 786, 787, 788, 789, 790, 791, 792, 793, 794, 795, 796, 797, 798, 799, 800, 801, 802, 803, 804, 805, 806, 807, 808, 809, 810, 811, 812, 813, 814, 815, 816, 817, 818, 819, 820, 821, 822, 823, 824, 825, 826, 827, 828, 829, 830, 831, 832, 833, 834, 835, 836, 837, 838, 839, 840, 841, 842, 843, 844, 845, 846, 847, 848, 849, 850, 851, 852, 853, 854, 855, 856, 857, 858, 859, 860, 861, 862, 863, 864, 865, 866, 867, 868, 869, 870, 871, 872],
      "AcquisitionTime": ["145540.757500", "145541.217500", "145541.677500", "145542.137500", "145542.597500", "145543.057500", "145543.517500", "145543.977500", "145544.437500", "145544.897500", "145545.357500", "145545.817500", "145546.277500", "145546.737500", "145547.197500", "145547.657500", "145548.117500", "145548.577500", "145549.037500", "145549.497500", "145549.957500", "145550.417500", "145550.877500", "145551.337500", "145551.797500", "145552.257500", "145552.717500", "145553.177500", "145553.637500", "145554.097500", "145554.557500", "145555.017500", "145555.477500", "145555.937500", "145556.397500", "145556.857500", "145557.317500", "145557.777500", "145558.237500", "145558.697500", "145559.157500", "145559.617500", "145600.077500", "145600.537500", "145600.997500", "145601.457500", "145601.917500", "145602.377500", "145602.837500", "145603.297500", "145603.757500", "145604.217500", "145604.677500", "145605.137500", "145605.597500", "145606.057500", "145606.517500", "145606.977500", "145607.437500", "145607.897500", "145608.357500", "145608.817500", "145609.277500", "145609.737500", "145610.197500", "145610.657500", "145611.117500", "145611.577500", "145612.037500", "145612.497500", "145612.957500", "145613.417500", "145613.877500", "145614.337500", "145614.797500", "145615.257500", "145615.717500", "145616.177500", "145616.637500", "145617.097500", "145617.557500", "145618.017500", "145618.477500", "145618.937500", "145619.397500", "145619.857500", "145620.317500", "145620.777500", "145621.237500", "145621.697500", "145622.157500", "145622.617500", "145623.077500", "145623.537500", "145623.997500", "145624.457500", "145624.917500", "145625.377500", "145625.837500", "145626.297500", "145626.757500", "145627.217500", "145627.677500", "145628.137500", "145628.597500", "145629.057500", "145629.517500", "145629.977500", "145630.437500", "145630.897500", "145631.357500", "145631.817500", "145632.277500", "145632.737500", "145633.197500", "145633.657500", "145634.117500", "145634.577500", "145635.037500", "145635.497500", "145635.957500", "145636.417500", "145636.877500", "145637.337500", "145637.797500", "145638.257500", "145638.717500", "145639.177500", "145639.637500", "145640.097500", "145640.557500", "145641.017500", "145641.477500", "145641.937500", "145642.397500", "145642.857500", "145643.317500", "145643.777500", "145644.237500", "145644.697500", "145645.157500", "145645.617500", "145646.077500", "145646.537500", "145646.997500", "145647.457500", "145647.917500", "145648.377500", "145648.837500", "145649.297500", "145649.757500", "145650.217500", "145650.677500", "145651.137500", "145651.597500", "145652.057500", "145652.517500", "145652.977500", "145653.437500", "145653.897500", "145654.357500", "145654.817500", "145655.277500", "145655.737500", "145656.197500", "145656.657500", "145657.117500", "145657.577500", "145658.037500", "145658.497500", "145658.957500", "145659.417500", "145659.877500", "145700.337500", "145700.797500", "145701.257500", "145701.717500", "145702.177500", "145702.637500", "145703.097500", "145703.557500", "145704.017500", "145704.477500", "145704.937500", "145705.397500", "145705.857500", "145706.317500", "145706.777500", "145707.237500", "145707.697500", "145708.157500", "145708.617500", "145709.077500", "145709.537500", "145709.997500", "145710.457500", "145710.917500", "145711.377500", "145711.837500", "145712.297500", "145712.757500", "145713.217500", "145713.677500", "145714.137500", "145714.597500", "145715.057500", "145715.517500", "145715.977500", "145716.437500", "145716.897500", "145717.357500", "145717.817500", "145718.277500", "145718.737500", "145719.197500", "145719.657500", "145720.117500", "145720.577500", "145721.037500", "145721.497500", "145721.957500", "145722.417500", "145722.877500", "145723.337500", "145723.797500", "145724.257500", "145724.717500", "145725.177500", "145725.637500", "145726.097500", "145726.557500", "145727.017500", "145727.477500", "145727.937500", "145728.397500", "145728.857500", "145729.317500", "145729.777500", "145730.237500", "145730.697500", "145731.157500", "145731.617500", "145732.077500", "145732.537500", "145732.997500", "145733.457500", "145733.917500", "145734.377500", "145734.837500", "145735.297500", "145735.757500", "145736.217500", "145736.677500", "145737.137500", "145737.597500", "145738.057500", "145738.517500", "145738.977500", "145739.437500", "145739.897500", "145740.357500", "145740.817500", "145741.277500", "145741.737500", "145742.197500", "145742.657500", "145743.117500", "145743.577500", "145744.037500", "145744.497500", "145744.957500", "145745.417500", "145745.877500", "145746.337500", "145746.797500", "145747.257500", "145747.717500", "145748.177500", "145748.637500", "145749.097500", "145749.557500", "145750.017500", "145750.477500", "145750.937500", "145751.397500", "145751.857500", "145752.317500", "145752.777500", "145753.237500", "145753.697500", "145754.157500", "145754.617500", "145755.077500", "145755.537500", "145755.997500", "145756.457500", "145756.917500", "145757.377500", "145757.837500", "145758.297500", "145758.757500", "145759.217500", "145759.677500", "145800.137500", "145800.597500", "145801.057500", "145801.517500", "145801.977500", "145802.437500", "145802.897500", "145803.357500", "145803.817500", "145804.277500", "145804.737500", "145805.197500", "145805.657500", "145806.117500", "145806.577500", "145807.037500", "145807.497500", "145807.957500", "145808.417500", "145808.877500", "145809.337500", "145809.797500", "145810.257500", "145810.717500", "145811.177500", "145811.637500", "145812.097500", "145812.557500", "145813.017500", "145813.477500", "145813.937500", "145814.397500", "145814.857500", "145815.317500", "145815.777500", "145816.237500", "145816.697500", "145817.157500", "145817.617500", "145818.077500", "145818.537500", "145818.997500", "145819.457500", "145819.917500", "145820.377500", "145820.837500", "145821.297500", "145821.757500", "145822.217500", "145822.677500", "145823.137500", "145823.597500", "145824.057500", "145824.517500", "145824.977500", "145825.437500", "145825.897500", "145826.357500", "145826.817500", "145827.277500", "145827.737500", "145828.197500", "145828.657500", "145829.117500", "145829.577500", "145830.037500", "145830.497500", "145830.957500", "145831.417500", "145831.877500", "145832.337500", "145832.797500", "145833.257500", "145833.717500", "145834.177500", "145834.637500", "145835.097500", "145835.557500", "145836.017500", "145836.477500", "145836.937500", "145837.397500", "145837.857500", "145838.317500", "145838.777500", "145839.237500", "145839.697500", "145840.157500", "145840.617500", "145841.077500", "145841.537500", "145841.997500", "145842.457500", "145842.917500", "145843.377500", "145843.837500", "145844.297500", "145844.757500", "145845.217500", "145845.677500", "145846.137500", "145846.597500", "145847.057500", "145847.517500", "145847.977500", "145848.437500", "145848.897500", "145849.357500", "145849.817500", "145850.277500", "145850.737500", "145851.197500", "145851.657500", "145852.117500", "145852.577500", "145853.037500", "145853.497500", "145853.957500", "145854.417500", "145854.877500", "145855.337500", "145855.797500", "145856.257500", "145856.717500", "145857.177500", "145857.637500", "145858.097500", "145858.557500", "145859.017500", "145859.477500", "145859.937500", "145900.397500", "145900.857500", "145901.317500", "145901.777500", "145902.237500", "145902.697500", "145903.157500", "145903.617500", "145904.077500", "145904.537500", "145904.997500", "145905.457500", "145905.917500", "145906.377500", "145906.837500", "145907.297500", "145907.757500", "145908.217500", "145908.677500", "145909.137500", "145909.597500", "145910.057500", "145910.517500", "145910.977500", "145911.437500", "145911.897500", "145912.357500", "145912.817500", "145913.277500", "145913.737500", "145914.197500", "145914.657500", "145915.117500", "145915.577500", "145916.037500", "145916.497500", "145916.957500", "145917.417500", "145917.877500", "145918.337500", "145918.797500", "145919.257500", "145919.717500", "145920.177500", "145920.637500", "145921.097500", "145921.557500", "145922.017500", "145922.477500", "145922.937500", "145923.397500", "145923.857500", "145924.317500", "145924.777500", "145925.237500", "145925.697500", "145926.157500", "145926.617500", "145927.077500", "145927.537500", "145927.997500", "145928.457500", "145928.917500", "145929.377500", "145929.837500", "145930.297500", "145930.757500", "145931.217500", "145931.677500", "145932.137500", "145932.597500", "145933.057500", "145933.517500", "145933.977500", "145934.437500", "145934.897500", "145935.357500", "145935.817500", "145936.277500", "145936.737500", "145937.197500", "145937.657500", "145938.117500", "145938.577500", "145939.037500", "145939.497500", "145939.957500", "145940.417500", "145940.877500", "145941.337500", "145941.797500", "145942.257500", "145942.717500", "145943.177500", "145943.637500", "145944.097500", "145944.557500", "145945.017500", "145945.477500", "145945.937500", "145946.397500", "145946.857500", "145947.317500", "145947.777500", "145948.237500", "145948.697500", "145949.157500", "145949.617500", "145950.077500", "145950.537500", "145950.997500", "145951.457500", "145951.917500", "145952.377500", "145952.837500", "145953.297500", "145953.757500", "145954.217500", "145954.677500", "145955.137500", "145955.597500", "145956.057500", "145956.517500", "145956.977500", "145957.437500", "145957.897500", "145958.357500", "145958.817500", "145959.277500", "145959.737500", "150000.197500", "150000.657500", "150001.117500", "150001.577500", "150002.037500", "150002.497500", "150002.957500", "150003.417500", "150003.877500", "150004.337500", "150004.797500", "150005.257500", "150005.717500", "150006.177500", "150006.637500", "150007.097500", "150007.557500", "150008.017500", "150008.477500", "150008.937500", "150009.397500", "150009.857500", "150010.317500", "150010.777500", "150011.237500", "150011.697500", "150012.157500", "150012.617500", "150013.077500", "150013.537500", "150013.997500", "150014.457500", "150014.917500", "150015.377500", "150015.837500", "150016.297500", "150016.757500", "150017.217500", "150017.677500", "150018.137500", "150018.597500", "150019.057500", "150019.517500", "150019.977500", "150020.437500", "150020.897500", "150021.357500", "150021.817500", "150022.277500", "150022.737500", "150023.197500", "150023.657500", "150024.117500", "150024.577500", "150025.037500", "150025.497500", "150025.957500", "150026.417500", "150026.877500", "150027.337500", "150027.797500", "150028.257500", "150028.717500", "150029.177500", "150029.637500", "150030.097500", "150030.557500", "150031.017500", "150031.477500", "150031.937500", "150032.397500", "150032.857500", "150033.317500", "150033.777500", "150034.237500", "150034.697500", "150035.157500", "150035.617500", "150036.077500", "150036.537500", "150036.997500", "150037.457500", "150037.917500", "150038.377500", "150038.837500", "150039.297500", "150039.757500", "150040.217500", "150040.677500", "150041.137500", "150041.597500", "150042.057500", "150042.517500", "150042.977500", "150043.437500", "150043.897500", "150044.357500", "150044.817500", "150045.277500", "150045.737500", "150046.197500", "150046.657500", "150047.117500", "150047.577500", "150048.037500", "150048.497500", "150048.957500", "150049.417500", "150049.877500", "150050.337500", "150050.797500", "150051.257500", "150051.717500", "150052.177500", "150052.637500", "150053.097500", "150053.557500", "150054.017500", "150054.477500", "150054.937500", "150055.397500", "150055.857500", "150056.317500", "150056.777500", "150057.237500", "150057.697500", "150058.157500", "150058.617500", "150059.077500", "150059.537500", "150059.997500", "150100.457500", "150100.917500", "150101.377500", "150101.837500", "150102.297500", "150102.757500", "150103.217500", "150103.677500", "150104.137500", "150104.597500", "150105.057500", "150105.517500", "150105.977500", "150106.437500", "150106.897500", "150107.357500", "150107.817500", "150108.277500", "150108.737500", "150109.197500", "150109.657500", "150110.117500", "150110.577500", "150111.037500", "150111.497500", "150111.957500", "150112.417500", "150112.877500", "150113.337500", "150113.797500", "150114.257500", "150114.717500", "150115.177500", "150115.637500", "150116.097500", "150116.557500", "150117.017500", "150117.477500", "150117.937500", "150118.397500", "150118.857500", "150119.317500", "150119.777500", "150120.237500", "150120.697500", "150121.157500", "150121.617500", "150122.077500", "150122.537500", "150122.997500", "150123.457500", "150123.917500", "150124.377500", "150124.837500", "150125.297500", "150125.757500", "150126.217500", "150126.677500", "150127.137500", "150127.597500", "150128.057500", "150128.517500", "150128.977500", "150129.437500", "150129.897500", "150130.357500", "150130.817500", "150131.277500", "150131.737500", "150132.197500", "150132.657500", "150133.117500", "150133.577500", "150134.037500", "150134.497500", "150134.957500", "150135.417500", "150135.877500", "150136.337500", "150136.797500", "150137.257500", "150137.717500", "150138.177500", "150138.637500", "150139.097500", "150139.557500", "150140.017500", "150140.477500", "150140.937500", "150141.397500", "150141.857500", "150142.317500", "150142.777500", "150143.237500", "150143.697500", "150144.157500", "150144.617500", "150145.077500", "150145.537500", "150145.997500", "150146.457500", "150146.917500", "150147.377500", "150147.837500", "150148.297500", "150148.757500", "150149.217500", "150149.677500", "150150.137500", "150150.597500", "150151.057500", "150151.517500", "150151.977500", "150152.437500", "150152.897500", "150153.357500", "150153.817500", "150154.277500", "150154.737500", "150155.197500", "150155.657500", "150156.117500", "150156.577500", "150157.037500", "150157.497500", "150157.957500", "150158.417500", "150158.877500", "150159.337500", "150159.797500", "150200.257500", "150200.717500", "150201.177500", "150201.637500", "150202.097500", "150202.557500", "150203.017500", "150203.477500", "150203.937500", "150204.397500", "150204.857500", "150205.317500", "150205.777500", "150206.237500", "150206.697500", "150207.157500", "150207.617500", "150208.077500", "150208.537500", "150208.997500", "150209.457500", "150209.917500", "150210.377500", "150210.837500", "150211.297500", "150211.757500", "150212.217500", "150212.677500", "150213.137500", "150213.597500", "150214.057500", "150214.517500", "150214.977500", "150215.437500", "150215.897500", "150216.357500", "150216.817500", "150217.277500", "150217.737500", "150218.197500", "150218.657500", "150219.117500", "150219.577500", "150220.037500", "150220.497500", "150220.957500", "150221.417500"],
