{
  "AcquisitionMatrixPE": 82,
  "AcquisitionNumber": 1,
  "AcquisitionTime": "14:48:35.105000",
  "BandwidthPerPixelPhaseEncode": 24.888,
  "BaseResolution": 82,
  "BodyPartExamined": "BRAIN",
  "ConsistencyInfo": "N4_VE11E_LATEST_20181129",
  "ConversionSoftware": "dcm2niix",
  "ConversionSoftwareVersion": "v1.0.20201102",
  "DerivedVendorReportedEchoSpacing": 0.00049,
  "DeviceSerialNumber": "66112",
  "DwellTime": 2e-06,
  "EchoTime": 0.0272,
  "EchoTrainLength": 82,
  "EffectiveEchoSpacing": 0.00049,
  "FlipAngle": 44,
  "ImageComments": "Unaliased MB8/PE3",
  "ImageOrientationPatientDICOM": [0.999961, -0.00321585, 0.00824772, 0.00279245, 0.998703, 0.0508429],
  "ImageType": [
    "ORIGINAL",
    "PRIMARY",
    "M",
    "MB",
    "ND",
    "NORM",
    "MOSAIC"
],
  "ImagingFrequency": 123.252,
  "InPlanePhaseEncodingDirectionDICOM": "COL",
  "InstitutionAddress": "Maynard 3,Hanover,NH,US,03755",
  "InstitutionName": "Dartmouth College - PBS",
  "InstitutionalDepartmentName": "Department",
  "MRAcquisitionType": "2D",
  "MagneticFieldStrength": 3,
  "Manufacturer": "Siemens",
  "ManufacturersModelName": "Prisma",
  "Modality": "MR",
  "MultibandAccelerationFactor": 8,
  "PartialFourier": 1,
  "PatientPosition": "HFS",
  "PercentPhaseFOV": 100,
  "PercentSampling": 100,
  "PhaseEncodingDirection": "j-",
  "PhaseEncodingSteps": 82,
  "PhaseResolution": 1,
  "PixelBandwidth": 3050,
  "ProcedureStepDescription": "Wager_Wager^1076_spacetop",
  "ProtocolName": "func_run-05_task-social_acq-ap-mb8",
  "PulseSequenceDetails": "%CustomerSeq%\\cmrr_mbep2d_bold",
  "ReceiveCoilActiveElements": "HEA;HEP",
  "ReceiveCoilName": "Head_32",
  "ReconMatrixPE": 82,
  "RepetitionTime": 0.46,
  "SAR": 0.102103,
  "ScanOptions": "FS",
  "ScanningSequence": "EP",
  "SequenceName": "epfid2d1_82",
  "SequenceVariant": "SK\\SS",
  "SeriesDescription": "func_run-05_task-social_acq-ap-mb8",
  "SeriesNumber": 12,
  "ShimSetting": [4137, -7760, -7234, 515, -85, -270, -4, 55],
  "SliceThickness": 2.7,
  "SliceTiming": [0, 0.2525, 0.065, 0.315, 0.1275, 0.3775, 0.19, 0, 0.2525, 0.065, 0.315, 0.1275, 0.3775, 0.19, 0, 0.2525, 0.065, 0.315, 0.1275, 0.3775, 0.19, 0, 0.2525, 0.065, 0.315, 0.1275, 0.3775, 0.19, 0, 0.2525, 0.065, 0.315, 0.1275, 0.3775, 0.19, 0, 0.2525, 0.065, 0.315, 0.1275, 0.3775, 0.19, 0, 0.2525, 0.065, 0.315, 0.1275, 0.3775, 0.19, 0, 0.2525, 0.065, 0.315, 0.1275, 0.3775, 0.19],
  "SoftwareVersions": "syngo MR E11",
  "SpacingBetweenSlices": 2.7,
  "StationName": "AWP66112",
  "TaskName": "social",
  "TotalReadoutTime": 0.03969,
  "TxRefAmp": 292.835,
  "WipMemBlock": "a5edb91e-2062-400c-9e72-5dc864a86ce8||Sequence: R016 ve11e/master r/434b28f1; Aug  7 2019 18:53:46 by eja",
  "dcmmeta_affine": [
    [-2.682821750640869, 0.007491948548704386, 0.022681424394249916, 111.6929702758789],
    [0.00862790085375309, 2.6794464588165283, 0.1372082233428955, -91.71205139160156],
    [0.022128039970993996, -0.1364077478647232, 2.696415901184082, -68.9209976196289],
    [0.0, 0.0, 0.0, 1.0]
],
  "dcmmeta_reorient_transform": [
    [0.0, -1.0, 0.0, 81.0],
    [1.0, 0.0, 0.0, 0.0],
    [0.0, 0.0, 1.0, 0.0],
    [0.0, 0.0, 0.0, 1.0]
],
  "dcmmeta_shape": [82, 82, 56, 872],
  "dcmmeta_slice_dim": 2,
  "dcmmeta_version": 0.6,
  "global": {
    "const": {
      "AccessionNumber": "A004026",
      "AcquisitionMatrix": [82, 0, 0, 82],
      "AngioFlag": "N",
      "BitsAllocated": 16,
      "BitsStored": 16,
      "BodyPartExamined": "BRAIN",
      "Columns": 656,
      "EchoNumbers": 1,
      "EchoTime": 27.2,
      "EchoTrainLength": 82,
      "FlipAngle": 44.0,
      "HighBit": 15,
      "ImageOrientationPatient": [0.99996081590166, -0.0032158539287, 0.00824772361262, 0.00279245354836, 0.99870276018873, 0.05084288538814],
      "ImagePositionPatient": [-884.41985378778, -891.84805081656, -125.4697917869],
      "ImageType": [
        "ORIGINAL",
        "PRIMARY",
        "M",
        "MB",
        "ND",
        "NORM",
        "MOSAIC"
],
      "ImagedNucleus": "1H",
      "ImagingFrequency": 123.252144,
      "InPlanePhaseEncodingDirection": "COL",
      "MRAcquisitionType": "2D",
      "MagneticFieldStrength": 3.0,
      "Manufacturer": "SIEMENS",
      "ManufacturerModelName": "Prisma",
      "Modality": "MR",
      "NumberOfAverages": 1.0,
      "NumberOfPhaseEncodingSteps": 82,
      "PercentPhaseFieldOfView": 100.0,
      "PercentSampling": 100.0,
      "PerformedProcedureStepStartTime": "142443.706000",
      "PhotometricInterpretation": "MONOCHROME2",
      "PixelBandwidth": 3050.0,
      "PixelRepresentation": 0,
      "PixelSpacing": [2.6829268932343, 2.6829268932343],
      "ProtocolName": "func_run-05_task-social_acq-ap-mb8",
      "RepetitionTime": 460.0,
      "Rows": 656,
      "SAR": 0.10210310703973,
      "SamplesPerPixel": 1,
      "ScanOptions": "FS",
      "ScanningSequence": "EP",
      "SequenceName": "epfid2d1_82",
      "SequenceVariant": [
        "SK",
        "SS"
],
      "SeriesDescription": "func_run-05_task-social_acq-ap-mb8",
      "SeriesNumber": 12,
      "SeriesTime": "144857.947000",
      "SliceLocation": -72.551839684296,
      "SliceThickness": 2.7000000476837,
      "SmallestImagePixelValue": 0,
      "SoftwareVersions": "syngo MR E11",
      "SpacingBetweenSlices": 2.699999948923,
      "SpecificCharacterSet": "ISO_IR 100",
      "StudyID": "1",
      "StudyTime": "142443.658000",
      "TransmitCoilName": "Body",
      "VariableFlipAngleFlag": "N",
      "WindowCenterWidthExplanation": "Algo1"
    },
    "slices": {}
  },
  "time": {
    "samples": {
      "AcquisitionNumber": [1, 2, 3, 4, 5, 6, 7, 8, 9, 10, 11, 12, 13, 14, 15, 16, 17, 18, 19, 20, 21, 22, 23, 24, 25, 26, 27, 28, 29, 30, 31, 32, 33, 34, 35, 36, 37, 38, 39, 40, 41, 42, 43, 44, 45, 46, 47, 48, 49, 50, 51, 52, 53, 54, 55, 56, 57, 58, 59, 60, 61, 62, 63, 64, 65, 66, 67, 68, 69, 70, 71, 72, 73, 74, 75, 76, 77, 78, 79, 80, 81, 82, 83, 84, 85, 86, 87, 88, 89, 90, 91, 92, 93, 94, 95, 96, 97, 98, 99, 100, 101, 102, 103, 104, 105, 106, 107, 108, 109, 110, 111, 112, 113, 114, 115, 116, 117, 118, 119, 120, 121, 122, 123, 124, 125, 126, 127, 128, 129, 130, 131, 132, 133, 134, 135, 136, 137, 138, 139, 140, 141, 142, 143, 144, 145, 146, 147, 148, 149, 150, 151, 152, 153, 154, 155, 156, 157, 158, 159, 160, 161, 162, 163, 164, 165, 166, 167, 168, 169, 170, 171, 172, 173, 174, 175, 176, 177, 178, 179, 180, 181, 182, 183, 184, 185, 186, 187, 188, 189, 190, 191, 192, 193, 194, 195, 196, 197, 198, 199, 200, 201, 202, 203, 204, 205, 206, 207, 208, 209, 210, 211, 212, 213, 214, 215, 216, 217, 218, 219, 220, 221, 222, 223, 224, 225, 226, 227, 228, 229, 230, 231, 232, 233, 234, 235, 236, 237, 238, 239, 240, 241, 242, 243, 244, 245, 246, 247, 248, 249, 250, 251, 252, 253, 254, 255, 256, 257, 258, 259, 260, 261, 262, 263, 264, 265, 266, 267, 268, 269, 270, 271, 272, 273, 274, 275, 276, 277, 278, 279, 280, 281, 282, 283, 284, 285, 286, 287, 288, 289, 290, 291, 292, 293, 294, 295, 296, 297, 298, 299, 300, 301, 302, 303, 304, 305, 306, 307, 308, 309, 310, 311, 312, 313, 314, 315, 316, 317, 318, 319, 320, 321, 322, 323, 324, 325, 326, 327, 328, 329, 330, 331, 332, 333, 334, 335, 336, 337, 338, 339, 340, 341, 342, 343, 344, 345, 346, 347, 348, 349, 350, 351, 352, 353, 354, 355, 356, 357, 358, 359, 360, 361, 362, 363, 364, 365, 366, 367, 368, 369, 370, 371, 372, 373, 374, 375, 376, 377, 378, 379, 380, 381, 382, 383, 384, 385, 386, 387, 388, 389, 390, 391, 392, 393, 394, 395, 396, 397, 398, 399, 400, 401, 402, 403, 404, 405, 406, 407, 408, 409, 410, 411, 412, 413, 414, 415, 416, 417, 418, 419, 420, 421, 422, 423, 424, 425, 426, 427, 428, 429, 430, 431, 432, 433, 434, 435, 436, 437, 438, 439, 440, 441, 442, 443, 444, 445, 446, 447, 448, 449, 450, 451, 452, 453, 454, 455, 456, 457, 458, 459, 460, 461, 462, 463, 464, 465, 466, 467, 468, 469, 470, 471, 472, 473, 474, 475, 476, 477, 478, 479, 480, 481, 482, 483, 484, 485, 486, 487, 488, 489, 490, 491, 492, 493, 494, 495, 496, 497, 498, 499, 500, 501, 502, 503, 504, 505, 506, 507, 508, 509, 510, 511, 512, 513, 514, 515, 516, 517, 518, 519, 520, 521, 522, 523, 524, 525, 526, 527, 528, 529, 530, 531, 532, 533, 534, 535, 536, 537, 538, 539, 540, 541, 542, 543, 544, 545, 546, 547, 548, 549, 550, 551, 552, 553, 554, 555, 556, 557, 558, 559, 560, 561, 562, 563, 564, 565, 566, 567, 568, 569, 570, 571, 572, 573, 574, 575, 576, 577, 578, 579, 580, 581, 582, 583, 584, 585, 586, 587, 588, 589, 590, 591, 592, 593, 594, 595, 596, 597, 598, 599, 600, 601, 602, 603, 604, 605, 606, 607, 608, 609, 610, 611, 612, 613, 614, 615, 616, 617, 618, 619, 620, 621, 622, 623, 624, 625, 626, 627, 628, 629, 630, 631, 632, 633, 634, 635, 636, 637, 638, 639, 640, 641, 642, 643, 644, 645, 646, 647, 648, 649, 650, 651, 652, 653, 654, 655, 656, 657, 658, 659, 660, 661, 662, 663, 664, 665, 666, 667, 668, 669, 670, 671, 672, 673, 674, 675, 676, 677, 678, 679, 680, 681, 682, 683, 684, 685, 686, 687, 688, 689, 690, 691, 692, 693, 694, 695, 696, 697, 698, 699, 700, 701, 702, 703, 704, 705, 706, 707, 708, 709, 710, 711, 712, 713, 714, 715, 716, 717, 718, 719, 720, 721, 722, 723, 724, 725, 726, 727, 728, 729, 730, 731, 732, 733, 734, 735, 736, 737, 738, 739, 740, 741, 742, 743, 744, 745, 746, 747, 748, 749, 750, 751, 752, 753, 754, 755, 756, 757, 758, 759, 760, 761, 762, 763, 764, 765, 766, 767, 768, 769, 770, 771, 772, 773, 774, 775, 776, 777, 778, 779, 780, 781, 782, 783, 784, 785, 786, 787, 788, 789, 790, 791, 792, 793, 794, 795, 796, 797, 798, 799, 800, 801, 802, 803, 804, 805, 806, 807, 808, 809, 810, 811, 812, 813, 814, 815, 816, 817, 818, 819, 820, 821, 822, 823, 824, 825, 826, 827, 828, 829, 830, 831, 832, 833, 834, 835, 836, 837, 838, 839, 840, 841, 842, 843, 844, 845, 846, 847, 848, 849, 850, 851, 852, 853, 854, 855, 856, 857, 858, 859, 860, 861, 862, 863, 864, 865, 866, 867, 868, 869, 870, 871, 872],
      "AcquisitionTime": ["144835.105000", "144835.565000", "144836.025000", "144836.485000", "144836.945000", "144837.405000", "144837.865000", "144838.325000", "144838.785000", "144839.245000", "144839.705000", "144840.165000", "144840.625000", "144841.085000", "144841.545000", "144842.005000", "144842.465000", "144842.925000", "144843.385000", "144843.845000", "144844.305000", "144844.765000", "144845.225000", "144845.685000", "144846.145000", "144846.605000", "144847.065000", "144847.525000", "144847.985000", "144848.445000", "144848.905000", "144849.365000", "144849.825000", "144850.285000", "144850.745000", "144851.205000", "144851.665000", "144852.125000", "144852.585000", "144853.045000", "144853.505000", "144853.965000", "144854.425000", "144854.885000", "144855.345000", "144855.805000", "144856.265000", "144856.725000", "144857.185000", "144857.645000", "144858.105000", "144858.565000", "144859.025000", "144859.485000", "144859.945000", "144900.405000", "144900.865000", "144901.325000", "144901.785000", "144902.245000", "144902.705000", "144903.165000", "144903.625000", "144904.085000", "144904.545000", "144905.005000", "144905.465000", "144905.925000", "144906.385000", "144906.845000", "144907.305000", "144907.765000", "144908.225000", "144908.685000", "144909.145000", "144909.605000", "144910.065000", "144910.525000", "144910.985000", "144911.445000", "144911.905000", "144912.365000", "144912.825000", "144913.285000", "144913.745000", "144914.205000", "144914.665000", "144915.125000", "144915.585000", "144916.045000", "144916.505000", "144916.965000", "144917.425000", "144917.885000", "144918.345000", "144918.805000", "144919.265000", "144919.725000", "144920.185000", "144920.645000", "144921.105000", "144921.565000", "144922.025000", "144922.485000", "144922.945000", "144923.405000", "144923.865000", "144924.325000", "144924.785000", "144925.245000", "144925.705000", "144926.165000", "144926.625000", "144927.085000", "144927.545000", "144928.005000", "144928.465000", "144928.925000", "144929.385000", "144929.845000", "144930.305000", "144930.765000", "144931.225000", "144931.685000", "144932.145000", "144932.605000", "144933.065000", "144933.525000", "144933.985000", "144934.445000", "144934.905000", "144935.365000", "144935.825000", "144936.285000", "144936.745000", "144937.205000", "144937.665000", "144938.125000", "144938.585000", "144939.045000", "144939.505000", "144939.965000", "144940.425000", "144940.885000", "144941.345000", "144941.805000", "144942.265000", "144942.725000", "144943.185000", "144943.645000", "144944.105000", "144944.565000", "144945.025000", "144945.485000", "144945.945000", "144946.405000", "144946.865000", "144947.325000", "144947.785000", "144948.245000", "144948.705000", "144949.165000", "144949.625000", "144950.085000", "144950.545000", "144951.005000", "144951.465000", "144951.925000", "144952.385000", "144952.845000", "144953.305000", "144953.765000", "144954.225000", "144954.685000", "144955.145000", "144955.605000", "144956.065000", "144956.525000", "144956.985000", "144957.445000", "144957.905000", "144958.365000", "144958.825000", "144959.285000", "144959.745000", "145000.205000", "145000.665000", "145001.125000", "145001.585000", "145002.045000", "145002.505000", "145002.965000", "145003.425000", "145003.885000", "145004.345000", "145004.805000", "145005.265000", "145005.725000", "145006.185000", "145006.645000", "145007.105000", "145007.565000", "145008.025000", "145008.485000", "145008.945000", "145009.405000", "145009.865000", "145010.325000", "145010.785000", "145011.245000", "145011.705000", "145012.165000", "145012.625000", "145013.085000", "145013.545000", "145014.005000", "145014.465000", "145014.925000", "145015.385000", "145015.845000", "145016.305000", "145016.765000", "145017.225000", "145017.685000", "145018.145000", "145018.605000", "145019.065000", "145019.525000", "145019.985000", "145020.445000", "145020.905000", "145021.365000", "145021.825000", "145022.285000", "145022.745000", "145023.205000", "145023.665000", "145024.125000", "145024.585000", "145025.045000", "145025.505000", "145025.965000", "145026.425000", "145026.885000", "145027.345000", "145027.805000", "145028.265000", "145028.725000", "145029.185000", "145029.645000", "145030.105000", "145030.565000", "145031.025000", "145031.485000", "145031.945000", "145032.405000", "145032.865000", "145033.325000", "145033.785000", "145034.245000", "145034.705000", "145035.165000", "145035.625000", "145036.085000", "145036.545000", "145037.005000", "145037.465000", "145037.925000", "145038.385000", "145038.845000", "145039.305000", "145039.765000", "145040.225000", "145040.685000", "145041.145000", "145041.605000", "145042.065000", "145042.525000", "145042.985000", "145043.445000", "145043.905000", "145044.365000", "145044.825000", "145045.285000", "145045.745000", "145046.205000", "145046.665000", "145047.125000", "145047.585000", "145048.045000", "145048.505000", "145048.965000", "145049.425000", "145049.885000", "145050.345000", "145050.805000", "145051.265000", "145051.725000", "145052.185000", "145052.645000", "145053.105000", "145053.565000", "145054.025000", "145054.485000", "145054.945000", "145055.405000", "145055.865000", "145056.325000", "145056.785000", "145057.245000", "145057.705000", "145058.165000", "145058.625000", "145059.085000", "145059.545000", "145100.005000", "145100.465000", "145100.925000", "145101.385000", "145101.845000", "145102.305000", "145102.765000", "145103.225000", "145103.685000", "145104.145000", "145104.605000", "145105.065000", "145105.525000", "145105.985000", "145106.445000", "145106.905000", "145107.365000", "145107.825000", "145108.285000", "145108.745000", "145109.205000", "145109.665000", "145110.125000", "145110.585000", "145111.045000", "145111.505000", "145111.965000", "145112.425000", "145112.885000", "145113.345000", "145113.805000", "145114.265000", "145114.725000", "145115.185000", "145115.645000", "145116.105000", "145116.565000", "145117.025000", "145117.485000", "145117.945000", "145118.405000", "145118.865000", "145119.325000", "145119.785000", "145120.245000", "145120.705000", "145121.165000", "145121.625000", "145122.085000", "145122.545000", "145123.005000", "145123.465000", "145123.925000", "145124.385000", "145124.845000", "145125.305000", "145125.765000", "145126.225000", "145126.685000", "145127.145000", "145127.605000", "145128.065000", "145128.525000", "145128.985000", "145129.445000", "145129.905000", "145130.365000", "145130.825000", "145131.285000", "145131.745000", "145132.205000", "145132.665000", "145133.125000", "145133.585000", "145134.045000", "145134.505000", "145134.965000", "145135.425000", "145135.885000", "145136.345000", "145136.805000", "145137.265000", "145137.725000", "145138.185000", "145138.645000", "145139.105000", "145139.565000", "145140.025000", "145140.485000", "145140.945000", "145141.405000", "145141.865000", "145142.325000", "145142.785000", "145143.245000", "145143.705000", "145144.165000", "145144.625000", "145145.085000", "145145.545000", "145146.005000", "145146.465000", "145146.925000", "145147.385000", "145147.845000", "145148.305000", "145148.765000", "145149.225000", "145149.685000", "145150.145000", "145150.605000", "145151.065000", "145151.525000", "145151.985000", "145152.445000", "145152.905000", "145153.365000", "145153.825000", "145154.285000", "145154.745000", "145155.205000", "145155.665000", "145156.125000", "145156.585000", "145157.045000", "145157.505000", "145157.965000", "145158.425000", "145158.885000", "145159.345000", "145159.805000", "145200.265000", "145200.725000", "145201.185000", "145201.645000", "145202.105000", "145202.565000", "145203.025000", "145203.485000", "145203.945000", "145204.405000", "145204.865000", "145205.325000", "145205.785000", "145206.245000", "145206.705000", "145207.165000", "145207.625000", "145208.085000", "145208.545000", "145209.005000", "145209.465000", "145209.925000", "145210.385000", "145210.845000", "145211.305000", "145211.765000", "145212.225000", "145212.685000", "145213.145000", "145213.605000", "145214.065000", "145214.525000", "145214.985000", "145215.445000", "145215.905000", "145216.365000", "145216.825000", "145217.285000", "145217.745000", "145218.205000", "145218.665000", "145219.125000", "145219.585000", "145220.045000", "145220.505000", "145220.965000", "145221.425000", "145221.885000", "145222.345000", "145222.805000", "145223.265000", "145223.725000", "145224.185000", "145224.645000", "145225.105000", "145225.565000", "145226.025000", "145226.485000", "145226.945000", "145227.405000", "145227.865000", "145228.325000", "145228.785000", "145229.245000", "145229.705000", "145230.165000", "145230.625000", "145231.085000", "145231.545000", "145232.005000", "145232.465000", "145232.925000", "145233.385000", "145233.845000", "145234.305000", "145234.765000", "145235.225000", "145235.685000", "145236.145000", "145236.605000", "145237.065000", "145237.525000", "145237.985000", "145238.445000", "145238.905000", "145239.365000", "145239.825000", "145240.285000", "145240.745000", "145241.205000", "145241.665000", "145242.125000", "145242.585000", "145243.045000", "145243.505000", "145243.965000", "145244.425000", "145244.885000", "145245.345000", "145245.805000", "145246.265000", "145246.725000", "145247.185000", "145247.645000", "145248.105000", "145248.565000", "145249.025000", "145249.485000", "145249.945000", "145250.405000", "145250.865000", "145251.325000", "145251.785000", "145252.245000", "145252.705000", "145253.165000", "145253.625000", "145254.085000", "145254.545000", "145255.005000", "145255.465000", "145255.925000", "145256.385000", "145256.845000", "145257.305000", "145257.765000", "145258.225000", "145258.685000", "145259.145000", "145259.605000", "145300.065000", "145300.525000", "145300.985000", "145301.445000", "145301.905000", "145302.365000", "145302.825000", "145303.285000", "145303.745000", "145304.205000", "145304.665000", "145305.125000", "145305.585000", "145306.045000", "145306.505000", "145306.965000", "145307.425000", "145307.885000", "145308.345000", "145308.805000", "145309.265000", "145309.725000", "145310.185000", "145310.645000", "145311.105000", "145311.565000", "145312.025000", "145312.485000", "145312.945000", "145313.405000", "145313.865000", "145314.325000", "145314.785000", "145315.245000", "145315.705000", "145316.165000", "145316.625000", "145317.085000", "145317.545000", "145318.005000", "145318.465000", "145318.925000", "145319.385000", "145319.845000", "145320.305000", "145320.765000", "145321.225000", "145321.685000", "145322.145000", "145322.605000", "145323.065000", "145323.525000", "145323.985000", "145324.445000", "145324.905000", "145325.365000", "145325.825000", "145326.285000", "145326.745000", "145327.205000", "145327.665000", "145328.125000", "145328.585000", "145329.045000", "145329.505000", "145329.965000", "145330.425000", "145330.885000", "145331.345000", "145331.805000", "145332.265000", "145332.725000", "145333.185000", "145333.645000", "145334.105000", "145334.565000", "145335.025000", "145335.485000", "145335.945000", "145336.405000", "145336.865000", "145337.325000", "145337.785000", "145338.245000", "145338.705000", "145339.165000", "145339.625000", "145340.085000", "145340.545000", "145341.005000", "145341.465000", "145341.925000", "145342.385000", "145342.845000", "145343.305000", "145343.765000", "145344.225000", "145344.685000", "145345.145000", "145345.605000", "145346.065000", "145346.525000", "145346.985000", "145347.445000", "145347.905000", "145348.365000", "145348.825000", "145349.285000", "145349.745000", "145350.205000", "145350.665000", "145351.125000", "145351.585000", "145352.045000", "145352.505000", "145352.965000", "145353.425000", "145353.885000", "145354.345000", "145354.805000", "145355.265000", "145355.725000", "145356.185000", "145356.645000", "145357.105000", "145357.565000", "145358.025000", "145358.485000", "145358.945000", "145359.405000", "145359.865000", "145400.325000", "145400.785000", "145401.245000", "145401.705000", "145402.165000", "145402.625000", "145403.085000", "145403.545000", "145404.005000", "145404.465000", "145404.925000", "145405.385000", "145405.845000", "145406.305000", "145406.765000", "145407.225000", "145407.685000", "145408.145000", "145408.605000", "145409.065000", "145409.525000", "145409.985000", "145410.445000", "145410.905000", "145411.365000", "145411.825000", "145412.285000", "145412.745000", "145413.205000", "145413.665000", "145414.125000", "145414.585000", "145415.045000", "145415.505000", "145415.965000", "145416.425000", "145416.885000", "145417.345000", "145417.805000", "145418.265000", "145418.725000", "145419.185000", "145419.645000", "145420.105000", "145420.565000", "145421.025000", "145421.485000", "145421.945000", "145422.405000", "145422.865000", "145423.325000", "145423.785000", "145424.245000", "145424.705000", "145425.165000", "145425.625000", "145426.085000", "145426.545000", "145427.005000", "145427.465000", "145427.925000", "145428.385000", "145428.845000", "145429.305000", "145429.765000", "145430.225000", "145430.685000", "145431.145000", "145431.605000", "145432.065000", "145432.525000", "145432.985000", "145433.445000", "145433.905000", "145434.365000", "145434.825000", "145435.285000", "145435.745000", "145436.205000", "145436.665000", "145437.125000", "145437.585000", "145438.045000", "145438.505000", "145438.965000", "145439.425000", "145439.885000", "145440.345000", "145440.805000", "145441.265000", "145441.725000", "145442.185000", "145442.645000", "145443.105000", "145443.565000", "145444.025000", "145444.485000", "145444.945000", "145445.405000", "145445.865000", "145446.325000", "145446.785000", "145447.245000", "145447.705000", "145448.165000", "145448.625000", "145449.085000", "145449.545000", "145450.005000", "145450.465000", "145450.925000", "145451.385000", "145451.845000", "145452.305000", "145452.765000", "145453.225000", "145453.685000", "145454.145000", "145454.605000", "145455.065000", "145455.525000", "145455.985000", "145456.445000", "145456.905000", "145457.365000", "145457.825000", "145458.285000", "145458.745000", "145459.205000", "145459.665000", "145500.125000", "145500.585000", "145501.045000", "145501.505000", "145501.965000", "145502.425000", "145502.885000", "145503.345000", "145503.805000", "145504.265000", "145504.725000", "145505.185000", "145505.645000", "145506.105000", "145506.565000", "145507.025000", "145507.485000", "145507.945000", "145508.405000", "145508.865000", "145509.325000", "145509.785000", "145510.245000", "145510.705000", "145511.165000", "145511.625000", "145512.085000", "145512.545000", "145513.005000", "145513.465000", "145513.925000", "145514.385000", "145514.845000", "145515.305000", "145515.765000"],
