{
  "AcquisitionMatrixPE": 82,
  "AcquisitionNumber": 1,
  "AcquisitionTime": "17:22:41.107500",
  "BandwidthPerPixelPhaseEncode": 24.888,
  "BaseResolution": 82,
  "BodyPartExamined": "BRAIN",
  "ConsistencyInfo": "N4_VE11E_LATEST_20181129",
  "ConversionSoftware": "dcm2niix",
  "ConversionSoftwareVersion": "v1.0.20201102",
  "DerivedVendorReportedEchoSpacing": 0.00049,
  "DeviceSerialNumber": "66112",
  "DwellTime": 2e-06,
  "EchoTime": 0.0272,
  "EchoTrainLength": 82,
  "EffectiveEchoSpacing": 0.00049,
  "FlipAngle": 44,
  "ImageComments": "Unaliased MB8/PE3",
  "ImageOrientationPatientDICOM": [0.998818, 0.0486018, 0.000644418, -0.0483262, 0.991557, 0.120332],
  "ImageType": [
    "ORIGINAL",
    "PRIMARY",
    "M",
    "MB",
    "ND",
    "NORM",
    "MOSAIC"
],
  "ImagingFrequency": 123.259,
  "InPlanePhaseEncodingDirectionDICOM": "COL",
  "InstitutionAddress": "Maynard 3,Hanover,NH,US,03755",
  "InstitutionName": "Dartmouth College - PBS",
  "InstitutionalDepartmentName": "Department",
  "MRAcquisitionType": "2D",
  "MagneticFieldStrength": 3,
  "Manufacturer": "Siemens",
  "ManufacturersModelName": "Prisma",
  "Modality": "MR",
  "MultibandAccelerationFactor": 8,
  "PartialFourier": 1,
  "PatientPosition": "HFS",
  "PercentPhaseFOV": 100,
  "PercentSampling": 100,
  "PhaseEncodingDirection": "j-",
  "PhaseEncodingSteps": 82,
  "PhaseResolution": 1,
  "PixelBandwidth": 3050,
  "ProcedureStepDescription": "Wager_Wager^1076_spacetop",
  "ProtocolName": "func_run-01_task-social_acq-ap-mb8",
  "PulseSequenceDetails": "%CustomerSeq%\\cmrr_mbep2d_bold",
  "ReceiveCoilActiveElements": "HEA;HEP",
  "ReceiveCoilName": "Head_32",
  "ReconMatrixPE": 82,
  "RepetitionTime": 0.46,
  "SAR": 0.0768691,
  "ScanOptions": "FS",
  "ScanningSequence": "EP",
  "SequenceName": "epfid2d1_82",
  "SequenceVariant": "SK\\SS",
  "SeriesDescription": "func_run-01_task-social_acq-ap-mb8",
  "SeriesNumber": 12,
  "ShimSetting": [4221, -7756, -7237, 271, -105, 92, 152, 72],
  "SliceThickness": 2.7,
  "SliceTiming": [0, 0.2525, 0.0625, 0.315, 0.125, 0.3775, 0.1875, 0, 0.2525, 0.0625, 0.315, 0.125, 0.3775, 0.1875, 0, 0.2525, 0.0625, 0.315, 0.125, 0.3775, 0.1875, 0, 0.2525, 0.0625, 0.315, 0.125, 0.3775, 0.1875, 0, 0.2525, 0.0625, 0.315, 0.125, 0.3775, 0.1875, 0, 0.2525, 0.0625, 0.315, 0.125, 0.3775, 0.1875, 0, 0.2525, 0.0625, 0.315, 0.125, 0.3775, 0.1875, 0, 0.2525, 0.0625, 0.315, 0.125, 0.3775, 0.1875],
  "SoftwareVersions": "syngo MR E11",
  "SpacingBetweenSlices": 2.7,
  "StationName": "AWP66112",
  "TaskName": "social",
  "TotalReadoutTime": 0.03969,
  "TxRefAmp": 218.646,
  "WipMemBlock": "6872cb94-0952-4cc2-acbd-d57ba163fc22||Sequence: R016 ve11e/master r/434b28f1; Aug  7 2019 18:53:46 by eja",
  "dcmmeta_affine": [
    [-2.679755687713623, -0.12965553998947144, -0.014065291732549667, 119.13239288330078],
    [-0.13039520382881165, 2.6602742671966553, 0.32459571957588196, -101.00787353515625],
    [0.0017289255047217011, -0.32284122705459595, 2.6803805828094482, -52.0544319152832],
    [0.0, 0.0, 0.0, 1.0]
],
  "dcmmeta_reorient_transform": [
    [0.0, -1.0, 0.0, 81.0],
    [1.0, 0.0, 0.0, 0.0],
    [0.0, 0.0, 1.0, 0.0],
    [0.0, 0.0, 0.0, 1.0]
],
  "dcmmeta_shape": [82, 82, 56, 872],
  "dcmmeta_slice_dim": 2,
  "dcmmeta_version": 0.6,
  "global": {
    "const": {
      "AccessionNumber": "A004528",
      "AcquisitionMatrix": [82, 0, 0, 82],
      "AngioFlag": "N",
      "BitsAllocated": 16,
      "BitsStored": 16,
      "BodyPartExamined": "BRAIN",
      "Columns": 656,
      "EchoNumbers": 1,
      "EchoTime": 27.2,
      "EchoTrainLength": 82,
      "FlipAngle": 44.0,
      "HighBit": 15,
      "ImageOrientationPatient": [0.9988180240704, 0.04860184685729, 0.00064441769289, -0.0483261552881, 0.99155678560504, 0.12033172331377],
      "ImagePositionPatient": [-840.50904969696, -915.39651881699, -171.35620053274],
      "ImageType": [
        "ORIGINAL",
        "PRIMARY",
        "M",
        "MB",
        "ND",
        "NORM",
        "MOSAIC"
],
      "ImagedNucleus": "1H",
      "ImagingFrequency": 123.259091,
      "InPlanePhaseEncodingDirection": "COL",
      "MRAcquisitionType": "2D",
      "MagneticFieldStrength": 3.0,
      "Manufacturer": "SIEMENS",
      "ManufacturerModelName": "Prisma",
      "Modality": "MR",
      "NumberOfAverages": 1.0,
      "NumberOfPhaseEncodingSteps": 82,
      "PercentPhaseFieldOfView": 100.0,
      "PercentSampling": 100.0,
      "PerformedProcedureStepStartTime": "164459.164000",
      "PhotometricInterpretation": "MONOCHROME2",
      "PixelBandwidth": 3050.0,
      "PixelRepresentation": 0,
      "PixelSpacing": [2.6829268932343, 2.6829268932343],
      "ProtocolName": "func_run-01_task-social_acq-ap-mb8",
      "RepetitionTime": 460.0,
      "Rows": 656,
      "SAR": 0.07686910894405,
      "SamplesPerPixel": 1,
      "ScanOptions": "FS",
      "ScanningSequence": "EP",
      "SequenceName": "epfid2d1_82",
      "SequenceVariant": [
        "SK",
        "SS"
],
      "SeriesDescription": "func_run-01_task-social_acq-ap-mb8",
      "SeriesNumber": 12,
      "SeriesTime": "172304.750000",
      "SliceLocation": -64.440014120177,
      "SliceThickness": 2.7000000476837,
      "SmallestImagePixelValue": 0,
      "SoftwareVersions": "syngo MR E11",
      "SpacingBetweenSlices": 2.6999999986235,
      "SpecificCharacterSet": "ISO_IR 100",
      "StudyID": "2",
      "StudyTime": "164459.126000",
      "TransmitCoilName": "Body",
      "VariableFlipAngleFlag": "N",
      "WindowCenterWidthExplanation": "Algo1"
    },
    "slices": {}
  },
  "time": {
    "samples": {
      "AcquisitionNumber": [1, 2, 3, 4, 5, 6, 7, 8, 9, 10, 11, 12, 13, 14, 15, 16, 17, 18, 19, 20, 21, 22, 23, 24, 25, 26, 27, 28, 29, 30, 31, 32, 33, 34, 35, 36, 37, 38, 39, 40, 41, 42, 43, 44, 45, 46, 47, 48, 49, 50, 51, 52, 53, 54, 55, 56, 57, 58, 59, 60, 61, 62, 63, 64, 65, 66, 67, 68, 69, 70, 71, 72, 73, 74, 75, 76, 77, 78, 79, 80, 81, 82, 83, 84, 85, 86, 87, 88, 89, 90, 91, 92, 93, 94, 95, 96, 97, 98, 99, 100, 101, 102, 103, 104, 105, 106, 107, 108, 109, 110, 111, 112, 113, 114, 115, 116, 117, 118, 119, 120, 121, 122, 123, 124, 125, 126, 127, 128, 129, 130, 131, 132, 133, 134, 135, 136, 137, 138, 139, 140, 141, 142, 143, 144, 145, 146, 147, 148, 149, 150, 151, 152, 153, 154, 155, 156, 157, 158, 159, 160, 161, 162, 163, 164, 165, 166, 167, 168, 169, 170, 171, 172, 173, 174, 175, 176, 177, 178, 179, 180, 181, 182, 183, 184, 185, 186, 187, 188, 189, 190, 191, 192, 193, 194, 195, 196, 197, 198, 199, 200, 201, 202, 203, 204, 205, 206, 207, 208, 209, 210, 211, 212, 213, 214, 215, 216, 217, 218, 219, 220, 221, 222, 223, 224, 225, 226, 227, 228, 229, 230, 231, 232, 233, 234, 235, 236, 237, 238, 239, 240, 241, 242, 243, 244, 245, 246, 247, 248, 249, 250, 251, 252, 253, 254, 255, 256, 257, 258, 259, 260, 261, 262, 263, 264, 265, 266, 267, 268, 269, 270, 271, 272, 273, 274, 275, 276, 277, 278, 279, 280, 281, 282, 283, 284, 285, 286, 287, 288, 289, 290, 291, 292, 293, 294, 295, 296, 297, 298, 299, 300, 301, 302, 303, 304, 305, 306, 307, 308, 309, 310, 311, 312, 313, 314, 315, 316, 317, 318, 319, 320, 321, 322, 323, 324, 325, 326, 327, 328, 329, 330, 331, 332, 333, 334, 335, 336, 337, 338, 339, 340, 341, 342, 343, 344, 345, 346, 347, 348, 349, 350, 351, 352, 353, 354, 355, 356, 357, 358, 359, 360, 361, 362, 363, 364, 365, 366, 367, 368, 369, 370, 371, 372, 373, 374, 375, 376, 377, 378, 379, 380, 381, 382, 383, 384, 385, 386, 387, 388, 389, 390, 391, 392, 393, 394, 395, 396, 397, 398, 399, 400, 401, 402, 403, 404, 405, 406, 407, 408, 409, 410, 411, 412, 413, 414, 415, 416, 417, 418, 419, 420, 421, 422, 423, 424, 425, 426, 427, 428, 429, 430, 431, 432, 433, 434, 435, 436, 437, 438, 439, 440, 441, 442, 443, 444, 445, 446, 447, 448, 449, 450, 451, 452, 453, 454, 455, 456, 457, 458, 459, 460, 461, 462, 463, 464, 465, 466, 467, 468, 469, 470, 471, 472, 473, 474, 475, 476, 477, 478, 479, 480, 481, 482, 483, 484, 485, 486, 487, 488, 489, 490, 491, 492, 493, 494, 495, 496, 497, 498, 499, 500, 501, 502, 503, 504, 505, 506, 507, 508, 509, 510, 511, 512, 513, 514, 515, 516, 517, 518, 519, 520, 521, 522, 523, 524, 525, 526, 527, 528, 529, 530, 531, 532, 533, 534, 535, 536, 537, 538, 539, 540, 541, 542, 543, 544, 545, 546, 547, 548, 549, 550, 551, 552, 553, 554, 555, 556, 557, 558, 559, 560, 561, 562, 563, 564, 565, 566, 567, 568, 569, 570, 571, 572, 573, 574, 575, 576, 577, 578, 579, 580, 581, 582, 583, 584, 585, 586, 587, 588, 589, 590, 591, 592, 593, 594, 595, 596, 597, 598, 599, 600, 601, 602, 603, 604, 605, 606, 607, 608, 609, 610, 611, 612, 613, 614, 615, 616, 617, 618, 619, 620, 621, 622, 623, 624, 625, 626, 627, 628, 629, 630, 631, 632, 633, 634, 635, 636, 637, 638, 639, 640, 641, 642, 643, 644, 645, 646, 647, 648, 649, 650, 651, 652, 653, 654, 655, 656, 657, 658, 659, 660, 661, 662, 663, 664, 665, 666, 667, 668, 669, 670, 671, 672, 673, 674, 675, 676, 677, 678, 679, 680, 681, 682, 683, 684, 685, 686, 687, 688, 689, 690, 691, 692, 693, 694, 695, 696, 697, 698, 699, 700, 701, 702, 703, 704, 705, 706, 707, 708, 709, 710, 711, 712, 713, 714, 715, 716, 717, 718, 719, 720, 721, 722, 723, 724, 725, 726, 727, 728, 729, 730, 731, 732, 733, 734, 735, 736, 737, 738, 739, 740, 741, 742, 743, 744, 745, 746, 747, 748, 749, 750, 751, 752, 753, 754, 755, 756, 757, 758, 759, 760, 761, 762, 763, 764, 765, 766, 767, 768, 769, 770, 771, 772, 773, 774, 775, 776, 777, 778, 779, 780, 781, 782, 783, 784, 785, 786, 787, 788, 789, 790, 791, 792, 793, 794, 795, 796, 797, 798, 799, 800, 801, 802, 803, 804, 805, 806, 807, 808, 809, 810, 811, 812, 813, 814, 815, 816, 817, 818, 819, 820, 821, 822, 823, 824, 825, 826, 827, 828, 829, 830, 831, 832, 833, 834, 835, 836, 837, 838, 839, 840, 841, 842, 843, 844, 845, 846, 847, 848, 849, 850, 851, 852, 853, 854, 855, 856, 857, 858, 859, 860, 861, 862, 863, 864, 865, 866, 867, 868, 869, 870, 871, 872],
      "AcquisitionTime": ["172241.107500", "172241.567500", "172242.027500", "172242.487500", "172242.947500", "172243.407500", "172243.867500", "172244.327500", "172244.787500", "172245.247500", "172245.707500", "172246.167500", "172246.627500", "172247.087500", "172247.547500", "172248.007500", "172248.467500", "172248.927500", "172249.387500", "172249.847500", "172250.307500", "172250.767500", "172251.227500", "172251.687500", "172252.147500", "172252.607500", "172253.067500", "172253.527500", "172253.987500", "172254.447500", "172254.907500", "172255.367500", "172255.827500", "172256.287500", "172256.747500", "172257.207500", "172257.667500", "172258.127500", "172258.587500", "172259.047500", "172259.507500", "172259.967500", "172300.427500", "172300.887500", "172301.347500", "172301.807500", "172302.267500", "172302.727500", "172303.187500", "172303.647500", "172304.107500", "172304.567500", "172305.027500", "172305.487500", "172305.947500", "172306.407500", "172306.867500", "172307.327500", "172307.787500", "172308.247500", "172308.707500", "172309.167500", "172309.627500", "172310.087500", "172310.547500", "172311.007500", "172311.467500", "172311.927500", "172312.387500", "172312.847500", "172313.307500", "172313.767500", "172314.227500", "172314.687500", "172315.147500", "172315.607500", "172316.067500", "172316.527500", "172316.987500", "172317.447500", "172317.907500", "172318.367500", "172318.827500", "172319.287500", "172319.747500", "172320.207500", "172320.667500", "172321.127500", "172321.587500", "172322.047500", "172322.507500", "172322.967500", "172323.427500", "172323.887500", "172324.347500", "172324.807500", "172325.267500", "172325.727500", "172326.187500", "172326.647500", "172327.107500", "172327.567500", "172328.027500", "172328.487500", "172328.947500", "172329.407500", "172329.867500", "172330.327500", "172330.787500", "172331.247500", "172331.707500", "172332.167500", "172332.627500", "172333.087500", "172333.547500", "172334.007500", "172334.467500", "172334.927500", "172335.387500", "172335.847500", "172336.307500", "172336.767500", "172337.227500", "172337.687500", "172338.147500", "172338.607500", "172339.067500", "172339.527500", "172339.987500", "172340.447500", "172340.907500", "172341.367500", "172341.827500", "172342.287500", "172342.747500", "172343.207500", "172343.667500", "172344.127500", "172344.587500", "172345.047500", "172345.507500", "172345.967500", "172346.427500", "172346.887500", "172347.347500", "172347.807500", "172348.267500", "172348.727500", "172349.187500", "172349.647500", "172350.107500", "172350.567500", "172351.027500", "172351.487500", "172351.947500", "172352.407500", "172352.867500", "172353.327500", "172353.787500", "172354.247500", "172354.707500", "172355.167500", "172355.627500", "172356.087500", "172356.547500", "172357.007500", "172357.467500", "172357.927500", "172358.387500", "172358.847500", "172359.307500", "172359.767500", "172400.227500", "172400.687500", "172401.147500", "172401.607500", "172402.067500", "172402.527500", "172402.987500", "172403.447500", "172403.907500", "172404.367500", "172404.827500", "172405.287500", "172405.747500", "172406.207500", "172406.667500", "172407.127500", "172407.587500", "172408.047500", "172408.507500", "172408.967500", "172409.427500", "172409.887500", "172410.347500", "172410.807500", "172411.267500", "172411.727500", "172412.187500", "172412.647500", "172413.107500", "172413.567500", "172414.027500", "172414.487500", "172414.947500", "172415.407500", "172415.867500", "172416.327500", "172416.787500", "172417.247500", "172417.707500", "172418.167500", "172418.627500", "172419.087500", "172419.547500", "172420.007500", "172420.467500", "172420.927500", "172421.387500", "172421.847500", "172422.307500", "172422.767500", "172423.227500", "172423.687500", "172424.147500", "172424.607500", "172425.067500", "172425.527500", "172425.987500", "172426.447500", "172426.907500", "172427.367500", "172427.827500", "172428.287500", "172428.747500", "172429.207500", "172429.667500", "172430.127500", "172430.587500", "172431.047500", "172431.507500", "172431.967500", "172432.427500", "172432.887500", "172433.347500", "172433.807500", "172434.267500", "172434.727500", "172435.187500", "172435.647500", "172436.107500", "172436.567500", "172437.027500", "172437.487500", "172437.947500", "172438.407500", "172438.867500", "172439.327500", "172439.787500", "172440.247500", "172440.707500", "172441.167500", "172441.627500", "172442.087500", "172442.547500", "172443.007500", "172443.467500", "172443.927500", "172444.387500", "172444.847500", "172445.307500", "172445.767500", "172446.227500", "172446.687500", "172447.147500", "172447.607500", "172448.067500", "172448.527500", "172448.987500", "172449.447500", "172449.907500", "172450.367500", "172450.827500", "172451.287500", "172451.747500", "172452.207500", "172452.667500", "172453.127500", "172453.587500", "172454.047500", "172454.507500", "172454.967500", "172455.427500", "172455.887500", "172456.347500", "172456.807500", "172457.267500", "172457.727500", "172458.187500", "172458.647500", "172459.107500", "172459.567500", "172500.027500", "172500.487500", "172500.947500", "172501.407500", "172501.867500", "172502.327500", "172502.787500", "172503.247500", "172503.707500", "172504.167500", "172504.627500", "172505.087500", "172505.547500", "172506.007500", "172506.467500", "172506.927500", "172507.387500", "172507.847500", "172508.307500", "172508.767500", "172509.227500", "172509.687500", "172510.147500", "172510.607500", "172511.067500", "172511.527500", "172511.987500", "172512.447500", "172512.907500", "172513.367500", "172513.827500", "172514.287500", "172514.747500", "172515.207500", "172515.667500", "172516.127500", "172516.587500", "172517.047500", "172517.507500", "172517.967500", "172518.427500", "172518.887500", "172519.347500", "172519.807500", "172520.267500", "172520.727500", "172521.187500", "172521.647500", "172522.107500", "172522.567500", "172523.027500", "172523.487500", "172523.947500", "172524.407500", "172524.867500", "172525.327500", "172525.787500", "172526.247500", "172526.707500", "172527.167500", "172527.627500", "172528.087500", "172528.547500", "172529.007500", "172529.467500", "172529.927500", "172530.387500", "172530.847500", "172531.307500", "172531.767500", "172532.227500", "172532.687500", "172533.147500", "172533.607500", "172534.067500", "172534.527500", "172534.987500", "172535.447500", "172535.907500", "172536.367500", "172536.827500", "172537.287500", "172537.747500", "172538.207500", "172538.667500", "172539.127500", "172539.587500", "172540.047500", "172540.507500", "172540.967500", "172541.427500", "172541.887500", "172542.347500", "172542.807500", "172543.267500", "172543.727500", "172544.187500", "172544.647500", "172545.107500", "172545.567500", "172546.027500", "172546.487500", "172546.947500", "172547.407500", "172547.867500", "172548.327500", "172548.787500", "172549.247500", "172549.707500", "172550.167500", "172550.627500", "172551.087500", "172551.547500", "172552.007500", "172552.467500", "172552.927500", "172553.387500", "172553.847500", "172554.307500", "172554.767500", "172555.227500", "172555.687500", "172556.147500", "172556.607500", "172557.067500", "172557.527500", "172557.987500", "172558.447500", "172558.907500", "172559.367500", "172559.827500", "172600.287500", "172600.747500", "172601.207500", "172601.667500", "172602.127500", "172602.587500", "172603.047500", "172603.507500", "172603.967500", "172604.427500", "172604.887500", "172605.347500", "172605.807500", "172606.267500", "172606.727500", "172607.187500", "172607.647500", "172608.107500", "172608.567500", "172609.027500", "172609.487500", "172609.947500", "172610.407500", "172610.867500", "172611.327500", "172611.787500", "172612.247500", "172612.707500", "172613.167500", "172613.627500", "172614.087500", "172614.547500", "172615.007500", "172615.467500", "172615.927500", "172616.387500", "172616.847500", "172617.307500", "172617.767500", "172618.227500", "172618.687500", "172619.147500", "172619.607500", "172620.067500", "172620.527500", "172620.987500", "172621.447500", "172621.907500", "172622.367500", "172622.827500", "172623.287500", "172623.747500", "172624.207500", "172624.667500", "172625.127500", "172625.587500", "172626.047500", "172626.507500", "172626.967500", "172627.427500", "172627.887500", "172628.347500", "172628.807500", "172629.267500", "172629.727500", "172630.187500", "172630.647500", "172631.107500", "172631.567500", "172632.027500", "172632.487500", "172632.947500", "172633.407500", "172633.867500", "172634.327500", "172634.787500", "172635.247500", "172635.707500", "172636.167500", "172636.627500", "172637.087500", "172637.547500", "172638.007500", "172638.467500", "172638.927500", "172639.387500", "172639.847500", "172640.307500", "172640.767500", "172641.227500", "172641.687500", "172642.147500", "172642.607500", "172643.067500", "172643.527500", "172643.987500", "172644.447500", "172644.907500", "172645.367500", "172645.827500", "172646.287500", "172646.747500", "172647.207500", "172647.667500", "172648.127500", "172648.587500", "172649.047500", "172649.507500", "172649.967500", "172650.427500", "172650.887500", "172651.347500", "172651.807500", "172652.267500", "172652.727500", "172653.187500", "172653.647500", "172654.107500", "172654.567500", "172655.027500", "172655.487500", "172655.947500", "172656.407500", "172656.867500", "172657.327500", "172657.787500", "172658.247500", "172658.707500", "172659.167500", "172659.627500", "172700.087500", "172700.547500", "172701.007500", "172701.467500", "172701.927500", "172702.387500", "172702.847500", "172703.307500", "172703.767500", "172704.227500", "172704.687500", "172705.147500", "172705.607500", "172706.067500", "172706.527500", "172706.987500", "172707.447500", "172707.907500", "172708.367500", "172708.827500", "172709.287500", "172709.747500", "172710.207500", "172710.667500", "172711.127500", "172711.587500", "172712.047500", "172712.507500", "172712.967500", "172713.427500", "172713.887500", "172714.347500", "172714.807500", "172715.267500", "172715.727500", "172716.187500", "172716.647500", "172717.107500", "172717.567500", "172718.027500", "172718.487500", "172718.947500", "172719.407500", "172719.867500", "172720.327500", "172720.787500", "172721.247500", "172721.707500", "172722.167500", "172722.627500", "172723.087500", "172723.547500", "172724.007500", "172724.467500", "172724.927500", "172725.387500", "172725.847500", "172726.307500", "172726.767500", "172727.227500", "172727.687500", "172728.147500", "172728.607500", "172729.067500", "172729.527500", "172729.987500", "172730.447500", "172730.907500", "172731.367500", "172731.827500", "172732.287500", "172732.747500", "172733.207500", "172733.667500", "172734.127500", "172734.587500", "172735.047500", "172735.507500", "172735.967500", "172736.427500", "172736.887500", "172737.347500", "172737.807500", "172738.267500", "172738.727500", "172739.187500", "172739.647500", "172740.107500", "172740.567500", "172741.027500", "172741.487500", "172741.947500", "172742.407500", "172742.867500", "172743.327500", "172743.787500", "172744.247500", "172744.707500", "172745.167500", "172745.627500", "172746.087500", "172746.547500", "172747.007500", "172747.467500", "172747.927500", "172748.387500", "172748.847500", "172749.307500", "172749.767500", "172750.227500", "172750.687500", "172751.147500", "172751.607500", "172752.067500", "172752.527500", "172752.987500", "172753.447500", "172753.907500", "172754.367500", "172754.827500", "172755.287500", "172755.747500", "172756.207500", "172756.667500", "172757.127500", "172757.587500", "172758.047500", "172758.507500", "172758.967500", "172759.427500", "172759.887500", "172800.347500", "172800.807500", "172801.267500", "172801.727500", "172802.187500", "172802.647500", "172803.107500", "172803.567500", "172804.027500", "172804.487500", "172804.947500", "172805.407500", "172805.867500", "172806.327500", "172806.787500", "172807.247500", "172807.707500", "172808.167500", "172808.627500", "172809.087500", "172809.547500", "172810.007500", "172810.467500", "172810.927500", "172811.387500", "172811.847500", "172812.307500", "172812.767500", "172813.227500", "172813.687500", "172814.147500", "172814.607500", "172815.067500", "172815.527500", "172815.987500", "172816.447500", "172816.907500", "172817.367500", "172817.827500", "172818.287500", "172818.747500", "172819.207500", "172819.667500", "172820.127500", "172820.587500", "172821.047500", "172821.507500", "172821.967500", "172822.427500", "172822.887500", "172823.347500", "172823.807500", "172824.267500", "172824.727500", "172825.187500", "172825.647500", "172826.107500", "172826.567500", "172827.027500", "172827.487500", "172827.947500", "172828.407500", "172828.867500", "172829.327500", "172829.787500", "172830.247500", "172830.707500", "172831.167500", "172831.627500", "172832.087500", "172832.547500", "172833.007500", "172833.467500", "172833.927500", "172834.387500", "172834.847500", "172835.307500", "172835.767500", "172836.227500", "172836.687500", "172837.147500", "172837.607500", "172838.067500", "172838.527500", "172838.987500", "172839.447500", "172839.907500", "172840.367500", "172840.827500", "172841.287500", "172841.747500", "172842.207500", "172842.667500", "172843.127500", "172843.587500", "172844.047500", "172844.507500", "172844.967500", "172845.427500", "172845.887500", "172846.347500", "172846.807500", "172847.267500", "172847.727500", "172848.187500", "172848.647500", "172849.107500", "172849.567500", "172850.027500", "172850.487500", "172850.947500", "172851.407500", "172851.867500", "172852.327500", "172852.787500", "172853.247500", "172853.707500", "172854.167500", "172854.627500", "172855.087500", "172855.547500", "172856.007500", "172856.467500", "172856.927500", "172857.387500", "172857.847500", "172858.307500", "172858.767500", "172859.227500", "172859.687500", "172900.147500", "172900.607500", "172901.067500", "172901.527500", "172901.987500", "172902.447500", "172902.907500", "172903.367500", "172903.827500", "172904.287500", "172904.747500", "172905.207500", "172905.667500", "172906.127500", "172906.587500", "172907.047500", "172907.507500", "172907.967500", "172908.427500", "172908.887500", "172909.347500", "172909.807500", "172910.267500", "172910.727500", "172911.187500", "172911.647500", "172912.107500", "172912.567500", "172913.027500", "172913.487500", "172913.947500", "172914.407500", "172914.867500", "172915.327500", "172915.787500", "172916.247500", "172916.707500", "172917.167500", "172917.627500", "172918.087500", "172918.547500", "172919.007500", "172919.467500", "172919.927500", "172920.387500", "172920.847500", "172921.307500", "172921.767500"],
