{
  "AcquisitionMatrixPE": 82,
  "AcquisitionNumber": 1,
  "AcquisitionTime": "17:44:38.880000",
  "BandwidthPerPixelPhaseEncode": 24.888,
  "BaseResolution": 82,
  "BodyPartExamined": "BRAIN",
  "ConsistencyInfo": "N4_VE11E_LATEST_20181129",
  "ConversionSoftware": "dcm2niix",
  "ConversionSoftwareVersion": "v1.0.20201102",
  "DerivedVendorReportedEchoSpacing": 0.00049,
  "DeviceSerialNumber": "66112",
  "DwellTime": 2e-06,
  "EchoTime": 0.0272,
  "EchoTrainLength": 82,
  "EffectiveEchoSpacing": 0.00049,
  "FlipAngle": 44,
  "ImageComments": "Unaliased MB8/PE3",
  "ImageOrientationPatientDICOM": [0.99643, 0.0788355, -0.0301871, -0.0801709, 0.995722, -0.0459281],
  "ImageType": [
    "ORIGINAL",
    "PRIMARY",
    "M",
    "MB",
    "ND",
    "NORM",
    "MOSAIC"
],
  "ImagingFrequency": 123.259,
  "InPlanePhaseEncodingDirectionDICOM": "COL",
  "InstitutionAddress": "Maynard 3,Hanover,NH,US,03755",
  "InstitutionName": "Dartmouth College - PBS",
  "InstitutionalDepartmentName": "Department",
  "MRAcquisitionType": "2D",
  "MagneticFieldStrength": 3,
  "Manufacturer": "Siemens",
  "ManufacturersModelName": "Prisma",
  "Modality": "MR",
  "MultibandAccelerationFactor": 8,
  "PartialFourier": 1,
  "PatientPosition": "HFS",
  "PercentPhaseFOV": 100,
  "PercentSampling": 100,
  "PhaseEncodingDirection": "j-",
  "PhaseEncodingSteps": 82,
  "PhaseResolution": 1,
  "PixelBandwidth": 3050,
  "ProcedureStepDescription": "Wager_Wager^1076_spacetop",
  "ProtocolName": "func_run-02_task-faces_acq-ap-mb8",
  "PulseSequenceDetails": "%CustomerSeq%\\cmrr_mbep2d_bold",
  "ReceiveCoilActiveElements": "HEA;HEP",
  "ReceiveCoilName": "Head_32",
  "ReconMatrixPE": 82,
  "RepetitionTime": 0.46,
  "SAR": 0.0867055,
  "ScanOptions": "FS",
  "ScanningSequence": "EP",
  "SequenceName": "epfid2d1_82",
  "SequenceVariant": "SK\\SS",
  "SeriesDescription": "func_run-02_task-faces_acq-ap-mb8",
  "SeriesNumber": 18,
  "ShimSetting": [4202, -7760, -7235, 333, -198, 111, -16, 175],
  "SliceThickness": 2.7,
  "SliceTiming": [0, 0.25, 0.0625, 0.3125, 0.125, 0.3775, 0.1875, 0, 0.25, 0.0625, 0.3125, 0.125, 0.3775, 0.1875, 0, 0.25, 0.0625, 0.3125, 0.125, 0.3775, 0.1875, 0, 0.25, 0.0625, 0.3125, 0.125, 0.3775, 0.1875, 0, 0.25, 0.0625, 0.3125, 0.125, 0.3775, 0.1875, 0, 0.25, 0.0625, 0.3125, 0.125, 0.3775, 0.1875, 0, 0.25, 0.0625, 0.3125, 0.125, 0.3775, 0.1875, 0, 0.25, 0.0625, 0.3125, 0.125, 0.3775, 0.1875],
  "SoftwareVersions": "syngo MR E11",
  "SpacingBetweenSlices": 2.7,
  "StationName": "AWP66112",
  "TaskName": "faces",
  "TotalReadoutTime": 0.03969,
  "TxRefAmp": 244.763,
  "WipMemBlock": "d3c6dba0-d2d2-4dd9-b3ba-ff75d3fad064||Sequence: R016 ve11e/master r/434b28f1; Aug  7 2019 18:53:46 by eja",
  "dcmmeta_affine": [
    [-2.6733500957489014, -0.21509259939193726, -0.07138051092624664, 124.0252456665039],
    [-0.2115098536014557, 2.671450614929199, -0.1300976574420929, -91.5510025024414],
    [-0.08098983764648438, 0.12322180718183517, 2.6959190368652344, -80.79126739501953],
    [0.0, 0.0, 0.0, 1.0]
],
  "dcmmeta_reorient_transform": [
    [0.0, -1.0, 0.0, 81.0],
    [1.0, 0.0, 0.0, 0.0],
    [0.0, 0.0, 1.0, 0.0],
    [0.0, 0.0, 0.0, 1.0]
],
  "dcmmeta_shape": [82, 82, 56, 914],
  "dcmmeta_slice_dim": 2,
  "dcmmeta_version": 0.6,
  "global": {
    "const": {
      "AccessionNumber": "A004856",
      "AcquisitionMatrix": [82, 0, 0, 82],
      "AngioFlag": "N",
      "BitsAllocated": 16,
      "BitsStored": 16,
      "BodyPartExamined": "BRAIN",
      "Columns": 656,
      "EchoNumbers": 1,
      "EchoTime": 27.2,
      "EchoTrainLength": 82,
      "FlipAngle": 44.0,
      "HighBit": 15,
      "ImageOrientationPatient": [0.99643048122424, 0.07883548641922, -0.0301871192443, -0.080170874602, 0.99572247033871, -0.0459281278534],
      "ImagePositionPatient": [-812.12266010129, -952.24614011558, -12.201556726096],
      "ImageType": [
        "ORIGINAL",
        "PRIMARY",
        "M",
        "MB",
        "ND",
        "NORM",
        "MOSAIC"
],
      "ImagedNucleus": "1H",
      "ImagingFrequency": 123.259082,
      "InPlanePhaseEncodingDirection": "COL",
      "MRAcquisitionType": "2D",
      "MagneticFieldStrength": 3.0,
      "Manufacturer": "SIEMENS",
      "ManufacturerModelName": "Prisma",
      "Modality": "MR",
      "NumberOfAverages": 1.0,
      "NumberOfPhaseEncodingSteps": 82,
      "PercentPhaseFieldOfView": 100.0,
      "PercentSampling": 100.0,
      "PerformedProcedureStepStartTime": "164723.038000",
      "PhotometricInterpretation": "MONOCHROME2",
      "PixelBandwidth": 3050.0,
      "PixelRepresentation": 0,
      "PixelSpacing": [2.6829268932343, 2.6829268932343],
      "ProtocolName": "func_run-02_task-faces_acq-ap-mb8",
      "RepetitionTime": 460.0,
      "Rows": 656,
      "SAR": 0.08670548799323,
      "SamplesPerPixel": 1,
      "ScanOptions": "FS",
      "ScanningSequence": "EP",
      "SequenceName": "epfid2d1_82",
      "SequenceVariant": [
        "SK",
        "SS"
],
      "SeriesDescription": "func_run-02_task-faces_acq-ap-mb8",
      "SeriesNumber": 18,
      "SeriesTime": "174449.903000",
      "SliceLocation": -79.53671256837,
      "SliceThickness": 2.7000000476837,
      "SmallestImagePixelValue": 0,
      "SoftwareVersions": "syngo MR E11",
      "SpacingBetweenSlices": 2.7000000746987,
      "SpecificCharacterSet": "ISO_IR 100",
      "StudyID": "2",
      "StudyTime": "164722.980000",
      "TransmitCoilName": "Body",
      "VariableFlipAngleFlag": "N",
      "WindowCenterWidthExplanation": "Algo1"
    },
    "slices": {}
  },
  "time": {
    "samples": {
      "AcquisitionNumber": [1, 2, 3, 4, 5, 6, 7, 8, 9, 10, 11, 12, 13, 14, 15, 16, 17, 18, 19, 20, 21, 22, 23, 24, 25, 26, 27, 28, 29, 30, 31, 32, 33, 34, 35, 36, 37, 38, 39, 40, 41, 42, 43, 44, 45, 46, 47, 48, 49, 50, 51, 52, 53, 54, 55, 56, 57, 58, 59, 60, 61, 62, 63, 64, 65, 66, 67, 68, 69, 70, 71, 72, 73, 74, 75, 76, 77, 78, 79, 80, 81, 82, 83, 84, 85, 86, 87, 88, 89, 90, 91, 92, 93, 94, 95, 96, 97, 98, 99, 100, 101, 102, 103, 104, 105, 106, 107, 108, 109, 110, 111, 112, 113, 114, 115, 116, 117, 118, 119, 120, 121, 122, 123, 124, 125, 126, 127, 128, 129, 130, 131, 132, 133, 134, 135, 136, 137, 138, 139, 140, 141, 142, 143, 144, 145, 146, 147, 148, 149, 150, 151, 152, 153, 154, 155, 156, 157, 158, 159, 160, 161, 162, 163, 164, 165, 166, 167, 168, 169, 170, 171, 172, 173, 174, 175, 176, 177, 178, 179, 180, 181, 182, 183, 184, 185, 186, 187, 188, 189, 190, 191, 192, 193, 194, 195, 196, 197, 198, 199, 200, 201, 202, 203, 204, 205, 206, 207, 208, 209, 210, 211, 212, 213, 214, 215, 216, 217, 218, 219, 220, 221, 222, 223, 224, 225, 226, 227, 228, 229, 230, 231, 232, 233, 234, 235, 236, 237, 238, 239, 240, 241, 242, 243, 244, 245, 246, 247, 248, 249, 250, 251, 252, 253, 254, 255, 256, 257, 258, 259, 260, 261, 262, 263, 264, 265, 266, 267, 268, 269, 270, 271, 272, 273, 274, 275, 276, 277, 278, 279, 280, 281, 282, 283, 284, 285, 286, 287, 288, 289, 290, 291, 292, 293, 294, 295, 296, 297, 298, 299, 300, 301, 302, 303, 304, 305, 306, 307, 308, 309, 310, 311, 312, 313, 314, 315, 316, 317, 318, 319, 320, 321, 322, 323, 324, 325, 326, 327, 328, 329, 330, 331, 332, 333, 334, 335, 336, 337, 338, 339, 340, 341, 342, 343, 344, 345, 346, 347, 348, 349, 350, 351, 352, 353, 354, 355, 356, 357, 358, 359, 360, 361, 362, 363, 364, 365, 366, 367, 368, 369, 370, 371, 372, 373, 374, 375, 376, 377, 378, 379, 380, 381, 382, 383, 384, 385, 386, 387, 388, 389, 390, 391, 392, 393, 394, 395, 396, 397, 398, 399, 400, 401, 402, 403, 404, 405, 406, 407, 408, 409, 410, 411, 412, 413, 414, 415, 416, 417, 418, 419, 420, 421, 422, 423, 424, 425, 426, 427, 428, 429, 430, 431, 432, 433, 434, 435, 436, 437, 438, 439, 440, 441, 442, 443, 444, 445, 446, 447, 448, 449, 450, 451, 452, 453, 454, 455, 456, 457, 458, 459, 460, 461, 462, 463, 464, 465, 466, 467, 468, 469, 470, 471, 472, 473, 474, 475, 476, 477, 478, 479, 480, 481, 482, 483, 484, 485, 486, 487, 488, 489, 490, 491, 492, 493, 494, 495, 496, 497, 498, 499, 500, 501, 502, 503, 504, 505, 506, 507, 508, 509, 510, 511, 512, 513, 514, 515, 516, 517, 518, 519, 520, 521, 522, 523, 524, 525, 526, 527, 528, 529, 530, 531, 532, 533, 534, 535, 536, 537, 538, 539, 540, 541, 542, 543, 544, 545, 546, 547, 548, 549, 550, 551, 552, 553, 554, 555, 556, 557, 558, 559, 560, 561, 562, 563, 564, 565, 566, 567, 568, 569, 570, 571, 572, 573, 574, 575, 576, 577, 578, 579, 580, 581, 582, 583, 584, 585, 586, 587, 588, 589, 590, 591, 592, 593, 594, 595, 596, 597, 598, 599, 600, 601, 602, 603, 604, 605, 606, 607, 608, 609, 610, 611, 612, 613, 614, 615, 616, 617, 618, 619, 620, 621, 622, 623, 624, 625, 626, 627, 628, 629, 630, 631, 632, 633, 634, 635, 636, 637, 638, 639, 640, 641, 642, 643, 644, 645, 646, 647, 648, 649, 650, 651, 652, 653, 654, 655, 656, 657, 658, 659, 660, 661, 662, 663, 664, 665, 666, 667, 668, 669, 670, 671, 672, 673, 674, 675, 676, 677, 678, 679, 680, 681, 682, 683, 684, 685, 686, 687, 688, 689, 690, 691, 692, 693, 694, 695, 696, 697, 698, 699, 700, 701, 702, 703, 704, 705, 706, 707, 708, 709, 710, 711, 712, 713, 714, 715, 716, 717, 718, 719, 720, 721, 722, 723, 724, 725, 726, 727, 728, 729, 730, 731, 732, 733, 734, 735, 736, 737, 738, 739, 740, 741, 742, 743, 744, 745, 746, 747, 748, 749, 750, 751, 752, 753, 754, 755, 756, 757, 758, 759, 760, 761, 762, 763, 764, 765, 766, 767, 768, 769, 770, 771, 772, 773, 774, 775, 776, 777, 778, 779, 780, 781, 782, 783, 784, 785, 786, 787, 788, 789, 790, 791, 792, 793, 794, 795, 796, 797, 798, 799, 800, 801, 802, 803, 804, 805, 806, 807, 808, 809, 810, 811, 812, 813, 814, 815, 816, 817, 818, 819, 820, 821, 822, 823, 824, 825, 826, 827, 828, 829, 830, 831, 832, 833, 834, 835, 836, 837, 838, 839, 840, 841, 842, 843, 844, 845, 846, 847, 848, 849, 850, 851, 852, 853, 854, 855, 856, 857, 858, 859, 860, 861, 862, 863, 864, 865, 866, 867, 868, 869, 870, 871, 872, 873, 874, 875, 876, 877, 878, 879, 880, 881, 882, 883, 884, 885, 886, 887, 888, 889, 890, 891, 892, 893, 894, 895, 896, 897, 898, 899, 900, 901, 902, 903, 904, 905, 906, 907, 908, 909, 910, 911, 912, 913, 914],
      "AcquisitionTime": ["174438.880000", "174439.340000", "174439.800000", "174440.260000", "174440.720000", "174441.180000", "174441.640000", "174442.100000", "174442.560000", "174443.020000", "174443.480000", "174443.940000", "174444.400000", "174444.860000", "174445.320000", "174445.780000", "174446.240000", "174446.700000", "174447.160000", "174447.620000", "174448.080000", "174448.540000", "174449.000000", "174449.460000", "174449.920000", "174450.380000", "174450.840000", "174451.300000", "174451.760000", "174452.220000", "174452.680000", "174453.140000", "174453.600000", "174454.060000", "174454.520000", "174454.980000", "174455.440000", "174455.900000", "174456.360000", "174456.820000", "174457.280000", "174457.740000", "174458.200000", "174458.660000", "174459.120000", "174459.580000", "174500.040000", "174500.500000", "174500.960000", "174501.420000", "174501.880000", "174502.340000", "174502.800000", "174503.260000", "174503.720000", "174504.180000", "174504.640000", "174505.100000", "174505.560000", "174506.020000", "174506.480000", "174506.940000", "174507.400000", "174507.860000", "174508.320000", "174508.780000", "174509.240000", "174509.700000", "174510.160000", "174510.620000", "174511.080000", "174511.540000", "174512.000000", "174512.460000", "174512.920000", "174513.380000", "174513.840000", "174514.300000", "174514.760000", "174515.220000", "174515.680000", "174516.140000", "174516.600000", "174517.060000", "174517.520000", "174517.980000", "174518.440000", "174518.900000", "174519.360000", "174519.820000", "174520.280000", "174520.740000", "174521.200000", "174521.660000", "174522.120000", "174522.580000", "174523.040000", "174523.500000", "174523.960000", "174524.420000", "174524.880000", "174525.340000", "174525.800000", "174526.260000", "174526.720000", "174527.180000", "174527.640000", "174528.100000", "174528.560000", "174529.020000", "174529.480000", "174529.940000", "174530.400000", "174530.860000", "174531.320000", "174531.780000", "174532.240000", "174532.700000", "174533.160000", "174533.620000", "174534.080000", "174534.540000", "174535.000000", "174535.460000", "174535.920000", "174536.380000", "174536.840000", "174537.300000", "174537.760000", "174538.220000", "174538.680000", "174539.140000", "174539.600000", "174540.060000", "174540.520000", "174540.980000", "174541.440000", "174541.900000", "174542.360000", "174542.820000", "174543.280000", "174543.740000", "174544.200000", "174544.660000", "174545.120000", "174545.580000", "174546.040000", "174546.500000", "174546.960000", "174547.420000", "174547.880000", "174548.340000", "174548.800000", "174549.260000", "174549.720000", "174550.180000", "174550.640000", "174551.100000", "174551.560000", "174552.020000", "174552.480000", "174552.940000", "174553.400000", "174553.860000", "174554.320000", "174554.780000", "174555.240000", "174555.700000", "174556.160000", "174556.620000", "174557.080000", "174557.540000", "174558.000000", "174558.460000", "174558.920000", "174559.380000", "174559.840000", "174600.300000", "174600.760000", "174601.220000", "174601.680000", "174602.140000", "174602.600000", "174603.060000", "174603.520000", "174603.980000", "174604.440000", "174604.900000", "174605.360000", "174605.820000", "174606.280000", "174606.740000", "174607.200000", "174607.660000", "174608.120000", "174608.580000", "174609.040000", "174609.500000", "174609.960000", "174610.420000", "174610.880000", "174611.340000", "174611.800000", "174612.260000", "174612.720000", "174613.180000", "174613.640000", "174614.100000", "174614.560000", "174615.020000", "174615.480000", "174615.940000", "174616.400000", "174616.860000", "174617.320000", "174617.780000", "174618.240000", "174618.700000", "174619.160000", "174619.620000", "174620.080000", "174620.540000", "174621.000000", "174621.460000", "174621.920000", "174622.380000", "174622.840000", "174623.300000", "174623.760000", "174624.220000", "174624.680000", "174625.140000", "174625.600000", "174626.060000", "174626.520000", "174626.980000", "174627.440000", "174627.900000", "174628.360000", "174628.820000", "174629.280000", "174629.740000", "174630.200000", "174630.660000", "174631.120000", "174631.580000", "174632.040000", "174632.500000", "174632.960000", "174633.420000", "174633.880000", "174634.340000", "174634.800000", "174635.260000", "174635.720000", "174636.180000", "174636.640000", "174637.100000", "174637.560000", "174638.020000", "174638.480000", "174638.940000", "174639.400000", "174639.860000", "174640.320000", "174640.780000", "174641.240000", "174641.700000", "174642.160000", "174642.620000", "174643.080000", "174643.540000", "174644.000000", "174644.460000", "174644.920000", "174645.380000", "174645.840000", "174646.300000", "174646.760000", "174647.220000", "174647.680000", "174648.140000", "174648.600000", "174649.060000", "174649.520000", "174649.980000", "174650.440000", "174650.900000", "174651.360000", "174651.820000", "174652.280000", "174652.740000", "174653.200000", "174653.660000", "174654.120000", "174654.580000", "174655.040000", "174655.500000", "174655.960000", "174656.420000", "174656.880000", "174657.340000", "174657.800000", "174658.260000", "174658.720000", "174659.180000", "174659.640000", "174700.100000", "174700.560000", "174701.020000", "174701.480000", "174701.940000", "174702.400000", "174702.860000", "174703.320000", "174703.780000", "174704.240000", "174704.700000", "174705.160000", "174705.620000", "174706.080000", "174706.540000", "174707.000000", "174707.460000", "174707.920000", "174708.380000", "174708.840000", "174709.300000", "174709.760000", "174710.220000", "174710.680000", "174711.140000", "174711.600000", "174712.060000", "174712.520000", "174712.980000", "174713.440000", "174713.900000", "174714.360000", "174714.820000", "174715.280000", "174715.740000", "174716.200000", "174716.660000", "174717.120000", "174717.580000", "174718.040000", "174718.500000", "174718.960000", "174719.420000", "174719.880000", "174720.340000", "174720.800000", "174721.260000", "174721.720000", "174722.180000", "174722.640000", "174723.100000", "174723.560000", "174724.020000", "174724.480000", "174724.940000", "174725.400000", "174725.860000", "174726.320000", "174726.780000", "174727.240000", "174727.700000", "174728.160000", "174728.620000", "174729.080000", "174729.540000", "174730.000000", "174730.460000", "174730.920000", "174731.380000", "174731.840000", "174732.300000", "174732.760000", "174733.220000", "174733.680000", "174734.140000", "174734.600000", "174735.060000", "174735.520000", "174735.980000", "174736.440000", "174736.900000", "174737.360000", "174737.820000", "174738.280000", "174738.740000", "174739.200000", "174739.660000", "174740.120000", "174740.580000", "174741.040000", "174741.500000", "174741.960000", "174742.420000", "174742.880000", "174743.340000", "174743.800000", "174744.260000", "174744.720000", "174745.180000", "174745.640000", "174746.100000", "174746.560000", "174747.020000", "174747.480000", "174747.940000", "174748.400000", "174748.860000", "174749.320000", "174749.780000", "174750.240000", "174750.700000", "174751.160000", "174751.620000", "174752.080000", "174752.540000", "174753.000000", "174753.460000", "174753.920000", "174754.380000", "174754.840000", "174755.300000", "174755.760000", "174756.220000", "174756.680000", "174757.140000", "174757.600000", "174758.060000", "174758.520000", "174758.980000", "174759.440000", "174759.900000", "174800.360000", "174800.820000", "174801.280000", "174801.740000", "174802.200000", "174802.660000", "174803.120000", "174803.580000", "174804.040000", "174804.500000", "174804.960000", "174805.420000", "174805.880000", "174806.340000", "174806.800000", "174807.260000", "174807.720000", "174808.180000", "174808.640000", "174809.100000", "174809.560000", "174810.020000", "174810.480000", "174810.940000", "174811.400000", "174811.860000", "174812.320000", "174812.780000", "174813.240000", "174813.700000", "174814.160000", "174814.620000", "174815.080000", "174815.540000", "174816.000000", "174816.460000", "174816.920000", "174817.380000", "174817.840000", "174818.300000", "174818.760000", "174819.220000", "174819.680000", "174820.140000", "174820.600000", "174821.060000", "174821.520000", "174821.980000", "174822.440000", "174822.900000", "174823.360000", "174823.820000", "174824.280000", "174824.740000", "174825.200000", "174825.660000", "174826.120000", "174826.580000", "174827.040000", "174827.500000", "174827.960000", "174828.420000", "174828.880000", "174829.340000", "174829.800000", "174830.260000", "174830.720000", "174831.180000", "174831.640000", "174832.100000", "174832.560000", "174833.020000", "174833.480000", "174833.940000", "174834.400000", "174834.860000", "174835.320000", "174835.780000", "174836.240000", "174836.700000", "174837.160000", "174837.620000", "174838.080000", "174838.540000", "174839.000000", "174839.460000", "174839.920000", "174840.380000", "174840.840000", "174841.300000", "174841.760000", "174842.220000", "174842.680000", "174843.140000", "174843.600000", "174844.060000", "174844.520000", "174844.980000", "174845.440000", "174845.900000", "174846.360000", "174846.820000", "174847.280000", "174847.740000", "174848.200000", "174848.660000", "174849.120000", "174849.580000", "174850.040000", "174850.500000", "174850.960000", "174851.420000", "174851.880000", "174852.340000", "174852.800000", "174853.260000", "174853.720000", "174854.180000", "174854.640000", "174855.100000", "174855.560000", "174856.020000", "174856.480000", "174856.940000", "174857.400000", "174857.860000", "174858.320000", "174858.780000", "174859.240000", "174859.700000", "174900.160000", "174900.620000", "174901.080000", "174901.540000", "174902.000000", "174902.460000", "174902.920000", "174903.380000", "174903.840000", "174904.300000", "174904.760000", "174905.220000", "174905.680000", "174906.140000", "174906.600000", "174907.060000", "174907.520000", "174907.980000", "174908.440000", "174908.900000", "174909.360000", "174909.820000", "174910.280000", "174910.740000", "174911.200000", "174911.660000", "174912.120000", "174912.580000", "174913.040000", "174913.500000", "174913.960000", "174914.420000", "174914.880000", "174915.340000", "174915.800000", "174916.260000", "174916.720000", "174917.180000", "174917.640000", "174918.100000", "174918.560000", "174919.020000", "174919.480000", "174919.940000", "174920.400000", "174920.860000", "174921.320000", "174921.780000", "174922.240000", "174922.700000", "174923.160000", "174923.620000", "174924.080000", "174924.540000", "174925.000000", "174925.460000", "174925.920000", "174926.380000", "174926.840000", "174927.300000", "174927.760000", "174928.220000", "174928.680000", "174929.140000", "174929.600000", "174930.060000", "174930.520000", "174930.980000", "174931.440000", "174931.900000", "174932.360000", "174932.820000", "174933.280000", "174933.740000", "174934.200000", "174934.660000", "174935.120000", "174935.580000", "174936.040000", "174936.500000", "174936.960000", "174937.420000", "174937.880000", "174938.340000", "174938.800000", "174939.260000", "174939.720000", "174940.180000", "174940.640000", "174941.100000", "174941.560000", "174942.020000", "174942.480000", "174942.940000", "174943.400000", "174943.860000", "174944.320000", "174944.780000", "174945.240000", "174945.700000", "174946.160000", "174946.620000", "174947.080000", "174947.540000", "174948.000000", "174948.460000", "174948.920000", "174949.380000", "174949.840000", "174950.300000", "174950.760000", "174951.220000", "174951.680000", "174952.140000", "174952.600000", "174953.060000", "174953.520000", "174953.980000", "174954.440000", "174954.900000", "174955.360000", "174955.820000", "174956.280000", "174956.740000", "174957.200000", "174957.660000", "174958.120000", "174958.580000", "174959.040000", "174959.500000", "174959.960000", "175000.420000", "175000.880000", "175001.340000", "175001.800000", "175002.260000", "175002.720000", "175003.180000", "175003.640000", "175004.100000", "175004.560000", "175005.020000", "175005.480000", "175005.940000", "175006.400000", "175006.860000", "175007.320000", "175007.780000", "175008.240000", "175008.700000", "175009.160000", "175009.620000", "175010.080000", "175010.540000", "175011.000000", "175011.460000", "175011.920000", "175012.380000", "175012.840000", "175013.300000", "175013.760000", "175014.220000", "175014.680000", "175015.140000", "175015.600000", "175016.060000", "175016.520000", "175016.980000", "175017.440000", "175017.900000", "175018.360000", "175018.820000", "175019.280000", "175019.740000", "175020.200000", "175020.660000", "175021.120000", "175021.580000", "175022.040000", "175022.500000", "175022.960000", "175023.420000", "175023.880000", "175024.340000", "175024.800000", "175025.260000", "175025.720000", "175026.180000", "175026.640000", "175027.100000", "175027.560000", "175028.020000", "175028.480000", "175028.940000", "175029.400000", "175029.860000", "175030.320000", "175030.780000", "175031.240000", "175031.700000", "175032.160000", "175032.620000", "175033.080000", "175033.540000", "175034.000000", "175034.460000", "175034.920000", "175035.380000", "175035.840000", "175036.300000", "175036.760000", "175037.220000", "175037.680000", "175038.140000", "175038.600000", "175039.060000", "175039.520000", "175039.980000", "175040.440000", "175040.900000", "175041.360000", "175041.820000", "175042.280000", "175042.740000", "175043.200000", "175043.660000", "175044.120000", "175044.580000", "175045.040000", "175045.500000", "175045.960000", "175046.420000", "175046.880000", "175047.340000", "175047.800000", "175048.260000", "175048.720000", "175049.180000", "175049.640000", "175050.100000", "175050.560000", "175051.020000", "175051.480000", "175051.940000", "175052.400000", "175052.860000", "175053.320000", "175053.780000", "175054.240000", "175054.700000", "175055.160000", "175055.620000", "175056.080000", "175056.540000", "175057.000000", "175057.460000", "175057.920000", "175058.380000", "175058.840000", "175059.300000", "175059.760000", "175100.220000", "175100.680000", "175101.140000", "175101.600000", "175102.060000", "175102.520000", "175102.980000", "175103.440000", "175103.900000", "175104.360000", "175104.820000", "175105.280000", "175105.740000", "175106.200000", "175106.660000", "175107.120000", "175107.580000", "175108.040000", "175108.500000", "175108.960000", "175109.420000", "175109.880000", "175110.340000", "175110.800000", "175111.260000", "175111.720000", "175112.180000", "175112.640000", "175113.100000", "175113.560000", "175114.020000", "175114.480000", "175114.940000", "175115.400000", "175115.860000", "175116.320000", "175116.780000", "175117.240000", "175117.700000", "175118.160000", "175118.620000", "175119.080000", "175119.540000", "175120.000000", "175120.460000", "175120.920000", "175121.380000", "175121.840000", "175122.300000", "175122.760000", "175123.220000", "175123.680000", "175124.140000", "175124.600000", "175125.060000", "175125.520000", "175125.980000", "175126.440000", "175126.900000", "175127.360000", "175127.820000", "175128.280000", "175128.740000", "175129.200000", "175129.660000", "175130.120000", "175130.580000", "175131.040000", "175131.500000", "175131.960000", "175132.420000", "175132.880000", "175133.340000", "175133.800000", "175134.260000", "175134.720000", "175135.180000", "175135.640000", "175136.100000", "175136.560000", "175137.020000", "175137.480000", "175137.940000", "175138.400000", "175138.860000"],
