{
  "AcquisitionMatrixPE": 82,
  "AcquisitionNumber": 1,
  "AcquisitionTime": "16:59:34.662500",
  "BandwidthPerPixelPhaseEncode": 24.888,
  "BaseResolution": 82,
  "BodyPartExamined": "BRAIN",
  "ConsistencyInfo": "N4_VE11E_LATEST_20181129",
  "ConversionSoftware": "dcm2niix",
  "ConversionSoftwareVersion": "v1.0.20201102",
  "DerivedVendorReportedEchoSpacing": 0.00049,
  "DeviceSerialNumber": "66112",
  "DwellTime": 2e-06,
  "EchoTime": 0.0272,
  "EchoTrainLength": 82,
  "EffectiveEchoSpacing": 0.00049,
  "FlipAngle": 44,
  "ImageComments": "Unaliased MB8/PE3",
  "ImageOrientationPatientDICOM": [0.99643, 0.0788355, -0.0301871, -0.0801709, 0.995722, -0.0459281],
  "ImageType": [
    "ORIGINAL",
    "PRIMARY",
    "M",
    "MB",
    "ND",
    "NORM",
    "MOSAIC"
],
  "ImagingFrequency": 123.259,
  "InPlanePhaseEncodingDirectionDICOM": "COL",
  "InstitutionAddress": "Maynard 3,Hanover,NH,US,03755",
  "InstitutionName": "Dartmouth College - PBS",
  "InstitutionalDepartmentName": "Department",
  "MRAcquisitionType": "2D",
  "MagneticFieldStrength": 3,
  "Manufacturer": "Siemens",
  "ManufacturersModelName": "Prisma",
  "Modality": "MR",
  "MultibandAccelerationFactor": 8,
  "PartialFourier": 1,
  "PatientPosition": "HFS",
  "PercentPhaseFOV": 100,
  "PercentSampling": 100,
  "PhaseEncodingDirection": "j-",
  "PhaseEncodingSteps": 82,
  "PhaseResolution": 1,
  "PixelBandwidth": 3050,
  "ProcedureStepDescription": "Wager_Wager^1076_spacetop",
  "ProtocolName": "func_run-01_task-narratives_acq-ap-mb8",
  "PulseSequenceDetails": "%CustomerSeq%\\cmrr_mbep2d_bold",
  "ReceiveCoilActiveElements": "HEA;HEP",
  "ReceiveCoilName": "Head_32",
  "ReconMatrixPE": 82,
  "RepetitionTime": 0.46,
  "SAR": 0.0867337,
  "ScanOptions": "FS",
  "ScanningSequence": "EP",
  "SequenceName": "epfid2d1_82",
  "SequenceVariant": "SK\\SS",
  "SeriesDescription": "func_run-01_task-narratives_acq-ap-mb8",
  "SeriesNumber": 8,
  "ShimSetting": [4202, -7760, -7235, 333, -198, 111, -16, 175],
  "SliceThickness": 2.7,
  "SliceTiming": [0, 0.2525, 0.0625, 0.315, 0.125, 0.3775, 0.1875, 0, 0.2525, 0.0625, 0.315, 0.125, 0.3775, 0.1875, 0, 0.2525, 0.0625, 0.315, 0.125, 0.3775, 0.1875, 0, 0.2525, 0.0625, 0.315, 0.125, 0.3775, 0.1875, 0, 0.2525, 0.0625, 0.315, 0.125, 0.3775, 0.1875, 0, 0.2525, 0.0625, 0.315, 0.125, 0.3775, 0.1875, 0, 0.2525, 0.0625, 0.315, 0.125, 0.3775, 0.1875, 0, 0.2525, 0.0625, 0.315, 0.125, 0.3775, 0.1875],
  "SoftwareVersions": "syngo MR E11",
  "SpacingBetweenSlices": 2.7,
  "StationName": "AWP66112",
  "TaskName": "narratives",
  "TotalReadoutTime": 0.03969,
  "TxRefAmp": 244.763,
  "WipMemBlock": "a7421ef0-cd29-4e17-88c6-5026635c76e3||Sequence: R016 ve11e/master r/434b28f1; Aug  7 2019 18:53:46 by eja",
  "dcmmeta_affine": [
    [-2.6733500957489014, -0.21509259939193726, -0.07138051092624664, 124.0252456665039],
    [-0.2115098536014557, 2.671450614929199, -0.1300976574420929, -91.5510025024414],
    [-0.08098983764648438, 0.12322180718183517, 2.6959190368652344, -80.79126739501953],
    [0.0, 0.0, 0.0, 1.0]
],
  "dcmmeta_reorient_transform": [
    [0.0, -1.0, 0.0, 81.0],
    [1.0, 0.0, 0.0, 0.0],
    [0.0, 0.0, 1.0, 0.0],
    [0.0, 0.0, 0.0, 1.0]
],
  "dcmmeta_shape": [82, 82, 56, 967],
  "dcmmeta_slice_dim": 2,
  "dcmmeta_version": 0.6,
  "global": {
    "const": {
      "AccessionNumber": "A004856",
      "AcquisitionMatrix": [82, 0, 0, 82],
      "AngioFlag": "N",
      "BitsAllocated": 16,
      "BitsStored": 16,
      "BodyPartExamined": "BRAIN",
      "Columns": 656,
      "EchoNumbers": 1,
      "EchoTime": 27.2,
      "EchoTrainLength": 82,
      "FlipAngle": 44.0,
      "HighBit": 15,
      "ImageOrientationPatient": [0.99643048122424, 0.07883548641922, -0.0301871192443, -0.080170874602, 0.99572247033871, -0.0459281278534],
      "ImagePositionPatient": [-812.12266010129, -952.24614011558, -12.201556726096],
      "ImageType": [
        "ORIGINAL",
        "PRIMARY",
        "M",
        "MB",
        "ND",
        "NORM",
        "MOSAIC"
],
      "ImagedNucleus": "1H",
      "ImagingFrequency": 123.259031,
      "InPlanePhaseEncodingDirection": "COL",
      "MRAcquisitionType": "2D",
      "MagneticFieldStrength": 3.0,
      "Manufacturer": "SIEMENS",
      "ManufacturerModelName": "Prisma",
      "Modality": "MR",
      "NumberOfAverages": 1.0,
      "NumberOfPhaseEncodingSteps": 82,
      "PercentPhaseFieldOfView": 100.0,
      "PercentSampling": 100.0,
      "PerformedProcedureStepStartTime": "164723.038000",
      "PhotometricInterpretation": "MONOCHROME2",
      "PixelBandwidth": 3050.0,
      "PixelRepresentation": 0,
      "PixelSpacing": [2.6829268932343, 2.6829268932343],
      "ProtocolName": "func_run-01_task-narratives_acq-ap-mb8",
      "RepetitionTime": 460.0,
      "Rows": 656,
      "SAR": 0.08673367858747,
      "SamplesPerPixel": 1,
      "ScanOptions": "FS",
      "ScanningSequence": "EP",
      "SequenceName": "epfid2d1_82",
      "SequenceVariant": [
        "SK",
        "SS"
],
      "SeriesDescription": "func_run-01_task-narratives_acq-ap-mb8",
      "SeriesNumber": 8,
      "SeriesTime": "165949.986000",
      "SliceLocation": -79.53671256837,
      "SliceThickness": 2.7000000476837,
      "SmallestImagePixelValue": 0,
      "SoftwareVersions": "syngo MR E11",
      "SpacingBetweenSlices": 2.7000000746987,
      "SpecificCharacterSet": "ISO_IR 100",
      "StudyID": "2",
      "StudyTime": "164722.980000",
      "TransmitCoilName": "Body",
      "VariableFlipAngleFlag": "N",
      "WindowCenterWidthExplanation": "Algo1"
    },
    "slices": {}
  },
  "time": {
    "samples": {
      "AcquisitionNumber": [1, 2, 3, 4, 5, 6, 7, 8, 9, 10, 11, 12, 13, 14, 15, 16, 17, 18, 19, 20, 21, 22, 23, 24, 25, 26, 27, 28, 29, 30, 31, 32, 33, 34, 35, 36, 37, 38, 39, 40, 41, 42, 43, 44, 45, 46, 47, 48, 49, 50, 51, 52, 53, 54, 55, 56, 57, 58, 59, 60, 61, 62, 63, 64, 65, 66, 67, 68, 69, 70, 71, 72, 73, 74, 75, 76, 77, 78, 79, 80, 81, 82, 83, 84, 85, 86, 87, 88, 89, 90, 91, 92, 93, 94, 95, 96, 97, 98, 99, 100, 101, 102, 103, 104, 105, 106, 107, 108, 109, 110, 111, 112, 113, 114, 115, 116, 117, 118, 119, 120, 121, 122, 123, 124, 125, 126, 127, 128, 129, 130, 131, 132, 133, 134, 135, 136, 137, 138, 139, 140, 141, 142, 143, 144, 145, 146, 147, 148, 149, 150, 151, 152, 153, 154, 155, 156, 157, 158, 159, 160, 161, 162, 163, 164, 165, 166, 167, 168, 169, 170, 171, 172, 173, 174, 175, 176, 177, 178, 179, 180, 181, 182, 183, 184, 185, 186, 187, 188, 189, 190, 191, 192, 193, 194, 195, 196, 197, 198, 199, 200, 201, 202, 203, 204, 205, 206, 207, 208, 209, 210, 211, 212, 213, 214, 215, 216, 217, 218, 219, 220, 221, 222, 223, 224, 225, 226, 227, 228, 229, 230, 231, 232, 233, 234, 235, 236, 237, 238, 239, 240, 241, 242, 243, 244, 245, 246, 247, 248, 249, 250, 251, 252, 253, 254, 255, 256, 257, 258, 259, 260, 261, 262, 263, 264, 265, 266, 267, 268, 269, 270, 271, 272, 273, 274, 275, 276, 277, 278, 279, 280, 281, 282, 283, 284, 285, 286, 287, 288, 289, 290, 291, 292, 293, 294, 295, 296, 297, 298, 299, 300, 301, 302, 303, 304, 305, 306, 307, 308, 309, 310, 311, 312, 313, 314, 315, 316, 317, 318, 319, 320, 321, 322, 323, 324, 325, 326, 327, 328, 329, 330, 331, 332, 333, 334, 335, 336, 337, 338, 339, 340, 341, 342, 343, 344, 345, 346, 347, 348, 349, 350, 351, 352, 353, 354, 355, 356, 357, 358, 359, 360, 361, 362, 363, 364, 365, 366, 367, 368, 369, 370, 371, 372, 373, 374, 375, 376, 377, 378, 379, 380, 381, 382, 383, 384, 385, 386, 387, 388, 389, 390, 391, 392, 393, 394, 395, 396, 397, 398, 399, 400, 401, 402, 403, 404, 405, 406, 407, 408, 409, 410, 411, 412, 413, 414, 415, 416, 417, 418, 419, 420, 421, 422, 423, 424, 425, 426, 427, 428, 429, 430, 431, 432, 433, 434, 435, 436, 437, 438, 439, 440, 441, 442, 443, 444, 445, 446, 447, 448, 449, 450, 451, 452, 453, 454, 455, 456, 457, 458, 459, 460, 461, 462, 463, 464, 465, 466, 467, 468, 469, 470, 471, 472, 473, 474, 475, 476, 477, 478, 479, 480, 481, 482, 483, 484, 485, 486, 487, 488, 489, 490, 491, 492, 493, 494, 495, 496, 497, 498, 499, 500, 501, 502, 503, 504, 505, 506, 507, 508, 509, 510, 511, 512, 513, 514, 515, 516, 517, 518, 519, 520, 521, 522, 523, 524, 525, 526, 527, 528, 529, 530, 531, 532, 533, 534, 535, 536, 537, 538, 539, 540, 541, 542, 543, 544, 545, 546, 547, 548, 549, 550, 551, 552, 553, 554, 555, 556, 557, 558, 559, 560, 561, 562, 563, 564, 565, 566, 567, 568, 569, 570, 571, 572, 573, 574, 575, 576, 577, 578, 579, 580, 581, 582, 583, 584, 585, 586, 587, 588, 589, 590, 591, 592, 593, 594, 595, 596, 597, 598, 599, 600, 601, 602, 603, 604, 605, 606, 607, 608, 609, 610, 611, 612, 613, 614, 615, 616, 617, 618, 619, 620, 621, 622, 623, 624, 625, 626, 627, 628, 629, 630, 631, 632, 633, 634, 635, 636, 637, 638, 639, 640, 641, 642, 643, 644, 645, 646, 647, 648, 649, 650, 651, 652, 653, 654, 655, 656, 657, 658, 659, 660, 661, 662, 663, 664, 665, 666, 667, 668, 669, 670, 671, 672, 673, 674, 675, 676, 677, 678, 679, 680, 681, 682, 683, 684, 685, 686, 687, 688, 689, 690, 691, 692, 693, 694, 695, 696, 697, 698, 699, 700, 701, 702, 703, 704, 705, 706, 707, 708, 709, 710, 711, 712, 713, 714, 715, 716, 717, 718, 719, 720, 721, 722, 723, 724, 725, 726, 727, 728, 729, 730, 731, 732, 733, 734, 735, 736, 737, 738, 739, 740, 741, 742, 743, 744, 745, 746, 747, 748, 749, 750, 751, 752, 753, 754, 755, 756, 757, 758, 759, 760, 761, 762, 763, 764, 765, 766, 767, 768, 769, 770, 771, 772, 773, 774, 775, 776, 777, 778, 779, 780, 781, 782, 783, 784, 785, 786, 787, 788, 789, 790, 791, 792, 793, 794, 795, 796, 797, 798, 799, 800, 801, 802, 803, 804, 805, 806, 807, 808, 809, 810, 811, 812, 813, 814, 815, 816, 817, 818, 819, 820, 821, 822, 823, 824, 825, 826, 827, 828, 829, 830, 831, 832, 833, 834, 835, 836, 837, 838, 839, 840, 841, 842, 843, 844, 845, 846, 847, 848, 849, 850, 851, 852, 853, 854, 855, 856, 857, 858, 859, 860, 861, 862, 863, 864, 865, 866, 867, 868, 869, 870, 871, 872, 873, 874, 875, 876, 877, 878, 879, 880, 881, 882, 883, 884, 885, 886, 887, 888, 889, 890, 891, 892, 893, 894, 895, 896, 897, 898, 899, 900, 901, 902, 903, 904, 905, 906, 907, 908, 909, 910, 911, 912, 913, 914, 915, 916, 917, 918, 919, 920, 921, 922, 923, 924, 925, 926, 927, 928, 929, 930, 931, 932, 933, 934, 935, 936, 937, 938, 939, 940, 941, 942, 943, 944, 945, 946, 947, 948, 949, 950, 951, 952, 953, 954, 955, 956, 957, 958, 959, 960, 961, 962, 963, 964, 965, 966, 967],
      "AcquisitionTime": ["165934.662500", "165935.122500", "165935.582500", "165936.042500", "165936.502500", "165936.962500", "165937.422500", "165937.882500", "165938.342500", "165938.802500", "165939.262500", "165939.722500", "165940.182500", "165940.642500", "165941.102500", "165941.562500", "165942.022500", "165942.482500", "165942.942500", "165943.402500", "165943.862500", "165944.322500", "165944.782500", "165945.242500", "165945.702500", "165946.162500", "165946.622500", "165947.082500", "165947.542500", "165948.002500", "165948.462500", "165948.922500", "165949.382500", "165949.842500", "165950.302500", "165950.762500", "165951.222500", "165951.682500", "165952.142500", "165952.602500", "165953.062500", "165953.522500", "165953.982500", "165954.442500", "165954.902500", "165955.362500", "165955.822500", "165956.282500", "165956.742500", "165957.202500", "165957.662500", "165958.122500", "165958.582500", "165959.042500", "165959.502500", "165959.962500", "170000.422500", "170000.882500", "170001.342500", "170001.802500", "170002.262500", "170002.722500", "170003.182500", "170003.642500", "170004.102500", "170004.562500", "170005.022500", "170005.482500", "170005.942500", "170006.402500", "170006.862500", "170007.322500", "170007.782500", "170008.242500", "170008.702500", "170009.162500", "170009.622500", "170010.082500", "170010.542500", "170011.002500", "170011.462500", "170011.922500", "170012.382500", "170012.842500", "170013.302500", "170013.762500", "170014.222500", "170014.682500", "170015.142500", "170015.602500", "170016.062500", "170016.522500", "170016.982500", "170017.442500", "170017.902500", "170018.362500", "170018.822500", "170019.282500", "170019.742500", "170020.202500", "170020.662500", "170021.122500", "170021.582500", "170022.042500", "170022.502500", "170022.962500", "170023.422500", "170023.882500", "170024.342500", "170024.802500", "170025.262500", "170025.722500", "170026.182500", "170026.642500", "170027.102500", "170027.562500", "170028.022500", "170028.482500", "170028.942500", "170029.402500", "170029.862500", "170030.322500", "170030.782500", "170031.242500", "170031.702500", "170032.162500", "170032.622500", "170033.082500", "170033.542500", "170034.002500", "170034.462500", "170034.922500", "170035.382500", "170035.842500", "170036.302500", "170036.762500", "170037.222500", "170037.682500", "170038.142500", "170038.602500", "170039.062500", "170039.522500", "170039.982500", "170040.442500", "170040.902500", "170041.362500", "170041.822500", "170042.282500", "170042.742500", "170043.202500", "170043.662500", "170044.122500", "170044.582500", "170045.042500", "170045.502500", "170045.962500", "170046.422500", "170046.882500", "170047.342500", "170047.802500", "170048.262500", "170048.722500", "170049.182500", "170049.642500", "170050.102500", "170050.562500", "170051.022500", "170051.482500", "170051.942500", "170052.402500", "170052.862500", "170053.322500", "170053.782500", "170054.242500", "170054.702500", "170055.162500", "170055.622500", "170056.082500", "170056.542500", "170057.002500", "170057.462500", "170057.922500", "170058.382500", "170058.842500", "170059.302500", "170059.762500", "170100.222500", "170100.682500", "170101.142500", "170101.602500", "170102.062500", "170102.522500", "170102.982500", "170103.442500", "170103.902500", "170104.362500", "170104.822500", "170105.282500", "170105.742500", "170106.202500", "170106.662500", "170107.122500", "170107.582500", "170108.042500", "170108.502500", "170108.962500", "170109.422500", "170109.882500", "170110.342500", "170110.802500", "170111.262500", "170111.722500", "170112.182500", "170112.642500", "170113.102500", "170113.562500", "170114.022500", "170114.482500", "170114.942500", "170115.402500", "170115.862500", "170116.322500", "170116.782500", "170117.242500", "170117.702500", "170118.162500", "170118.622500", "170119.082500", "170119.542500", "170120.002500", "170120.462500", "170120.922500", "170121.382500", "170121.842500", "170122.302500", "170122.762500", "170123.222500", "170123.682500", "170124.142500", "170124.602500", "170125.062500", "170125.522500", "170125.982500", "170126.442500", "170126.902500", "170127.362500", "170127.822500", "170128.282500", "170128.742500", "170129.202500", "170129.662500", "170130.122500", "170130.582500", "170131.042500", "170131.502500", "170131.962500", "170132.422500", "170132.882500", "170133.342500", "170133.802500", "170134.262500", "170134.722500", "170135.182500", "170135.642500", "170136.102500", "170136.562500", "170137.022500", "170137.482500", "170137.942500", "170138.402500", "170138.862500", "170139.322500", "170139.782500", "170140.242500", "170140.702500", "170141.162500", "170141.622500", "170142.082500", "170142.542500", "170143.002500", "170143.462500", "170143.922500", "170144.382500", "170144.842500", "170145.302500", "170145.762500", "170146.222500", "170146.682500", "170147.142500", "170147.602500", "170148.062500", "170148.522500", "170148.982500", "170149.442500", "170149.902500", "170150.362500", "170150.822500", "170151.282500", "170151.742500", "170152.202500", "170152.662500", "170153.122500", "170153.582500", "170154.042500", "170154.502500", "170154.962500", "170155.422500", "170155.882500", "170156.342500", "170156.802500", "170157.262500", "170157.722500", "170158.182500", "170158.642500", "170159.102500", "170159.562500", "170200.022500", "170200.482500", "170200.942500", "170201.402500", "170201.862500", "170202.322500", "170202.782500", "170203.242500", "170203.702500", "170204.162500", "170204.622500", "170205.082500", "170205.542500", "170206.002500", "170206.462500", "170206.922500", "170207.382500", "170207.842500", "170208.302500", "170208.762500", "170209.222500", "170209.682500", "170210.142500", "170210.602500", "170211.062500", "170211.522500", "170211.982500", "170212.442500", "170212.902500", "170213.362500", "170213.822500", "170214.282500", "170214.742500", "170215.202500", "170215.662500", "170216.122500", "170216.582500", "170217.042500", "170217.502500", "170217.962500", "170218.422500", "170218.882500", "170219.342500", "170219.802500", "170220.262500", "170220.722500", "170221.182500", "170221.642500", "170222.102500", "170222.562500", "170223.022500", "170223.482500", "170223.942500", "170224.402500", "170224.862500", "170225.322500", "170225.782500", "170226.242500", "170226.702500", "170227.162500", "170227.622500", "170228.082500", "170228.542500", "170229.002500", "170229.462500", "170229.922500", "170230.382500", "170230.842500", "170231.302500", "170231.762500", "170232.222500", "170232.682500", "170233.142500", "170233.602500", "170234.062500", "170234.522500", "170234.982500", "170235.442500", "170235.902500", "170236.362500", "170236.822500", "170237.282500", "170237.742500", "170238.202500", "170238.662500", "170239.122500", "170239.582500", "170240.042500", "170240.502500", "170240.962500", "170241.422500", "170241.882500", "170242.342500", "170242.802500", "170243.262500", "170243.722500", "170244.182500", "170244.642500", "170245.102500", "170245.562500", "170246.022500", "170246.482500", "170246.942500", "170247.402500", "170247.862500", "170248.322500", "170248.782500", "170249.242500", "170249.702500", "170250.162500", "170250.622500", "170251.082500", "170251.542500", "170252.002500", "170252.462500", "170252.922500", "170253.382500", "170253.842500", "170254.302500", "170254.762500", "170255.222500", "170255.682500", "170256.142500", "170256.602500", "170257.062500", "170257.522500", "170257.982500", "170258.442500", "170258.902500", "170259.362500", "170259.822500", "170300.282500", "170300.742500", "170301.202500", "170301.662500", "170302.122500", "170302.582500", "170303.042500", "170303.502500", "170303.962500", "170304.422500", "170304.882500", "170305.342500", "170305.802500", "170306.262500", "170306.722500", "170307.182500", "170307.642500", "170308.102500", "170308.562500", "170309.022500", "170309.482500", "170309.942500", "170310.402500", "170310.862500", "170311.322500", "170311.782500", "170312.242500", "170312.702500", "170313.162500", "170313.622500", "170314.082500", "170314.542500", "170315.002500", "170315.462500", "170315.922500", "170316.382500", "170316.842500", "170317.302500", "170317.762500", "170318.222500", "170318.682500", "170319.142500", "170319.602500", "170320.062500", "170320.522500", "170320.982500", "170321.442500", "170321.902500", "170322.362500", "170322.822500", "170323.282500", "170323.742500", "170324.202500", "170324.662500", "170325.122500", "170325.582500", "170326.042500", "170326.502500", "170326.962500", "170327.422500", "170327.882500", "170328.342500", "170328.802500", "170329.262500", "170329.722500", "170330.182500", "170330.642500", "170331.102500", "170331.562500", "170332.022500", "170332.482500", "170332.942500", "170333.402500", "170333.862500", "170334.322500", "170334.782500", "170335.242500", "170335.702500", "170336.162500", "170336.622500", "170337.082500", "170337.542500", "170338.002500", "170338.462500", "170338.922500", "170339.382500", "170339.842500", "170340.302500", "170340.762500", "170341.222500", "170341.682500", "170342.142500", "170342.602500", "170343.062500", "170343.522500", "170343.982500", "170344.442500", "170344.902500", "170345.362500", "170345.822500", "170346.282500", "170346.742500", "170347.202500", "170347.662500", "170348.122500", "170348.582500", "170349.042500", "170349.502500", "170349.962500", "170350.422500", "170350.882500", "170351.342500", "170351.802500", "170352.262500", "170352.722500", "170353.182500", "170353.642500", "170354.102500", "170354.562500", "170355.022500", "170355.482500", "170355.942500", "170356.402500", "170356.862500", "170357.322500", "170357.782500", "170358.242500", "170358.702500", "170359.162500", "170359.622500", "170400.082500", "170400.542500", "170401.002500", "170401.462500", "170401.922500", "170402.382500", "170402.842500", "170403.302500", "170403.762500", "170404.222500", "170404.682500", "170405.142500", "170405.602500", "170406.062500", "170406.522500", "170406.982500", "170407.442500", "170407.902500", "170408.362500", "170408.822500", "170409.282500", "170409.742500", "170410.202500", "170410.662500", "170411.122500", "170411.582500", "170412.042500", "170412.502500", "170412.962500", "170413.422500", "170413.882500", "170414.342500", "170414.802500", "170415.262500", "170415.722500", "170416.182500", "170416.642500", "170417.102500", "170417.562500", "170418.022500", "170418.482500", "170418.942500", "170419.402500", "170419.862500", "170420.322500", "170420.782500", "170421.242500", "170421.702500", "170422.162500", "170422.622500", "170423.082500", "170423.542500", "170424.002500", "170424.462500", "170424.922500", "170425.382500", "170425.842500", "170426.302500", "170426.762500", "170427.222500", "170427.682500", "170428.142500", "170428.602500", "170429.062500", "170429.522500", "170429.982500", "170430.442500", "170430.902500", "170431.362500", "170431.822500", "170432.282500", "170432.742500", "170433.202500", "170433.662500", "170434.122500", "170434.582500", "170435.042500", "170435.502500", "170435.962500", "170436.422500", "170436.882500", "170437.342500", "170437.802500", "170438.262500", "170438.722500", "170439.182500", "170439.642500", "170440.102500", "170440.562500", "170441.022500", "170441.482500", "170441.942500", "170442.402500", "170442.862500", "170443.322500", "170443.782500", "170444.242500", "170444.702500", "170445.162500", "170445.622500", "170446.082500", "170446.542500", "170447.002500", "170447.462500", "170447.922500", "170448.382500", "170448.842500", "170449.302500", "170449.762500", "170450.222500", "170450.682500", "170451.142500", "170451.602500", "170452.062500", "170452.522500", "170452.982500", "170453.442500", "170453.902500", "170454.362500", "170454.822500", "170455.282500", "170455.742500", "170456.202500", "170456.662500", "170457.122500", "170457.582500", "170458.042500", "170458.502500", "170458.962500", "170459.422500", "170459.882500", "170500.342500", "170500.802500", "170501.262500", "170501.722500", "170502.182500", "170502.642500", "170503.102500", "170503.562500", "170504.022500", "170504.482500", "170504.942500", "170505.402500", "170505.862500", "170506.322500", "170506.782500", "170507.242500", "170507.702500", "170508.162500", "170508.622500", "170509.082500", "170509.542500", "170510.002500", "170510.462500", "170510.922500", "170511.382500", "170511.842500", "170512.302500", "170512.762500", "170513.222500", "170513.682500", "170514.142500", "170514.602500", "170515.062500", "170515.522500", "170515.982500", "170516.442500", "170516.902500", "170517.362500", "170517.822500", "170518.282500", "170518.742500", "170519.202500", "170519.662500", "170520.122500", "170520.582500", "170521.042500", "170521.502500", "170521.962500", "170522.422500", "170522.882500", "170523.342500", "170523.802500", "170524.262500", "170524.722500", "170525.182500", "170525.642500", "170526.102500", "170526.562500", "170527.022500", "170527.482500", "170527.942500", "170528.402500", "170528.862500", "170529.322500", "170529.782500", "170530.242500", "170530.702500", "170531.162500", "170531.622500", "170532.082500", "170532.542500", "170533.002500", "170533.462500", "170533.922500", "170534.382500", "170534.842500", "170535.302500", "170535.762500", "170536.222500", "170536.682500", "170537.142500", "170537.602500", "170538.062500", "170538.522500", "170538.982500", "170539.442500", "170539.902500", "170540.362500", "170540.822500", "170541.282500", "170541.742500", "170542.202500", "170542.662500", "170543.122500", "170543.582500", "170544.042500", "170544.502500", "170544.962500", "170545.422500", "170545.882500", "170546.342500", "170546.802500", "170547.262500", "170547.722500", "170548.182500", "170548.642500", "170549.102500", "170549.562500", "170550.022500", "170550.482500", "170550.942500", "170551.402500", "170551.862500", "170552.322500", "170552.782500", "170553.242500", "170553.702500", "170554.162500", "170554.622500", "170555.082500", "170555.542500", "170556.002500", "170556.462500", "170556.922500", "170557.382500", "170557.842500", "170558.302500", "170558.762500", "170559.222500", "170559.682500", "170600.142500", "170600.602500", "170601.062500", "170601.522500", "170601.982500", "170602.442500", "170602.902500", "170603.362500", "170603.822500", "170604.282500", "170604.742500", "170605.202500", "170605.662500", "170606.122500", "170606.582500", "170607.042500", "170607.502500", "170607.962500", "170608.422500", "170608.882500", "170609.342500", "170609.802500", "170610.262500", "170610.722500", "170611.182500", "170611.642500", "170612.102500", "170612.562500", "170613.022500", "170613.482500", "170613.942500", "170614.402500", "170614.862500", "170615.322500", "170615.782500", "170616.242500", "170616.702500", "170617.162500", "170617.622500", "170618.082500", "170618.542500", "170619.002500", "170619.462500", "170619.922500", "170620.382500", "170620.842500", "170621.302500", "170621.762500", "170622.222500", "170622.682500", "170623.142500", "170623.602500", "170624.062500", "170624.522500", "170624.982500", "170625.442500", "170625.902500", "170626.362500", "170626.822500", "170627.282500", "170627.742500", "170628.202500", "170628.662500", "170629.122500", "170629.582500", "170630.042500", "170630.502500", "170630.962500", "170631.422500", "170631.882500", "170632.342500", "170632.802500", "170633.262500", "170633.722500", "170634.182500", "170634.642500", "170635.102500", "170635.562500", "170636.022500", "170636.482500", "170636.942500", "170637.402500", "170637.862500", "170638.322500", "170638.782500", "170639.242500", "170639.702500", "170640.162500", "170640.622500", "170641.082500", "170641.542500", "170642.002500", "170642.462500", "170642.922500", "170643.382500", "170643.842500", "170644.302500", "170644.762500", "170645.222500", "170645.682500", "170646.142500", "170646.602500", "170647.062500", "170647.522500", "170647.982500", "170648.442500", "170648.902500", "170649.362500", "170649.822500", "170650.282500", "170650.742500", "170651.202500", "170651.662500", "170652.122500", "170652.582500", "170653.042500", "170653.502500", "170653.962500", "170654.422500", "170654.882500", "170655.342500", "170655.802500", "170656.262500", "170656.722500", "170657.182500", "170657.642500", "170658.102500", "170658.562500", "170659.022500"],
