{
  "AcquisitionMatrixPE": 82,
  "AcquisitionNumber": 1,
  "AcquisitionTime": "18:39:43.742500",
  "BandwidthPerPixelPhaseEncode": 24.888,
  "BaseResolution": 82,
  "BodyPartExamined": "BRAIN",
  "ConsistencyInfo": "N4_VE11E_LATEST_20181129",
  "ConversionSoftware": "dcm2niix",
  "ConversionSoftwareVersion": "v1.0.20201102",
  "DerivedVendorReportedEchoSpacing": 0.00049,
  "DeviceSerialNumber": "66112",
  "DwellTime": 2e-06,
  "EchoTime": 0.0272,
  "EchoTrainLength": 82,
  "EffectiveEchoSpacing": 0.00049,
  "FlipAngle": 44,
  "ImageComments": "Unaliased MB8/PE3",
  "ImageOrientationPatientDICOM": [0.997, 0.0538416, -0.0556111, -0.0550428, 0.998278, -0.0202977],
  "ImageType": [
    "ORIGINAL",
    "PRIMARY",
    "M",
    "MB",
    "ND",
    "NORM",
    "MOSAIC"
],
  "ImagingFrequency": 123.259,
  "InPlanePhaseEncodingDirectionDICOM": "COL",
  "InstitutionAddress": "Maynard 3,Hanover,NH,US,03755",
  "InstitutionName": "Dartmouth College - PBS",
  "InstitutionalDepartmentName": "Department",
  "MRAcquisitionType": "2D",
  "MagneticFieldStrength": 3,
  "Manufacturer": "Siemens",
  "ManufacturersModelName": "Prisma",
  "Modality": "MR",
  "MultibandAccelerationFactor": 8,
  "PartialFourier": 1,
  "PatientPosition": "HFS",
  "PercentPhaseFOV": 100,
  "PercentSampling": 100,
  "PhaseEncodingDirection": "j-",
  "PhaseEncodingSteps": 82,
  "PhaseResolution": 1,
  "PixelBandwidth": 3050,
  "ProcedureStepDescription": "Wager_Wager^1076_spacetop",
  "ProtocolName": "func_run-04_task-alignvideo_acq-ap-mb8",
  "PulseSequenceDetails": "%CustomerSeq%\\cmrr_mbep2d_bold",
  "ReceiveCoilActiveElements": "HEA;HEP",
  "ReceiveCoilName": "Head_32",
  "ReconMatrixPE": 82,
  "RepetitionTime": 0.46,
  "SAR": 0.0867055,
  "ScanOptions": "FS",
  "ScanningSequence": "EP",
  "SequenceName": "epfid2d1_82",
  "SequenceVariant": "SK\\SS",
  "SeriesDescription": "func_run-04_task-alignvideo_acq-ap-mb8",
  "SeriesNumber": 34,
  "ShimSetting": [4202, -7760, -7237, 319, -193, 87, -6, 176],
  "SliceThickness": 2.7,
  "SliceTiming": [0, 0.2525, 0.0625, 0.315, 0.125, 0.3775, 0.1875, 0, 0.2525, 0.0625, 0.315, 0.125, 0.3775, 0.1875, 0, 0.2525, 0.0625, 0.315, 0.125, 0.3775, 0.1875, 0, 0.2525, 0.0625, 0.315, 0.125, 0.3775, 0.1875, 0, 0.2525, 0.0625, 0.315, 0.125, 0.3775, 0.1875, 0, 0.2525, 0.0625, 0.315, 0.125, 0.3775, 0.1875, 0, 0.2525, 0.0625, 0.315, 0.125, 0.3775, 0.1875, 0, 0.2525, 0.0625, 0.315, 0.125, 0.3775, 0.1875],
  "SoftwareVersions": "syngo MR E11",
  "SpacingBetweenSlices": 2.7,
  "StationName": "AWP66112",
  "TaskName": "alignvideo",
  "TotalReadoutTime": 0.03969,
  "TxRefAmp": 244.763,
  "WipMemBlock": "8376f832-fb5a-478c-9661-5ee7c9ffb0e7||Sequence: R016 ve11e/master r/434b28f1; Aug  7 2019 18:53:46 by eja",
  "dcmmeta_affine": [
    [-2.674877405166626, -0.14767584204673767, -0.14694060385227203, 124.10118865966797],
    [-0.14445315301418304, 2.6783061027526855, -0.06290390342473984, -97.88150787353516],
    [-0.14920048415660858, 0.05445710942149162, 2.6952645778656006, -79.38809967041016],
    [0.0, 0.0, 0.0, 1.0]
],
  "dcmmeta_reorient_transform": [
    [0.0, -1.0, 0.0, 81.0],
    [1.0, 0.0, 0.0, 0.0],
    [0.0, 0.0, 1.0, 0.0],
    [0.0, 0.0, 0.0, 1.0]
],
  "dcmmeta_shape": [82, 82, 56, 914],
  "dcmmeta_slice_dim": 2,
  "dcmmeta_version": 0.6,
  "global": {
    "const": {
      "AccessionNumber": "A004856",
      "AcquisitionMatrix": [82, 0, 0, 82],
      "AngioFlag": "N",
      "BitsAllocated": 16,
      "BitsStored": 16,
      "BodyPartExamined": "BRAIN",
      "Columns": 656,
      "EchoNumbers": 1,
      "EchoTime": 27.2,
      "EchoTrainLength": 82,
      "FlipAngle": 44.0,
      "HighBit": 15,
      "ImageOrientationPatient": [0.99699974211559, 0.05384162997427, -0.0556110879517, -0.0550428136107, 0.99827766382024, -0.0202976498001],
      "ImagePositionPatient": [-837.44629439858, -929.19315398532, -16.527343182388],
      "ImageType": [
        "ORIGINAL",
        "PRIMARY",
        "M",
        "MB",
        "ND",
        "NORM",
        "MOSAIC"
],
      "ImagedNucleus": "1H",
      "ImagingFrequency": 123.259093,
      "InPlanePhaseEncodingDirection": "COL",
      "MRAcquisitionType": "2D",
      "MagneticFieldStrength": 3.0,
      "Manufacturer": "SIEMENS",
      "ManufacturerModelName": "Prisma",
      "Modality": "MR",
      "NumberOfAverages": 1.0,
      "NumberOfPhaseEncodingSteps": 82,
      "PercentPhaseFieldOfView": 100.0,
      "PercentSampling": 100.0,
      "PerformedProcedureStepStartTime": "164723.038000",
      "PhotometricInterpretation": "MONOCHROME2",
      "PixelBandwidth": 3050.0,
      "PixelRepresentation": 0,
      "PixelSpacing": [2.6829268932343, 2.6829268932343],
      "ProtocolName": "func_run-04_task-alignvideo_acq-ap-mb8",
      "RepetitionTime": 460.0,
      "Rows": 656,
      "SAR": 0.08670548799323,
      "SamplesPerPixel": 1,
      "ScanOptions": "FS",
      "ScanningSequence": "EP",
      "SequenceName": "epfid2d1_82",
      "SequenceVariant": [
        "SK",
        "SS"
],
      "SeriesDescription": "func_run-04_task-alignvideo_acq-ap-mb8",
      "SeriesNumber": 34,
      "SeriesTime": "184010.090000",
      "SliceLocation": -83.722337466723,
      "SliceThickness": 2.7000000476837,
      "SmallestImagePixelValue": 0,
      "SoftwareVersions": "syngo MR E11",
      "SpacingBetweenSlices": 2.6999999888827,
      "SpecificCharacterSet": "ISO_IR 100",
      "StudyID": "2",
      "StudyTime": "164722.980000",
      "TransmitCoilName": "Body",
      "VariableFlipAngleFlag": "N",
      "WindowCenterWidthExplanation": "Algo1"
    },
    "slices": {}
  },
  "time": {
    "samples": {
      "AcquisitionNumber": [1, 2, 3, 4, 5, 6, 7, 8, 9, 10, 11, 12, 13, 14, 15, 16, 17, 18, 19, 20, 21, 22, 23, 24, 25, 26, 27, 28, 29, 30, 31, 32, 33, 34, 35, 36, 37, 38, 39, 40, 41, 42, 43, 44, 45, 46, 47, 48, 49, 50, 51, 52, 53, 54, 55, 56, 57, 58, 59, 60, 61, 62, 63, 64, 65, 66, 67, 68, 69, 70, 71, 72, 73, 74, 75, 76, 77, 78, 79, 80, 81, 82, 83, 84, 85, 86, 87, 88, 89, 90, 91, 92, 93, 94, 95, 96, 97, 98, 99, 100, 101, 102, 103, 104, 105, 106, 107, 108, 109, 110, 111, 112, 113, 114, 115, 116, 117, 118, 119, 120, 121, 122, 123, 124, 125, 126, 127, 128, 129, 130, 131, 132, 133, 134, 135, 136, 137, 138, 139, 140, 141, 142, 143, 144, 145, 146, 147, 148, 149, 150, 151, 152, 153, 154, 155, 156, 157, 158, 159, 160, 161, 162, 163, 164, 165, 166, 167, 168, 169, 170, 171, 172, 173, 174, 175, 176, 177, 178, 179, 180, 181, 182, 183, 184, 185, 186, 187, 188, 189, 190, 191, 192, 193, 194, 195, 196, 197, 198, 199, 200, 201, 202, 203, 204, 205, 206, 207, 208, 209, 210, 211, 212, 213, 214, 215, 216, 217, 218, 219, 220, 221, 222, 223, 224, 225, 226, 227, 228, 229, 230, 231, 232, 233, 234, 235, 236, 237, 238, 239, 240, 241, 242, 243, 244, 245, 246, 247, 248, 249, 250, 251, 252, 253, 254, 255, 256, 257, 258, 259, 260, 261, 262, 263, 264, 265, 266, 267, 268, 269, 270, 271, 272, 273, 274, 275, 276, 277, 278, 279, 280, 281, 282, 283, 284, 285, 286, 287, 288, 289, 290, 291, 292, 293, 294, 295, 296, 297, 298, 299, 300, 301, 302, 303, 304, 305, 306, 307, 308, 309, 310, 311, 312, 313, 314, 315, 316, 317, 318, 319, 320, 321, 322, 323, 324, 325, 326, 327, 328, 329, 330, 331, 332, 333, 334, 335, 336, 337, 338, 339, 340, 341, 342, 343, 344, 345, 346, 347, 348, 349, 350, 351, 352, 353, 354, 355, 356, 357, 358, 359, 360, 361, 362, 363, 364, 365, 366, 367, 368, 369, 370, 371, 372, 373, 374, 375, 376, 377, 378, 379, 380, 381, 382, 383, 384, 385, 386, 387, 388, 389, 390, 391, 392, 393, 394, 395, 396, 397, 398, 399, 400, 401, 402, 403, 404, 405, 406, 407, 408, 409, 410, 411, 412, 413, 414, 415, 416, 417, 418, 419, 420, 421, 422, 423, 424, 425, 426, 427, 428, 429, 430, 431, 432, 433, 434, 435, 436, 437, 438, 439, 440, 441, 442, 443, 444, 445, 446, 447, 448, 449, 450, 451, 452, 453, 454, 455, 456, 457, 458, 459, 460, 461, 462, 463, 464, 465, 466, 467, 468, 469, 470, 471, 472, 473, 474, 475, 476, 477, 478, 479, 480, 481, 482, 483, 484, 485, 486, 487, 488, 489, 490, 491, 492, 493, 494, 495, 496, 497, 498, 499, 500, 501, 502, 503, 504, 505, 506, 507, 508, 509, 510, 511, 512, 513, 514, 515, 516, 517, 518, 519, 520, 521, 522, 523, 524, 525, 526, 527, 528, 529, 530, 531, 532, 533, 534, 535, 536, 537, 538, 539, 540, 541, 542, 543, 544, 545, 546, 547, 548, 549, 550, 551, 552, 553, 554, 555, 556, 557, 558, 559, 560, 561, 562, 563, 564, 565, 566, 567, 568, 569, 570, 571, 572, 573, 574, 575, 576, 577, 578, 579, 580, 581, 582, 583, 584, 585, 586, 587, 588, 589, 590, 591, 592, 593, 594, 595, 596, 597, 598, 599, 600, 601, 602, 603, 604, 605, 606, 607, 608, 609, 610, 611, 612, 613, 614, 615, 616, 617, 618, 619, 620, 621, 622, 623, 624, 625, 626, 627, 628, 629, 630, 631, 632, 633, 634, 635, 636, 637, 638, 639, 640, 641, 642, 643, 644, 645, 646, 647, 648, 649, 650, 651, 652, 653, 654, 655, 656, 657, 658, 659, 660, 661, 662, 663, 664, 665, 666, 667, 668, 669, 670, 671, 672, 673, 674, 675, 676, 677, 678, 679, 680, 681, 682, 683, 684, 685, 686, 687, 688, 689, 690, 691, 692, 693, 694, 695, 696, 697, 698, 699, 700, 701, 702, 703, 704, 705, 706, 707, 708, 709, 710, 711, 712, 713, 714, 715, 716, 717, 718, 719, 720, 721, 722, 723, 724, 725, 726, 727, 728, 729, 730, 731, 732, 733, 734, 735, 736, 737, 738, 739, 740, 741, 742, 743, 744, 745, 746, 747, 748, 749, 750, 751, 752, 753, 754, 755, 756, 757, 758, 759, 760, 761, 762, 763, 764, 765, 766, 767, 768, 769, 770, 771, 772, 773, 774, 775, 776, 777, 778, 779, 780, 781, 782, 783, 784, 785, 786, 787, 788, 789, 790, 791, 792, 793, 794, 795, 796, 797, 798, 799, 800, 801, 802, 803, 804, 805, 806, 807, 808, 809, 810, 811, 812, 813, 814, 815, 816, 817, 818, 819, 820, 821, 822, 823, 824, 825, 826, 827, 828, 829, 830, 831, 832, 833, 834, 835, 836, 837, 838, 839, 840, 841, 842, 843, 844, 845, 846, 847, 848, 849, 850, 851, 852, 853, 854, 855, 856, 857, 858, 859, 860, 861, 862, 863, 864, 865, 866, 867, 868, 869, 870, 871, 872, 873, 874, 875, 876, 877, 878, 879, 880, 881, 882, 883, 884, 885, 886, 887, 888, 889, 890, 891, 892, 893, 894, 895, 896, 897, 898, 899, 900, 901, 902, 903, 904, 905, 906, 907, 908, 909, 910, 911, 912, 913, 914],
      "AcquisitionTime": ["183943.742500", "183944.202500", "183944.662500", "183945.122500", "183945.582500", "183946.042500", "183946.502500", "183946.962500", "183947.422500", "183947.882500", "183948.342500", "183948.802500", "183949.262500", "183949.722500", "183950.182500", "183950.642500", "183951.102500", "183951.562500", "183952.022500", "183952.482500", "183952.942500", "183953.402500", "183953.862500", "183954.322500", "183954.782500", "183955.242500", "183955.702500", "183956.162500", "183956.622500", "183957.082500", "183957.542500", "183958.002500", "183958.462500", "183958.922500", "183959.382500", "183959.842500", "184000.302500", "184000.762500", "184001.222500", "184001.682500", "184002.142500", "184002.602500", "184003.062500", "184003.522500", "184003.982500", "184004.442500", "184004.902500", "184005.362500", "184005.822500", "184006.282500", "184006.742500", "184007.202500", "184007.662500", "184008.122500", "184008.582500", "184009.042500", "184009.502500", "184009.962500", "184010.422500", "184010.882500", "184011.342500", "184011.802500", "184012.262500", "184012.722500", "184013.182500", "184013.642500", "184014.102500", "184014.562500", "184015.022500", "184015.482500", "184015.942500", "184016.402500", "184016.862500", "184017.322500", "184017.782500", "184018.242500", "184018.702500", "184019.162500", "184019.622500", "184020.082500", "184020.542500", "184021.002500", "184021.462500", "184021.922500", "184022.382500", "184022.842500", "184023.302500", "184023.762500", "184024.222500", "184024.682500", "184025.142500", "184025.602500", "184026.062500", "184026.522500", "184026.982500", "184027.442500", "184027.902500", "184028.362500", "184028.822500", "184029.282500", "184029.742500", "184030.202500", "184030.662500", "184031.122500", "184031.582500", "184032.042500", "184032.502500", "184032.962500", "184033.422500", "184033.882500", "184034.342500", "184034.802500", "184035.262500", "184035.722500", "184036.182500", "184036.642500", "184037.102500", "184037.562500", "184038.022500", "184038.482500", "184038.942500", "184039.402500", "184039.862500", "184040.322500", "184040.782500", "184041.242500", "184041.702500", "184042.162500", "184042.622500", "184043.082500", "184043.542500", "184044.002500", "184044.462500", "184044.922500", "184045.382500", "184045.842500", "184046.302500", "184046.762500", "184047.222500", "184047.682500", "184048.142500", "184048.602500", "184049.062500", "184049.522500", "184049.982500", "184050.442500", "184050.902500", "184051.362500", "184051.822500", "184052.282500", "184052.742500", "184053.202500", "184053.662500", "184054.122500", "184054.582500", "184055.042500", "184055.502500", "184055.962500", "184056.422500", "184056.882500", "184057.342500", "184057.802500", "184058.262500", "184058.722500", "184059.182500", "184059.642500", "184100.102500", "184100.562500", "184101.022500", "184101.482500", "184101.942500", "184102.402500", "184102.862500", "184103.322500", "184103.782500", "184104.242500", "184104.702500", "184105.162500", "184105.622500", "184106.082500", "184106.542500", "184107.002500", "184107.462500", "184107.922500", "184108.382500", "184108.842500", "184109.302500", "184109.762500", "184110.222500", "184110.682500", "184111.142500", "184111.602500", "184112.062500", "184112.522500", "184112.982500", "184113.442500", "184113.902500", "184114.362500", "184114.822500", "184115.282500", "184115.742500", "184116.202500", "184116.662500", "184117.122500", "184117.582500", "184118.042500", "184118.502500", "184118.962500", "184119.422500", "184119.882500", "184120.342500", "184120.802500", "184121.262500", "184121.722500", "184122.182500", "184122.642500", "184123.102500", "184123.562500", "184124.022500", "184124.482500", "184124.942500", "184125.402500", "184125.862500", "184126.322500", "184126.782500", "184127.242500", "184127.702500", "184128.162500", "184128.622500", "184129.082500", "184129.542500", "184130.002500", "184130.462500", "184130.922500", "184131.382500", "184131.842500", "184132.302500", "184132.762500", "184133.222500", "184133.682500", "184134.142500", "184134.602500", "184135.062500", "184135.522500", "184135.982500", "184136.442500", "184136.902500", "184137.362500", "184137.822500", "184138.282500", "184138.742500", "184139.202500", "184139.662500", "184140.122500", "184140.582500", "184141.042500", "184141.502500", "184141.962500", "184142.422500", "184142.882500", "184143.342500", "184143.802500", "184144.262500", "184144.722500", "184145.182500", "184145.642500", "184146.102500", "184146.562500", "184147.022500", "184147.482500", "184147.942500", "184148.402500", "184148.862500", "184149.322500", "184149.782500", "184150.242500", "184150.702500", "184151.162500", "184151.622500", "184152.082500", "184152.542500", "184153.002500", "184153.462500", "184153.922500", "184154.382500", "184154.842500", "184155.302500", "184155.762500", "184156.222500", "184156.682500", "184157.142500", "184157.602500", "184158.062500", "184158.522500", "184158.982500", "184159.442500", "184159.902500", "184200.362500", "184200.822500", "184201.282500", "184201.742500", "184202.202500", "184202.662500", "184203.122500", "184203.582500", "184204.042500", "184204.502500", "184204.962500", "184205.422500", "184205.882500", "184206.342500", "184206.802500", "184207.262500", "184207.722500", "184208.182500", "184208.642500", "184209.102500", "184209.562500", "184210.022500", "184210.482500", "184210.942500", "184211.402500", "184211.862500", "184212.322500", "184212.782500", "184213.242500", "184213.702500", "184214.162500", "184214.622500", "184215.082500", "184215.542500", "184216.002500", "184216.462500", "184216.922500", "184217.382500", "184217.842500", "184218.302500", "184218.762500", "184219.222500", "184219.682500", "184220.142500", "184220.602500", "184221.062500", "184221.522500", "184221.982500", "184222.442500", "184222.902500", "184223.362500", "184223.822500", "184224.282500", "184224.742500", "184225.202500", "184225.662500", "184226.122500", "184226.582500", "184227.042500", "184227.502500", "184227.962500", "184228.422500", "184228.882500", "184229.342500", "184229.802500", "184230.262500", "184230.722500", "184231.182500", "184231.642500", "184232.102500", "184232.562500", "184233.022500", "184233.482500", "184233.942500", "184234.402500", "184234.862500", "184235.322500", "184235.782500", "184236.242500", "184236.702500", "184237.162500", "184237.622500", "184238.082500", "184238.542500", "184239.002500", "184239.462500", "184239.922500", "184240.382500", "184240.842500", "184241.302500", "184241.762500", "184242.222500", "184242.682500", "184243.142500", "184243.602500", "184244.062500", "184244.522500", "184244.982500", "184245.442500", "184245.902500", "184246.362500", "184246.822500", "184247.282500", "184247.742500", "184248.202500", "184248.662500", "184249.122500", "184249.582500", "184250.042500", "184250.502500", "184250.962500", "184251.422500", "184251.882500", "184252.342500", "184252.802500", "184253.262500", "184253.722500", "184254.182500", "184254.642500", "184255.102500", "184255.562500", "184256.022500", "184256.482500", "184256.942500", "184257.402500", "184257.862500", "184258.322500", "184258.782500", "184259.242500", "184259.702500", "184300.162500", "184300.622500", "184301.082500", "184301.542500", "184302.002500", "184302.462500", "184302.922500", "184303.382500", "184303.842500", "184304.302500", "184304.762500", "184305.222500", "184305.682500", "184306.142500", "184306.602500", "184307.062500", "184307.522500", "184307.982500", "184308.442500", "184308.902500", "184309.362500", "184309.822500", "184310.282500", "184310.742500", "184311.202500", "184311.662500", "184312.122500", "184312.582500", "184313.042500", "184313.502500", "184313.962500", "184314.422500", "184314.882500", "184315.342500", "184315.802500", "184316.262500", "184316.722500", "184317.182500", "184317.642500", "184318.102500", "184318.562500", "184319.022500", "184319.482500", "184319.942500", "184320.402500", "184320.862500", "184321.322500", "184321.782500", "184322.242500", "184322.702500", "184323.162500", "184323.622500", "184324.082500", "184324.542500", "184325.002500", "184325.462500", "184325.922500", "184326.382500", "184326.842500", "184327.302500", "184327.762500", "184328.222500", "184328.682500", "184329.142500", "184329.602500", "184330.062500", "184330.522500", "184330.982500", "184331.442500", "184331.902500", "184332.362500", "184332.822500", "184333.282500", "184333.742500", "184334.202500", "184334.662500", "184335.122500", "184335.582500", "184336.042500", "184336.502500", "184336.962500", "184337.422500", "184337.882500", "184338.342500", "184338.802500", "184339.262500", "184339.722500", "184340.182500", "184340.642500", "184341.102500", "184341.562500", "184342.022500", "184342.482500", "184342.942500", "184343.402500", "184343.862500", "184344.322500", "184344.782500", "184345.242500", "184345.702500", "184346.162500", "184346.622500", "184347.082500", "184347.542500", "184348.002500", "184348.462500", "184348.922500", "184349.382500", "184349.842500", "184350.302500", "184350.762500", "184351.222500", "184351.682500", "184352.142500", "184352.602500", "184353.062500", "184353.522500", "184353.982500", "184354.442500", "184354.902500", "184355.362500", "184355.822500", "184356.282500", "184356.742500", "184357.202500", "184357.662500", "184358.122500", "184358.582500", "184359.042500", "184359.502500", "184359.962500", "184400.422500", "184400.882500", "184401.342500", "184401.802500", "184402.262500", "184402.722500", "184403.182500", "184403.642500", "184404.102500", "184404.562500", "184405.022500", "184405.482500", "184405.942500", "184406.402500", "184406.862500", "184407.322500", "184407.782500", "184408.242500", "184408.702500", "184409.162500", "184409.622500", "184410.082500", "184410.542500", "184411.002500", "184411.462500", "184411.922500", "184412.382500", "184412.842500", "184413.302500", "184413.762500", "184414.222500", "184414.682500", "184415.142500", "184415.602500", "184416.062500", "184416.522500", "184416.982500", "184417.442500", "184417.902500", "184418.362500", "184418.822500", "184419.282500", "184419.742500", "184420.202500", "184420.662500", "184421.122500", "184421.582500", "184422.042500", "184422.502500", "184422.962500", "184423.422500", "184423.882500", "184424.342500", "184424.802500", "184425.262500", "184425.722500", "184426.182500", "184426.642500", "184427.102500", "184427.562500", "184428.022500", "184428.482500", "184428.942500", "184429.402500", "184429.862500", "184430.322500", "184430.782500", "184431.242500", "184431.702500", "184432.162500", "184432.622500", "184433.082500", "184433.542500", "184434.002500", "184434.462500", "184434.922500", "184435.382500", "184435.842500", "184436.302500", "184436.762500", "184437.222500", "184437.682500", "184438.142500", "184438.602500", "184439.062500", "184439.522500", "184439.982500", "184440.442500", "184440.902500", "184441.362500", "184441.822500", "184442.282500", "184442.742500", "184443.202500", "184443.662500", "184444.122500", "184444.582500", "184445.042500", "184445.502500", "184445.962500", "184446.422500", "184446.882500", "184447.342500", "184447.802500", "184448.262500", "184448.722500", "184449.182500", "184449.642500", "184450.102500", "184450.562500", "184451.022500", "184451.482500", "184451.942500", "184452.402500", "184452.862500", "184453.322500", "184453.782500", "184454.242500", "184454.702500", "184455.162500", "184455.622500", "184456.082500", "184456.542500", "184457.002500", "184457.462500", "184457.922500", "184458.382500", "184458.842500", "184459.302500", "184459.762500", "184500.222500", "184500.682500", "184501.142500", "184501.602500", "184502.062500", "184502.522500", "184502.982500", "184503.442500", "184503.902500", "184504.362500", "184504.822500", "184505.282500", "184505.742500", "184506.202500", "184506.662500", "184507.122500", "184507.582500", "184508.042500", "184508.502500", "184508.962500", "184509.422500", "184509.882500", "184510.342500", "184510.802500", "184511.262500", "184511.722500", "184512.182500", "184512.642500", "184513.102500", "184513.562500", "184514.022500", "184514.482500", "184514.942500", "184515.402500", "184515.862500", "184516.322500", "184516.782500", "184517.242500", "184517.702500", "184518.162500", "184518.622500", "184519.082500", "184519.542500", "184520.002500", "184520.462500", "184520.922500", "184521.382500", "184521.842500", "184522.302500", "184522.762500", "184523.222500", "184523.682500", "184524.142500", "184524.602500", "184525.062500", "184525.522500", "184525.982500", "184526.442500", "184526.902500", "184527.362500", "184527.822500", "184528.282500", "184528.742500", "184529.202500", "184529.662500", "184530.122500", "184530.582500", "184531.042500", "184531.502500", "184531.962500", "184532.422500", "184532.882500", "184533.342500", "184533.802500", "184534.262500", "184534.722500", "184535.182500", "184535.642500", "184536.102500", "184536.562500", "184537.022500", "184537.482500", "184537.942500", "184538.402500", "184538.862500", "184539.322500", "184539.782500", "184540.242500", "184540.702500", "184541.162500", "184541.622500", "184542.082500", "184542.542500", "184543.002500", "184543.462500", "184543.922500", "184544.382500", "184544.842500", "184545.302500", "184545.762500", "184546.222500", "184546.682500", "184547.142500", "184547.602500", "184548.062500", "184548.522500", "184548.982500", "184549.442500", "184549.902500", "184550.362500", "184550.822500", "184551.282500", "184551.742500", "184552.202500", "184552.662500", "184553.122500", "184553.582500", "184554.042500", "184554.502500", "184554.962500", "184555.422500", "184555.882500", "184556.342500", "184556.802500", "184557.262500", "184557.722500", "184558.182500", "184558.642500", "184559.102500", "184559.562500", "184600.022500", "184600.482500", "184600.942500", "184601.402500", "184601.862500", "184602.322500", "184602.782500", "184603.242500", "184603.702500", "184604.162500", "184604.622500", "184605.082500", "184605.542500", "184606.002500", "184606.462500", "184606.922500", "184607.382500", "184607.842500", "184608.302500", "184608.762500", "184609.222500", "184609.682500", "184610.142500", "184610.602500", "184611.062500", "184611.522500", "184611.982500", "184612.442500", "184612.902500", "184613.362500", "184613.822500", "184614.282500", "184614.742500", "184615.202500", "184615.662500", "184616.122500", "184616.582500", "184617.042500", "184617.502500", "184617.962500", "184618.422500", "184618.882500", "184619.342500", "184619.802500", "184620.262500", "184620.722500", "184621.182500", "184621.642500", "184622.102500", "184622.562500", "184623.022500", "184623.482500", "184623.942500", "184624.402500", "184624.862500", "184625.322500", "184625.782500", "184626.242500", "184626.702500", "184627.162500", "184627.622500", "184628.082500", "184628.542500", "184629.002500", "184629.462500", "184629.922500", "184630.382500", "184630.842500", "184631.302500", "184631.762500", "184632.222500", "184632.682500", "184633.142500", "184633.602500", "184634.062500", "184634.522500", "184634.982500", "184635.442500", "184635.902500", "184636.362500", "184636.822500", "184637.282500", "184637.742500", "184638.202500", "184638.662500", "184639.122500", "184639.582500", "184640.042500", "184640.502500", "184640.962500", "184641.422500", "184641.882500", "184642.342500", "184642.802500", "184643.262500", "184643.722500"],
