{
  "AcquisitionMatrixPE": 82,
  "AcquisitionNumber": 1,
  "AcquisitionTime": "17:07:26.807500",
  "BandwidthPerPixelPhaseEncode": 24.888,
  "BaseResolution": 82,
  "BodyPartExamined": "BRAIN",
  "ConsistencyInfo": "N4_VE11E_LATEST_20181129",
  "ConversionSoftware": "dcm2niix",
  "ConversionSoftwareVersion": "v1.0.20201102",
  "DerivedVendorReportedEchoSpacing": 0.00049,
  "DeviceSerialNumber": "66112",
  "DwellTime": 2e-06,
  "EchoTime": 0.0272,
  "EchoTrainLength": 82,
  "EffectiveEchoSpacing": 0.00049,
  "FlipAngle": 44,
  "ImageComments": "Unaliased MB8/PE3",
  "ImageOrientationPatientDICOM": [0.99643, 0.0788355, -0.0301871, -0.0801709, 0.995722, -0.0459281],
  "ImageType": [
    "ORIGINAL",
    "PRIMARY",
    "M",
    "MB",
    "ND",
    "NORM",
    "MOSAIC"
],
  "ImagingFrequency": 123.259,
  "InPlanePhaseEncodingDirectionDICOM": "COL",
  "InstitutionAddress": "Maynard 3,Hanover,NH,US,03755",
  "InstitutionName": "Dartmouth College - PBS",
  "InstitutionalDepartmentName": "Department",
  "MRAcquisitionType": "2D",
  "MagneticFieldStrength": 3,
  "Manufacturer": "Siemens",
  "ManufacturersModelName": "Prisma",
  "Modality": "MR",
  "MultibandAccelerationFactor": 8,
  "PartialFourier": 1,
  "PatientPosition": "HFS",
  "PercentPhaseFOV": 100,
  "PercentSampling": 100,
  "PhaseEncodingDirection": "j-",
  "PhaseEncodingSteps": 82,
  "PhaseResolution": 1,
  "PixelBandwidth": 3050,
  "ProcedureStepDescription": "Wager_Wager^1076_spacetop",
  "ProtocolName": "func_run-02_task-narratives_acq-ap-mb8",
  "PulseSequenceDetails": "%CustomerSeq%\\cmrr_mbep2d_bold",
  "ReceiveCoilActiveElements": "HEA;HEP",
  "ReceiveCoilName": "Head_32",
  "ReconMatrixPE": 82,
  "RepetitionTime": 0.46,
  "SAR": 0.0867919,
  "ScanOptions": "FS",
  "ScanningSequence": "EP",
  "SequenceName": "epfid2d1_82",
  "SequenceVariant": "SK\\SS",
  "SeriesDescription": "func_run-02_task-narratives_acq-ap-mb8",
  "SeriesNumber": 10,
  "ShimSetting": [4202, -7760, -7235, 333, -198, 111, -16, 175],
  "SliceThickness": 2.7,
  "SliceTiming": [0, 0.2525, 0.0625, 0.315, 0.1275, 0.3775, 0.19, 0, 0.2525, 0.0625, 0.315, 0.1275, 0.3775, 0.19, 0, 0.2525, 0.0625, 0.315, 0.1275, 0.3775, 0.19, 0, 0.2525, 0.0625, 0.315, 0.1275, 0.3775, 0.19, 0, 0.2525, 0.0625, 0.315, 0.1275, 0.3775, 0.19, 0, 0.2525, 0.0625, 0.315, 0.1275, 0.3775, 0.19, 0, 0.2525, 0.0625, 0.315, 0.1275, 0.3775, 0.19, 0, 0.2525, 0.0625, 0.315, 0.1275, 0.3775, 0.19],
  "SoftwareVersions": "syngo MR E11",
  "SpacingBetweenSlices": 2.7,
  "StationName": "AWP66112",
  "TaskName": "narratives",
  "TotalReadoutTime": 0.03969,
  "TxRefAmp": 244.763,
  "WipMemBlock": "ce2be20d-45f2-47c5-b9c3-a84f44e3a6bc||Sequence: R016 ve11e/master r/434b28f1; Aug  7 2019 18:53:46 by eja",
  "dcmmeta_affine": [
    [-2.6733500957489014, -0.21509259939193726, -0.07138051092624664, 124.0252456665039],
    [-0.2115098536014557, 2.671450614929199, -0.1300976574420929, -91.5510025024414],
    [-0.08098983764648438, 0.12322180718183517, 2.6959190368652344, -80.79126739501953],
    [0.0, 0.0, 0.0, 1.0]
],
  "dcmmeta_reorient_transform": [
    [0.0, -1.0, 0.0, 81.0],
    [1.0, 0.0, 0.0, 0.0],
    [0.0, 0.0, 1.0, 0.0],
    [0.0, 0.0, 0.0, 1.0]
],
  "dcmmeta_shape": [82, 82, 56, 1098],
  "dcmmeta_slice_dim": 2,
  "dcmmeta_version": 0.6,
  "global": {
    "const": {
      "AccessionNumber": "A004856",
      "AcquisitionMatrix": [82, 0, 0, 82],
      "AngioFlag": "N",
      "BitsAllocated": 16,
      "BitsStored": 16,
      "BodyPartExamined": "BRAIN",
      "Columns": 656,
      "EchoNumbers": 1,
      "EchoTime": 27.2,
      "EchoTrainLength": 82,
      "FlipAngle": 44.0,
      "HighBit": 15,
      "ImageOrientationPatient": [0.99643048122424, 0.07883548641922, -0.0301871192443, -0.080170874602, 0.99572247033871, -0.0459281278534],
      "ImagePositionPatient": [-812.12266010129, -952.24614011558, -12.201556726096],
      "ImageType": [
        "ORIGINAL",
        "PRIMARY",
        "M",
        "MB",
        "ND",
        "NORM",
        "MOSAIC"
],
      "ImagedNucleus": "1H",
      "ImagingFrequency": 123.259041,
      "InPlanePhaseEncodingDirection": "COL",
      "MRAcquisitionType": "2D",
      "MagneticFieldStrength": 3.0,
      "Manufacturer": "SIEMENS",
      "ManufacturerModelName": "Prisma",
      "Modality": "MR",
      "NumberOfAverages": 1.0,
      "NumberOfPhaseEncodingSteps": 82,
      "PercentPhaseFieldOfView": 100.0,
      "PercentSampling": 100.0,
      "PerformedProcedureStepStartTime": "164723.038000",
      "PhotometricInterpretation": "MONOCHROME2",
      "PixelBandwidth": 3050.0,
      "PixelRepresentation": 0,
      "PixelSpacing": [2.6829268932343, 2.6829268932343],
      "ProtocolName": "func_run-02_task-narratives_acq-ap-mb8",
      "RepetitionTime": 460.0,
      "Rows": 656,
      "SAR": 0.08679185269988,
      "SamplesPerPixel": 1,
      "ScanOptions": "FS",
      "ScanningSequence": "EP",
      "SequenceName": "epfid2d1_82",
      "SequenceVariant": [
        "SK",
        "SS"
],
      "SeriesDescription": "func_run-02_task-narratives_acq-ap-mb8",
      "SeriesNumber": 10,
      "SeriesTime": "170750.128000",
      "SliceLocation": -79.53671256837,
      "SliceThickness": 2.7000000476837,
      "SmallestImagePixelValue": 0,
      "SoftwareVersions": "syngo MR E11",
      "SpacingBetweenSlices": 2.7000000746987,
      "SpecificCharacterSet": "ISO_IR 100",
      "StudyID": "2",
      "StudyTime": "164722.980000",
      "TransmitCoilName": "Body",
      "VariableFlipAngleFlag": "N",
      "WindowCenterWidthExplanation": "Algo1"
    },
    "slices": {}
  },
  "time": {
    "samples": {
      "AcquisitionNumber": [1, 2, 3, 4, 5, 6, 7, 8, 9, 10, 11, 12, 13, 14, 15, 16, 17, 18, 19, 20, 21, 22, 23, 24, 25, 26, 27, 28, 29, 30, 31, 32, 33, 34, 35, 36, 37, 38, 39, 40, 41, 42, 43, 44, 45, 46, 47, 48, 49, 50, 51, 52, 53, 54, 55, 56, 57, 58, 59, 60, 61, 62, 63, 64, 65, 66, 67, 68, 69, 70, 71, 72, 73, 74, 75, 76, 77, 78, 79, 80, 81, 82, 83, 84, 85, 86, 87, 88, 89, 90, 91, 92, 93, 94, 95, 96, 97, 98, 99, 100, 101, 102, 103, 104, 105, 106, 107, 108, 109, 110, 111, 112, 113, 114, 115, 116, 117, 118, 119, 120, 121, 122, 123, 124, 125, 126, 127, 128, 129, 130, 131, 132, 133, 134, 135, 136, 137, 138, 139, 140, 141, 142, 143, 144, 145, 146, 147, 148, 149, 150, 151, 152, 153, 154, 155, 156, 157, 158, 159, 160, 161, 162, 163, 164, 165, 166, 167, 168, 169, 170, 171, 172, 173, 174, 175, 176, 177, 178, 179, 180, 181, 182, 183, 184, 185, 186, 187, 188, 189, 190, 191, 192, 193, 194, 195, 196, 197, 198, 199, 200, 201, 202, 203, 204, 205, 206, 207, 208, 209, 210, 211, 212, 213, 214, 215, 216, 217, 218, 219, 220, 221, 222, 223, 224, 225, 226, 227, 228, 229, 230, 231, 232, 233, 234, 235, 236, 237, 238, 239, 240, 241, 242, 243, 244, 245, 246, 247, 248, 249, 250, 251, 252, 253, 254, 255, 256, 257, 258, 259, 260, 261, 262, 263, 264, 265, 266, 267, 268, 269, 270, 271, 272, 273, 274, 275, 276, 277, 278, 279, 280, 281, 282, 283, 284, 285, 286, 287, 288, 289, 290, 291, 292, 293, 294, 295, 296, 297, 298, 299, 300, 301, 302, 303, 304, 305, 306, 307, 308, 309, 310, 311, 312, 313, 314, 315, 316, 317, 318, 319, 320, 321, 322, 323, 324, 325, 326, 327, 328, 329, 330, 331, 332, 333, 334, 335, 336, 337, 338, 339, 340, 341, 342, 343, 344, 345, 346, 347, 348, 349, 350, 351, 352, 353, 354, 355, 356, 357, 358, 359, 360, 361, 362, 363, 364, 365, 366, 367, 368, 369, 370, 371, 372, 373, 374, 375, 376, 377, 378, 379, 380, 381, 382, 383, 384, 385, 386, 387, 388, 389, 390, 391, 392, 393, 394, 395, 396, 397, 398, 399, 400, 401, 402, 403, 404, 405, 406, 407, 408, 409, 410, 411, 412, 413, 414, 415, 416, 417, 418, 419, 420, 421, 422, 423, 424, 425, 426, 427, 428, 429, 430, 431, 432, 433, 434, 435, 436, 437, 438, 439, 440, 441, 442, 443, 444, 445, 446, 447, 448, 449, 450, 451, 452, 453, 454, 455, 456, 457, 458, 459, 460, 461, 462, 463, 464, 465, 466, 467, 468, 469, 470, 471, 472, 473, 474, 475, 476, 477, 478, 479, 480, 481, 482, 483, 484, 485, 486, 487, 488, 489, 490, 491, 492, 493, 494, 495, 496, 497, 498, 499, 500, 501, 502, 503, 504, 505, 506, 507, 508, 509, 510, 511, 512, 513, 514, 515, 516, 517, 518, 519, 520, 521, 522, 523, 524, 525, 526, 527, 528, 529, 530, 531, 532, 533, 534, 535, 536, 537, 538, 539, 540, 541, 542, 543, 544, 545, 546, 547, 548, 549, 550, 551, 552, 553, 554, 555, 556, 557, 558, 559, 560, 561, 562, 563, 564, 565, 566, 567, 568, 569, 570, 571, 572, 573, 574, 575, 576, 577, 578, 579, 580, 581, 582, 583, 584, 585, 586, 587, 588, 589, 590, 591, 592, 593, 594, 595, 596, 597, 598, 599, 600, 601, 602, 603, 604, 605, 606, 607, 608, 609, 610, 611, 612, 613, 614, 615, 616, 617, 618, 619, 620, 621, 622, 623, 624, 625, 626, 627, 628, 629, 630, 631, 632, 633, 634, 635, 636, 637, 638, 639, 640, 641, 642, 643, 644, 645, 646, 647, 648, 649, 650, 651, 652, 653, 654, 655, 656, 657, 658, 659, 660, 661, 662, 663, 664, 665, 666, 667, 668, 669, 670, 671, 672, 673, 674, 675, 676, 677, 678, 679, 680, 681, 682, 683, 684, 685, 686, 687, 688, 689, 690, 691, 692, 693, 694, 695, 696, 697, 698, 699, 700, 701, 702, 703, 704, 705, 706, 707, 708, 709, 710, 711, 712, 713, 714, 715, 716, 717, 718, 719, 720, 721, 722, 723, 724, 725, 726, 727, 728, 729, 730, 731, 732, 733, 734, 735, 736, 737, 738, 739, 740, 741, 742, 743, 744, 745, 746, 747, 748, 749, 750, 751, 752, 753, 754, 755, 756, 757, 758, 759, 760, 761, 762, 763, 764, 765, 766, 767, 768, 769, 770, 771, 772, 773, 774, 775, 776, 777, 778, 779, 780, 781, 782, 783, 784, 785, 786, 787, 788, 789, 790, 791, 792, 793, 794, 795, 796, 797, 798, 799, 800, 801, 802, 803, 804, 805, 806, 807, 808, 809, 810, 811, 812, 813, 814, 815, 816, 817, 818, 819, 820, 821, 822, 823, 824, 825, 826, 827, 828, 829, 830, 831, 832, 833, 834, 835, 836, 837, 838, 839, 840, 841, 842, 843, 844, 845, 846, 847, 848, 849, 850, 851, 852, 853, 854, 855, 856, 857, 858, 859, 860, 861, 862, 863, 864, 865, 866, 867, 868, 869, 870, 871, 872, 873, 874, 875, 876, 877, 878, 879, 880, 881, 882, 883, 884, 885, 886, 887, 888, 889, 890, 891, 892, 893, 894, 895, 896, 897, 898, 899, 900, 901, 902, 903, 904, 905, 906, 907, 908, 909, 910, 911, 912, 913, 914, 915, 916, 917, 918, 919, 920, 921, 922, 923, 924, 925, 926, 927, 928, 929, 930, 931, 932, 933, 934, 935, 936, 937, 938, 939, 940, 941, 942, 943, 944, 945, 946, 947, 948, 949, 950, 951, 952, 953, 954, 955, 956, 957, 958, 959, 960, 961, 962, 963, 964, 965, 966, 967, 968, 969, 970, 971, 972, 973, 974, 975, 976, 977, 978, 979, 980, 981, 982, 983, 984, 985, 986, 987, 988, 989, 990, 991, 992, 993, 994, 995, 996, 997, 998, 999, 1000, 1001, 1002, 1003, 1004, 1005, 1006, 1007, 1008, 1009, 1010, 1011, 1012, 1013, 1014, 1015, 1016, 1017, 1018, 1019, 1020, 1021, 1022, 1023, 1024, 1025, 1026, 1027, 1028, 1029, 1030, 1031, 1032, 1033, 1034, 1035, 1036, 1037, 1038, 1039, 1040, 1041, 1042, 1043, 1044, 1045, 1046, 1047, 1048, 1049, 1050, 1051, 1052, 1053, 1054, 1055, 1056, 1057, 1058, 1059, 1060, 1061, 1062, 1063, 1064, 1065, 1066, 1067, 1068, 1069, 1070, 1071, 1072, 1073, 1074, 1075, 1076, 1077, 1078, 1079, 1080, 1081, 1082, 1083, 1084, 1085, 1086, 1087, 1088, 1089, 1090, 1091, 1092, 1093, 1094, 1095, 1096, 1097, 1098],
      "AcquisitionTime": ["170726.807500", "170727.267500", "170727.727500", "170728.187500", "170728.647500", "170729.107500", "170729.567500", "170730.027500", "170730.487500", "170730.947500", "170731.407500", "170731.867500", "170732.327500", "170732.787500", "170733.247500", "170733.707500", "170734.167500", "170734.627500", "170735.087500", "170735.547500", "170736.007500", "170736.467500", "170736.927500", "170737.387500", "170737.847500", "170738.307500", "170738.767500", "170739.227500", "170739.687500", "170740.147500", "170740.607500", "170741.067500", "170741.527500", "170741.987500", "170742.447500", "170742.907500", "170743.367500", "170743.827500", "170744.287500", "170744.747500", "170745.207500", "170745.667500", "170746.127500", "170746.587500", "170747.047500", "170747.507500", "170747.967500", "170748.427500", "170748.887500", "170749.347500", "170749.807500", "170750.267500", "170750.727500", "170751.187500", "170751.647500", "170752.107500", "170752.567500", "170753.027500", "170753.487500", "170753.947500", "170754.407500", "170754.867500", "170755.327500", "170755.787500", "170756.247500", "170756.707500", "170757.167500", "170757.627500", "170758.087500", "170758.547500", "170759.007500", "170759.467500", "170759.927500", "170800.387500", "170800.847500", "170801.307500", "170801.767500", "170802.227500", "170802.687500", "170803.147500", "170803.607500", "170804.067500", "170804.527500", "170804.987500", "170805.447500", "170805.907500", "170806.367500", "170806.827500", "170807.287500", "170807.747500", "170808.207500", "170808.667500", "170809.127500", "170809.587500", "170810.047500", "170810.507500", "170810.967500", "170811.427500", "170811.887500", "170812.347500", "170812.807500", "170813.267500", "170813.727500", "170814.187500", "170814.647500", "170815.107500", "170815.567500", "170816.027500", "170816.487500", "170816.947500", "170817.407500", "170817.867500", "170818.327500", "170818.787500", "170819.247500", "170819.707500", "170820.167500", "170820.627500", "170821.087500", "170821.547500", "170822.007500", "170822.467500", "170822.927500", "170823.387500", "170823.847500", "170824.307500", "170824.767500", "170825.227500", "170825.687500", "170826.147500", "170826.607500", "170827.067500", "170827.527500", "170827.987500", "170828.447500", "170828.907500", "170829.367500", "170829.827500", "170830.287500", "170830.747500", "170831.207500", "170831.667500", "170832.127500", "170832.587500", "170833.047500", "170833.507500", "170833.967500", "170834.427500", "170834.887500", "170835.347500", "170835.807500", "170836.267500", "170836.727500", "170837.187500", "170837.647500", "170838.107500", "170838.567500", "170839.027500", "170839.487500", "170839.947500", "170840.407500", "170840.867500", "170841.327500", "170841.787500", "170842.247500", "170842.707500", "170843.167500", "170843.627500", "170844.087500", "170844.547500", "170845.007500", "170845.467500", "170845.927500", "170846.387500", "170846.847500", "170847.307500", "170847.767500", "170848.227500", "170848.687500", "170849.147500", "170849.607500", "170850.067500", "170850.527500", "170850.987500", "170851.447500", "170851.907500", "170852.367500", "170852.827500", "170853.287500", "170853.747500", "170854.207500", "170854.667500", "170855.127500", "170855.587500", "170856.047500", "170856.507500", "170856.967500", "170857.427500", "170857.887500", "170858.347500", "170858.807500", "170859.267500", "170859.727500", "170900.187500", "170900.647500", "170901.107500", "170901.567500", "170902.027500", "170902.487500", "170902.947500", "170903.407500", "170903.867500", "170904.327500", "170904.787500", "170905.247500", "170905.707500", "170906.167500", "170906.627500", "170907.087500", "170907.547500", "170908.007500", "170908.467500", "170908.927500", "170909.387500", "170909.847500", "170910.307500", "170910.767500", "170911.227500", "170911.687500", "170912.147500", "170912.607500", "170913.067500", "170913.527500", "170913.987500", "170914.447500", "170914.907500", "170915.367500", "170915.827500", "170916.287500", "170916.747500", "170917.207500", "170917.667500", "170918.127500", "170918.587500", "170919.047500", "170919.507500", "170919.967500", "170920.427500", "170920.887500", "170921.347500", "170921.807500", "170922.267500", "170922.727500", "170923.187500", "170923.647500", "170924.107500", "170924.567500", "170925.027500", "170925.487500", "170925.947500", "170926.407500", "170926.867500", "170927.327500", "170927.787500", "170928.247500", "170928.707500", "170929.167500", "170929.627500", "170930.087500", "170930.547500", "170931.007500", "170931.467500", "170931.927500", "170932.387500", "170932.847500", "170933.307500", "170933.767500", "170934.227500", "170934.687500", "170935.147500", "170935.607500", "170936.067500", "170936.527500", "170936.987500", "170937.447500", "170937.907500", "170938.367500", "170938.827500", "170939.287500", "170939.747500", "170940.207500", "170940.667500", "170941.127500", "170941.587500", "170942.047500", "170942.507500", "170942.967500", "170943.427500", "170943.887500", "170944.347500", "170944.807500", "170945.267500", "170945.727500", "170946.187500", "170946.647500", "170947.107500", "170947.567500", "170948.027500", "170948.487500", "170948.947500", "170949.407500", "170949.867500", "170950.327500", "170950.787500", "170951.247500", "170951.707500", "170952.167500", "170952.627500", "170953.087500", "170953.547500", "170954.007500", "170954.467500", "170954.927500", "170955.387500", "170955.847500", "170956.307500", "170956.767500", "170957.227500", "170957.687500", "170958.147500", "170958.607500", "170959.067500", "170959.527500", "170959.987500", "171000.447500", "171000.907500", "171001.367500", "171001.827500", "171002.287500", "171002.747500", "171003.207500", "171003.667500", "171004.127500", "171004.587500", "171005.047500", "171005.507500", "171005.967500", "171006.427500", "171006.887500", "171007.347500", "171007.807500", "171008.267500", "171008.727500", "171009.187500", "171009.647500", "171010.107500", "171010.567500", "171011.027500", "171011.487500", "171011.947500", "171012.407500", "171012.867500", "171013.327500", "171013.787500", "171014.247500", "171014.707500", "171015.167500", "171015.627500", "171016.087500", "171016.547500", "171017.007500", "171017.467500", "171017.927500", "171018.387500", "171018.847500", "171019.307500", "171019.767500", "171020.227500", "171020.687500", "171021.147500", "171021.607500", "171022.067500", "171022.527500", "171022.987500", "171023.447500", "171023.907500", "171024.367500", "171024.827500", "171025.287500", "171025.747500", "171026.207500", "171026.667500", "171027.127500", "171027.587500", "171028.047500", "171028.507500", "171028.967500", "171029.427500", "171029.887500", "171030.347500", "171030.807500", "171031.267500", "171031.727500", "171032.187500", "171032.647500", "171033.107500", "171033.567500", "171034.027500", "171034.487500", "171034.947500", "171035.407500", "171035.867500", "171036.327500", "171036.787500", "171037.247500", "171037.707500", "171038.167500", "171038.627500", "171039.087500", "171039.547500", "171040.007500", "171040.467500", "171040.927500", "171041.387500", "171041.847500", "171042.307500", "171042.767500", "171043.227500", "171043.687500", "171044.147500", "171044.607500", "171045.067500", "171045.527500", "171045.987500", "171046.447500", "171046.907500", "171047.367500", "171047.827500", "171048.287500", "171048.747500", "171049.207500", "171049.667500", "171050.127500", "171050.587500", "171051.047500", "171051.507500", "171051.967500", "171052.427500", "171052.887500", "171053.347500", "171053.807500", "171054.267500", "171054.727500", "171055.187500", "171055.647500", "171056.107500", "171056.567500", "171057.027500", "171057.487500", "171057.947500", "171058.407500", "171058.867500", "171059.327500", "171059.787500", "171100.247500", "171100.707500", "171101.167500", "171101.627500", "171102.087500", "171102.547500", "171103.007500", "171103.467500", "171103.927500", "171104.387500", "171104.847500", "171105.307500", "171105.767500", "171106.227500", "171106.687500", "171107.147500", "171107.607500", "171108.067500", "171108.527500", "171108.987500", "171109.447500", "171109.907500", "171110.367500", "171110.827500", "171111.287500", "171111.747500", "171112.207500", "171112.667500", "171113.127500", "171113.587500", "171114.047500", "171114.507500", "171114.967500", "171115.427500", "171115.887500", "171116.347500", "171116.807500", "171117.267500", "171117.727500", "171118.187500", "171118.647500", "171119.107500", "171119.567500", "171120.027500", "171120.487500", "171120.947500", "171121.407500", "171121.867500", "171122.327500", "171122.787500", "171123.247500", "171123.707500", "171124.167500", "171124.627500", "171125.087500", "171125.547500", "171126.007500", "171126.467500", "171126.927500", "171127.387500", "171127.847500", "171128.307500", "171128.767500", "171129.227500", "171129.687500", "171130.147500", "171130.607500", "171131.067500", "171131.527500", "171131.987500", "171132.447500", "171132.907500", "171133.367500", "171133.827500", "171134.287500", "171134.747500", "171135.207500", "171135.667500", "171136.127500", "171136.587500", "171137.047500", "171137.507500", "171137.967500", "171138.427500", "171138.887500", "171139.347500", "171139.807500", "171140.267500", "171140.727500", "171141.187500", "171141.647500", "171142.107500", "171142.567500", "171143.027500", "171143.487500", "171143.947500", "171144.407500", "171144.867500", "171145.327500", "171145.787500", "171146.247500", "171146.707500", "171147.167500", "171147.627500", "171148.087500", "171148.547500", "171149.007500", "171149.467500", "171149.927500", "171150.387500", "171150.847500", "171151.307500", "171151.767500", "171152.227500", "171152.687500", "171153.147500", "171153.607500", "171154.067500", "171154.527500", "171154.987500", "171155.447500", "171155.907500", "171156.367500", "171156.827500", "171157.287500", "171157.747500", "171158.207500", "171158.667500", "171159.127500", "171159.587500", "171200.047500", "171200.507500", "171200.967500", "171201.427500", "171201.887500", "171202.347500", "171202.807500", "171203.267500", "171203.727500", "171204.187500", "171204.647500", "171205.107500", "171205.567500", "171206.027500", "171206.487500", "171206.947500", "171207.407500", "171207.867500", "171208.327500", "171208.787500", "171209.247500", "171209.707500", "171210.167500", "171210.627500", "171211.087500", "171211.547500", "171212.007500", "171212.467500", "171212.927500", "171213.387500", "171213.847500", "171214.307500", "171214.767500", "171215.227500", "171215.687500", "171216.147500", "171216.607500", "171217.067500", "171217.527500", "171217.987500", "171218.447500", "171218.907500", "171219.367500", "171219.827500", "171220.287500", "171220.747500", "171221.207500", "171221.667500", "171222.127500", "171222.587500", "171223.047500", "171223.507500", "171223.967500", "171224.427500", "171224.887500", "171225.347500", "171225.807500", "171226.267500", "171226.727500", "171227.187500", "171227.647500", "171228.107500", "171228.567500", "171229.027500", "171229.487500", "171229.947500", "171230.407500", "171230.867500", "171231.327500", "171231.787500", "171232.247500", "171232.707500", "171233.167500", "171233.627500", "171234.087500", "171234.547500", "171235.007500", "171235.467500", "171235.927500", "171236.387500", "171236.847500", "171237.307500", "171237.767500", "171238.227500", "171238.687500", "171239.147500", "171239.607500", "171240.067500", "171240.527500", "171240.987500", "171241.447500", "171241.907500", "171242.367500", "171242.827500", "171243.287500", "171243.747500", "171244.207500", "171244.667500", "171245.127500", "171245.587500", "171246.047500", "171246.507500", "171246.967500", "171247.427500", "171247.887500", "171248.347500", "171248.807500", "171249.267500", "171249.727500", "171250.187500", "171250.647500", "171251.107500", "171251.567500", "171252.027500", "171252.487500", "171252.947500", "171253.407500", "171253.867500", "171254.327500", "171254.787500", "171255.247500", "171255.707500", "171256.167500", "171256.627500", "171257.087500", "171257.547500", "171258.007500", "171258.467500", "171258.927500", "171259.387500", "171259.847500", "171300.307500", "171300.767500", "171301.227500", "171301.687500", "171302.147500", "171302.607500", "171303.067500", "171303.527500", "171303.987500", "171304.447500", "171304.907500", "171305.367500", "171305.827500", "171306.287500", "171306.747500", "171307.207500", "171307.667500", "171308.127500", "171308.587500", "171309.047500", "171309.507500", "171309.967500", "171310.427500", "171310.887500", "171311.347500", "171311.807500", "171312.267500", "171312.727500", "171313.187500", "171313.647500", "171314.107500", "171314.567500", "171315.027500", "171315.487500", "171315.947500", "171316.407500", "171316.867500", "171317.327500", "171317.787500", "171318.247500", "171318.707500", "171319.167500", "171319.627500", "171320.087500", "171320.547500", "171321.007500", "171321.467500", "171321.927500", "171322.387500", "171322.847500", "171323.307500", "171323.767500", "171324.227500", "171324.687500", "171325.147500", "171325.607500", "171326.067500", "171326.527500", "171326.987500", "171327.447500", "171327.907500", "171328.367500", "171328.827500", "171329.287500", "171329.747500", "171330.207500", "171330.667500", "171331.127500", "171331.587500", "171332.047500", "171332.507500", "171332.967500", "171333.427500", "171333.887500", "171334.347500", "171334.807500", "171335.267500", "171335.727500", "171336.187500", "171336.647500", "171337.107500", "171337.567500", "171338.027500", "171338.487500", "171338.947500", "171339.407500", "171339.867500", "171340.327500", "171340.787500", "171341.247500", "171341.707500", "171342.167500", "171342.627500", "171343.087500", "171343.547500", "171344.007500", "171344.467500", "171344.927500", "171345.387500", "171345.847500", "171346.307500", "171346.767500", "171347.227500", "171347.687500", "171348.147500", "171348.607500", "171349.067500", "171349.527500", "171349.987500", "171350.447500", "171350.907500", "171351.367500", "171351.827500", "171352.287500", "171352.747500", "171353.207500", "171353.667500", "171354.127500", "171354.587500", "171355.047500", "171355.507500", "171355.967500", "171356.427500", "171356.887500", "171357.347500", "171357.807500", "171358.267500", "171358.727500", "171359.187500", "171359.647500", "171400.107500", "171400.567500", "171401.027500", "171401.487500", "171401.947500", "171402.407500", "171402.867500", "171403.327500", "171403.787500", "171404.247500", "171404.707500", "171405.167500", "171405.627500", "171406.087500", "171406.547500", "171407.007500", "171407.467500", "171407.927500", "171408.387500", "171408.847500", "171409.307500", "171409.767500", "171410.227500", "171410.687500", "171411.147500", "171411.607500", "171412.067500", "171412.527500", "171412.987500", "171413.447500", "171413.907500", "171414.367500", "171414.827500", "171415.287500", "171415.747500", "171416.207500", "171416.667500", "171417.127500", "171417.587500", "171418.047500", "171418.507500", "171418.967500", "171419.427500", "171419.887500", "171420.347500", "171420.807500", "171421.267500", "171421.727500", "171422.187500", "171422.647500", "171423.107500", "171423.567500", "171424.027500", "171424.487500", "171424.947500", "171425.407500", "171425.867500", "171426.327500", "171426.787500", "171427.247500", "171427.707500", "171428.167500", "171428.627500", "171429.087500", "171429.547500", "171430.007500", "171430.467500", "171430.927500", "171431.387500", "171431.847500", "171432.307500", "171432.767500", "171433.227500", "171433.687500", "171434.147500", "171434.607500", "171435.067500", "171435.527500", "171435.987500", "171436.447500", "171436.907500", "171437.367500", "171437.827500", "171438.287500", "171438.747500", "171439.207500", "171439.667500", "171440.127500", "171440.587500", "171441.047500", "171441.507500", "171441.967500", "171442.427500", "171442.887500", "171443.347500", "171443.807500", "171444.267500", "171444.727500", "171445.187500", "171445.647500", "171446.107500", "171446.567500", "171447.027500", "171447.487500", "171447.947500", "171448.407500", "171448.867500", "171449.327500", "171449.787500", "171450.247500", "171450.707500", "171451.167500", "171451.627500", "171452.087500", "171452.547500", "171453.007500", "171453.467500", "171453.927500", "171454.387500", "171454.847500", "171455.307500", "171455.767500", "171456.227500", "171456.687500", "171457.147500", "171457.607500", "171458.067500", "171458.527500", "171458.987500", "171459.447500", "171459.907500", "171500.367500", "171500.827500", "171501.287500", "171501.747500", "171502.207500", "171502.667500", "171503.127500", "171503.587500", "171504.047500", "171504.507500", "171504.967500", "171505.427500", "171505.887500", "171506.347500", "171506.807500", "171507.267500", "171507.727500", "171508.187500", "171508.647500", "171509.107500", "171509.567500", "171510.027500", "171510.487500", "171510.947500", "171511.407500", "171511.867500", "171512.327500", "171512.787500", "171513.247500", "171513.707500", "171514.167500", "171514.627500", "171515.087500", "171515.547500", "171516.007500", "171516.467500", "171516.927500", "171517.387500", "171517.847500", "171518.307500", "171518.767500", "171519.227500", "171519.687500", "171520.147500", "171520.607500", "171521.067500", "171521.527500", "171521.987500", "171522.447500", "171522.907500", "171523.367500", "171523.827500", "171524.287500", "171524.747500", "171525.207500", "171525.667500", "171526.127500", "171526.587500", "171527.047500", "171527.507500", "171527.967500", "171528.427500", "171528.887500", "171529.347500", "171529.807500", "171530.267500", "171530.727500", "171531.187500", "171531.647500", "171532.107500", "171532.567500", "171533.027500", "171533.487500", "171533.947500", "171534.407500", "171534.867500", "171535.327500", "171535.787500", "171536.247500", "171536.707500", "171537.167500", "171537.627500", "171538.087500", "171538.547500", "171539.007500", "171539.467500", "171539.927500", "171540.387500", "171540.847500", "171541.307500", "171541.767500", "171542.227500", "171542.687500", "171543.147500", "171543.607500", "171544.067500", "171544.527500", "171544.987500", "171545.447500", "171545.907500", "171546.367500", "171546.827500", "171547.287500", "171547.747500", "171548.207500", "171548.667500", "171549.127500", "171549.587500", "171550.047500", "171550.507500", "171550.967500", "171551.427500"],
