{
  "AcquisitionMatrixPE": 82,
  "AcquisitionNumber": 1,
  "AcquisitionTime": "17:37:8.582500",
  "BandwidthPerPixelPhaseEncode": 24.888,
  "BaseResolution": 82,
  "BodyPartExamined": "BRAIN",
  "ConsistencyInfo": "N4_VE11E_LATEST_20181129",
  "ConversionSoftware": "dcm2niix",
  "ConversionSoftwareVersion": "v1.0.20201102",
  "DerivedVendorReportedEchoSpacing": 0.00049,
  "DeviceSerialNumber": "66112",
  "DwellTime": 2e-06,
  "EchoTime": 0.0272,
  "EchoTrainLength": 82,
  "EffectiveEchoSpacing": 0.00049,
  "FlipAngle": 44,
  "ImageComments": "Unaliased MB8/PE3",
  "ImageOrientationPatientDICOM": [0.99643, 0.0788355, -0.0301871, -0.0801709, 0.995722, -0.0459281],
  "ImageType": [
    "ORIGINAL",
    "PRIMARY",
    "M",
    "MB",
    "ND",
    "NORM",
    "MOSAIC"
],
  "ImagingFrequency": 123.259,
  "InPlanePhaseEncodingDirectionDICOM": "COL",
  "InstitutionAddress": "Maynard 3,Hanover,NH,US,03755",
  "InstitutionName": "Dartmouth College - PBS",
  "InstitutionalDepartmentName": "Department",
  "MRAcquisitionType": "2D",
  "MagneticFieldStrength": 3,
  "Manufacturer": "Siemens",
  "ManufacturersModelName": "Prisma",
  "Modality": "MR",
  "MultibandAccelerationFactor": 8,
  "PartialFourier": 1,
  "PatientPosition": "HFS",
  "PercentPhaseFOV": 100,
  "PercentSampling": 100,
  "PhaseEncodingDirection": "j-",
  "PhaseEncodingSteps": 82,
  "PhaseResolution": 1,
  "PixelBandwidth": 3050,
  "ProcedureStepDescription": "Wager_Wager^1076_spacetop",
  "ProtocolName": "func_run-01_task-faces_acq-ap-mb8",
  "PulseSequenceDetails": "%CustomerSeq%\\cmrr_mbep2d_bold",
  "ReceiveCoilActiveElements": "HEA;HEP",
  "ReceiveCoilName": "Head_32",
  "ReconMatrixPE": 82,
  "RepetitionTime": 0.46,
  "SAR": 0.0867055,
  "ScanOptions": "FS",
  "ScanningSequence": "EP",
  "SequenceName": "epfid2d1_82",
  "SequenceVariant": "SK\\SS",
  "SeriesDescription": "func_run-01_task-faces_acq-ap-mb8",
  "SeriesNumber": 16,
  "ShimSetting": [4202, -7760, -7235, 333, -198, 111, -16, 175],
  "SliceThickness": 2.7,
  "SliceTiming": [0, 0.2525, 0.0625, 0.315, 0.125, 0.3775, 0.19, 0, 0.2525, 0.0625, 0.315, 0.125, 0.3775, 0.19, 0, 0.2525, 0.0625, 0.315, 0.125, 0.3775, 0.19, 0, 0.2525, 0.0625, 0.315, 0.125, 0.3775, 0.19, 0, 0.2525, 0.0625, 0.315, 0.125, 0.3775, 0.19, 0, 0.2525, 0.0625, 0.315, 0.125, 0.3775, 0.19, 0, 0.2525, 0.0625, 0.315, 0.125, 0.3775, 0.19, 0, 0.2525, 0.0625, 0.315, 0.125, 0.3775, 0.19],
  "SoftwareVersions": "syngo MR E11",
  "SpacingBetweenSlices": 2.7,
  "StationName": "AWP66112",
  "TaskName": "faces",
  "TotalReadoutTime": 0.03969,
  "TxRefAmp": 244.763,
  "WipMemBlock": "939b696f-f85b-4423-8cbd-ac6a666ec7c2||Sequence: R016 ve11e/master r/434b28f1; Aug  7 2019 18:53:46 by eja",
  "dcmmeta_affine": [
    [-2.6733500957489014, -0.21509259939193726, -0.07138051092624664, 124.0252456665039],
    [-0.2115098536014557, 2.671450614929199, -0.1300976574420929, -91.5510025024414],
    [-0.08098983764648438, 0.12322180718183517, 2.6959190368652344, -80.79126739501953],
    [0.0, 0.0, 0.0, 1.0]
],
  "dcmmeta_reorient_transform": [
    [0.0, -1.0, 0.0, 81.0],
    [1.0, 0.0, 0.0, 0.0],
    [0.0, 0.0, 1.0, 0.0],
    [0.0, 0.0, 0.0, 1.0]
],
  "dcmmeta_shape": [82, 82, 56, 914],
  "dcmmeta_slice_dim": 2,
  "dcmmeta_version": 0.6,
  "global": {
    "const": {
      "AccessionNumber": "A004856",
      "AcquisitionMatrix": [82, 0, 0, 82],
      "AngioFlag": "N",
      "BitsAllocated": 16,
      "BitsStored": 16,
      "BodyPartExamined": "BRAIN",
      "Columns": 656,
      "EchoNumbers": 1,
      "EchoTime": 27.2,
      "EchoTrainLength": 82,
      "FlipAngle": 44.0,
      "HighBit": 15,
      "ImageOrientationPatient": [0.99643048122424, 0.07883548641922, -0.0301871192443, -0.080170874602, 0.99572247033871, -0.0459281278534],
      "ImagePositionPatient": [-812.12266010129, -952.24614011558, -12.201556726096],
      "ImageType": [
        "ORIGINAL",
        "PRIMARY",
        "M",
        "MB",
        "ND",
        "NORM",
        "MOSAIC"
],
      "ImagedNucleus": "1H",
      "ImagingFrequency": 123.259078,
      "InPlanePhaseEncodingDirection": "COL",
      "MRAcquisitionType": "2D",
      "MagneticFieldStrength": 3.0,
      "Manufacturer": "SIEMENS",
      "ManufacturerModelName": "Prisma",
      "Modality": "MR",
      "NumberOfAverages": 1.0,
      "NumberOfPhaseEncodingSteps": 82,
      "PercentPhaseFieldOfView": 100.0,
      "PercentSampling": 100.0,
      "PerformedProcedureStepStartTime": "164723.038000",
      "PhotometricInterpretation": "MONOCHROME2",
      "PixelBandwidth": 3050.0,
      "PixelRepresentation": 0,
      "PixelSpacing": [2.6829268932343, 2.6829268932343],
      "ProtocolName": "func_run-01_task-faces_acq-ap-mb8",
      "RepetitionTime": 460.0,
      "Rows": 656,
      "SAR": 0.08670548799323,
      "SamplesPerPixel": 1,
      "ScanOptions": "FS",
      "ScanningSequence": "EP",
      "SequenceName": "epfid2d1_82",
      "SequenceVariant": [
        "SK",
        "SS"
],
      "SeriesDescription": "func_run-01_task-faces_acq-ap-mb8",
      "SeriesNumber": 16,
      "SeriesTime": "173730.088000",
      "SliceLocation": -79.53671256837,
      "SliceThickness": 2.7000000476837,
      "SmallestImagePixelValue": 0,
      "SoftwareVersions": "syngo MR E11",
      "SpacingBetweenSlices": 2.7000000746987,
      "SpecificCharacterSet": "ISO_IR 100",
      "StudyID": "2",
      "StudyTime": "164722.980000",
      "TransmitCoilName": "Body",
      "VariableFlipAngleFlag": "N",
      "WindowCenterWidthExplanation": "Algo1"
    },
    "slices": {}
  },
  "time": {
    "samples": {
      "AcquisitionNumber": [1, 2, 3, 4, 5, 6, 7, 8, 9, 10, 11, 12, 13, 14, 15, 16, 17, 18, 19, 20, 21, 22, 23, 24, 25, 26, 27, 28, 29, 30, 31, 32, 33, 34, 35, 36, 37, 38, 39, 40, 41, 42, 43, 44, 45, 46, 47, 48, 49, 50, 51, 52, 53, 54, 55, 56, 57, 58, 59, 60, 61, 62, 63, 64, 65, 66, 67, 68, 69, 70, 71, 72, 73, 74, 75, 76, 77, 78, 79, 80, 81, 82, 83, 84, 85, 86, 87, 88, 89, 90, 91, 92, 93, 94, 95, 96, 97, 98, 99, 100, 101, 102, 103, 104, 105, 106, 107, 108, 109, 110, 111, 112, 113, 114, 115, 116, 117, 118, 119, 120, 121, 122, 123, 124, 125, 126, 127, 128, 129, 130, 131, 132, 133, 134, 135, 136, 137, 138, 139, 140, 141, 142, 143, 144, 145, 146, 147, 148, 149, 150, 151, 152, 153, 154, 155, 156, 157, 158, 159, 160, 161, 162, 163, 164, 165, 166, 167, 168, 169, 170, 171, 172, 173, 174, 175, 176, 177, 178, 179, 180, 181, 182, 183, 184, 185, 186, 187, 188, 189, 190, 191, 192, 193, 194, 195, 196, 197, 198, 199, 200, 201, 202, 203, 204, 205, 206, 207, 208, 209, 210, 211, 212, 213, 214, 215, 216, 217, 218, 219, 220, 221, 222, 223, 224, 225, 226, 227, 228, 229, 230, 231, 232, 233, 234, 235, 236, 237, 238, 239, 240, 241, 242, 243, 244, 245, 246, 247, 248, 249, 250, 251, 252, 253, 254, 255, 256, 257, 258, 259, 260, 261, 262, 263, 264, 265, 266, 267, 268, 269, 270, 271, 272, 273, 274, 275, 276, 277, 278, 279, 280, 281, 282, 283, 284, 285, 286, 287, 288, 289, 290, 291, 292, 293, 294, 295, 296, 297, 298, 299, 300, 301, 302, 303, 304, 305, 306, 307, 308, 309, 310, 311, 312, 313, 314, 315, 316, 317, 318, 319, 320, 321, 322, 323, 324, 325, 326, 327, 328, 329, 330, 331, 332, 333, 334, 335, 336, 337, 338, 339, 340, 341, 342, 343, 344, 345, 346, 347, 348, 349, 350, 351, 352, 353, 354, 355, 356, 357, 358, 359, 360, 361, 362, 363, 364, 365, 366, 367, 368, 369, 370, 371, 372, 373, 374, 375, 376, 377, 378, 379, 380, 381, 382, 383, 384, 385, 386, 387, 388, 389, 390, 391, 392, 393, 394, 395, 396, 397, 398, 399, 400, 401, 402, 403, 404, 405, 406, 407, 408, 409, 410, 411, 412, 413, 414, 415, 416, 417, 418, 419, 420, 421, 422, 423, 424, 425, 426, 427, 428, 429, 430, 431, 432, 433, 434, 435, 436, 437, 438, 439, 440, 441, 442, 443, 444, 445, 446, 447, 448, 449, 450, 451, 452, 453, 454, 455, 456, 457, 458, 459, 460, 461, 462, 463, 464, 465, 466, 467, 468, 469, 470, 471, 472, 473, 474, 475, 476, 477, 478, 479, 480, 481, 482, 483, 484, 485, 486, 487, 488, 489, 490, 491, 492, 493, 494, 495, 496, 497, 498, 499, 500, 501, 502, 503, 504, 505, 506, 507, 508, 509, 510, 511, 512, 513, 514, 515, 516, 517, 518, 519, 520, 521, 522, 523, 524, 525, 526, 527, 528, 529, 530, 531, 532, 533, 534, 535, 536, 537, 538, 539, 540, 541, 542, 543, 544, 545, 546, 547, 548, 549, 550, 551, 552, 553, 554, 555, 556, 557, 558, 559, 560, 561, 562, 563, 564, 565, 566, 567, 568, 569, 570, 571, 572, 573, 574, 575, 576, 577, 578, 579, 580, 581, 582, 583, 584, 585, 586, 587, 588, 589, 590, 591, 592, 593, 594, 595, 596, 597, 598, 599, 600, 601, 602, 603, 604, 605, 606, 607, 608, 609, 610, 611, 612, 613, 614, 615, 616, 617, 618, 619, 620, 621, 622, 623, 624, 625, 626, 627, 628, 629, 630, 631, 632, 633, 634, 635, 636, 637, 638, 639, 640, 641, 642, 643, 644, 645, 646, 647, 648, 649, 650, 651, 652, 653, 654, 655, 656, 657, 658, 659, 660, 661, 662, 663, 664, 665, 666, 667, 668, 669, 670, 671, 672, 673, 674, 675, 676, 677, 678, 679, 680, 681, 682, 683, 684, 685, 686, 687, 688, 689, 690, 691, 692, 693, 694, 695, 696, 697, 698, 699, 700, 701, 702, 703, 704, 705, 706, 707, 708, 709, 710, 711, 712, 713, 714, 715, 716, 717, 718, 719, 720, 721, 722, 723, 724, 725, 726, 727, 728, 729, 730, 731, 732, 733, 734, 735, 736, 737, 738, 739, 740, 741, 742, 743, 744, 745, 746, 747, 748, 749, 750, 751, 752, 753, 754, 755, 756, 757, 758, 759, 760, 761, 762, 763, 764, 765, 766, 767, 768, 769, 770, 771, 772, 773, 774, 775, 776, 777, 778, 779, 780, 781, 782, 783, 784, 785, 786, 787, 788, 789, 790, 791, 792, 793, 794, 795, 796, 797, 798, 799, 800, 801, 802, 803, 804, 805, 806, 807, 808, 809, 810, 811, 812, 813, 814, 815, 816, 817, 818, 819, 820, 821, 822, 823, 824, 825, 826, 827, 828, 829, 830, 831, 832, 833, 834, 835, 836, 837, 838, 839, 840, 841, 842, 843, 844, 845, 846, 847, 848, 849, 850, 851, 852, 853, 854, 855, 856, 857, 858, 859, 860, 861, 862, 863, 864, 865, 866, 867, 868, 869, 870, 871, 872, 873, 874, 875, 876, 877, 878, 879, 880, 881, 882, 883, 884, 885, 886, 887, 888, 889, 890, 891, 892, 893, 894, 895, 896, 897, 898, 899, 900, 901, 902, 903, 904, 905, 906, 907, 908, 909, 910, 911, 912, 913, 914],
      "AcquisitionTime": ["173708.582500", "173709.042500", "173709.502500", "173709.962500", "173710.422500", "173710.882500", "173711.342500", "173711.802500", "173712.262500", "173712.722500", "173713.182500", "173713.642500", "173714.102500", "173714.562500", "173715.022500", "173715.482500", "173715.942500", "173716.402500", "173716.862500", "173717.322500", "173717.782500", "173718.242500", "173718.702500", "173719.162500", "173719.622500", "173720.082500", "173720.542500", "173721.002500", "173721.462500", "173721.922500", "173722.382500", "173722.842500", "173723.302500", "173723.762500", "173724.222500", "173724.682500", "173725.142500", "173725.602500", "173726.062500", "173726.522500", "173726.982500", "173727.442500", "173727.902500", "173728.362500", "173728.822500", "173729.282500", "173729.742500", "173730.202500", "173730.662500", "173731.122500", "173731.582500", "173732.042500", "173732.502500", "173732.962500", "173733.422500", "173733.882500", "173734.342500", "173734.802500", "173735.262500", "173735.722500", "173736.182500", "173736.642500", "173737.102500", "173737.562500", "173738.022500", "173738.482500", "173738.942500", "173739.402500", "173739.862500", "173740.322500", "173740.782500", "173741.242500", "173741.702500", "173742.162500", "173742.622500", "173743.082500", "173743.542500", "173744.002500", "173744.462500", "173744.922500", "173745.382500", "173745.842500", "173746.302500", "173746.762500", "173747.222500", "173747.682500", "173748.142500", "173748.602500", "173749.062500", "173749.522500", "173749.982500", "173750.442500", "173750.902500", "173751.362500", "173751.822500", "173752.282500", "173752.742500", "173753.202500", "173753.662500", "173754.122500", "173754.582500", "173755.042500", "173755.502500", "173755.962500", "173756.422500", "173756.882500", "173757.342500", "173757.802500", "173758.262500", "173758.722500", "173759.182500", "173759.642500", "173800.102500", "173800.562500", "173801.022500", "173801.482500", "173801.942500", "173802.402500", "173802.862500", "173803.322500", "173803.782500", "173804.242500", "173804.702500", "173805.162500", "173805.622500", "173806.082500", "173806.542500", "173807.002500", "173807.462500", "173807.922500", "173808.382500", "173808.842500", "173809.302500", "173809.762500", "173810.222500", "173810.682500", "173811.142500", "173811.602500", "173812.062500", "173812.522500", "173812.982500", "173813.442500", "173813.902500", "173814.362500", "173814.822500", "173815.282500", "173815.742500", "173816.202500", "173816.662500", "173817.122500", "173817.582500", "173818.042500", "173818.502500", "173818.962500", "173819.422500", "173819.882500", "173820.342500", "173820.802500", "173821.262500", "173821.722500", "173822.182500", "173822.642500", "173823.102500", "173823.562500", "173824.022500", "173824.482500", "173824.942500", "173825.402500", "173825.862500", "173826.322500", "173826.782500", "173827.242500", "173827.702500", "173828.162500", "173828.622500", "173829.082500", "173829.542500", "173830.002500", "173830.462500", "173830.922500", "173831.382500", "173831.842500", "173832.302500", "173832.762500", "173833.222500", "173833.682500", "173834.142500", "173834.602500", "173835.062500", "173835.522500", "173835.982500", "173836.442500", "173836.902500", "173837.362500", "173837.822500", "173838.282500", "173838.742500", "173839.202500", "173839.662500", "173840.122500", "173840.582500", "173841.042500", "173841.502500", "173841.962500", "173842.422500", "173842.882500", "173843.342500", "173843.802500", "173844.262500", "173844.722500", "173845.182500", "173845.642500", "173846.102500", "173846.562500", "173847.022500", "173847.482500", "173847.942500", "173848.402500", "173848.862500", "173849.322500", "173849.782500", "173850.242500", "173850.702500", "173851.162500", "173851.622500", "173852.082500", "173852.542500", "173853.002500", "173853.462500", "173853.922500", "173854.382500", "173854.842500", "173855.302500", "173855.762500", "173856.222500", "173856.682500", "173857.142500", "173857.602500", "173858.062500", "173858.522500", "173858.982500", "173859.442500", "173859.902500", "173900.362500", "173900.822500", "173901.282500", "173901.742500", "173902.202500", "173902.662500", "173903.122500", "173903.582500", "173904.042500", "173904.502500", "173904.962500", "173905.422500", "173905.882500", "173906.342500", "173906.802500", "173907.262500", "173907.722500", "173908.182500", "173908.642500", "173909.102500", "173909.562500", "173910.022500", "173910.482500", "173910.942500", "173911.402500", "173911.862500", "173912.322500", "173912.782500", "173913.242500", "173913.702500", "173914.162500", "173914.622500", "173915.082500", "173915.542500", "173916.002500", "173916.462500", "173916.922500", "173917.382500", "173917.842500", "173918.302500", "173918.762500", "173919.222500", "173919.682500", "173920.142500", "173920.602500", "173921.062500", "173921.522500", "173921.982500", "173922.442500", "173922.902500", "173923.362500", "173923.822500", "173924.282500", "173924.742500", "173925.202500", "173925.662500", "173926.122500", "173926.582500", "173927.042500", "173927.502500", "173927.962500", "173928.422500", "173928.882500", "173929.342500", "173929.802500", "173930.262500", "173930.722500", "173931.182500", "173931.642500", "173932.102500", "173932.562500", "173933.022500", "173933.482500", "173933.942500", "173934.402500", "173934.862500", "173935.322500", "173935.782500", "173936.242500", "173936.702500", "173937.162500", "173937.622500", "173938.082500", "173938.542500", "173939.002500", "173939.462500", "173939.922500", "173940.382500", "173940.842500", "173941.302500", "173941.762500", "173942.222500", "173942.682500", "173943.142500", "173943.602500", "173944.062500", "173944.522500", "173944.982500", "173945.442500", "173945.902500", "173946.362500", "173946.822500", "173947.282500", "173947.742500", "173948.202500", "173948.662500", "173949.122500", "173949.582500", "173950.042500", "173950.502500", "173950.962500", "173951.422500", "173951.882500", "173952.342500", "173952.802500", "173953.262500", "173953.722500", "173954.182500", "173954.642500", "173955.102500", "173955.562500", "173956.022500", "173956.482500", "173956.942500", "173957.402500", "173957.862500", "173958.322500", "173958.782500", "173959.242500", "173959.702500", "174000.162500", "174000.622500", "174001.082500", "174001.542500", "174002.002500", "174002.462500", "174002.922500", "174003.382500", "174003.842500", "174004.302500", "174004.762500", "174005.222500", "174005.682500", "174006.142500", "174006.602500", "174007.062500", "174007.522500", "174007.982500", "174008.442500", "174008.902500", "174009.362500", "174009.822500", "174010.282500", "174010.742500", "174011.202500", "174011.662500", "174012.122500", "174012.582500", "174013.042500", "174013.502500", "174013.962500", "174014.422500", "174014.882500", "174015.342500", "174015.802500", "174016.262500", "174016.722500", "174017.182500", "174017.642500", "174018.102500", "174018.562500", "174019.022500", "174019.482500", "174019.942500", "174020.402500", "174020.862500", "174021.322500", "174021.782500", "174022.242500", "174022.702500", "174023.162500", "174023.622500", "174024.082500", "174024.542500", "174025.002500", "174025.462500", "174025.922500", "174026.382500", "174026.842500", "174027.302500", "174027.762500", "174028.222500", "174028.682500", "174029.142500", "174029.602500", "174030.062500", "174030.522500", "174030.982500", "174031.442500", "174031.902500", "174032.362500", "174032.822500", "174033.282500", "174033.742500", "174034.202500", "174034.662500", "174035.122500", "174035.582500", "174036.042500", "174036.502500", "174036.962500", "174037.422500", "174037.882500", "174038.342500", "174038.802500", "174039.262500", "174039.722500", "174040.182500", "174040.642500", "174041.102500", "174041.562500", "174042.022500", "174042.482500", "174042.942500", "174043.402500", "174043.862500", "174044.322500", "174044.782500", "174045.242500", "174045.702500", "174046.162500", "174046.622500", "174047.082500", "174047.542500", "174048.002500", "174048.462500", "174048.922500", "174049.382500", "174049.842500", "174050.302500", "174050.762500", "174051.222500", "174051.682500", "174052.142500", "174052.602500", "174053.062500", "174053.522500", "174053.982500", "174054.442500", "174054.902500", "174055.362500", "174055.822500", "174056.282500", "174056.742500", "174057.202500", "174057.662500", "174058.122500", "174058.582500", "174059.042500", "174059.502500", "174059.962500", "174100.422500", "174100.882500", "174101.342500", "174101.802500", "174102.262500", "174102.722500", "174103.182500", "174103.642500", "174104.102500", "174104.562500", "174105.022500", "174105.482500", "174105.942500", "174106.402500", "174106.862500", "174107.322500", "174107.782500", "174108.242500", "174108.702500", "174109.162500", "174109.622500", "174110.082500", "174110.542500", "174111.002500", "174111.462500", "174111.922500", "174112.382500", "174112.842500", "174113.302500", "174113.762500", "174114.222500", "174114.682500", "174115.142500", "174115.602500", "174116.062500", "174116.522500", "174116.982500", "174117.442500", "174117.902500", "174118.362500", "174118.822500", "174119.282500", "174119.742500", "174120.202500", "174120.662500", "174121.122500", "174121.582500", "174122.042500", "174122.502500", "174122.962500", "174123.422500", "174123.882500", "174124.342500", "174124.802500", "174125.262500", "174125.722500", "174126.182500", "174126.642500", "174127.102500", "174127.562500", "174128.022500", "174128.482500", "174128.942500", "174129.402500", "174129.862500", "174130.322500", "174130.782500", "174131.242500", "174131.702500", "174132.162500", "174132.622500", "174133.082500", "174133.542500", "174134.002500", "174134.462500", "174134.922500", "174135.382500", "174135.842500", "174136.302500", "174136.762500", "174137.222500", "174137.682500", "174138.142500", "174138.602500", "174139.062500", "174139.522500", "174139.982500", "174140.442500", "174140.902500", "174141.362500", "174141.822500", "174142.282500", "174142.742500", "174143.202500", "174143.662500", "174144.122500", "174144.582500", "174145.042500", "174145.502500", "174145.962500", "174146.422500", "174146.882500", "174147.342500", "174147.802500", "174148.262500", "174148.722500", "174149.182500", "174149.642500", "174150.102500", "174150.562500", "174151.022500", "174151.482500", "174151.942500", "174152.402500", "174152.862500", "174153.322500", "174153.782500", "174154.242500", "174154.702500", "174155.162500", "174155.622500", "174156.082500", "174156.542500", "174157.002500", "174157.462500", "174157.922500", "174158.382500", "174158.842500", "174159.302500", "174159.762500", "174200.222500", "174200.682500", "174201.142500", "174201.602500", "174202.062500", "174202.522500", "174202.982500", "174203.442500", "174203.902500", "174204.362500", "174204.822500", "174205.282500", "174205.742500", "174206.202500", "174206.662500", "174207.122500", "174207.582500", "174208.042500", "174208.502500", "174208.962500", "174209.422500", "174209.882500", "174210.342500", "174210.802500", "174211.262500", "174211.722500", "174212.182500", "174212.642500", "174213.102500", "174213.562500", "174214.022500", "174214.482500", "174214.942500", "174215.402500", "174215.862500", "174216.322500", "174216.782500", "174217.242500", "174217.702500", "174218.162500", "174218.622500", "174219.082500", "174219.542500", "174220.002500", "174220.462500", "174220.922500", "174221.382500", "174221.842500", "174222.302500", "174222.762500", "174223.222500", "174223.682500", "174224.142500", "174224.602500", "174225.062500", "174225.522500", "174225.982500", "174226.442500", "174226.902500", "174227.362500", "174227.822500", "174228.282500", "174228.742500", "174229.202500", "174229.662500", "174230.122500", "174230.582500", "174231.042500", "174231.502500", "174231.962500", "174232.422500", "174232.882500", "174233.342500", "174233.802500", "174234.262500", "174234.722500", "174235.182500", "174235.642500", "174236.102500", "174236.562500", "174237.022500", "174237.482500", "174237.942500", "174238.402500", "174238.862500", "174239.322500", "174239.782500", "174240.242500", "174240.702500", "174241.162500", "174241.622500", "174242.082500", "174242.542500", "174243.002500", "174243.462500", "174243.922500", "174244.382500", "174244.842500", "174245.302500", "174245.762500", "174246.222500", "174246.682500", "174247.142500", "174247.602500", "174248.062500", "174248.522500", "174248.982500", "174249.442500", "174249.902500", "174250.362500", "174250.822500", "174251.282500", "174251.742500", "174252.202500", "174252.662500", "174253.122500", "174253.582500", "174254.042500", "174254.502500", "174254.962500", "174255.422500", "174255.882500", "174256.342500", "174256.802500", "174257.262500", "174257.722500", "174258.182500", "174258.642500", "174259.102500", "174259.562500", "174300.022500", "174300.482500", "174300.942500", "174301.402500", "174301.862500", "174302.322500", "174302.782500", "174303.242500", "174303.702500", "174304.162500", "174304.622500", "174305.082500", "174305.542500", "174306.002500", "174306.462500", "174306.922500", "174307.382500", "174307.842500", "174308.302500", "174308.762500", "174309.222500", "174309.682500", "174310.142500", "174310.602500", "174311.062500", "174311.522500", "174311.982500", "174312.442500", "174312.902500", "174313.362500", "174313.822500", "174314.282500", "174314.742500", "174315.202500", "174315.662500", "174316.122500", "174316.582500", "174317.042500", "174317.502500", "174317.962500", "174318.422500", "174318.882500", "174319.342500", "174319.802500", "174320.262500", "174320.722500", "174321.182500", "174321.642500", "174322.102500", "174322.562500", "174323.022500", "174323.482500", "174323.942500", "174324.402500", "174324.862500", "174325.322500", "174325.782500", "174326.242500", "174326.702500", "174327.162500", "174327.622500", "174328.082500", "174328.542500", "174329.002500", "174329.462500", "174329.922500", "174330.382500", "174330.842500", "174331.302500", "174331.762500", "174332.222500", "174332.682500", "174333.142500", "174333.602500", "174334.062500", "174334.522500", "174334.982500", "174335.442500", "174335.902500", "174336.362500", "174336.822500", "174337.282500", "174337.742500", "174338.202500", "174338.662500", "174339.122500", "174339.582500", "174340.042500", "174340.502500", "174340.962500", "174341.422500", "174341.882500", "174342.342500", "174342.802500", "174343.262500", "174343.722500", "174344.182500", "174344.642500", "174345.102500", "174345.562500", "174346.022500", "174346.482500", "174346.942500", "174347.402500", "174347.862500", "174348.322500", "174348.782500", "174349.242500", "174349.702500", "174350.162500", "174350.622500", "174351.082500", "174351.542500", "174352.002500", "174352.462500", "174352.922500", "174353.382500", "174353.842500", "174354.302500", "174354.762500", "174355.222500", "174355.682500", "174356.142500", "174356.602500", "174357.062500", "174357.522500", "174357.982500", "174358.442500", "174358.902500", "174359.362500", "174359.822500", "174400.282500", "174400.742500", "174401.202500", "174401.662500", "174402.122500", "174402.582500", "174403.042500", "174403.502500", "174403.962500", "174404.422500", "174404.882500", "174405.342500", "174405.802500", "174406.262500", "174406.722500", "174407.182500", "174407.642500", "174408.102500", "174408.562500"],
