{
  "AcquisitionMatrixPE": 140,
  "AcquisitionNumber": 1,
  "AcquisitionTime": "15:39:47.052500",
  "BandwidthPerPixelPhaseEncode": 10.352,
  "BaseResolution": 140,
  "BodyPartExamined": "BRAIN",
  "ConsistencyInfo": "N4_VE11E_LATEST_20181129",
  "ConversionSoftware": "dcm2niix",
  "ConversionSoftwareVersion": "v1.0.20201102",
  "DerivedVendorReportedEchoSpacing": 0.000689998,
  "DeviceSerialNumber": "66112",
  "DiffusionScheme": "Monopolar",
  "DwellTime": 2.1e-06,
  "EchoTime": 0.0884,
  "EchoTrainLength": 105,
  "EffectiveEchoSpacing": 0.000689998,
  "FlipAngle": 90,
  "ImageComments": "Unaliased MB3/PE3 SENSE1",
  "ImageOrientationPatientDICOM": [0.998696, -0.0281672, -0.042571, 0.0360969, 0.979372, 0.198813],
  "ImageType": [
    "ORIGINAL",
    "PRIMARY",
    "DIFFUSION",
    "NONE",
    "MB",
    "ND",
    "MOSAIC"
],
  "ImagingFrequency": 123.259,
  "InPlanePhaseEncodingDirectionDICOM": "COL",
  "InstitutionAddress": "Maynard 3,Hanover,NH,US,03755",
  "InstitutionName": "Dartmouth College - PBS",
  "InstitutionalDepartmentName": "Department",
  "MRAcquisitionType": "2D",
  "MagneticFieldStrength": 3,
  "Manufacturer": "Siemens",
  "ManufacturersModelName": "Prisma",
  "Modality": "MR",
  "MultibandAccelerationFactor": 3,
  "PartialFourier": 0.75,
  "PatientPosition": "HFS",
  "PercentPhaseFOV": 100,
  "PercentSampling": 100,
  "PhaseEncodingDirection": "j-",
  "PhaseEncodingSteps": 105,
  "PhaseResolution": 1,
  "PixelBandwidth": 1700,
  "ProcedureStepDescription": "Wager_Wager^1076_spacetop",
  "ProtocolName": "dwi_acq-96dir-6b0-mb",
  "PulseSequenceDetails": "%CustomerSeq%\\cmrr_mbep2d_diff",
  "ReceiveCoilActiveElements": "HEA;HEP",
  "ReceiveCoilName": "Head_32",
  "ReconMatrixPE": 140,
  "RepetitionTime": 4.11,
  "SAR": 0.217832,
  "ScanOptions": "PFP\\FS",
  "ScanningSequence": "EP",
  "SequenceName": "ep_b5#1",
  "SequenceVariant": "SK\\SS",
  "SeriesDescription": "dwi_acq-96dir-6b0-mb",
  "SeriesNumber": 8,
  "ShimSetting": [4207, -7786, -7227, 363, -92, -21, -125, 65],
  "SliceThickness": 1.7,
  "SliceTiming": [0, 2.1225, 0.1525, 2.2725, 0.305, 2.425, 0.455, 2.575, 0.6075, 2.7275, 0.7575, 2.88, 0.91, 3.03, 1.0625, 3.1825, 1.2125, 3.3325, 1.365, 3.485, 1.515, 3.6375, 1.6675, 3.7875, 1.82, 3.94, 1.97, 0, 2.1225, 0.1525, 2.2725, 0.305, 2.425, 0.455, 2.575, 0.6075, 2.7275, 0.7575, 2.88, 0.91, 3.03, 1.0625, 3.1825, 1.2125, 3.3325, 1.365, 3.485, 1.515, 3.6375, 1.6675, 3.7875, 1.82, 3.94, 1.97, 0, 2.1225, 0.1525, 2.2725, 0.305, 2.425, 0.455, 2.575, 0.6075, 2.7275, 0.7575, 2.88, 0.91, 3.03, 1.0625, 3.1825, 1.2125, 3.3325, 1.365, 3.485, 1.515, 3.6375, 1.6675, 3.7875, 1.82, 3.94, 1.97],
  "SoftwareVersions": "syngo MR E11",
  "SpacingBetweenSlices": 1.7,
  "StationName": "AWP66112",
  "TotalReadoutTime": 0.0959097,
  "TxRefAmp": 218.897,
  "WipMemBlock": "8045945e-3054-4e0f-88ed-eb3e59e0fc21||Sequence: R016 ve11e/master r/434b28f1; Aug  7 2019 19:06:17 by eja",
  "dcmmeta_affine": [
    [-1.7120507955551147, 0.06188035011291504, -0.061357930302619934, 122.13886260986328],
    [0.0482865609228611, 1.6789242029190063, 0.3401537239551544, -113.32097625732422],
    [-0.0729789137840271, -0.34082216024398804, 1.664491057395935, -30.72450065612793],
    [0.0, 0.0, 0.0, 1.0]
],
  "dcmmeta_reorient_transform": [
    [0.0, -1.0, 0.0, 139.0],
    [1.0, 0.0, 0.0, 0.0],
    [0.0, 0.0, 1.0, 0.0],
    [0.0, 0.0, 0.0, 1.0]
],
  "dcmmeta_shape": [140, 140, 81, 103],
  "dcmmeta_slice_dim": 2,
  "dcmmeta_version": 0.6,
  "global": {
    "const": {
      "AccessionNumber": "A004537",
      "AcquisitionMatrix": [140, 0, 0, 140],
      "AngioFlag": "N",
      "BitsAllocated": 16,
      "BitsStored": 16,
      "BodyPartExamined": "BRAIN",
      "Columns": 1260,
      "EchoNumbers": 1,
      "EchoTime": 88.4,
      "EchoTrainLength": 105,
      "FlipAngle": 90.0,
      "HighBit": 15,
      "ImageOrientationPatient": [0.9986963093596, -0.0281671595713, -0.0425710323248, 0.03609687152183, 0.97937246953425, 0.19881293163353],
      "ImagePositionPatient": [-1124.141694195, -1033.2065997398, -228.09100726322],
      "ImageType": [
        "ORIGINAL",
        "PRIMARY",
        "DIFFUSION",
        "NONE",
        "MB",
        "ND",
        "MOSAIC"
],
      "ImagedNucleus": "1H",
      "ImagingFrequency": 123.259077,
      "InPlanePhaseEncodingDirection": "COL",
      "MRAcquisitionType": "2D",
      "MagneticFieldStrength": 3.0,
      "Manufacturer": "SIEMENS",
      "ManufacturerModelName": "Prisma",
      "Modality": "MR",
      "NumberOfAverages": 1.0,
      "NumberOfPhaseEncodingSteps": 105,
      "PercentPhaseFieldOfView": 100.0,
      "PercentSampling": 100.0,
      "PerformedProcedureStepStartTime": "152502.001000",
      "PhotometricInterpretation": "MONOCHROME2",
      "PixelBandwidth": 1700.0,
      "PixelRepresentation": 0,
      "PixelSpacing": [1.7142857313156, 1.7142857313156],
      "ProtocolName": "dwi_acq-96dir-6b0-mb",
      "RepetitionTime": 4110.0,
      "Rows": 1260,
      "SAR": 0.21783211981146,
      "SamplesPerPixel": 1,
      "ScanOptions": [
        "PFP",
        "FS"
],
      "ScanningSequence": "EP",
      "SequenceVariant": [
        "SK",
        "SS"
],
      "SeriesDescription": "dwi_acq-96dir-6b0-mb",
      "SeriesNumber": 8,
      "SeriesTime": "154122.701000",
      "SliceLocation": -57.165528159636,
      "SliceThickness": 1.7000000476837,
      "SmallestImagePixelValue": 0,
      "SoftwareVersions": "syngo MR E11",
      "SpacingBetweenSlices": 1.6999999753003,
      "SpecificCharacterSet": "ISO_IR 100",
      "StudyID": "1",
      "StudyTime": "152501.926000",
      "TransmitCoilName": "Body",
      "VariableFlipAngleFlag": "N",
      "WindowCenterWidthExplanation": "Algo1"
    },
    "slices": {}
  },
  "time": {
    "samples": {
      "AcquisitionNumber": [1, 2, 3, 4, 5, 6, 7, 8, 9, 10, 11, 12, 13, 14, 15, 16, 17, 18, 19, 20, 21, 22, 23, 24, 25, 26, 27, 28, 29, 30, 31, 32, 33, 34, 35, 36, 37, 38, 39, 40, 41, 42, 43, 44, 45, 46, 47, 48, 49, 50, 51, 52, 53, 54, 55, 56, 57, 58, 59, 60, 61, 62, 63, 64, 65, 66, 67, 68, 69, 70, 71, 72, 73, 74, 75, 76, 77, 78, 79, 80, 81, 82, 83, 84, 85, 86, 87, 88, 89, 90, 91, 92, 93, 94, 95, 96, 97, 98, 99, 100, 101, 102, 103],
      "AcquisitionTime": ["153947.052500", "153951.162500", "153955.272500", "153959.382500", "154003.492500", "154007.602500", "154011.712500", "154015.822500", "154019.932500", "154024.042500", "154028.152500", "154032.262500", "154036.372500", "154040.482500", "154044.592500", "154048.702500", "154052.812500", "154056.922500", "154101.032500", "154105.142500", "154109.252500", "154113.362500", "154117.472500", "154121.582500", "154125.692500", "154129.802500", "154133.912500", "154138.022500", "154142.132500", "154146.242500", "154150.352500", "154154.462500", "154158.572500", "154202.682500", "154206.792500", "154210.902500", "154215.012500", "154219.122500", "154223.232500", "154227.342500", "154231.452500", "154235.562500", "154239.672500", "154243.782500", "154247.892500", "154252.002500", "154256.112500", "154300.222500", "154304.332500", "154308.442500", "154312.552500", "154316.662500", "154320.772500", "154324.882500", "154328.992500", "154333.102500", "154337.212500", "154341.322500", "154345.432500", "154349.542500", "154353.652500", "154357.762500", "154401.872500", "154405.982500", "154410.092500", "154414.202500", "154418.312500", "154422.422500", "154426.532500", "154430.642500", "154434.752500", "154438.862500", "154442.972500", "154447.082500", "154451.192500", "154455.302500", "154459.412500", "154503.522500", "154507.632500", "154511.742500", "154515.852500", "154519.962500", "154524.072500", "154528.182500", "154532.292500", "154536.402500", "154540.512500", "154544.622500", "154548.732500", "154552.842500", "154556.952500", "154601.062500", "154605.172500", "154609.282500", "154613.392500", "154617.502500", "154621.612500", "154625.722500", "154629.832500", "154633.942500", "154638.052500", "154642.162500", "154646.272500"],
      "ContentTime": ["154122.705000", "154122.709000", "154122.712000", "154122.715000", "154122.718000", "154122.727000", "154122.730000", "154122.739000", "154122.742000", "154122.745000", "154122.757000", "154122.760000", "154122.763000", "154122.766000", "154122.769000", "154122.772000", "154122.775000", "154122.778000", "154122.781000", "154122.784000", "154122.787000", "154122.790000", "154122.793000", "154302.699000", "154302.702000", "154302.705000", "154302.708000", "154302.711000", "154302.714000", "154302.717000", "154302.720000", "154302.723000", "154302.726000", "154302.729000", "154302.732000", "154302.735000", "154302.738000", "154302.741000", "154302.744000", "154302.747000", "154302.750000", "154302.753000", "154302.756000", "154302.759000", "154302.762000", "154302.765000", "154302.768000", "154342.700000", "154342.703000", "154342.707000", "154342.710000", "154342.713000", "154342.716000", "154342.719000", "154342.722000", "154342.725000", "154342.728000", "154522.699000", "154522.702000", "154522.705000", "154522.708000", "154522.711000", "154522.714000", "154522.717000", "154522.720000", "154522.723000", "154522.726000", "154522.729000", "154522.732000", "154522.735000", "154522.738000", "154522.741000", "154522.744000", "154522.747000", "154522.750000", "154522.753000", "154522.756000", "154522.759000", "154522.762000", "154522.765000", "154522.768000", "154651.171000", "154651.174000", "154651.177000", "154651.180000", "154651.183000", "154651.186000", "154651.189000", "154651.192000", "154651.195000", "154651.198000", "154651.201000", "154651.204000", "154651.207000", "154651.210000", "154651.213000", "154651.216000", "154651.219000", "154651.223000", "154651.226000", "154651.229000", "154651.232000", "154651.235000"],
      "InstanceCreationTime": ["154122.705000", "154122.709000", "154122.712000", "154122.715000", "154122.718000", "154122.727000", "154122.730000", "154122.739000", "154122.742000", "154122.745000", "154122.757000", "154122.760000", "154122.763000", "154122.766000", "154122.769000", "154122.772000", "154122.775000", "154122.778000", "154122.781000", "154122.784000", "154122.787000", "154122.790000", "154122.793000", "154302.699000", "154302.702000", "154302.705000", "154302.708000", "154302.711000", "154302.714000", "154302.717000", "154302.720000", "154302.723000", "154302.726000", "154302.729000", "154302.732000", "154302.735000", "154302.738000", "154302.741000", "154302.744000", "154302.747000", "154302.750000", "154302.753000", "154302.756000", "154302.759000", "154302.762000", "154302.765000", "154302.768000", "154342.700000", "154342.703000", "154342.707000", "154342.710000", "154342.713000", "154342.716000", "154342.719000", "154342.722000", "154342.725000", "154342.728000", "154522.699000", "154522.702000", "154522.705000", "154522.708000", "154522.711000", "154522.714000", "154522.717000", "154522.720000", "154522.723000", "154522.726000", "154522.729000", "154522.732000", "154522.735000", "154522.738000", "154522.741000", "154522.744000", "154522.747000", "154522.750000", "154522.753000", "154522.756000", "154522.759000", "154522.762000", "154522.765000", "154522.768000", "154651.171000", "154651.174000", "154651.177000", "154651.180000", "154651.183000", "154651.186000", "154651.189000", "154651.192000", "154651.195000", "154651.198000", "154651.201000", "154651.204000", "154651.207000", "154651.210000", "154651.213000", "154651.216000", "154651.219000", "154651.223000", "154651.226000", "154651.229000", "154651.232000", "154651.235000"],
      "InstanceNumber": [1, 2, 3, 4, 5, 6, 7, 8, 9, 10, 11, 12, 13, 14, 15, 16, 17, 18, 19, 20, 21, 22, 23, 24, 25, 26, 27, 28, 29, 30, 31, 32, 33, 34, 35, 36, 37, 38, 39, 40, 41, 42, 43, 44, 45, 46, 47, 48, 49, 50, 51, 52, 53, 54, 55, 56, 57, 58, 59, 60, 61, 62, 63, 64, 65, 66, 67, 68, 69, 70, 71, 72, 73, 74, 75, 76, 77, 78, 79, 80, 81, 82, 83, 84, 85, 86, 87, 88, 89, 90, 91, 92, 93, 94, 95, 96, 97, 98, 99, 100, 101, 102, 103],
      "LargestImagePixelValue": [65535, 65535, 50194, 49349, 55315, 58711, 52874, 54135, 65535, 36291, 40650, 34446, 40528, 34953, 37553, 42279, 35063, 37330, 37547, 36563, 37150, 35254, 36079, 36444, 65535, 18880, 18041, 20552, 19092, 20485, 22609, 17358, 20267, 20119, 18927, 17428, 18610, 18180, 21258, 18647, 65535, 10425, 11172, 10090, 13132, 11105, 10443, 13919, 10757, 10194, 13044, 12864, 8972, 9676, 10445, 9466, 10475, 10102, 11284, 10832, 9437, 9161, 12504, 10540, 10887, 11051, 9888, 11041, 12828, 11847, 10272, 10548, 12429, 65535, 13413, 10218, 11956, 9507, 12817, 10057, 11237, 10602, 12498, 11380, 9640, 9882, 10887, 12760, 12976, 13702, 11186, 9953, 9487, 12031, 10922, 11195, 11444, 9651, 14675, 10285, 10860, 9965, 65535],
      "SequenceName": [
 "ep_b5#1",
 "ep_b5#1",
 "ep_b500#2",
 "ep_b500#3",
 "ep_b500#4",
 "ep_b505#5",
 "ep_b495#6",
 "ep_b500#7",
 "ep_b5#8",
 "ep_b1000#9",
 "ep_b1005#10",
 "ep_b995#11",
 "ep_b1005#12",
 "ep_b995#13",
 "ep_b995#14",
 "ep_b1005#15",
 "ep_b1000#16",
 "ep_b1000#17",
 "ep_b995#18",
 "ep_b1000#19",
 "ep_b995#20",
 "ep_b1000#21",
 "ep_b1005#22",
 "ep_b1005#23",
 "ep_b5#24",
 "ep_b2000#25",
 "ep_b1995#26",
 "ep_b1995#27",
 "ep_b1995#28",
 "ep_b2005#29",
 "ep_b2010#30",
 "ep_b2005#31",
 "ep_b2005#32",
 "ep_b1995#33",
 "ep_b1990#34",
 "ep_b1995#35",
 "ep_b2005#36",
 "ep_b2000#37",
 "ep_b2010#38",
 "ep_b2000#39",
 "ep_b5#40",
 "ep_b3000#41",
 "ep_b3005#42",
 "ep_b3010#43",
 "ep_b3010#44",
 "ep_b3000#45",
 "ep_b3000#46",
 "ep_b2990#47",
 "ep_b3005#48",
 "ep_b3000#49",
 "ep_b2990#50",
 "ep_b2990#51",
 "ep_b2995#52",
 "ep_b2995#53",
 "ep_b3010#54",
 "ep_b3000#55",
 "ep_b2995#56",
 "ep_b3000#57",
 "ep_b2990#58",
 "ep_b2990#59",
 "ep_b3000#60",
 "ep_b2990#61",
 "ep_b2990#62",
 "ep_b2995#63",
 "ep_b3005#64",
 "ep_b3010#65",
 "ep_b3000#66",
 "ep_b3005#67",
 "ep_b3010#68",
 "ep_b3005#69",
 "ep_b3005#70",
 "ep_b3010#71",
 "ep_b2990#72",
 "ep_b5#73",
 "ep_b3010#74",
 "ep_b3000#75",
 "ep_b3005#76",
 "ep_b3005#77",
 "ep_b2995#78",
 "ep_b3005#79",
 "ep_b3000#80",
 "ep_b3010#81",
 "ep_b3010#82",
 "ep_b3005#83",
 "ep_b3000#84",
 "ep_b3005#85",
 "ep_b3010#86",
 "ep_b3010#87",
 "ep_b2990#88",
 "ep_b3010#89",
 "ep_b2995#90",
 "ep_b2995#91",
 "ep_b2995#92",
 "ep_b2995#93",
 "ep_b3005#94",
 "ep_b3005#95",
 "ep_b2995#96",
 "ep_b3000#97",
 "ep_b2990#98",
 "ep_b3000#99",
 "ep_b2995#100",
 "ep_b2995#101",
 "ep_b5#102"
],
      "WindowCenter": [10355.0, 10401.0, 7410.0, 7446.0, 7452.0, 7443.0, 7512.0, 7478.0, 10400.0, 5712.0, 5750.0, 5702.0, 5729.0, 5732.0, 5751.0, 5761.0, 5787.0, 5770.0, 5785.0, 5718.0, 5811.0, 5733.0, 5717.0, 5787.0, 10424.0, 3683.0, 3647.0, 3697.0, 3829.0, 3718.0, 3748.0, 3701.0, 3682.0, 3753.0, 3776.0, 3679.0, 3671.0, 3694.0, 3771.0, 3697.0, 10444.0, 2555.0, 2569.0, 2581.0, 2673.0, 2588.0, 2636.0, 2717.0, 2585.0, 2545.0, 2615.0, 2649.0, 2543.0, 2551.0, 2610.0, 2534.0, 2558.0, 2552.0, 2660.0, 2603.0, 2562.0, 2516.0, 2721.0, 2669.0, 2664.0, 2663.0, 2515.0, 2619.0, 2653.0, 2592.0, 2545.0, 2666.0, 2712.0, 10377.0, 2668.0, 2618.0, 2583.0, 2564.0, 2602.0, 2525.0, 2578.0, 2558.0, 2669.0, 2591.0, 2519.0, 2546.0, 2537.0, 2573.0, 2638.0, 2643.0, 2608.0, 2535.0, 2498.0, 2642.0, 2545.0, 2576.0, 2713.0, 2517.0, 2697.0, 2553.0, 2538.0, 2618.0, 10392.0],
      "WindowWidth": [23238.0, 23385.0, 15687.0, 15760.0, 15741.0, 15756.0, 15901.0, 15806.0, 23378.0, 12204.0, 12290.0, 12194.0, 12238.0, 12269.0, 12294.0, 12290.0, 12355.0, 12324.0, 12330.0, 12211.0, 12400.0, 12246.0, 12228.0, 12347.0, 23483.0, 8274.0, 8214.0, 8303.0, 8543.0, 8335.0, 8391.0, 8318.0, 8275.0, 8402.0, 8458.0, 8279.0, 8259.0, 8294.0, 8436.0, 8301.0, 23512.0, 6124.0, 6115.0, 6164.0, 6296.0, 6176.0, 6281.0, 6400.0, 6151.0, 6110.0, 6177.0, 6253.0, 6135.0, 6136.0, 6226.0, 6097.0, 6133.0, 6105.0, 6304.0, 6186.0, 6153.0, 6041.0, 6422.0, 6361.0, 6338.0, 6324.0, 6046.0, 6242.0, 6284.0, 6186.0, 6114.0, 6348.0, 6402.0, 23300.0, 6285.0, 6235.0, 6145.0, 6163.0, 6156.0, 6060.0, 6154.0, 6096.0, 6326.0, 6180.0, 6067.0, 6114.0, 6043.0, 6099.0, 6245.0, 6232.0, 6223.0, 6057.0, 5998.0, 6278.0, 6084.0, 6148.0, 6420.0, 6056.0, 6344.0, 6110.0, 6080.0, 6267.0, 23363.0]
    },
    "slices": {}
  }
}