{
  "AcquisitionMatrixPE": 82,
  "AcquisitionNumber": 1,
  "AcquisitionTime": "10:58:23.075000",
  "BandwidthPerPixelPhaseEncode": 24.888,
  "BaseResolution": 82,
  "BodyPartExamined": "BRAIN",
  "ConsistencyInfo": "N4_VE11E_LATEST_20181129",
  "ConversionSoftware": "dcm2niix",
  "ConversionSoftwareVersion": "v1.0.20201102",
  "DerivedVendorReportedEchoSpacing": 0.00049,
  "DeviceSerialNumber": "66112",
  "DwellTime": 2e-06,
  "EchoTime": 0.0272,
  "EchoTrainLength": 82,
  "EffectiveEchoSpacing": 0.00049,
  "FlipAngle": 44,
  "ImageComments": "Unaliased MB8/PE3",
  "ImageOrientationPatientDICOM": [0.999273, 0.0169042, 0.0341761, -0.0148256, 0.998077, -0.0601839],
  "ImageType": [
    "ORIGINAL",
    "PRIMARY",
    "M",
    "MB",
    "ND",
    "NORM",
    "MOSAIC"
],
  "ImagingFrequency": 123.252,
  "InPlanePhaseEncodingDirectionDICOM": "COL",
  "InstitutionAddress": "Maynard 3,Hanover,NH,US,03755",
  "InstitutionName": "Dartmouth College - PBS",
  "InstitutionalDepartmentName": "Department",
  "MRAcquisitionType": "2D",
  "MagneticFieldStrength": 3,
  "Manufacturer": "Siemens",
  "ManufacturersModelName": "Prisma",
  "Modality": "MR",
  "MultibandAccelerationFactor": 8,
  "PartialFourier": 1,
  "PatientPosition": "HFS",
  "PercentPhaseFOV": 100,
  "PercentSampling": 100,
  "PhaseEncodingDirection": "j-",
  "PhaseEncodingSteps": 82,
  "PhaseResolution": 1,
  "PixelBandwidth": 3050,
  "ProcedureStepDescription": "Wager_Wager^1076_spacetop",
  "ProtocolName": "func_run-02_task-social_acq-ap-mb8",
  "PulseSequenceDetails": "%CustomerSeq%\\cmrr_mbep2d_bold",
  "ReceiveCoilActiveElements": "HEA;HEP",
  "ReceiveCoilName": "Head_32",
  "ReconMatrixPE": 82,
  "RepetitionTime": 0.46,
  "SAR": 0.104251,
  "ScanOptions": "FS",
  "ScanningSequence": "EP",
  "SequenceName": "epfid2d1_82",
  "SequenceVariant": "SK\\SS",
  "SeriesDescription": "func_run-02_task-social_acq-ap-mb8",
  "SeriesNumber": 14,
  "ShimSetting": [4162, -7732, -7262, 441, -70, -31, 23, 63],
  "SliceThickness": 2.7,
  "SliceTiming": [0, 0.2525, 0.0625, 0.315, 0.125, 0.3775, 0.19, 0, 0.2525, 0.0625, 0.315, 0.125, 0.3775, 0.19, 0, 0.2525, 0.0625, 0.315, 0.125, 0.3775, 0.19, 0, 0.2525, 0.0625, 0.315, 0.125, 0.3775, 0.19, 0, 0.2525, 0.0625, 0.315, 0.125, 0.3775, 0.19, 0, 0.2525, 0.0625, 0.315, 0.125, 0.3775, 0.19, 0, 0.2525, 0.0625, 0.315, 0.125, 0.3775, 0.19, 0, 0.2525, 0.0625, 0.315, 0.125, 0.3775, 0.19],
  "SoftwareVersions": "syngo MR E11",
  "SpacingBetweenSlices": 2.7,
  "StationName": "AWP66112",
  "TaskName": "social",
  "TotalReadoutTime": 0.03969,
  "TxRefAmp": 290.949,
  "WipMemBlock": "cfc84be4-31e8-4a97-ae33-b9c9fa5f0d4d||Sequence: R016 ve11e/master r/434b28f1; Aug  7 2019 18:53:46 by eja",
  "dcmmeta_affine": [
    [-2.680975914001465, -0.03977610915899277, 0.09484487771987915, 110.62857055664062],
    [-0.04535277187824249, 2.6777682304382324, -0.16101045906543732, -82.45999908447266],
    [0.09169194102287292, 0.16146913170814514, 2.693525552749634, -84.77753448486328],
    [0.0, 0.0, 0.0, 1.0]
],
  "dcmmeta_reorient_transform": [
    [0.0, -1.0, 0.0, 81.0],
    [1.0, 0.0, 0.0, 0.0],
    [0.0, 0.0, 1.0, 0.0],
    [0.0, 0.0, 0.0, 1.0]
],
  "dcmmeta_shape": [82, 82, 56, 872],
  "dcmmeta_slice_dim": 2,
  "dcmmeta_version": 0.6,
  "global": {
    "const": {
      "AccessionNumber": "A003867",
      "AcquisitionMatrix": [82, 0, 0, 82],
      "AngioFlag": "N",
      "BitsAllocated": 16,
      "BitsStored": 16,
      "BodyPartExamined": "BRAIN",
      "Columns": 656,
      "EchoNumbers": 1,
      "EchoTime": 27.2,
      "EchoTrainLength": 82,
      "FlipAngle": 44.0,
      "HighBit": 15,
      "ImageOrientationPatient": [0.99927285697693, 0.01690421480463, 0.03417608565946, -0.0148256399521, 0.99807719783481, -0.0601839477122],
      "ImagePositionPatient": [-865.43108422009, -915.97492418349, -51.672483313771],
      "ImageType": [
        "ORIGINAL",
        "PRIMARY",
        "M",
        "MB",
        "ND",
        "NORM",
        "MOSAIC"
],
      "ImagedNucleus": "1H",
      "ImagingFrequency": 123.252192,
      "InPlanePhaseEncodingDirection": "COL",
      "MRAcquisitionType": "2D",
      "MagneticFieldStrength": 3.0,
      "Manufacturer": "SIEMENS",
      "ManufacturerModelName": "Prisma",
      "Modality": "MR",
      "NumberOfAverages": 1.0,
      "NumberOfPhaseEncodingSteps": 82,
      "PercentPhaseFieldOfView": 100.0,
      "PercentSampling": 100.0,
      "PerformedProcedureStepStartTime": "101212.250000",
      "PhotometricInterpretation": "MONOCHROME2",
      "PixelBandwidth": 3050.0,
      "PixelRepresentation": 0,
      "PixelSpacing": [2.6829268932343, 2.6829268932343],
      "ProtocolName": "func_run-02_task-social_acq-ap-mb8",
      "RepetitionTime": 460.0,
      "Rows": 656,
      "SAR": 0.10425108898289,
      "SamplesPerPixel": 1,
      "ScanOptions": "FS",
      "ScanningSequence": "EP",
      "SequenceName": "epfid2d1_82",
      "SequenceVariant": [
        "SK",
        "SS"
],
      "SeriesDescription": "func_run-02_task-social_acq-ap-mb8",
      "SeriesNumber": 14,
      "SeriesTime": "105841.639000",
      "SliceLocation": -75.770736587635,
      "SliceThickness": 2.7000000476837,
      "SmallestImagePixelValue": 0,
      "SoftwareVersions": "syngo MR E11",
      "SpacingBetweenSlices": 2.6999999718286,
      "SpecificCharacterSet": "ISO_IR 100",
      "StudyID": "1",
      "StudyTime": "101212.185000",
      "TransmitCoilName": "Body",
      "VariableFlipAngleFlag": "N",
      "WindowCenterWidthExplanation": "Algo1"
    },
    "slices": {}
  },
  "time": {
    "samples": {
      "AcquisitionNumber": [1, 2, 3, 4, 5, 6, 7, 8, 9, 10, 11, 12, 13, 14, 15, 16, 17, 18, 19, 20, 21, 22, 23, 24, 25, 26, 27, 28, 29, 30, 31, 32, 33, 34, 35, 36, 37, 38, 39, 40, 41, 42, 43, 44, 45, 46, 47, 48, 49, 50, 51, 52, 53, 54, 55, 56, 57, 58, 59, 60, 61, 62, 63, 64, 65, 66, 67, 68, 69, 70, 71, 72, 73, 74, 75, 76, 77, 78, 79, 80, 81, 82, 83, 84, 85, 86, 87, 88, 89, 90, 91, 92, 93, 94, 95, 96, 97, 98, 99, 100, 101, 102, 103, 104, 105, 106, 107, 108, 109, 110, 111, 112, 113, 114, 115, 116, 117, 118, 119, 120, 121, 122, 123, 124, 125, 126, 127, 128, 129, 130, 131, 132, 133, 134, 135, 136, 137, 138, 139, 140, 141, 142, 143, 144, 145, 146, 147, 148, 149, 150, 151, 152, 153, 154, 155, 156, 157, 158, 159, 160, 161, 162, 163, 164, 165, 166, 167, 168, 169, 170, 171, 172, 173, 174, 175, 176, 177, 178, 179, 180, 181, 182, 183, 184, 185, 186, 187, 188, 189, 190, 191, 192, 193, 194, 195, 196, 197, 198, 199, 200, 201, 202, 203, 204, 205, 206, 207, 208, 209, 210, 211, 212, 213, 214, 215, 216, 217, 218, 219, 220, 221, 222, 223, 224, 225, 226, 227, 228, 229, 230, 231, 232, 233, 234, 235, 236, 237, 238, 239, 240, 241, 242, 243, 244, 245, 246, 247, 248, 249, 250, 251, 252, 253, 254, 255, 256, 257, 258, 259, 260, 261, 262, 263, 264, 265, 266, 267, 268, 269, 270, 271, 272, 273, 274, 275, 276, 277, 278, 279, 280, 281, 282, 283, 284, 285, 286, 287, 288, 289, 290, 291, 292, 293, 294, 295, 296, 297, 298, 299, 300, 301, 302, 303, 304, 305, 306, 307, 308, 309, 310, 311, 312, 313, 314, 315, 316, 317, 318, 319, 320, 321, 322, 323, 324, 325, 326, 327, 328, 329, 330, 331, 332, 333, 334, 335, 336, 337, 338, 339, 340, 341, 342, 343, 344, 345, 346, 347, 348, 349, 350, 351, 352, 353, 354, 355, 356, 357, 358, 359, 360, 361, 362, 363, 364, 365, 366, 367, 368, 369, 370, 371, 372, 373, 374, 375, 376, 377, 378, 379, 380, 381, 382, 383, 384, 385, 386, 387, 388, 389, 390, 391, 392, 393, 394, 395, 396, 397, 398, 399, 400, 401, 402, 403, 404, 405, 406, 407, 408, 409, 410, 411, 412, 413, 414, 415, 416, 417, 418, 419, 420, 421, 422, 423, 424, 425, 426, 427, 428, 429, 430, 431, 432, 433, 434, 435, 436, 437, 438, 439, 440, 441, 442, 443, 444, 445, 446, 447, 448, 449, 450, 451, 452, 453, 454, 455, 456, 457, 458, 459, 460, 461, 462, 463, 464, 465, 466, 467, 468, 469, 470, 471, 472, 473, 474, 475, 476, 477, 478, 479, 480, 481, 482, 483, 484, 485, 486, 487, 488, 489, 490, 491, 492, 493, 494, 495, 496, 497, 498, 499, 500, 501, 502, 503, 504, 505, 506, 507, 508, 509, 510, 511, 512, 513, 514, 515, 516, 517, 518, 519, 520, 521, 522, 523, 524, 525, 526, 527, 528, 529, 530, 531, 532, 533, 534, 535, 536, 537, 538, 539, 540, 541, 542, 543, 544, 545, 546, 547, 548, 549, 550, 551, 552, 553, 554, 555, 556, 557, 558, 559, 560, 561, 562, 563, 564, 565, 566, 567, 568, 569, 570, 571, 572, 573, 574, 575, 576, 577, 578, 579, 580, 581, 582, 583, 584, 585, 586, 587, 588, 589, 590, 591, 592, 593, 594, 595, 596, 597, 598, 599, 600, 601, 602, 603, 604, 605, 606, 607, 608, 609, 610, 611, 612, 613, 614, 615, 616, 617, 618, 619, 620, 621, 622, 623, 624, 625, 626, 627, 628, 629, 630, 631, 632, 633, 634, 635, 636, 637, 638, 639, 640, 641, 642, 643, 644, 645, 646, 647, 648, 649, 650, 651, 652, 653, 654, 655, 656, 657, 658, 659, 660, 661, 662, 663, 664, 665, 666, 667, 668, 669, 670, 671, 672, 673, 674, 675, 676, 677, 678, 679, 680, 681, 682, 683, 684, 685, 686, 687, 688, 689, 690, 691, 692, 693, 694, 695, 696, 697, 698, 699, 700, 701, 702, 703, 704, 705, 706, 707, 708, 709, 710, 711, 712, 713, 714, 715, 716, 717, 718, 719, 720, 721, 722, 723, 724, 725, 726, 727, 728, 729, 730, 731, 732, 733, 734, 735, 736, 737, 738, 739, 740, 741, 742, 743, 744, 745, 746, 747, 748, 749, 750, 751, 752, 753, 754, 755, 756, 757, 758, 759, 760, 761, 762, 763, 764, 765, 766, 767, 768, 769, 770, 771, 772, 773, 774, 775, 776, 777, 778, 779, 780, 781, 782, 783, 784, 785, 786, 787, 788, 789, 790, 791, 792, 793, 794, 795, 796, 797, 798, 799, 800, 801, 802, 803, 804, 805, 806, 807, 808, 809, 810, 811, 812, 813, 814, 815, 816, 817, 818, 819, 820, 821, 822, 823, 824, 825, 826, 827, 828, 829, 830, 831, 832, 833, 834, 835, 836, 837, 838, 839, 840, 841, 842, 843, 844, 845, 846, 847, 848, 849, 850, 851, 852, 853, 854, 855, 856, 857, 858, 859, 860, 861, 862, 863, 864, 865, 866, 867, 868, 869, 870, 871, 872],
      "AcquisitionTime": ["105823.075000", "105823.535000", "105823.995000", "105824.455000", "105824.915000", "105825.375000", "105825.835000", "105826.295000", "105826.755000", "105827.215000", "105827.675000", "105828.135000", "105828.595000", "105829.055000", "105829.515000", "105829.975000", "105830.435000", "105830.895000", "105831.355000", "105831.815000", "105832.275000", "105832.735000", "105833.195000", "105833.655000", "105834.115000", "105834.575000", "105835.035000", "105835.495000", "105835.955000", "105836.415000", "105836.875000", "105837.335000", "105837.795000", "105838.255000", "105838.715000", "105839.175000", "105839.635000", "105840.095000", "105840.555000", "105841.015000", "105841.475000", "105841.935000", "105842.395000", "105842.855000", "105843.315000", "105843.775000", "105844.235000", "105844.695000", "105845.155000", "105845.615000", "105846.075000", "105846.535000", "105846.995000", "105847.455000", "105847.915000", "105848.375000", "105848.835000", "105849.295000", "105849.755000", "105850.215000", "105850.675000", "105851.135000", "105851.595000", "105852.055000", "105852.515000", "105852.975000", "105853.435000", "105853.895000", "105854.355000", "105854.815000", "105855.275000", "105855.735000", "105856.195000", "105856.655000", "105857.115000", "105857.575000", "105858.035000", "105858.495000", "105858.955000", "105859.415000", "105859.875000", "105900.335000", "105900.795000", "105901.255000", "105901.715000", "105902.175000", "105902.635000", "105903.095000", "105903.555000", "105904.015000", "105904.475000", "105904.935000", "105905.395000", "105905.855000", "105906.315000", "105906.775000", "105907.235000", "105907.695000", "105908.155000", "105908.615000", "105909.075000", "105909.535000", "105909.995000", "105910.455000", "105910.915000", "105911.375000", "105911.835000", "105912.295000", "105912.755000", "105913.215000", "105913.675000", "105914.135000", "105914.595000", "105915.055000", "105915.515000", "105915.975000", "105916.435000", "105916.895000", "105917.355000", "105917.815000", "105918.275000", "105918.735000", "105919.195000", "105919.655000", "105920.115000", "105920.575000", "105921.035000", "105921.495000", "105921.955000", "105922.415000", "105922.875000", "105923.335000", "105923.795000", "105924.255000", "105924.715000", "105925.175000", "105925.635000", "105926.095000", "105926.555000", "105927.015000", "105927.475000", "105927.935000", "105928.395000", "105928.855000", "105929.315000", "105929.775000", "105930.235000", "105930.695000", "105931.155000", "105931.615000", "105932.075000", "105932.535000", "105932.995000", "105933.455000", "105933.915000", "105934.375000", "105934.835000", "105935.295000", "105935.755000", "105936.215000", "105936.675000", "105937.135000", "105937.595000", "105938.055000", "105938.515000", "105938.975000", "105939.435000", "105939.895000", "105940.355000", "105940.815000", "105941.275000", "105941.735000", "105942.195000", "105942.655000", "105943.115000", "105943.575000", "105944.035000", "105944.495000", "105944.955000", "105945.415000", "105945.875000", "105946.335000", "105946.795000", "105947.255000", "105947.715000", "105948.175000", "105948.635000", "105949.095000", "105949.555000", "105950.015000", "105950.475000", "105950.935000", "105951.395000", "105951.855000", "105952.315000", "105952.775000", "105953.235000", "105953.695000", "105954.155000", "105954.615000", "105955.075000", "105955.535000", "105955.995000", "105956.455000", "105956.915000", "105957.375000", "105957.835000", "105958.295000", "105958.755000", "105959.215000", "105959.675000", "110000.135000", "110000.595000", "110001.055000", "110001.515000", "110001.975000", "110002.435000", "110002.895000", "110003.355000", "110003.815000", "110004.275000", "110004.735000", "110005.195000", "110005.655000", "110006.115000", "110006.575000", "110007.035000", "110007.495000", "110007.955000", "110008.415000", "110008.875000", "110009.335000", "110009.795000", "110010.255000", "110010.715000", "110011.175000", "110011.635000", "110012.095000", "110012.555000", "110013.015000", "110013.475000", "110013.935000", "110014.395000", "110014.855000", "110015.315000", "110015.775000", "110016.235000", "110016.695000", "110017.155000", "110017.615000", "110018.075000", "110018.535000", "110018.995000", "110019.455000", "110019.915000", "110020.375000", "110020.835000", "110021.295000", "110021.755000", "110022.215000", "110022.675000", "110023.135000", "110023.595000", "110024.055000", "110024.515000", "110024.975000", "110025.435000", "110025.895000", "110026.355000", "110026.815000", "110027.275000", "110027.735000", "110028.195000", "110028.655000", "110029.115000", "110029.575000", "110030.035000", "110030.495000", "110030.955000", "110031.415000", "110031.875000", "110032.335000", "110032.795000", "110033.255000", "110033.715000", "110034.175000", "110034.635000", "110035.095000", "110035.555000", "110036.015000", "110036.475000", "110036.935000", "110037.395000", "110037.855000", "110038.315000", "110038.775000", "110039.235000", "110039.695000", "110040.155000", "110040.615000", "110041.075000", "110041.535000", "110041.995000", "110042.455000", "110042.915000", "110043.375000", "110043.835000", "110044.295000", "110044.755000", "110045.215000", "110045.675000", "110046.135000", "110046.595000", "110047.055000", "110047.515000", "110047.975000", "110048.435000", "110048.895000", "110049.355000", "110049.815000", "110050.275000", "110050.735000", "110051.195000", "110051.655000", "110052.115000", "110052.575000", "110053.035000", "110053.495000", "110053.955000", "110054.415000", "110054.875000", "110055.335000", "110055.795000", "110056.255000", "110056.715000", "110057.175000", "110057.635000", "110058.095000", "110058.555000", "110059.015000", "110059.475000", "110059.935000", "110100.395000", "110100.855000", "110101.315000", "110101.775000", "110102.235000", "110102.695000", "110103.155000", "110103.615000", "110104.075000", "110104.535000", "110104.995000", "110105.455000", "110105.915000", "110106.375000", "110106.835000", "110107.295000", "110107.755000", "110108.215000", "110108.675000", "110109.135000", "110109.595000", "110110.055000", "110110.515000", "110110.975000", "110111.435000", "110111.895000", "110112.355000", "110112.815000", "110113.275000", "110113.735000", "110114.195000", "110114.655000", "110115.115000", "110115.575000", "110116.035000", "110116.495000", "110116.955000", "110117.415000", "110117.875000", "110118.335000", "110118.795000", "110119.255000", "110119.715000", "110120.175000", "110120.635000", "110121.095000", "110121.555000", "110122.015000", "110122.475000", "110122.935000", "110123.395000", "110123.855000", "110124.315000", "110124.775000", "110125.235000", "110125.695000", "110126.155000", "110126.615000", "110127.075000", "110127.535000", "110127.995000", "110128.455000", "110128.915000", "110129.375000", "110129.835000", "110130.295000", "110130.755000", "110131.215000", "110131.675000", "110132.135000", "110132.595000", "110133.055000", "110133.515000", "110133.975000", "110134.435000", "110134.895000", "110135.355000", "110135.815000", "110136.275000", "110136.735000", "110137.195000", "110137.655000", "110138.115000", "110138.575000", "110139.035000", "110139.495000", "110139.955000", "110140.415000", "110140.875000", "110141.335000", "110141.795000", "110142.255000", "110142.715000", "110143.175000", "110143.635000", "110144.095000", "110144.555000", "110145.015000", "110145.475000", "110145.935000", "110146.395000", "110146.855000", "110147.315000", "110147.775000", "110148.235000", "110148.695000", "110149.155000", "110149.615000", "110150.075000", "110150.535000", "110150.995000", "110151.455000", "110151.915000", "110152.375000", "110152.835000", "110153.295000", "110153.755000", "110154.215000", "110154.675000", "110155.135000", "110155.595000", "110156.055000", "110156.515000", "110156.975000", "110157.435000", "110157.895000", "110158.355000", "110158.815000", "110159.275000", "110159.735000", "110200.195000", "110200.655000", "110201.115000", "110201.575000", "110202.035000", "110202.495000", "110202.955000", "110203.415000", "110203.875000", "110204.335000", "110204.795000", "110205.255000", "110205.715000", "110206.175000", "110206.635000", "110207.095000", "110207.555000", "110208.015000", "110208.475000", "110208.935000", "110209.395000", "110209.855000", "110210.315000", "110210.775000", "110211.235000", "110211.695000", "110212.155000", "110212.615000", "110213.075000", "110213.535000", "110213.995000", "110214.455000", "110214.915000", "110215.375000", "110215.835000", "110216.295000", "110216.755000", "110217.215000", "110217.675000", "110218.135000", "110218.595000", "110219.055000", "110219.515000", "110219.975000", "110220.435000", "110220.895000", "110221.355000", "110221.815000", "110222.275000", "110222.735000", "110223.195000", "110223.655000", "110224.115000", "110224.575000", "110225.035000", "110225.495000", "110225.955000", "110226.415000", "110226.875000", "110227.335000", "110227.795000", "110228.255000", "110228.715000", "110229.175000", "110229.635000", "110230.095000", "110230.555000", "110231.015000", "110231.475000", "110231.935000", "110232.395000", "110232.855000", "110233.315000", "110233.775000", "110234.235000", "110234.695000", "110235.155000", "110235.615000", "110236.075000", "110236.535000", "110236.995000", "110237.455000", "110237.915000", "110238.375000", "110238.835000", "110239.295000", "110239.755000", "110240.215000", "110240.675000", "110241.135000", "110241.595000", "110242.055000", "110242.515000", "110242.975000", "110243.435000", "110243.895000", "110244.355000", "110244.815000", "110245.275000", "110245.735000", "110246.195000", "110246.655000", "110247.115000", "110247.575000", "110248.035000", "110248.495000", "110248.955000", "110249.415000", "110249.875000", "110250.335000", "110250.795000", "110251.255000", "110251.715000", "110252.175000", "110252.635000", "110253.095000", "110253.555000", "110254.015000", "110254.475000", "110254.935000", "110255.395000", "110255.855000", "110256.315000", "110256.775000", "110257.235000", "110257.695000", "110258.155000", "110258.615000", "110259.075000", "110259.535000", "110259.995000", "110300.455000", "110300.915000", "110301.375000", "110301.835000", "110302.295000", "110302.755000", "110303.215000", "110303.675000", "110304.135000", "110304.595000", "110305.055000", "110305.515000", "110305.975000", "110306.435000", "110306.895000", "110307.355000", "110307.815000", "110308.275000", "110308.735000", "110309.195000", "110309.655000", "110310.115000", "110310.575000", "110311.035000", "110311.495000", "110311.955000", "110312.415000", "110312.875000", "110313.335000", "110313.795000", "110314.255000", "110314.715000", "110315.175000", "110315.635000", "110316.095000", "110316.555000", "110317.015000", "110317.475000", "110317.935000", "110318.395000", "110318.855000", "110319.315000", "110319.775000", "110320.235000", "110320.695000", "110321.155000", "110321.615000", "110322.075000", "110322.535000", "110322.995000", "110323.455000", "110323.915000", "110324.375000", "110324.835000", "110325.295000", "110325.755000", "110326.215000", "110326.675000", "110327.135000", "110327.595000", "110328.055000", "110328.515000", "110328.975000", "110329.435000", "110329.895000", "110330.355000", "110330.815000", "110331.275000", "110331.735000", "110332.195000", "110332.655000", "110333.115000", "110333.575000", "110334.035000", "110334.495000", "110334.955000", "110335.415000", "110335.875000", "110336.335000", "110336.795000", "110337.255000", "110337.715000", "110338.175000", "110338.635000", "110339.095000", "110339.555000", "110340.015000", "110340.475000", "110340.935000", "110341.395000", "110341.855000", "110342.315000", "110342.775000", "110343.235000", "110343.695000", "110344.155000", "110344.615000", "110345.075000", "110345.535000", "110345.995000", "110346.455000", "110346.915000", "110347.375000", "110347.835000", "110348.295000", "110348.755000", "110349.215000", "110349.675000", "110350.135000", "110350.595000", "110351.055000", "110351.515000", "110351.975000", "110352.435000", "110352.895000", "110353.355000", "110353.815000", "110354.275000", "110354.735000", "110355.195000", "110355.655000", "110356.115000", "110356.575000", "110357.035000", "110357.495000", "110357.955000", "110358.415000", "110358.875000", "110359.335000", "110359.795000", "110400.255000", "110400.715000", "110401.175000", "110401.635000", "110402.095000", "110402.555000", "110403.015000", "110403.475000", "110403.935000", "110404.395000", "110404.855000", "110405.315000", "110405.775000", "110406.235000", "110406.695000", "110407.155000", "110407.615000", "110408.075000", "110408.535000", "110408.995000", "110409.455000", "110409.915000", "110410.375000", "110410.835000", "110411.295000", "110411.755000", "110412.215000", "110412.675000", "110413.135000", "110413.595000", "110414.055000", "110414.515000", "110414.975000", "110415.435000", "110415.895000", "110416.355000", "110416.815000", "110417.275000", "110417.735000", "110418.195000", "110418.655000", "110419.115000", "110419.575000", "110420.035000", "110420.495000", "110420.955000", "110421.415000", "110421.875000", "110422.335000", "110422.795000", "110423.255000", "110423.715000", "110424.175000", "110424.635000", "110425.095000", "110425.555000", "110426.015000", "110426.475000", "110426.935000", "110427.395000", "110427.855000", "110428.315000", "110428.775000", "110429.235000", "110429.695000", "110430.155000", "110430.615000", "110431.075000", "110431.535000", "110431.995000", "110432.455000", "110432.915000", "110433.375000", "110433.835000", "110434.295000", "110434.755000", "110435.215000", "110435.675000", "110436.135000", "110436.595000", "110437.055000", "110437.515000", "110437.975000", "110438.435000", "110438.895000", "110439.355000", "110439.815000", "110440.275000", "110440.735000", "110441.195000", "110441.655000", "110442.115000", "110442.575000", "110443.035000", "110443.495000", "110443.955000", "110444.415000", "110444.875000", "110445.335000", "110445.795000", "110446.255000", "110446.715000", "110447.175000", "110447.635000", "110448.095000", "110448.555000", "110449.015000", "110449.475000", "110449.935000", "110450.395000", "110450.855000", "110451.315000", "110451.775000", "110452.235000", "110452.695000", "110453.155000", "110453.615000", "110454.075000", "110454.535000", "110454.995000", "110455.455000", "110455.915000", "110456.375000", "110456.835000", "110457.295000", "110457.755000", "110458.215000", "110458.675000", "110459.135000", "110459.595000", "110500.055000", "110500.515000", "110500.975000", "110501.435000", "110501.895000", "110502.355000", "110502.815000", "110503.275000", "110503.735000"],
