{
  "AcquisitionMatrixPE": 82,
  "AcquisitionNumber": 1,
  "AcquisitionTime": "11:48:22.885000",
  "BandwidthPerPixelPhaseEncode": 24.888,
  "BaseResolution": 82,
  "BodyPartExamined": "BRAIN",
  "ConsistencyInfo": "N4_VE11E_LATEST_20181129",
  "ConversionSoftware": "dcm2niix",
  "ConversionSoftwareVersion": "v1.0.20201102",
  "DerivedVendorReportedEchoSpacing": 0.00049,
  "DeviceSerialNumber": "66112",
  "DwellTime": 2e-06,
  "EchoTime": 0.0272,
  "EchoTrainLength": 82,
  "EffectiveEchoSpacing": 0.00049,
  "FlipAngle": 44,
  "ImageComments": "Unaliased MB8/PE3",
  "ImageOrientationPatientDICOM": [0.998792, 0.0444863, 0.0208865, -0.0423857, 0.994851, -0.09206],
  "ImageType": [
    "ORIGINAL",
    "PRIMARY",
    "M",
    "MB",
    "ND",
    "NORM",
    "MOSAIC"
],
  "ImagingFrequency": 123.252,
  "InPlanePhaseEncodingDirectionDICOM": "COL",
  "InstitutionAddress": "Maynard 3,Hanover,NH,US,03755",
  "InstitutionName": "Dartmouth College - PBS",
  "InstitutionalDepartmentName": "Department",
  "MRAcquisitionType": "2D",
  "MagneticFieldStrength": 3,
  "Manufacturer": "Siemens",
  "ManufacturersModelName": "Prisma",
  "Modality": "MR",
  "MultibandAccelerationFactor": 8,
  "PartialFourier": 1,
  "PatientPosition": "HFS",
  "PercentPhaseFOV": 100,
  "PercentSampling": 100,
  "PhaseEncodingDirection": "j-",
  "PhaseEncodingSteps": 82,
  "PhaseResolution": 1,
  "PixelBandwidth": 3050,
  "ProcedureStepDescription": "Wager_Wager^1076_spacetop",
  "ProtocolName": "func_run-02_task-alignvideo_acq-ap-mb8",
  "PulseSequenceDetails": "%CustomerSeq%\\cmrr_mbep2d_bold",
  "ReceiveCoilActiveElements": "HEA;HEP",
  "ReceiveCoilName": "Head_32",
  "ReconMatrixPE": 82,
  "RepetitionTime": 0.46,
  "SAR": 0.104289,
  "ScanOptions": "FS",
  "ScanningSequence": "EP",
  "SequenceName": "epfid2d1_82",
  "SequenceVariant": "SK\\SS",
  "SeriesDescription": "func_run-02_task-alignvideo_acq-ap-mb8",
  "SeriesNumber": 32,
  "ShimSetting": [4160, -7738, -7256, 418, -83, -119, 50, 56],
  "SliceThickness": 2.7,
  "SliceTiming": [0, 0.25, 0.0625, 0.3125, 0.125, 0.3775, 0.1875, 0, 0.25, 0.0625, 0.3125, 0.125, 0.3775, 0.1875, 0, 0.25, 0.0625, 0.3125, 0.125, 0.3775, 0.1875, 0, 0.25, 0.0625, 0.3125, 0.125, 0.3775, 0.1875, 0, 0.25, 0.0625, 0.3125, 0.125, 0.3775, 0.1875, 0, 0.25, 0.0625, 0.3125, 0.125, 0.3775, 0.1875, 0, 0.25, 0.0625, 0.3125, 0.125, 0.3775, 0.1875, 0, 0.25, 0.0625, 0.3125, 0.125, 0.3775, 0.1875],
  "SoftwareVersions": "syngo MR E11",
  "SpacingBetweenSlices": 2.7,
  "StationName": "AWP66112",
  "TaskName": "alignvideo",
  "TotalReadoutTime": 0.03969,
  "TxRefAmp": 290.949,
  "WipMemBlock": "5b8fd313-e661-4ebd-8f30-0f2ac18aa5d3||Sequence: R016 ve11e/master r/434b28f1; Aug  7 2019 18:53:46 by eja",
  "dcmmeta_affine": [
    [-2.67968487739563, -0.11371763050556183, 0.06716083735227585, 113.34342956542969],
    [-0.11935354024171829, 2.66911244392395, -0.2458714097738266, -78.20519256591797],
    [0.05603700131177902, 0.24699029326438904, 2.6879427433013916, -105.9883804321289],
    [0.0, 0.0, 0.0, 1.0]
],
  "dcmmeta_reorient_transform": [
    [0.0, -1.0, 0.0, 81.0],
    [1.0, 0.0, 0.0, 0.0],
    [0.0, 0.0, 1.0, 0.0],
    [0.0, 0.0, 0.0, 1.0]
],
  "dcmmeta_shape": [82, 82, 56, 926],
  "dcmmeta_slice_dim": 2,
  "dcmmeta_version": 0.6,
  "global": {
    "const": {
      "AccessionNumber": "A003867",
      "AcquisitionMatrix": [82, 0, 0, 82],
      "AngioFlag": "N",
      "BitsAllocated": 16,
      "BitsStored": 16,
      "BodyPartExamined": "BRAIN",
      "Columns": 656,
      "EchoNumbers": 1,
      "EchoTime": 27.2,
      "EchoTrainLength": 82,
      "FlipAngle": 44.0,
      "HighBit": 15,
      "ImageOrientationPatient": [0.99879163033687, 0.0444863181599, 0.02088651875243, -0.0423856601366, 0.99485094839714, -0.0920600145997],
      "ImagePositionPatient": [-840.5649184528, -938.28262219301, -31.17857094041],
      "ImageType": [
        "ORIGINAL",
        "PRIMARY",
        "M",
        "MB",
        "ND",
        "NORM",
        "MOSAIC"
],
      "ImagedNucleus": "1H",
      "ImagingFrequency": 123.252214,
      "InPlanePhaseEncodingDirection": "COL",
      "MRAcquisitionType": "2D",
      "MagneticFieldStrength": 3.0,
      "Manufacturer": "SIEMENS",
      "ManufacturerModelName": "Prisma",
      "Modality": "MR",
      "NumberOfAverages": 1.0,
      "NumberOfPhaseEncodingSteps": 82,
      "PercentPhaseFieldOfView": 100.0,
      "PercentSampling": 100.0,
      "PerformedProcedureStepStartTime": "101212.250000",
      "PhotometricInterpretation": "MONOCHROME2",
      "PixelBandwidth": 3050.0,
      "PixelRepresentation": 0,
      "PixelSpacing": [2.6829268932343, 2.6829268932343],
      "ProtocolName": "func_run-02_task-alignvideo_acq-ap-mb8",
      "RepetitionTime": 460.0,
      "Rows": 656,
      "SAR": 0.10428885800925,
      "SamplesPerPixel": 1,
      "ScanOptions": "FS",
      "ScanningSequence": "EP",
      "SequenceName": "epfid2d1_82",
      "SequenceVariant": [
        "SK",
        "SS"
],
      "SeriesDescription": "func_run-02_task-alignvideo_acq-ap-mb8",
      "SeriesNumber": 32,
      "SeriesTime": "114841.639000",
      "SliceLocation": -95.574088529398,
      "SliceThickness": 2.7000000476837,
      "SmallestImagePixelValue": 0,
      "SoftwareVersions": "syngo MR E11",
      "SpacingBetweenSlices": 2.7000000203026,
      "SpecificCharacterSet": "ISO_IR 100",
      "StudyID": "1",
      "StudyTime": "101212.185000",
      "TransmitCoilName": "Body",
      "VariableFlipAngleFlag": "N",
      "WindowCenterWidthExplanation": "Algo1"
    },
    "slices": {}
  },
  "time": {
    "samples": {
      "AcquisitionNumber": [1, 2, 3, 4, 5, 6, 7, 8, 9, 10, 11, 12, 13, 14, 15, 16, 17, 18, 19, 20, 21, 22, 23, 24, 25, 26, 27, 28, 29, 30, 31, 32, 33, 34, 35, 36, 37, 38, 39, 40, 41, 42, 43, 44, 45, 46, 47, 48, 49, 50, 51, 52, 53, 54, 55, 56, 57, 58, 59, 60, 61, 62, 63, 64, 65, 66, 67, 68, 69, 70, 71, 72, 73, 74, 75, 76, 77, 78, 79, 80, 81, 82, 83, 84, 85, 86, 87, 88, 89, 90, 91, 92, 93, 94, 95, 96, 97, 98, 99, 100, 101, 102, 103, 104, 105, 106, 107, 108, 109, 110, 111, 112, 113, 114, 115, 116, 117, 118, 119, 120, 121, 122, 123, 124, 125, 126, 127, 128, 129, 130, 131, 132, 133, 134, 135, 136, 137, 138, 139, 140, 141, 142, 143, 144, 145, 146, 147, 148, 149, 150, 151, 152, 153, 154, 155, 156, 157, 158, 159, 160, 161, 162, 163, 164, 165, 166, 167, 168, 169, 170, 171, 172, 173, 174, 175, 176, 177, 178, 179, 180, 181, 182, 183, 184, 185, 186, 187, 188, 189, 190, 191, 192, 193, 194, 195, 196, 197, 198, 199, 200, 201, 202, 203, 204, 205, 206, 207, 208, 209, 210, 211, 212, 213, 214, 215, 216, 217, 218, 219, 220, 221, 222, 223, 224, 225, 226, 227, 228, 229, 230, 231, 232, 233, 234, 235, 236, 237, 238, 239, 240, 241, 242, 243, 244, 245, 246, 247, 248, 249, 250, 251, 252, 253, 254, 255, 256, 257, 258, 259, 260, 261, 262, 263, 264, 265, 266, 267, 268, 269, 270, 271, 272, 273, 274, 275, 276, 277, 278, 279, 280, 281, 282, 283, 284, 285, 286, 287, 288, 289, 290, 291, 292, 293, 294, 295, 296, 297, 298, 299, 300, 301, 302, 303, 304, 305, 306, 307, 308, 309, 310, 311, 312, 313, 314, 315, 316, 317, 318, 319, 320, 321, 322, 323, 324, 325, 326, 327, 328, 329, 330, 331, 332, 333, 334, 335, 336, 337, 338, 339, 340, 341, 342, 343, 344, 345, 346, 347, 348, 349, 350, 351, 352, 353, 354, 355, 356, 357, 358, 359, 360, 361, 362, 363, 364, 365, 366, 367, 368, 369, 370, 371, 372, 373, 374, 375, 376, 377, 378, 379, 380, 381, 382, 383, 384, 385, 386, 387, 388, 389, 390, 391, 392, 393, 394, 395, 396, 397, 398, 399, 400, 401, 402, 403, 404, 405, 406, 407, 408, 409, 410, 411, 412, 413, 414, 415, 416, 417, 418, 419, 420, 421, 422, 423, 424, 425, 426, 427, 428, 429, 430, 431, 432, 433, 434, 435, 436, 437, 438, 439, 440, 441, 442, 443, 444, 445, 446, 447, 448, 449, 450, 451, 452, 453, 454, 455, 456, 457, 458, 459, 460, 461, 462, 463, 464, 465, 466, 467, 468, 469, 470, 471, 472, 473, 474, 475, 476, 477, 478, 479, 480, 481, 482, 483, 484, 485, 486, 487, 488, 489, 490, 491, 492, 493, 494, 495, 496, 497, 498, 499, 500, 501, 502, 503, 504, 505, 506, 507, 508, 509, 510, 511, 512, 513, 514, 515, 516, 517, 518, 519, 520, 521, 522, 523, 524, 525, 526, 527, 528, 529, 530, 531, 532, 533, 534, 535, 536, 537, 538, 539, 540, 541, 542, 543, 544, 545, 546, 547, 548, 549, 550, 551, 552, 553, 554, 555, 556, 557, 558, 559, 560, 561, 562, 563, 564, 565, 566, 567, 568, 569, 570, 571, 572, 573, 574, 575, 576, 577, 578, 579, 580, 581, 582, 583, 584, 585, 586, 587, 588, 589, 590, 591, 592, 593, 594, 595, 596, 597, 598, 599, 600, 601, 602, 603, 604, 605, 606, 607, 608, 609, 610, 611, 612, 613, 614, 615, 616, 617, 618, 619, 620, 621, 622, 623, 624, 625, 626, 627, 628, 629, 630, 631, 632, 633, 634, 635, 636, 637, 638, 639, 640, 641, 642, 643, 644, 645, 646, 647, 648, 649, 650, 651, 652, 653, 654, 655, 656, 657, 658, 659, 660, 661, 662, 663, 664, 665, 666, 667, 668, 669, 670, 671, 672, 673, 674, 675, 676, 677, 678, 679, 680, 681, 682, 683, 684, 685, 686, 687, 688, 689, 690, 691, 692, 693, 694, 695, 696, 697, 698, 699, 700, 701, 702, 703, 704, 705, 706, 707, 708, 709, 710, 711, 712, 713, 714, 715, 716, 717, 718, 719, 720, 721, 722, 723, 724, 725, 726, 727, 728, 729, 730, 731, 732, 733, 734, 735, 736, 737, 738, 739, 740, 741, 742, 743, 744, 745, 746, 747, 748, 749, 750, 751, 752, 753, 754, 755, 756, 757, 758, 759, 760, 761, 762, 763, 764, 765, 766, 767, 768, 769, 770, 771, 772, 773, 774, 775, 776, 777, 778, 779, 780, 781, 782, 783, 784, 785, 786, 787, 788, 789, 790, 791, 792, 793, 794, 795, 796, 797, 798, 799, 800, 801, 802, 803, 804, 805, 806, 807, 808, 809, 810, 811, 812, 813, 814, 815, 816, 817, 818, 819, 820, 821, 822, 823, 824, 825, 826, 827, 828, 829, 830, 831, 832, 833, 834, 835, 836, 837, 838, 839, 840, 841, 842, 843, 844, 845, 846, 847, 848, 849, 850, 851, 852, 853, 854, 855, 856, 857, 858, 859, 860, 861, 862, 863, 864, 865, 866, 867, 868, 869, 870, 871, 872, 873, 874, 875, 876, 877, 878, 879, 880, 881, 882, 883, 884, 885, 886, 887, 888, 889, 890, 891, 892, 893, 894, 895, 896, 897, 898, 899, 900, 901, 902, 903, 904, 905, 906, 907, 908, 909, 910, 911, 912, 913, 914, 915, 916, 917, 918, 919, 920, 921, 922, 923, 924, 925, 926],
      "AcquisitionTime": ["114822.885000", "114823.345000", "114823.805000", "114824.265000", "114824.725000", "114825.185000", "114825.645000", "114826.105000", "114826.565000", "114827.025000", "114827.485000", "114827.945000", "114828.405000", "114828.865000", "114829.325000", "114829.785000", "114830.245000", "114830.705000", "114831.165000", "114831.625000", "114832.085000", "114832.545000", "114833.005000", "114833.465000", "114833.925000", "114834.385000", "114834.845000", "114835.305000", "114835.765000", "114836.225000", "114836.685000", "114837.145000", "114837.605000", "114838.065000", "114838.525000", "114838.985000", "114839.445000", "114839.905000", "114840.365000", "114840.825000", "114841.285000", "114841.745000", "114842.205000", "114842.665000", "114843.125000", "114843.585000", "114844.045000", "114844.505000", "114844.965000", "114845.425000", "114845.885000", "114846.345000", "114846.805000", "114847.265000", "114847.725000", "114848.185000", "114848.645000", "114849.105000", "114849.565000", "114850.025000", "114850.485000", "114850.945000", "114851.405000", "114851.865000", "114852.325000", "114852.785000", "114853.245000", "114853.705000", "114854.165000", "114854.625000", "114855.085000", "114855.545000", "114856.005000", "114856.465000", "114856.925000", "114857.385000", "114857.845000", "114858.305000", "114858.765000", "114859.225000", "114859.685000", "114900.145000", "114900.605000", "114901.065000", "114901.525000", "114901.985000", "114902.445000", "114902.905000", "114903.365000", "114903.825000", "114904.285000", "114904.745000", "114905.205000", "114905.665000", "114906.125000", "114906.585000", "114907.045000", "114907.505000", "114907.965000", "114908.425000", "114908.885000", "114909.345000", "114909.805000", "114910.265000", "114910.725000", "114911.185000", "114911.645000", "114912.105000", "114912.565000", "114913.025000", "114913.485000", "114913.945000", "114914.405000", "114914.865000", "114915.325000", "114915.785000", "114916.245000", "114916.705000", "114917.165000", "114917.625000", "114918.085000", "114918.545000", "114919.005000", "114919.465000", "114919.925000", "114920.385000", "114920.845000", "114921.305000", "114921.765000", "114922.225000", "114922.685000", "114923.145000", "114923.605000", "114924.065000", "114924.525000", "114924.985000", "114925.445000", "114925.905000", "114926.365000", "114926.825000", "114927.285000", "114927.745000", "114928.205000", "114928.665000", "114929.125000", "114929.585000", "114930.045000", "114930.505000", "114930.965000", "114931.425000", "114931.885000", "114932.345000", "114932.805000", "114933.265000", "114933.725000", "114934.185000", "114934.645000", "114935.105000", "114935.565000", "114936.025000", "114936.485000", "114936.945000", "114937.405000", "114937.865000", "114938.325000", "114938.785000", "114939.245000", "114939.705000", "114940.165000", "114940.625000", "114941.085000", "114941.545000", "114942.005000", "114942.465000", "114942.925000", "114943.385000", "114943.845000", "114944.305000", "114944.765000", "114945.225000", "114945.685000", "114946.145000", "114946.605000", "114947.065000", "114947.525000", "114947.985000", "114948.445000", "114948.905000", "114949.365000", "114949.825000", "114950.285000", "114950.745000", "114951.205000", "114951.665000", "114952.125000", "114952.585000", "114953.045000", "114953.505000", "114953.965000", "114954.425000", "114954.885000", "114955.345000", "114955.805000", "114956.265000", "114956.725000", "114957.185000", "114957.645000", "114958.105000", "114958.565000", "114959.025000", "114959.485000", "114959.945000", "115000.405000", "115000.865000", "115001.325000", "115001.785000", "115002.245000", "115002.705000", "115003.165000", "115003.625000", "115004.085000", "115004.545000", "115005.005000", "115005.465000", "115005.925000", "115006.385000", "115006.845000", "115007.305000", "115007.765000", "115008.225000", "115008.685000", "115009.145000", "115009.605000", "115010.065000", "115010.525000", "115010.985000", "115011.445000", "115011.905000", "115012.365000", "115012.825000", "115013.285000", "115013.745000", "115014.205000", "115014.665000", "115015.125000", "115015.585000", "115016.045000", "115016.505000", "115016.965000", "115017.425000", "115017.885000", "115018.345000", "115018.805000", "115019.265000", "115019.725000", "115020.185000", "115020.645000", "115021.105000", "115021.565000", "115022.025000", "115022.485000", "115022.945000", "115023.405000", "115023.865000", "115024.325000", "115024.785000", "115025.245000", "115025.705000", "115026.165000", "115026.625000", "115027.085000", "115027.545000", "115028.005000", "115028.465000", "115028.925000", "115029.385000", "115029.845000", "115030.305000", "115030.765000", "115031.225000", "115031.685000", "115032.145000", "115032.605000", "115033.065000", "115033.525000", "115033.985000", "115034.445000", "115034.905000", "115035.365000", "115035.825000", "115036.285000", "115036.745000", "115037.205000", "115037.665000", "115038.125000", "115038.585000", "115039.045000", "115039.505000", "115039.965000", "115040.425000", "115040.885000", "115041.345000", "115041.805000", "115042.265000", "115042.725000", "115043.185000", "115043.645000", "115044.105000", "115044.565000", "115045.025000", "115045.485000", "115045.945000", "115046.405000", "115046.865000", "115047.325000", "115047.785000", "115048.245000", "115048.705000", "115049.165000", "115049.625000", "115050.085000", "115050.545000", "115051.005000", "115051.465000", "115051.925000", "115052.385000", "115052.845000", "115053.305000", "115053.765000", "115054.225000", "115054.685000", "115055.145000", "115055.605000", "115056.065000", "115056.525000", "115056.985000", "115057.445000", "115057.905000", "115058.365000", "115058.825000", "115059.285000", "115059.745000", "115100.205000", "115100.665000", "115101.125000", "115101.585000", "115102.045000", "115102.505000", "115102.965000", "115103.425000", "115103.885000", "115104.345000", "115104.805000", "115105.265000", "115105.725000", "115106.185000", "115106.645000", "115107.105000", "115107.565000", "115108.025000", "115108.485000", "115108.945000", "115109.405000", "115109.865000", "115110.325000", "115110.785000", "115111.245000", "115111.705000", "115112.165000", "115112.625000", "115113.085000", "115113.545000", "115114.005000", "115114.465000", "115114.925000", "115115.385000", "115115.845000", "115116.305000", "115116.765000", "115117.225000", "115117.685000", "115118.145000", "115118.605000", "115119.065000", "115119.525000", "115119.985000", "115120.445000", "115120.905000", "115121.365000", "115121.825000", "115122.285000", "115122.745000", "115123.205000", "115123.665000", "115124.125000", "115124.585000", "115125.045000", "115125.505000", "115125.965000", "115126.425000", "115126.885000", "115127.345000", "115127.805000", "115128.265000", "115128.725000", "115129.185000", "115129.645000", "115130.105000", "115130.565000", "115131.025000", "115131.485000", "115131.945000", "115132.405000", "115132.865000", "115133.325000", "115133.785000", "115134.245000", "115134.705000", "115135.165000", "115135.625000", "115136.085000", "115136.545000", "115137.005000", "115137.465000", "115137.925000", "115138.385000", "115138.845000", "115139.305000", "115139.765000", "115140.225000", "115140.685000", "115141.145000", "115141.605000", "115142.065000", "115142.525000", "115142.985000", "115143.445000", "115143.905000", "115144.365000", "115144.825000", "115145.285000", "115145.745000", "115146.205000", "115146.665000", "115147.125000", "115147.585000", "115148.045000", "115148.505000", "115148.965000", "115149.425000", "115149.885000", "115150.345000", "115150.805000", "115151.265000", "115151.725000", "115152.185000", "115152.645000", "115153.105000", "115153.565000", "115154.025000", "115154.485000", "115154.945000", "115155.405000", "115155.865000", "115156.325000", "115156.785000", "115157.245000", "115157.705000", "115158.165000", "115158.625000", "115159.085000", "115159.545000", "115200.005000", "115200.465000", "115200.925000", "115201.385000", "115201.845000", "115202.305000", "115202.765000", "115203.225000", "115203.685000", "115204.145000", "115204.605000", "115205.065000", "115205.525000", "115205.985000", "115206.445000", "115206.905000", "115207.365000", "115207.825000", "115208.285000", "115208.745000", "115209.205000", "115209.665000", "115210.125000", "115210.585000", "115211.045000", "115211.505000", "115211.965000", "115212.425000", "115212.885000", "115213.345000", "115213.805000", "115214.265000", "115214.725000", "115215.185000", "115215.645000", "115216.105000", "115216.565000", "115217.025000", "115217.485000", "115217.945000", "115218.405000", "115218.865000", "115219.325000", "115219.785000", "115220.245000", "115220.705000", "115221.165000", "115221.625000", "115222.085000", "115222.545000", "115223.005000", "115223.465000", "115223.925000", "115224.385000", "115224.845000", "115225.305000", "115225.765000", "115226.225000", "115226.685000", "115227.145000", "115227.605000", "115228.065000", "115228.525000", "115228.985000", "115229.445000", "115229.905000", "115230.365000", "115230.825000", "115231.285000", "115231.745000", "115232.205000", "115232.665000", "115233.125000", "115233.585000", "115234.045000", "115234.505000", "115234.965000", "115235.425000", "115235.885000", "115236.345000", "115236.805000", "115237.265000", "115237.725000", "115238.185000", "115238.645000", "115239.105000", "115239.565000", "115240.025000", "115240.485000", "115240.945000", "115241.405000", "115241.865000", "115242.325000", "115242.785000", "115243.245000", "115243.705000", "115244.165000", "115244.625000", "115245.085000", "115245.545000", "115246.005000", "115246.465000", "115246.925000", "115247.385000", "115247.845000", "115248.305000", "115248.765000", "115249.225000", "115249.685000", "115250.145000", "115250.605000", "115251.065000", "115251.525000", "115251.985000", "115252.445000", "115252.905000", "115253.365000", "115253.825000", "115254.285000", "115254.745000", "115255.205000", "115255.665000", "115256.125000", "115256.585000", "115257.045000", "115257.505000", "115257.965000", "115258.425000", "115258.885000", "115259.345000", "115259.805000", "115300.265000", "115300.725000", "115301.185000", "115301.645000", "115302.105000", "115302.565000", "115303.025000", "115303.485000", "115303.945000", "115304.405000", "115304.865000", "115305.325000", "115305.785000", "115306.245000", "115306.705000", "115307.165000", "115307.625000", "115308.085000", "115308.545000", "115309.005000", "115309.465000", "115309.925000", "115310.385000", "115310.845000", "115311.305000", "115311.765000", "115312.225000", "115312.685000", "115313.145000", "115313.605000", "115314.065000", "115314.525000", "115314.985000", "115315.445000", "115315.905000", "115316.365000", "115316.825000", "115317.285000", "115317.745000", "115318.205000", "115318.665000", "115319.125000", "115319.585000", "115320.045000", "115320.505000", "115320.965000", "115321.425000", "115321.885000", "115322.345000", "115322.805000", "115323.265000", "115323.725000", "115324.185000", "115324.645000", "115325.105000", "115325.565000", "115326.025000", "115326.485000", "115326.945000", "115327.405000", "115327.865000", "115328.325000", "115328.785000", "115329.245000", "115329.705000", "115330.165000", "115330.625000", "115331.085000", "115331.545000", "115332.005000", "115332.465000", "115332.925000", "115333.385000", "115333.845000", "115334.305000", "115334.765000", "115335.225000", "115335.685000", "115336.145000", "115336.605000", "115337.065000", "115337.525000", "115337.985000", "115338.445000", "115338.905000", "115339.365000", "115339.825000", "115340.285000", "115340.745000", "115341.205000", "115341.665000", "115342.125000", "115342.585000", "115343.045000", "115343.505000", "115343.965000", "115344.425000", "115344.885000", "115345.345000", "115345.805000", "115346.265000", "115346.725000", "115347.185000", "115347.645000", "115348.105000", "115348.565000", "115349.025000", "115349.485000", "115349.945000", "115350.405000", "115350.865000", "115351.325000", "115351.785000", "115352.245000", "115352.705000", "115353.165000", "115353.625000", "115354.085000", "115354.545000", "115355.005000", "115355.465000", "115355.925000", "115356.385000", "115356.845000", "115357.305000", "115357.765000", "115358.225000", "115358.685000", "115359.145000", "115359.605000", "115400.065000", "115400.525000", "115400.985000", "115401.445000", "115401.905000", "115402.365000", "115402.825000", "115403.285000", "115403.745000", "115404.205000", "115404.665000", "115405.125000", "115405.585000", "115406.045000", "115406.505000", "115406.965000", "115407.425000", "115407.885000", "115408.345000", "115408.805000", "115409.265000", "115409.725000", "115410.185000", "115410.645000", "115411.105000", "115411.565000", "115412.025000", "115412.485000", "115412.945000", "115413.405000", "115413.865000", "115414.325000", "115414.785000", "115415.245000", "115415.705000", "115416.165000", "115416.625000", "115417.085000", "115417.545000", "115418.005000", "115418.465000", "115418.925000", "115419.385000", "115419.845000", "115420.305000", "115420.765000", "115421.225000", "115421.685000", "115422.145000", "115422.605000", "115423.065000", "115423.525000", "115423.985000", "115424.445000", "115424.905000", "115425.365000", "115425.825000", "115426.285000", "115426.745000", "115427.205000", "115427.665000", "115428.125000", "115428.585000", "115429.045000", "115429.505000", "115429.965000", "115430.425000", "115430.885000", "115431.345000", "115431.805000", "115432.265000", "115432.725000", "115433.185000", "115433.645000", "115434.105000", "115434.565000", "115435.025000", "115435.485000", "115435.945000", "115436.405000", "115436.865000", "115437.325000", "115437.785000", "115438.245000", "115438.705000", "115439.165000", "115439.625000", "115440.085000", "115440.545000", "115441.005000", "115441.465000", "115441.925000", "115442.385000", "115442.845000", "115443.305000", "115443.765000", "115444.225000", "115444.685000", "115445.145000", "115445.605000", "115446.065000", "115446.525000", "115446.985000", "115447.445000", "115447.905000", "115448.365000", "115448.825000", "115449.285000", "115449.745000", "115450.205000", "115450.665000", "115451.125000", "115451.585000", "115452.045000", "115452.505000", "115452.965000", "115453.425000", "115453.885000", "115454.345000", "115454.805000", "115455.265000", "115455.725000", "115456.185000", "115456.645000", "115457.105000", "115457.565000", "115458.025000", "115458.485000", "115458.945000", "115459.405000", "115459.865000", "115500.325000", "115500.785000", "115501.245000", "115501.705000", "115502.165000", "115502.625000", "115503.085000", "115503.545000", "115504.005000", "115504.465000", "115504.925000", "115505.385000", "115505.845000", "115506.305000", "115506.765000", "115507.225000", "115507.685000", "115508.145000", "115508.605000", "115509.065000", "115509.525000", "115509.985000", "115510.445000", "115510.905000", "115511.365000", "115511.825000", "115512.285000", "115512.745000", "115513.205000", "115513.665000", "115514.125000", "115514.585000", "115515.045000", "115515.505000", "115515.965000", "115516.425000", "115516.885000", "115517.345000", "115517.805000", "115518.265000", "115518.725000", "115519.185000", "115519.645000", "115520.105000", "115520.565000", "115521.025000", "115521.485000", "115521.945000", "115522.405000", "115522.865000", "115523.325000", "115523.785000", "115524.245000", "115524.705000", "115525.165000", "115525.625000", "115526.085000", "115526.545000", "115527.005000", "115527.465000", "115527.925000", "115528.385000"],
