{
  "AcquisitionMatrixPE": 82,
  "AcquisitionNumber": 1,
  "AcquisitionTime": "11:05:33.025000",
  "BandwidthPerPixelPhaseEncode": 24.888,
  "BaseResolution": 82,
  "BodyPartExamined": "BRAIN",
  "ConsistencyInfo": "N4_VE11E_LATEST_20181129",
  "ConversionSoftware": "dcm2niix",
  "ConversionSoftwareVersion": "v1.0.20201102",
  "DerivedVendorReportedEchoSpacing": 0.00049,
  "DeviceSerialNumber": "66112",
  "DwellTime": 2e-06,
  "EchoTime": 0.0272,
  "EchoTrainLength": 82,
  "EffectiveEchoSpacing": 0.00049,
  "FlipAngle": 44,
  "ImageComments": "Unaliased MB8/PE3",
  "ImageOrientationPatientDICOM": [0.999273, 0.0169042, 0.0341761, -0.0148256, 0.998077, -0.0601839],
  "ImageType": [
    "ORIGINAL",
    "PRIMARY",
    "M",
    "MB",
    "ND",
    "NORM",
    "MOSAIC"
],
  "ImagingFrequency": 123.252,
  "InPlanePhaseEncodingDirectionDICOM": "COL",
  "InstitutionAddress": "Maynard 3,Hanover,NH,US,03755",
  "InstitutionName": "Dartmouth College - PBS",
  "InstitutionalDepartmentName": "Department",
  "MRAcquisitionType": "2D",
  "MagneticFieldStrength": 3,
  "Manufacturer": "Siemens",
  "ManufacturersModelName": "Prisma",
  "Modality": "MR",
  "MultibandAccelerationFactor": 8,
  "PartialFourier": 1,
  "PatientPosition": "HFS",
  "PercentPhaseFOV": 100,
  "PercentSampling": 100,
  "PhaseEncodingDirection": "j-",
  "PhaseEncodingSteps": 82,
  "PhaseResolution": 1,
  "PixelBandwidth": 3050,
  "ProcedureStepDescription": "Wager_Wager^1076_spacetop",
  "ProtocolName": "func_run-03_task-social_acq-ap-mb8",
  "PulseSequenceDetails": "%CustomerSeq%\\cmrr_mbep2d_bold",
  "ReceiveCoilActiveElements": "HEA;HEP",
  "ReceiveCoilName": "Head_32",
  "ReconMatrixPE": 82,
  "RepetitionTime": 0.46,
  "SAR": 0.104251,
  "ScanOptions": "FS",
  "ScanningSequence": "EP",
  "SequenceName": "epfid2d1_82",
  "SequenceVariant": "SK\\SS",
  "SeriesDescription": "func_run-03_task-social_acq-ap-mb8",
  "SeriesNumber": 16,
  "ShimSetting": [4162, -7732, -7262, 441, -70, -31, 23, 63],
  "SliceThickness": 2.7,
  "SliceTiming": [0, 0.2525, 0.0625, 0.315, 0.125, 0.3775, 0.1875, 0, 0.2525, 0.0625, 0.315, 0.125, 0.3775, 0.1875, 0, 0.2525, 0.0625, 0.315, 0.125, 0.3775, 0.1875, 0, 0.2525, 0.0625, 0.315, 0.125, 0.3775, 0.1875, 0, 0.2525, 0.0625, 0.315, 0.125, 0.3775, 0.1875, 0, 0.2525, 0.0625, 0.315, 0.125, 0.3775, 0.1875, 0, 0.2525, 0.0625, 0.315, 0.125, 0.3775, 0.1875, 0, 0.2525, 0.0625, 0.315, 0.125, 0.3775, 0.1875],
  "SoftwareVersions": "syngo MR E11",
  "SpacingBetweenSlices": 2.7,
  "StationName": "AWP66112",
  "TaskName": "social",
  "TotalReadoutTime": 0.03969,
  "TxRefAmp": 290.949,
  "WipMemBlock": "ab04d295-7a28-4029-9644-94cb37cb699c||Sequence: R016 ve11e/master r/434b28f1; Aug  7 2019 18:53:46 by eja",
  "dcmmeta_affine": [
    [-2.680975914001465, -0.03977610915899277, 0.09484487771987915, 110.62857055664062],
    [-0.04535277187824249, 2.6777682304382324, -0.16101045906543732, -82.45999908447266],
    [0.09169194102287292, 0.16146913170814514, 2.693525552749634, -84.77753448486328],
    [0.0, 0.0, 0.0, 1.0]
],
  "dcmmeta_reorient_transform": [
    [0.0, -1.0, 0.0, 81.0],
    [1.0, 0.0, 0.0, 0.0],
    [0.0, 0.0, 1.0, 0.0],
    [0.0, 0.0, 0.0, 1.0]
],
  "dcmmeta_shape": [82, 82, 56, 872],
  "dcmmeta_slice_dim": 2,
  "dcmmeta_version": 0.6,
  "global": {
    "const": {
      "AccessionNumber": "A003867",
      "AcquisitionMatrix": [82, 0, 0, 82],
      "AngioFlag": "N",
      "BitsAllocated": 16,
      "BitsStored": 16,
      "BodyPartExamined": "BRAIN",
      "Columns": 656,
      "EchoNumbers": 1,
      "EchoTime": 27.2,
      "EchoTrainLength": 82,
      "FlipAngle": 44.0,
      "HighBit": 15,
      "ImageOrientationPatient": [0.99927285697693, 0.01690421480463, 0.03417608565946, -0.0148256399521, 0.99807719783481, -0.0601839477122],
      "ImagePositionPatient": [-865.43108422009, -915.97492418349, -51.672483313771],
      "ImageType": [
        "ORIGINAL",
        "PRIMARY",
        "M",
        "MB",
        "ND",
        "NORM",
        "MOSAIC"
],
      "ImagedNucleus": "1H",
      "ImagingFrequency": 123.252194,
      "InPlanePhaseEncodingDirection": "COL",
      "MRAcquisitionType": "2D",
      "MagneticFieldStrength": 3.0,
      "Manufacturer": "SIEMENS",
      "ManufacturerModelName": "Prisma",
      "Modality": "MR",
      "NumberOfAverages": 1.0,
      "NumberOfPhaseEncodingSteps": 82,
      "PercentPhaseFieldOfView": 100.0,
      "PercentSampling": 100.0,
      "PerformedProcedureStepStartTime": "101212.250000",
      "PhotometricInterpretation": "MONOCHROME2",
      "PixelBandwidth": 3050.0,
      "PixelRepresentation": 0,
      "PixelSpacing": [2.6829268932343, 2.6829268932343],
      "ProtocolName": "func_run-03_task-social_acq-ap-mb8",
      "RepetitionTime": 460.0,
      "Rows": 656,
      "SAR": 0.10425108898289,
      "SamplesPerPixel": 1,
      "ScanOptions": "FS",
      "ScanningSequence": "EP",
      "SequenceName": "epfid2d1_82",
      "SequenceVariant": [
        "SK",
        "SS"
],
      "SeriesDescription": "func_run-03_task-social_acq-ap-mb8",
      "SeriesNumber": 16,
      "SeriesTime": "110601.718000",
      "SliceLocation": -75.770736587635,
      "SliceThickness": 2.7000000476837,
      "SmallestImagePixelValue": 0,
      "SoftwareVersions": "syngo MR E11",
      "SpacingBetweenSlices": 2.6999999718286,
      "SpecificCharacterSet": "ISO_IR 100",
      "StudyID": "1",
      "StudyTime": "101212.185000",
      "TransmitCoilName": "Body",
      "VariableFlipAngleFlag": "N",
      "WindowCenterWidthExplanation": "Algo1"
    },
    "slices": {}
  },
  "time": {
    "samples": {
      "AcquisitionNumber": [1, 2, 3, 4, 5, 6, 7, 8, 9, 10, 11, 12, 13, 14, 15, 16, 17, 18, 19, 20, 21, 22, 23, 24, 25, 26, 27, 28, 29, 30, 31, 32, 33, 34, 35, 36, 37, 38, 39, 40, 41, 42, 43, 44, 45, 46, 47, 48, 49, 50, 51, 52, 53, 54, 55, 56, 57, 58, 59, 60, 61, 62, 63, 64, 65, 66, 67, 68, 69, 70, 71, 72, 73, 74, 75, 76, 77, 78, 79, 80, 81, 82, 83, 84, 85, 86, 87, 88, 89, 90, 91, 92, 93, 94, 95, 96, 97, 98, 99, 100, 101, 102, 103, 104, 105, 106, 107, 108, 109, 110, 111, 112, 113, 114, 115, 116, 117, 118, 119, 120, 121, 122, 123, 124, 125, 126, 127, 128, 129, 130, 131, 132, 133, 134, 135, 136, 137, 138, 139, 140, 141, 142, 143, 144, 145, 146, 147, 148, 149, 150, 151, 152, 153, 154, 155, 156, 157, 158, 159, 160, 161, 162, 163, 164, 165, 166, 167, 168, 169, 170, 171, 172, 173, 174, 175, 176, 177, 178, 179, 180, 181, 182, 183, 184, 185, 186, 187, 188, 189, 190, 191, 192, 193, 194, 195, 196, 197, 198, 199, 200, 201, 202, 203, 204, 205, 206, 207, 208, 209, 210, 211, 212, 213, 214, 215, 216, 217, 218, 219, 220, 221, 222, 223, 224, 225, 226, 227, 228, 229, 230, 231, 232, 233, 234, 235, 236, 237, 238, 239, 240, 241, 242, 243, 244, 245, 246, 247, 248, 249, 250, 251, 252, 253, 254, 255, 256, 257, 258, 259, 260, 261, 262, 263, 264, 265, 266, 267, 268, 269, 270, 271, 272, 273, 274, 275, 276, 277, 278, 279, 280, 281, 282, 283, 284, 285, 286, 287, 288, 289, 290, 291, 292, 293, 294, 295, 296, 297, 298, 299, 300, 301, 302, 303, 304, 305, 306, 307, 308, 309, 310, 311, 312, 313, 314, 315, 316, 317, 318, 319, 320, 321, 322, 323, 324, 325, 326, 327, 328, 329, 330, 331, 332, 333, 334, 335, 336, 337, 338, 339, 340, 341, 342, 343, 344, 345, 346, 347, 348, 349, 350, 351, 352, 353, 354, 355, 356, 357, 358, 359, 360, 361, 362, 363, 364, 365, 366, 367, 368, 369, 370, 371, 372, 373, 374, 375, 376, 377, 378, 379, 380, 381, 382, 383, 384, 385, 386, 387, 388, 389, 390, 391, 392, 393, 394, 395, 396, 397, 398, 399, 400, 401, 402, 403, 404, 405, 406, 407, 408, 409, 410, 411, 412, 413, 414, 415, 416, 417, 418, 419, 420, 421, 422, 423, 424, 425, 426, 427, 428, 429, 430, 431, 432, 433, 434, 435, 436, 437, 438, 439, 440, 441, 442, 443, 444, 445, 446, 447, 448, 449, 450, 451, 452, 453, 454, 455, 456, 457, 458, 459, 460, 461, 462, 463, 464, 465, 466, 467, 468, 469, 470, 471, 472, 473, 474, 475, 476, 477, 478, 479, 480, 481, 482, 483, 484, 485, 486, 487, 488, 489, 490, 491, 492, 493, 494, 495, 496, 497, 498, 499, 500, 501, 502, 503, 504, 505, 506, 507, 508, 509, 510, 511, 512, 513, 514, 515, 516, 517, 518, 519, 520, 521, 522, 523, 524, 525, 526, 527, 528, 529, 530, 531, 532, 533, 534, 535, 536, 537, 538, 539, 540, 541, 542, 543, 544, 545, 546, 547, 548, 549, 550, 551, 552, 553, 554, 555, 556, 557, 558, 559, 560, 561, 562, 563, 564, 565, 566, 567, 568, 569, 570, 571, 572, 573, 574, 575, 576, 577, 578, 579, 580, 581, 582, 583, 584, 585, 586, 587, 588, 589, 590, 591, 592, 593, 594, 595, 596, 597, 598, 599, 600, 601, 602, 603, 604, 605, 606, 607, 608, 609, 610, 611, 612, 613, 614, 615, 616, 617, 618, 619, 620, 621, 622, 623, 624, 625, 626, 627, 628, 629, 630, 631, 632, 633, 634, 635, 636, 637, 638, 639, 640, 641, 642, 643, 644, 645, 646, 647, 648, 649, 650, 651, 652, 653, 654, 655, 656, 657, 658, 659, 660, 661, 662, 663, 664, 665, 666, 667, 668, 669, 670, 671, 672, 673, 674, 675, 676, 677, 678, 679, 680, 681, 682, 683, 684, 685, 686, 687, 688, 689, 690, 691, 692, 693, 694, 695, 696, 697, 698, 699, 700, 701, 702, 703, 704, 705, 706, 707, 708, 709, 710, 711, 712, 713, 714, 715, 716, 717, 718, 719, 720, 721, 722, 723, 724, 725, 726, 727, 728, 729, 730, 731, 732, 733, 734, 735, 736, 737, 738, 739, 740, 741, 742, 743, 744, 745, 746, 747, 748, 749, 750, 751, 752, 753, 754, 755, 756, 757, 758, 759, 760, 761, 762, 763, 764, 765, 766, 767, 768, 769, 770, 771, 772, 773, 774, 775, 776, 777, 778, 779, 780, 781, 782, 783, 784, 785, 786, 787, 788, 789, 790, 791, 792, 793, 794, 795, 796, 797, 798, 799, 800, 801, 802, 803, 804, 805, 806, 807, 808, 809, 810, 811, 812, 813, 814, 815, 816, 817, 818, 819, 820, 821, 822, 823, 824, 825, 826, 827, 828, 829, 830, 831, 832, 833, 834, 835, 836, 837, 838, 839, 840, 841, 842, 843, 844, 845, 846, 847, 848, 849, 850, 851, 852, 853, 854, 855, 856, 857, 858, 859, 860, 861, 862, 863, 864, 865, 866, 867, 868, 869, 870, 871, 872],
      "AcquisitionTime": ["110533.025000", "110533.485000", "110533.945000", "110534.405000", "110534.865000", "110535.325000", "110535.785000", "110536.245000", "110536.705000", "110537.165000", "110537.625000", "110538.085000", "110538.545000", "110539.005000", "110539.465000", "110539.925000", "110540.385000", "110540.845000", "110541.305000", "110541.765000", "110542.225000", "110542.685000", "110543.145000", "110543.605000", "110544.065000", "110544.525000", "110544.985000", "110545.445000", "110545.905000", "110546.365000", "110546.825000", "110547.285000", "110547.745000", "110548.205000", "110548.665000", "110549.125000", "110549.585000", "110550.045000", "110550.505000", "110550.965000", "110551.425000", "110551.885000", "110552.345000", "110552.805000", "110553.265000", "110553.725000", "110554.185000", "110554.645000", "110555.105000", "110555.565000", "110556.025000", "110556.485000", "110556.945000", "110557.405000", "110557.865000", "110558.325000", "110558.785000", "110559.245000", "110559.705000", "110600.165000", "110600.625000", "110601.085000", "110601.545000", "110602.005000", "110602.465000", "110602.925000", "110603.385000", "110603.845000", "110604.305000", "110604.765000", "110605.225000", "110605.685000", "110606.145000", "110606.605000", "110607.065000", "110607.525000", "110607.985000", "110608.445000", "110608.905000", "110609.365000", "110609.825000", "110610.285000", "110610.745000", "110611.205000", "110611.665000", "110612.125000", "110612.585000", "110613.045000", "110613.505000", "110613.965000", "110614.425000", "110614.885000", "110615.345000", "110615.805000", "110616.265000", "110616.725000", "110617.185000", "110617.645000", "110618.105000", "110618.565000", "110619.025000", "110619.485000", "110619.945000", "110620.405000", "110620.865000", "110621.325000", "110621.785000", "110622.245000", "110622.705000", "110623.165000", "110623.625000", "110624.085000", "110624.545000", "110625.005000", "110625.465000", "110625.925000", "110626.385000", "110626.845000", "110627.305000", "110627.765000", "110628.225000", "110628.685000", "110629.145000", "110629.605000", "110630.065000", "110630.525000", "110630.985000", "110631.445000", "110631.905000", "110632.365000", "110632.825000", "110633.285000", "110633.745000", "110634.205000", "110634.665000", "110635.125000", "110635.585000", "110636.045000", "110636.505000", "110636.965000", "110637.425000", "110637.885000", "110638.345000", "110638.805000", "110639.265000", "110639.725000", "110640.185000", "110640.645000", "110641.105000", "110641.565000", "110642.025000", "110642.485000", "110642.945000", "110643.405000", "110643.865000", "110644.325000", "110644.785000", "110645.245000", "110645.705000", "110646.165000", "110646.625000", "110647.085000", "110647.545000", "110648.005000", "110648.465000", "110648.925000", "110649.385000", "110649.845000", "110650.305000", "110650.765000", "110651.225000", "110651.685000", "110652.145000", "110652.605000", "110653.065000", "110653.525000", "110653.985000", "110654.445000", "110654.905000", "110655.365000", "110655.825000", "110656.285000", "110656.745000", "110657.205000", "110657.665000", "110658.125000", "110658.585000", "110659.045000", "110659.505000", "110659.965000", "110700.425000", "110700.885000", "110701.345000", "110701.805000", "110702.265000", "110702.725000", "110703.185000", "110703.645000", "110704.105000", "110704.565000", "110705.025000", "110705.485000", "110705.945000", "110706.405000", "110706.865000", "110707.325000", "110707.785000", "110708.245000", "110708.705000", "110709.165000", "110709.625000", "110710.085000", "110710.545000", "110711.005000", "110711.465000", "110711.925000", "110712.385000", "110712.845000", "110713.305000", "110713.765000", "110714.225000", "110714.685000", "110715.145000", "110715.605000", "110716.065000", "110716.525000", "110716.985000", "110717.445000", "110717.905000", "110718.365000", "110718.825000", "110719.285000", "110719.745000", "110720.205000", "110720.665000", "110721.125000", "110721.585000", "110722.045000", "110722.505000", "110722.965000", "110723.425000", "110723.885000", "110724.345000", "110724.805000", "110725.265000", "110725.725000", "110726.185000", "110726.645000", "110727.105000", "110727.565000", "110728.025000", "110728.485000", "110728.945000", "110729.405000", "110729.865000", "110730.325000", "110730.785000", "110731.245000", "110731.705000", "110732.165000", "110732.625000", "110733.085000", "110733.545000", "110734.005000", "110734.465000", "110734.925000", "110735.385000", "110735.845000", "110736.305000", "110736.765000", "110737.225000", "110737.685000", "110738.145000", "110738.605000", "110739.065000", "110739.525000", "110739.985000", "110740.445000", "110740.905000", "110741.365000", "110741.825000", "110742.285000", "110742.745000", "110743.205000", "110743.665000", "110744.125000", "110744.585000", "110745.045000", "110745.505000", "110745.965000", "110746.425000", "110746.885000", "110747.345000", "110747.805000", "110748.265000", "110748.725000", "110749.185000", "110749.645000", "110750.105000", "110750.565000", "110751.025000", "110751.485000", "110751.945000", "110752.405000", "110752.865000", "110753.325000", "110753.785000", "110754.245000", "110754.705000", "110755.165000", "110755.625000", "110756.085000", "110756.545000", "110757.005000", "110757.465000", "110757.925000", "110758.385000", "110758.845000", "110759.305000", "110759.765000", "110800.225000", "110800.685000", "110801.145000", "110801.605000", "110802.065000", "110802.525000", "110802.985000", "110803.445000", "110803.905000", "110804.365000", "110804.825000", "110805.285000", "110805.745000", "110806.205000", "110806.665000", "110807.125000", "110807.585000", "110808.045000", "110808.505000", "110808.965000", "110809.425000", "110809.885000", "110810.345000", "110810.805000", "110811.265000", "110811.725000", "110812.185000", "110812.645000", "110813.105000", "110813.565000", "110814.025000", "110814.485000", "110814.945000", "110815.405000", "110815.865000", "110816.325000", "110816.785000", "110817.245000", "110817.705000", "110818.165000", "110818.625000", "110819.085000", "110819.545000", "110820.005000", "110820.465000", "110820.925000", "110821.385000", "110821.845000", "110822.305000", "110822.765000", "110823.225000", "110823.685000", "110824.145000", "110824.605000", "110825.065000", "110825.525000", "110825.985000", "110826.445000", "110826.905000", "110827.365000", "110827.825000", "110828.285000", "110828.745000", "110829.205000", "110829.665000", "110830.125000", "110830.585000", "110831.045000", "110831.505000", "110831.965000", "110832.425000", "110832.885000", "110833.345000", "110833.805000", "110834.265000", "110834.725000", "110835.185000", "110835.645000", "110836.105000", "110836.565000", "110837.025000", "110837.485000", "110837.945000", "110838.405000", "110838.865000", "110839.325000", "110839.785000", "110840.245000", "110840.705000", "110841.165000", "110841.625000", "110842.085000", "110842.545000", "110843.005000", "110843.465000", "110843.925000", "110844.385000", "110844.845000", "110845.305000", "110845.765000", "110846.225000", "110846.685000", "110847.145000", "110847.605000", "110848.065000", "110848.525000", "110848.985000", "110849.445000", "110849.905000", "110850.365000", "110850.825000", "110851.285000", "110851.745000", "110852.205000", "110852.665000", "110853.125000", "110853.585000", "110854.045000", "110854.505000", "110854.965000", "110855.425000", "110855.885000", "110856.345000", "110856.805000", "110857.265000", "110857.725000", "110858.185000", "110858.645000", "110859.105000", "110859.565000", "110900.025000", "110900.485000", "110900.945000", "110901.405000", "110901.865000", "110902.325000", "110902.785000", "110903.245000", "110903.705000", "110904.165000", "110904.625000", "110905.085000", "110905.545000", "110906.005000", "110906.465000", "110906.925000", "110907.385000", "110907.845000", "110908.305000", "110908.765000", "110909.225000", "110909.685000", "110910.145000", "110910.605000", "110911.065000", "110911.525000", "110911.985000", "110912.445000", "110912.905000", "110913.365000", "110913.825000", "110914.285000", "110914.745000", "110915.205000", "110915.665000", "110916.125000", "110916.585000", "110917.045000", "110917.505000", "110917.965000", "110918.425000", "110918.885000", "110919.345000", "110919.805000", "110920.265000", "110920.725000", "110921.185000", "110921.645000", "110922.105000", "110922.565000", "110923.025000", "110923.485000", "110923.945000", "110924.405000", "110924.865000", "110925.325000", "110925.785000", "110926.245000", "110926.705000", "110927.165000", "110927.625000", "110928.085000", "110928.545000", "110929.005000", "110929.465000", "110929.925000", "110930.385000", "110930.845000", "110931.305000", "110931.765000", "110932.225000", "110932.685000", "110933.145000", "110933.605000", "110934.065000", "110934.525000", "110934.985000", "110935.445000", "110935.905000", "110936.365000", "110936.825000", "110937.285000", "110937.745000", "110938.205000", "110938.665000", "110939.125000", "110939.585000", "110940.045000", "110940.505000", "110940.965000", "110941.425000", "110941.885000", "110942.345000", "110942.805000", "110943.265000", "110943.725000", "110944.185000", "110944.645000", "110945.105000", "110945.565000", "110946.025000", "110946.485000", "110946.945000", "110947.405000", "110947.865000", "110948.325000", "110948.785000", "110949.245000", "110949.705000", "110950.165000", "110950.625000", "110951.085000", "110951.545000", "110952.005000", "110952.465000", "110952.925000", "110953.385000", "110953.845000", "110954.305000", "110954.765000", "110955.225000", "110955.685000", "110956.145000", "110956.605000", "110957.065000", "110957.525000", "110957.985000", "110958.445000", "110958.905000", "110959.365000", "110959.825000", "111000.285000", "111000.745000", "111001.205000", "111001.665000", "111002.125000", "111002.585000", "111003.045000", "111003.505000", "111003.965000", "111004.425000", "111004.885000", "111005.345000", "111005.805000", "111006.265000", "111006.725000", "111007.185000", "111007.645000", "111008.105000", "111008.565000", "111009.025000", "111009.485000", "111009.945000", "111010.405000", "111010.865000", "111011.325000", "111011.785000", "111012.245000", "111012.705000", "111013.165000", "111013.625000", "111014.085000", "111014.545000", "111015.005000", "111015.465000", "111015.925000", "111016.385000", "111016.845000", "111017.305000", "111017.765000", "111018.225000", "111018.685000", "111019.145000", "111019.605000", "111020.065000", "111020.525000", "111020.985000", "111021.445000", "111021.905000", "111022.365000", "111022.825000", "111023.285000", "111023.745000", "111024.205000", "111024.665000", "111025.125000", "111025.585000", "111026.045000", "111026.505000", "111026.965000", "111027.425000", "111027.885000", "111028.345000", "111028.805000", "111029.265000", "111029.725000", "111030.185000", "111030.645000", "111031.105000", "111031.565000", "111032.025000", "111032.485000", "111032.945000", "111033.405000", "111033.865000", "111034.325000", "111034.785000", "111035.245000", "111035.705000", "111036.165000", "111036.625000", "111037.085000", "111037.545000", "111038.005000", "111038.465000", "111038.925000", "111039.385000", "111039.845000", "111040.305000", "111040.765000", "111041.225000", "111041.685000", "111042.145000", "111042.605000", "111043.065000", "111043.525000", "111043.985000", "111044.445000", "111044.905000", "111045.365000", "111045.825000", "111046.285000", "111046.745000", "111047.205000", "111047.665000", "111048.125000", "111048.585000", "111049.045000", "111049.505000", "111049.965000", "111050.425000", "111050.885000", "111051.345000", "111051.805000", "111052.265000", "111052.725000", "111053.185000", "111053.645000", "111054.105000", "111054.565000", "111055.025000", "111055.485000", "111055.945000", "111056.405000", "111056.865000", "111057.325000", "111057.785000", "111058.245000", "111058.705000", "111059.165000", "111059.625000", "111100.085000", "111100.545000", "111101.005000", "111101.465000", "111101.925000", "111102.385000", "111102.845000", "111103.305000", "111103.765000", "111104.225000", "111104.685000", "111105.145000", "111105.605000", "111106.065000", "111106.525000", "111106.985000", "111107.445000", "111107.905000", "111108.365000", "111108.825000", "111109.285000", "111109.745000", "111110.205000", "111110.665000", "111111.125000", "111111.585000", "111112.045000", "111112.505000", "111112.965000", "111113.425000", "111113.885000", "111114.345000", "111114.805000", "111115.265000", "111115.725000", "111116.185000", "111116.645000", "111117.105000", "111117.565000", "111118.025000", "111118.485000", "111118.945000", "111119.405000", "111119.865000", "111120.325000", "111120.785000", "111121.245000", "111121.705000", "111122.165000", "111122.625000", "111123.085000", "111123.545000", "111124.005000", "111124.465000", "111124.925000", "111125.385000", "111125.845000", "111126.305000", "111126.765000", "111127.225000", "111127.685000", "111128.145000", "111128.605000", "111129.065000", "111129.525000", "111129.985000", "111130.445000", "111130.905000", "111131.365000", "111131.825000", "111132.285000", "111132.745000", "111133.205000", "111133.665000", "111134.125000", "111134.585000", "111135.045000", "111135.505000", "111135.965000", "111136.425000", "111136.885000", "111137.345000", "111137.805000", "111138.265000", "111138.725000", "111139.185000", "111139.645000", "111140.105000", "111140.565000", "111141.025000", "111141.485000", "111141.945000", "111142.405000", "111142.865000", "111143.325000", "111143.785000", "111144.245000", "111144.705000", "111145.165000", "111145.625000", "111146.085000", "111146.545000", "111147.005000", "111147.465000", "111147.925000", "111148.385000", "111148.845000", "111149.305000", "111149.765000", "111150.225000", "111150.685000", "111151.145000", "111151.605000", "111152.065000", "111152.525000", "111152.985000", "111153.445000", "111153.905000", "111154.365000", "111154.825000", "111155.285000", "111155.745000", "111156.205000", "111156.665000", "111157.125000", "111157.585000", "111158.045000", "111158.505000", "111158.965000", "111159.425000", "111159.885000", "111200.345000", "111200.805000", "111201.265000", "111201.725000", "111202.185000", "111202.645000", "111203.105000", "111203.565000", "111204.025000", "111204.485000", "111204.945000", "111205.405000", "111205.865000", "111206.325000", "111206.785000", "111207.245000", "111207.705000", "111208.165000", "111208.625000", "111209.085000", "111209.545000", "111210.005000", "111210.465000", "111210.925000", "111211.385000", "111211.845000", "111212.305000", "111212.765000", "111213.225000", "111213.685000"],
