{
  "AcquisitionMatrixPE": 82,
  "AcquisitionNumber": 1,
  "AcquisitionTime": "11:28:21.632500",
  "BandwidthPerPixelPhaseEncode": 24.888,
  "BaseResolution": 82,
  "BodyPartExamined": "BRAIN",
  "ConsistencyInfo": "N4_VE11E_LATEST_20181129",
  "ConversionSoftware": "dcm2niix",
  "ConversionSoftwareVersion": "v1.0.20201102",
  "DerivedVendorReportedEchoSpacing": 0.00049,
  "DeviceSerialNumber": "66112",
  "DwellTime": 2e-06,
  "EchoTime": 0.0272,
  "EchoTrainLength": 82,
  "EffectiveEchoSpacing": 0.00049,
  "FlipAngle": 44,
  "ImageComments": "Unaliased MB8/PE3",
  "ImageOrientationPatientDICOM": [0.999273, 0.0169042, 0.0341761, -0.0148256, 0.998077, -0.0601839],
  "ImageType": [
    "ORIGINAL",
    "PRIMARY",
    "M",
    "MB",
    "ND",
    "NORM",
    "MOSAIC"
],
  "ImagingFrequency": 123.252,
  "InPlanePhaseEncodingDirectionDICOM": "COL",
  "InstitutionAddress": "Maynard 3,Hanover,NH,US,03755",
  "InstitutionName": "Dartmouth College - PBS",
  "InstitutionalDepartmentName": "Department",
  "MRAcquisitionType": "2D",
  "MagneticFieldStrength": 3,
  "Manufacturer": "Siemens",
  "ManufacturersModelName": "Prisma",
  "Modality": "MR",
  "MultibandAccelerationFactor": 8,
  "PartialFourier": 1,
  "PatientPosition": "HFS",
  "PercentPhaseFOV": 100,
  "PercentSampling": 100,
  "PhaseEncodingDirection": "j-",
  "PhaseEncodingSteps": 82,
  "PhaseResolution": 1,
  "PixelBandwidth": 3050,
  "ProcedureStepDescription": "Wager_Wager^1076_spacetop",
  "ProtocolName": "func_run-06_task-social_acq-ap-mb8",
  "PulseSequenceDetails": "%CustomerSeq%\\cmrr_mbep2d_bold",
  "ReceiveCoilActiveElements": "HEA;HEP",
  "ReceiveCoilName": "Head_32",
  "ReconMatrixPE": 82,
  "RepetitionTime": 0.46,
  "SAR": 0.104251,
  "ScanOptions": "FS",
  "ScanningSequence": "EP",
  "SequenceName": "epfid2d1_82",
  "SequenceVariant": "SK\\SS",
  "SeriesDescription": "func_run-06_task-social_acq-ap-mb8",
  "SeriesNumber": 22,
  "ShimSetting": [4162, -7732, -7262, 441, -70, -31, 23, 63],
  "SliceThickness": 2.7,
  "SliceTiming": [0, 0.2525, 0.0625, 0.315, 0.125, 0.3775, 0.1875, 0, 0.2525, 0.0625, 0.315, 0.125, 0.3775, 0.1875, 0, 0.2525, 0.0625, 0.315, 0.125, 0.3775, 0.1875, 0, 0.2525, 0.0625, 0.315, 0.125, 0.3775, 0.1875, 0, 0.2525, 0.0625, 0.315, 0.125, 0.3775, 0.1875, 0, 0.2525, 0.0625, 0.315, 0.125, 0.3775, 0.1875, 0, 0.2525, 0.0625, 0.315, 0.125, 0.3775, 0.1875, 0, 0.2525, 0.0625, 0.315, 0.125, 0.3775, 0.1875],
  "SoftwareVersions": "syngo MR E11",
  "SpacingBetweenSlices": 2.7,
  "StationName": "AWP66112",
  "TaskName": "social",
  "TotalReadoutTime": 0.03969,
  "TxRefAmp": 290.949,
  "WipMemBlock": "2fb34136-19cf-4c57-a7fd-85501294f6e6||Sequence: R016 ve11e/master r/434b28f1; Aug  7 2019 18:53:46 by eja",
  "dcmmeta_affine": [
    [-2.680975914001465, -0.03977610915899277, 0.09484487771987915, 110.62857055664062],
    [-0.04535277187824249, 2.6777682304382324, -0.16101045906543732, -82.45999908447266],
    [0.09169194102287292, 0.16146913170814514, 2.693525552749634, -84.77753448486328],
    [0.0, 0.0, 0.0, 1.0]
],
  "dcmmeta_reorient_transform": [
    [0.0, -1.0, 0.0, 81.0],
    [1.0, 0.0, 0.0, 0.0],
    [0.0, 0.0, 1.0, 0.0],
    [0.0, 0.0, 0.0, 1.0]
],
  "dcmmeta_shape": [82, 82, 56, 872],
  "dcmmeta_slice_dim": 2,
  "dcmmeta_version": 0.6,
  "global": {
    "const": {
      "AccessionNumber": "A003867",
      "AcquisitionMatrix": [82, 0, 0, 82],
      "AngioFlag": "N",
      "BitsAllocated": 16,
      "BitsStored": 16,
      "BodyPartExamined": "BRAIN",
      "Columns": 656,
      "EchoNumbers": 1,
      "EchoTime": 27.2,
      "EchoTrainLength": 82,
      "FlipAngle": 44.0,
      "HighBit": 15,
      "ImageOrientationPatient": [0.99927285697693, 0.01690421480463, 0.03417608565946, -0.0148256399521, 0.99807719783481, -0.0601839477122],
      "ImagePositionPatient": [-865.43108422009, -915.97492418349, -51.672483313771],
      "ImageType": [
        "ORIGINAL",
        "PRIMARY",
        "M",
        "MB",
        "ND",
        "NORM",
        "MOSAIC"
],
      "ImagedNucleus": "1H",
      "ImagingFrequency": 123.252207,
      "InPlanePhaseEncodingDirection": "COL",
      "MRAcquisitionType": "2D",
      "MagneticFieldStrength": 3.0,
      "Manufacturer": "SIEMENS",
      "ManufacturerModelName": "Prisma",
      "Modality": "MR",
      "NumberOfAverages": 1.0,
      "NumberOfPhaseEncodingSteps": 82,
      "PercentPhaseFieldOfView": 100.0,
      "PercentSampling": 100.0,
      "PerformedProcedureStepStartTime": "101212.250000",
      "PhotometricInterpretation": "MONOCHROME2",
      "PixelBandwidth": 3050.0,
      "PixelRepresentation": 0,
      "PixelSpacing": [2.6829268932343, 2.6829268932343],
      "ProtocolName": "func_run-06_task-social_acq-ap-mb8",
      "RepetitionTime": 460.0,
      "Rows": 656,
      "SAR": 0.10425108898289,
      "SamplesPerPixel": 1,
      "ScanOptions": "FS",
      "ScanningSequence": "EP",
      "SequenceName": "epfid2d1_82",
      "SequenceVariant": [
        "SK",
        "SS"
],
      "SeriesDescription": "func_run-06_task-social_acq-ap-mb8",
      "SeriesNumber": 22,
      "SeriesTime": "112841.723000",
      "SliceLocation": -75.770736587635,
      "SliceThickness": 2.7000000476837,
      "SmallestImagePixelValue": 0,
      "SoftwareVersions": "syngo MR E11",
      "SpacingBetweenSlices": 2.6999999718286,
      "SpecificCharacterSet": "ISO_IR 100",
      "StudyID": "1",
      "StudyTime": "101212.185000",
      "TransmitCoilName": "Body",
      "VariableFlipAngleFlag": "N",
      "WindowCenterWidthExplanation": "Algo1"
    },
    "slices": {}
  },
  "time": {
    "samples": {
      "AcquisitionNumber": [1, 2, 3, 4, 5, 6, 7, 8, 9, 10, 11, 12, 13, 14, 15, 16, 17, 18, 19, 20, 21, 22, 23, 24, 25, 26, 27, 28, 29, 30, 31, 32, 33, 34, 35, 36, 37, 38, 39, 40, 41, 42, 43, 44, 45, 46, 47, 48, 49, 50, 51, 52, 53, 54, 55, 56, 57, 58, 59, 60, 61, 62, 63, 64, 65, 66, 67, 68, 69, 70, 71, 72, 73, 74, 75, 76, 77, 78, 79, 80, 81, 82, 83, 84, 85, 86, 87, 88, 89, 90, 91, 92, 93, 94, 95, 96, 97, 98, 99, 100, 101, 102, 103, 104, 105, 106, 107, 108, 109, 110, 111, 112, 113, 114, 115, 116, 117, 118, 119, 120, 121, 122, 123, 124, 125, 126, 127, 128, 129, 130, 131, 132, 133, 134, 135, 136, 137, 138, 139, 140, 141, 142, 143, 144, 145, 146, 147, 148, 149, 150, 151, 152, 153, 154, 155, 156, 157, 158, 159, 160, 161, 162, 163, 164, 165, 166, 167, 168, 169, 170, 171, 172, 173, 174, 175, 176, 177, 178, 179, 180, 181, 182, 183, 184, 185, 186, 187, 188, 189, 190, 191, 192, 193, 194, 195, 196, 197, 198, 199, 200, 201, 202, 203, 204, 205, 206, 207, 208, 209, 210, 211, 212, 213, 214, 215, 216, 217, 218, 219, 220, 221, 222, 223, 224, 225, 226, 227, 228, 229, 230, 231, 232, 233, 234, 235, 236, 237, 238, 239, 240, 241, 242, 243, 244, 245, 246, 247, 248, 249, 250, 251, 252, 253, 254, 255, 256, 257, 258, 259, 260, 261, 262, 263, 264, 265, 266, 267, 268, 269, 270, 271, 272, 273, 274, 275, 276, 277, 278, 279, 280, 281, 282, 283, 284, 285, 286, 287, 288, 289, 290, 291, 292, 293, 294, 295, 296, 297, 298, 299, 300, 301, 302, 303, 304, 305, 306, 307, 308, 309, 310, 311, 312, 313, 314, 315, 316, 317, 318, 319, 320, 321, 322, 323, 324, 325, 326, 327, 328, 329, 330, 331, 332, 333, 334, 335, 336, 337, 338, 339, 340, 341, 342, 343, 344, 345, 346, 347, 348, 349, 350, 351, 352, 353, 354, 355, 356, 357, 358, 359, 360, 361, 362, 363, 364, 365, 366, 367, 368, 369, 370, 371, 372, 373, 374, 375, 376, 377, 378, 379, 380, 381, 382, 383, 384, 385, 386, 387, 388, 389, 390, 391, 392, 393, 394, 395, 396, 397, 398, 399, 400, 401, 402, 403, 404, 405, 406, 407, 408, 409, 410, 411, 412, 413, 414, 415, 416, 417, 418, 419, 420, 421, 422, 423, 424, 425, 426, 427, 428, 429, 430, 431, 432, 433, 434, 435, 436, 437, 438, 439, 440, 441, 442, 443, 444, 445, 446, 447, 448, 449, 450, 451, 452, 453, 454, 455, 456, 457, 458, 459, 460, 461, 462, 463, 464, 465, 466, 467, 468, 469, 470, 471, 472, 473, 474, 475, 476, 477, 478, 479, 480, 481, 482, 483, 484, 485, 486, 487, 488, 489, 490, 491, 492, 493, 494, 495, 496, 497, 498, 499, 500, 501, 502, 503, 504, 505, 506, 507, 508, 509, 510, 511, 512, 513, 514, 515, 516, 517, 518, 519, 520, 521, 522, 523, 524, 525, 526, 527, 528, 529, 530, 531, 532, 533, 534, 535, 536, 537, 538, 539, 540, 541, 542, 543, 544, 545, 546, 547, 548, 549, 550, 551, 552, 553, 554, 555, 556, 557, 558, 559, 560, 561, 562, 563, 564, 565, 566, 567, 568, 569, 570, 571, 572, 573, 574, 575, 576, 577, 578, 579, 580, 581, 582, 583, 584, 585, 586, 587, 588, 589, 590, 591, 592, 593, 594, 595, 596, 597, 598, 599, 600, 601, 602, 603, 604, 605, 606, 607, 608, 609, 610, 611, 612, 613, 614, 615, 616, 617, 618, 619, 620, 621, 622, 623, 624, 625, 626, 627, 628, 629, 630, 631, 632, 633, 634, 635, 636, 637, 638, 639, 640, 641, 642, 643, 644, 645, 646, 647, 648, 649, 650, 651, 652, 653, 654, 655, 656, 657, 658, 659, 660, 661, 662, 663, 664, 665, 666, 667, 668, 669, 670, 671, 672, 673, 674, 675, 676, 677, 678, 679, 680, 681, 682, 683, 684, 685, 686, 687, 688, 689, 690, 691, 692, 693, 694, 695, 696, 697, 698, 699, 700, 701, 702, 703, 704, 705, 706, 707, 708, 709, 710, 711, 712, 713, 714, 715, 716, 717, 718, 719, 720, 721, 722, 723, 724, 725, 726, 727, 728, 729, 730, 731, 732, 733, 734, 735, 736, 737, 738, 739, 740, 741, 742, 743, 744, 745, 746, 747, 748, 749, 750, 751, 752, 753, 754, 755, 756, 757, 758, 759, 760, 761, 762, 763, 764, 765, 766, 767, 768, 769, 770, 771, 772, 773, 774, 775, 776, 777, 778, 779, 780, 781, 782, 783, 784, 785, 786, 787, 788, 789, 790, 791, 792, 793, 794, 795, 796, 797, 798, 799, 800, 801, 802, 803, 804, 805, 806, 807, 808, 809, 810, 811, 812, 813, 814, 815, 816, 817, 818, 819, 820, 821, 822, 823, 824, 825, 826, 827, 828, 829, 830, 831, 832, 833, 834, 835, 836, 837, 838, 839, 840, 841, 842, 843, 844, 845, 846, 847, 848, 849, 850, 851, 852, 853, 854, 855, 856, 857, 858, 859, 860, 861, 862, 863, 864, 865, 866, 867, 868, 869, 870, 871, 872],
      "AcquisitionTime": ["112821.632500", "112822.092500", "112822.552500", "112823.012500", "112823.472500", "112823.932500", "112824.392500", "112824.852500", "112825.312500", "112825.772500", "112826.232500", "112826.692500", "112827.152500", "112827.612500", "112828.072500", "112828.532500", "112828.992500", "112829.452500", "112829.912500", "112830.372500", "112830.832500", "112831.292500", "112831.752500", "112832.212500", "112832.672500", "112833.132500", "112833.592500", "112834.052500", "112834.512500", "112834.972500", "112835.432500", "112835.892500", "112836.352500", "112836.812500", "112837.272500", "112837.732500", "112838.192500", "112838.652500", "112839.112500", "112839.572500", "112840.032500", "112840.492500", "112840.952500", "112841.412500", "112841.872500", "112842.332500", "112842.792500", "112843.252500", "112843.712500", "112844.172500", "112844.632500", "112845.092500", "112845.552500", "112846.012500", "112846.472500", "112846.932500", "112847.392500", "112847.852500", "112848.312500", "112848.772500", "112849.232500", "112849.692500", "112850.152500", "112850.612500", "112851.072500", "112851.532500", "112851.992500", "112852.452500", "112852.912500", "112853.372500", "112853.832500", "112854.292500", "112854.752500", "112855.212500", "112855.672500", "112856.132500", "112856.592500", "112857.052500", "112857.512500", "112857.972500", "112858.432500", "112858.892500", "112859.352500", "112859.812500", "112900.272500", "112900.732500", "112901.192500", "112901.652500", "112902.112500", "112902.572500", "112903.032500", "112903.492500", "112903.952500", "112904.412500", "112904.872500", "112905.332500", "112905.792500", "112906.252500", "112906.712500", "112907.172500", "112907.632500", "112908.092500", "112908.552500", "112909.012500", "112909.472500", "112909.932500", "112910.392500", "112910.852500", "112911.312500", "112911.772500", "112912.232500", "112912.692500", "112913.152500", "112913.612500", "112914.072500", "112914.532500", "112914.992500", "112915.452500", "112915.912500", "112916.372500", "112916.832500", "112917.292500", "112917.752500", "112918.212500", "112918.672500", "112919.132500", "112919.592500", "112920.052500", "112920.512500", "112920.972500", "112921.432500", "112921.892500", "112922.352500", "112922.812500", "112923.272500", "112923.732500", "112924.192500", "112924.652500", "112925.112500", "112925.572500", "112926.032500", "112926.492500", "112926.952500", "112927.412500", "112927.872500", "112928.332500", "112928.792500", "112929.252500", "112929.712500", "112930.172500", "112930.632500", "112931.092500", "112931.552500", "112932.012500", "112932.472500", "112932.932500", "112933.392500", "112933.852500", "112934.312500", "112934.772500", "112935.232500", "112935.692500", "112936.152500", "112936.612500", "112937.072500", "112937.532500", "112937.992500", "112938.452500", "112938.912500", "112939.372500", "112939.832500", "112940.292500", "112940.752500", "112941.212500", "112941.672500", "112942.132500", "112942.592500", "112943.052500", "112943.512500", "112943.972500", "112944.432500", "112944.892500", "112945.352500", "112945.812500", "112946.272500", "112946.732500", "112947.192500", "112947.652500", "112948.112500", "112948.572500", "112949.032500", "112949.492500", "112949.952500", "112950.412500", "112950.872500", "112951.332500", "112951.792500", "112952.252500", "112952.712500", "112953.172500", "112953.632500", "112954.092500", "112954.552500", "112955.012500", "112955.472500", "112955.932500", "112956.392500", "112956.852500", "112957.312500", "112957.772500", "112958.232500", "112958.692500", "112959.152500", "112959.612500", "113000.072500", "113000.532500", "113000.992500", "113001.452500", "113001.912500", "113002.372500", "113002.832500", "113003.292500", "113003.752500", "113004.212500", "113004.672500", "113005.132500", "113005.592500", "113006.052500", "113006.512500", "113006.972500", "113007.432500", "113007.892500", "113008.352500", "113008.812500", "113009.272500", "113009.732500", "113010.192500", "113010.652500", "113011.112500", "113011.572500", "113012.032500", "113012.492500", "113012.952500", "113013.412500", "113013.872500", "113014.332500", "113014.792500", "113015.252500", "113015.712500", "113016.172500", "113016.632500", "113017.092500", "113017.552500", "113018.012500", "113018.472500", "113018.932500", "113019.392500", "113019.852500", "113020.312500", "113020.772500", "113021.232500", "113021.692500", "113022.152500", "113022.612500", "113023.072500", "113023.532500", "113023.992500", "113024.452500", "113024.912500", "113025.372500", "113025.832500", "113026.292500", "113026.752500", "113027.212500", "113027.672500", "113028.132500", "113028.592500", "113029.052500", "113029.512500", "113029.972500", "113030.432500", "113030.892500", "113031.352500", "113031.812500", "113032.272500", "113032.732500", "113033.192500", "113033.652500", "113034.112500", "113034.572500", "113035.032500", "113035.492500", "113035.952500", "113036.412500", "113036.872500", "113037.332500", "113037.792500", "113038.252500", "113038.712500", "113039.172500", "113039.632500", "113040.092500", "113040.552500", "113041.012500", "113041.472500", "113041.932500", "113042.392500", "113042.852500", "113043.312500", "113043.772500", "113044.232500", "113044.692500", "113045.152500", "113045.612500", "113046.072500", "113046.532500", "113046.992500", "113047.452500", "113047.912500", "113048.372500", "113048.832500", "113049.292500", "113049.752500", "113050.212500", "113050.672500", "113051.132500", "113051.592500", "113052.052500", "113052.512500", "113052.972500", "113053.432500", "113053.892500", "113054.352500", "113054.812500", "113055.272500", "113055.732500", "113056.192500", "113056.652500", "113057.112500", "113057.572500", "113058.032500", "113058.492500", "113058.952500", "113059.412500", "113059.872500", "113100.332500", "113100.792500", "113101.252500", "113101.712500", "113102.172500", "113102.632500", "113103.092500", "113103.552500", "113104.012500", "113104.472500", "113104.932500", "113105.392500", "113105.852500", "113106.312500", "113106.772500", "113107.232500", "113107.692500", "113108.152500", "113108.612500", "113109.072500", "113109.532500", "113109.992500", "113110.452500", "113110.912500", "113111.372500", "113111.832500", "113112.292500", "113112.752500", "113113.212500", "113113.672500", "113114.132500", "113114.592500", "113115.052500", "113115.512500", "113115.972500", "113116.432500", "113116.892500", "113117.352500", "113117.812500", "113118.272500", "113118.732500", "113119.192500", "113119.652500", "113120.112500", "113120.572500", "113121.032500", "113121.492500", "113121.952500", "113122.412500", "113122.872500", "113123.332500", "113123.792500", "113124.252500", "113124.712500", "113125.172500", "113125.632500", "113126.092500", "113126.552500", "113127.012500", "113127.472500", "113127.932500", "113128.392500", "113128.852500", "113129.312500", "113129.772500", "113130.232500", "113130.692500", "113131.152500", "113131.612500", "113132.072500", "113132.532500", "113132.992500", "113133.452500", "113133.912500", "113134.372500", "113134.832500", "113135.292500", "113135.752500", "113136.212500", "113136.672500", "113137.132500", "113137.592500", "113138.052500", "113138.512500", "113138.972500", "113139.432500", "113139.892500", "113140.352500", "113140.812500", "113141.272500", "113141.732500", "113142.192500", "113142.652500", "113143.112500", "113143.572500", "113144.032500", "113144.492500", "113144.952500", "113145.412500", "113145.872500", "113146.332500", "113146.792500", "113147.252500", "113147.712500", "113148.172500", "113148.632500", "113149.092500", "113149.552500", "113150.012500", "113150.472500", "113150.932500", "113151.392500", "113151.852500", "113152.312500", "113152.772500", "113153.232500", "113153.692500", "113154.152500", "113154.612500", "113155.072500", "113155.532500", "113155.992500", "113156.452500", "113156.912500", "113157.372500", "113157.832500", "113158.292500", "113158.752500", "113159.212500", "113159.672500", "113200.132500", "113200.592500", "113201.052500", "113201.512500", "113201.972500", "113202.432500", "113202.892500", "113203.352500", "113203.812500", "113204.272500", "113204.732500", "113205.192500", "113205.652500", "113206.112500", "113206.572500", "113207.032500", "113207.492500", "113207.952500", "113208.412500", "113208.872500", "113209.332500", "113209.792500", "113210.252500", "113210.712500", "113211.172500", "113211.632500", "113212.092500", "113212.552500", "113213.012500", "113213.472500", "113213.932500", "113214.392500", "113214.852500", "113215.312500", "113215.772500", "113216.232500", "113216.692500", "113217.152500", "113217.612500", "113218.072500", "113218.532500", "113218.992500", "113219.452500", "113219.912500", "113220.372500", "113220.832500", "113221.292500", "113221.752500", "113222.212500", "113222.672500", "113223.132500", "113223.592500", "113224.052500", "113224.512500", "113224.972500", "113225.432500", "113225.892500", "113226.352500", "113226.812500", "113227.272500", "113227.732500", "113228.192500", "113228.652500", "113229.112500", "113229.572500", "113230.032500", "113230.492500", "113230.952500", "113231.412500", "113231.872500", "113232.332500", "113232.792500", "113233.252500", "113233.712500", "113234.172500", "113234.632500", "113235.092500", "113235.552500", "113236.012500", "113236.472500", "113236.932500", "113237.392500", "113237.852500", "113238.312500", "113238.772500", "113239.232500", "113239.692500", "113240.152500", "113240.612500", "113241.072500", "113241.532500", "113241.992500", "113242.452500", "113242.912500", "113243.372500", "113243.832500", "113244.292500", "113244.752500", "113245.212500", "113245.672500", "113246.132500", "113246.592500", "113247.052500", "113247.512500", "113247.972500", "113248.432500", "113248.892500", "113249.352500", "113249.812500", "113250.272500", "113250.732500", "113251.192500", "113251.652500", "113252.112500", "113252.572500", "113253.032500", "113253.492500", "113253.952500", "113254.412500", "113254.872500", "113255.332500", "113255.792500", "113256.252500", "113256.712500", "113257.172500", "113257.632500", "113258.092500", "113258.552500", "113259.012500", "113259.472500", "113259.932500", "113300.392500", "113300.852500", "113301.312500", "113301.772500", "113302.232500", "113302.692500", "113303.152500", "113303.612500", "113304.072500", "113304.532500", "113304.992500", "113305.452500", "113305.912500", "113306.372500", "113306.832500", "113307.292500", "113307.752500", "113308.212500", "113308.672500", "113309.132500", "113309.592500", "113310.052500", "113310.512500", "113310.972500", "113311.432500", "113311.892500", "113312.352500", "113312.812500", "113313.272500", "113313.732500", "113314.192500", "113314.652500", "113315.112500", "113315.572500", "113316.032500", "113316.492500", "113316.952500", "113317.412500", "113317.872500", "113318.332500", "113318.792500", "113319.252500", "113319.712500", "113320.172500", "113320.632500", "113321.092500", "113321.552500", "113322.012500", "113322.472500", "113322.932500", "113323.392500", "113323.852500", "113324.312500", "113324.772500", "113325.232500", "113325.692500", "113326.152500", "113326.612500", "113327.072500", "113327.532500", "113327.992500", "113328.452500", "113328.912500", "113329.372500", "113329.832500", "113330.292500", "113330.752500", "113331.212500", "113331.672500", "113332.132500", "113332.592500", "113333.052500", "113333.512500", "113333.972500", "113334.432500", "113334.892500", "113335.352500", "113335.812500", "113336.272500", "113336.732500", "113337.192500", "113337.652500", "113338.112500", "113338.572500", "113339.032500", "113339.492500", "113339.952500", "113340.412500", "113340.872500", "113341.332500", "113341.792500", "113342.252500", "113342.712500", "113343.172500", "113343.632500", "113344.092500", "113344.552500", "113345.012500", "113345.472500", "113345.932500", "113346.392500", "113346.852500", "113347.312500", "113347.772500", "113348.232500", "113348.692500", "113349.152500", "113349.612500", "113350.072500", "113350.532500", "113350.992500", "113351.452500", "113351.912500", "113352.372500", "113352.832500", "113353.292500", "113353.752500", "113354.212500", "113354.672500", "113355.132500", "113355.592500", "113356.052500", "113356.512500", "113356.972500", "113357.432500", "113357.892500", "113358.352500", "113358.812500", "113359.272500", "113359.732500", "113400.192500", "113400.652500", "113401.112500", "113401.572500", "113402.032500", "113402.492500", "113402.952500", "113403.412500", "113403.872500", "113404.332500", "113404.792500", "113405.252500", "113405.712500", "113406.172500", "113406.632500", "113407.092500", "113407.552500", "113408.012500", "113408.472500", "113408.932500", "113409.392500", "113409.852500", "113410.312500", "113410.772500", "113411.232500", "113411.692500", "113412.152500", "113412.612500", "113413.072500", "113413.532500", "113413.992500", "113414.452500", "113414.912500", "113415.372500", "113415.832500", "113416.292500", "113416.752500", "113417.212500", "113417.672500", "113418.132500", "113418.592500", "113419.052500", "113419.512500", "113419.972500", "113420.432500", "113420.892500", "113421.352500", "113421.812500", "113422.272500", "113422.732500", "113423.192500", "113423.652500", "113424.112500", "113424.572500", "113425.032500", "113425.492500", "113425.952500", "113426.412500", "113426.872500", "113427.332500", "113427.792500", "113428.252500", "113428.712500", "113429.172500", "113429.632500", "113430.092500", "113430.552500", "113431.012500", "113431.472500", "113431.932500", "113432.392500", "113432.852500", "113433.312500", "113433.772500", "113434.232500", "113434.692500", "113435.152500", "113435.612500", "113436.072500", "113436.532500", "113436.992500", "113437.452500", "113437.912500", "113438.372500", "113438.832500", "113439.292500", "113439.752500", "113440.212500", "113440.672500", "113441.132500", "113441.592500", "113442.052500", "113442.512500", "113442.972500", "113443.432500", "113443.892500", "113444.352500", "113444.812500", "113445.272500", "113445.732500", "113446.192500", "113446.652500", "113447.112500", "113447.572500", "113448.032500", "113448.492500", "113448.952500", "113449.412500", "113449.872500", "113450.332500", "113450.792500", "113451.252500", "113451.712500", "113452.172500", "113452.632500", "113453.092500", "113453.552500", "113454.012500", "113454.472500", "113454.932500", "113455.392500", "113455.852500", "113456.312500", "113456.772500", "113457.232500", "113457.692500", "113458.152500", "113458.612500", "113459.072500", "113459.532500", "113459.992500", "113500.452500", "113500.912500", "113501.372500", "113501.832500", "113502.292500"],
