{
  "AcquisitionMatrixPE": 82,
  "AcquisitionNumber": 1,
  "AcquisitionTime": "11:21:10.620000",
  "BandwidthPerPixelPhaseEncode": 24.888,
  "BaseResolution": 82,
  "BodyPartExamined": "BRAIN",
  "ConsistencyInfo": "N4_VE11E_LATEST_20181129",
  "ConversionSoftware": "dcm2niix",
  "ConversionSoftwareVersion": "v1.0.20201102",
  "DerivedVendorReportedEchoSpacing": 0.00049,
  "DeviceSerialNumber": "66112",
  "DwellTime": 2e-06,
  "EchoTime": 0.0272,
  "EchoTrainLength": 82,
  "EffectiveEchoSpacing": 0.00049,
  "FlipAngle": 44,
  "ImageComments": "Unaliased MB8/PE3",
  "ImageOrientationPatientDICOM": [0.999273, 0.0169042, 0.0341761, -0.0148256, 0.998077, -0.0601839],
  "ImageType": [
    "ORIGINAL",
    "PRIMARY",
    "M",
    "MB",
    "ND",
    "NORM",
    "MOSAIC"
],
  "ImagingFrequency": 123.252,
  "InPlanePhaseEncodingDirectionDICOM": "COL",
  "InstitutionAddress": "Maynard 3,Hanover,NH,US,03755",
  "InstitutionName": "Dartmouth College - PBS",
  "InstitutionalDepartmentName": "Department",
  "MRAcquisitionType": "2D",
  "MagneticFieldStrength": 3,
  "Manufacturer": "Siemens",
  "ManufacturersModelName": "Prisma",
  "Modality": "MR",
  "MultibandAccelerationFactor": 8,
  "PartialFourier": 1,
  "PatientPosition": "HFS",
  "PercentPhaseFOV": 100,
  "PercentSampling": 100,
  "PhaseEncodingDirection": "j-",
  "PhaseEncodingSteps": 82,
  "PhaseResolution": 1,
  "PixelBandwidth": 3050,
  "ProcedureStepDescription": "Wager_Wager^1076_spacetop",
  "ProtocolName": "func_run-05_task-social_acq-ap-mb8",
  "PulseSequenceDetails": "%CustomerSeq%\\cmrr_mbep2d_bold",
  "ReceiveCoilActiveElements": "HEA;HEP",
  "ReceiveCoilName": "Head_32",
  "ReconMatrixPE": 82,
  "RepetitionTime": 0.46,
  "SAR": 0.104251,
  "ScanOptions": "FS",
  "ScanningSequence": "EP",
  "SequenceName": "epfid2d1_82",
  "SequenceVariant": "SK\\SS",
  "SeriesDescription": "func_run-05_task-social_acq-ap-mb8",
  "SeriesNumber": 20,
  "ShimSetting": [4162, -7732, -7262, 441, -70, -31, 23, 63],
  "SliceThickness": 2.7,
  "SliceTiming": [0, 0.25, 0.0625, 0.3125, 0.125, 0.3775, 0.1875, 0, 0.25, 0.0625, 0.3125, 0.125, 0.3775, 0.1875, 0, 0.25, 0.0625, 0.3125, 0.125, 0.3775, 0.1875, 0, 0.25, 0.0625, 0.3125, 0.125, 0.3775, 0.1875, 0, 0.25, 0.0625, 0.3125, 0.125, 0.3775, 0.1875, 0, 0.25, 0.0625, 0.3125, 0.125, 0.3775, 0.1875, 0, 0.25, 0.0625, 0.3125, 0.125, 0.3775, 0.1875, 0, 0.25, 0.0625, 0.3125, 0.125, 0.3775, 0.1875],
  "SoftwareVersions": "syngo MR E11",
  "SpacingBetweenSlices": 2.7,
  "StationName": "AWP66112",
  "TaskName": "social",
  "TotalReadoutTime": 0.03969,
  "TxRefAmp": 290.949,
  "WipMemBlock": "e6f227fc-9bca-48a1-91a6-c396a5366368||Sequence: R016 ve11e/master r/434b28f1; Aug  7 2019 18:53:46 by eja",
  "dcmmeta_affine": [
    [-2.680975914001465, -0.03977610915899277, 0.09484487771987915, 110.62857055664062],
    [-0.04535277187824249, 2.6777682304382324, -0.16101045906543732, -82.45999908447266],
    [0.09169194102287292, 0.16146913170814514, 2.693525552749634, -84.77753448486328],
    [0.0, 0.0, 0.0, 1.0]
],
  "dcmmeta_reorient_transform": [
    [0.0, -1.0, 0.0, 81.0],
    [1.0, 0.0, 0.0, 0.0],
    [0.0, 0.0, 1.0, 0.0],
    [0.0, 0.0, 0.0, 1.0]
],
  "dcmmeta_shape": [82, 82, 56, 872],
  "dcmmeta_slice_dim": 2,
  "dcmmeta_version": 0.6,
  "global": {
    "const": {
      "AccessionNumber": "A003867",
      "AcquisitionMatrix": [82, 0, 0, 82],
      "AngioFlag": "N",
      "BitsAllocated": 16,
      "BitsStored": 16,
      "BodyPartExamined": "BRAIN",
      "Columns": 656,
      "EchoNumbers": 1,
      "EchoTime": 27.2,
      "EchoTrainLength": 82,
      "FlipAngle": 44.0,
      "HighBit": 15,
      "ImageOrientationPatient": [0.99927285697693, 0.01690421480463, 0.03417608565946, -0.0148256399521, 0.99807719783481, -0.0601839477122],
      "ImagePositionPatient": [-865.43108422009, -915.97492418349, -51.672483313771],
      "ImageType": [
        "ORIGINAL",
        "PRIMARY",
        "M",
        "MB",
        "ND",
        "NORM",
        "MOSAIC"
],
      "ImagedNucleus": "1H",
      "ImagingFrequency": 123.252202,
      "InPlanePhaseEncodingDirection": "COL",
      "MRAcquisitionType": "2D",
      "MagneticFieldStrength": 3.0,
      "Manufacturer": "SIEMENS",
      "ManufacturerModelName": "Prisma",
      "Modality": "MR",
      "NumberOfAverages": 1.0,
      "NumberOfPhaseEncodingSteps": 82,
      "PercentPhaseFieldOfView": 100.0,
      "PercentSampling": 100.0,
      "PerformedProcedureStepStartTime": "101212.250000",
      "PhotometricInterpretation": "MONOCHROME2",
      "PixelBandwidth": 3050.0,
      "PixelRepresentation": 0,
      "PixelSpacing": [2.6829268932343, 2.6829268932343],
      "ProtocolName": "func_run-05_task-social_acq-ap-mb8",
      "RepetitionTime": 460.0,
      "Rows": 656,
      "SAR": 0.10425108898289,
      "SamplesPerPixel": 1,
      "ScanOptions": "FS",
      "ScanningSequence": "EP",
      "SequenceName": "epfid2d1_82",
      "SequenceVariant": [
        "SK",
        "SS"
],
      "SeriesDescription": "func_run-05_task-social_acq-ap-mb8",
      "SeriesNumber": 20,
      "SeriesTime": "112121.636000",
      "SliceLocation": -75.770736587635,
      "SliceThickness": 2.7000000476837,
      "SmallestImagePixelValue": 0,
      "SoftwareVersions": "syngo MR E11",
      "SpacingBetweenSlices": 2.6999999718286,
      "SpecificCharacterSet": "ISO_IR 100",
      "StudyID": "1",
      "StudyTime": "101212.185000",
      "TransmitCoilName": "Body",
      "VariableFlipAngleFlag": "N",
      "WindowCenterWidthExplanation": "Algo1"
    },
    "slices": {}
  },
  "time": {
    "samples": {
      "AcquisitionNumber": [1, 2, 3, 4, 5, 6, 7, 8, 9, 10, 11, 12, 13, 14, 15, 16, 17, 18, 19, 20, 21, 22, 23, 24, 25, 26, 27, 28, 29, 30, 31, 32, 33, 34, 35, 36, 37, 38, 39, 40, 41, 42, 43, 44, 45, 46, 47, 48, 49, 50, 51, 52, 53, 54, 55, 56, 57, 58, 59, 60, 61, 62, 63, 64, 65, 66, 67, 68, 69, 70, 71, 72, 73, 74, 75, 76, 77, 78, 79, 80, 81, 82, 83, 84, 85, 86, 87, 88, 89, 90, 91, 92, 93, 94, 95, 96, 97, 98, 99, 100, 101, 102, 103, 104, 105, 106, 107, 108, 109, 110, 111, 112, 113, 114, 115, 116, 117, 118, 119, 120, 121, 122, 123, 124, 125, 126, 127, 128, 129, 130, 131, 132, 133, 134, 135, 136, 137, 138, 139, 140, 141, 142, 143, 144, 145, 146, 147, 148, 149, 150, 151, 152, 153, 154, 155, 156, 157, 158, 159, 160, 161, 162, 163, 164, 165, 166, 167, 168, 169, 170, 171, 172, 173, 174, 175, 176, 177, 178, 179, 180, 181, 182, 183, 184, 185, 186, 187, 188, 189, 190, 191, 192, 193, 194, 195, 196, 197, 198, 199, 200, 201, 202, 203, 204, 205, 206, 207, 208, 209, 210, 211, 212, 213, 214, 215, 216, 217, 218, 219, 220, 221, 222, 223, 224, 225, 226, 227, 228, 229, 230, 231, 232, 233, 234, 235, 236, 237, 238, 239, 240, 241, 242, 243, 244, 245, 246, 247, 248, 249, 250, 251, 252, 253, 254, 255, 256, 257, 258, 259, 260, 261, 262, 263, 264, 265, 266, 267, 268, 269, 270, 271, 272, 273, 274, 275, 276, 277, 278, 279, 280, 281, 282, 283, 284, 285, 286, 287, 288, 289, 290, 291, 292, 293, 294, 295, 296, 297, 298, 299, 300, 301, 302, 303, 304, 305, 306, 307, 308, 309, 310, 311, 312, 313, 314, 315, 316, 317, 318, 319, 320, 321, 322, 323, 324, 325, 326, 327, 328, 329, 330, 331, 332, 333, 334, 335, 336, 337, 338, 339, 340, 341, 342, 343, 344, 345, 346, 347, 348, 349, 350, 351, 352, 353, 354, 355, 356, 357, 358, 359, 360, 361, 362, 363, 364, 365, 366, 367, 368, 369, 370, 371, 372, 373, 374, 375, 376, 377, 378, 379, 380, 381, 382, 383, 384, 385, 386, 387, 388, 389, 390, 391, 392, 393, 394, 395, 396, 397, 398, 399, 400, 401, 402, 403, 404, 405, 406, 407, 408, 409, 410, 411, 412, 413, 414, 415, 416, 417, 418, 419, 420, 421, 422, 423, 424, 425, 426, 427, 428, 429, 430, 431, 432, 433, 434, 435, 436, 437, 438, 439, 440, 441, 442, 443, 444, 445, 446, 447, 448, 449, 450, 451, 452, 453, 454, 455, 456, 457, 458, 459, 460, 461, 462, 463, 464, 465, 466, 467, 468, 469, 470, 471, 472, 473, 474, 475, 476, 477, 478, 479, 480, 481, 482, 483, 484, 485, 486, 487, 488, 489, 490, 491, 492, 493, 494, 495, 496, 497, 498, 499, 500, 501, 502, 503, 504, 505, 506, 507, 508, 509, 510, 511, 512, 513, 514, 515, 516, 517, 518, 519, 520, 521, 522, 523, 524, 525, 526, 527, 528, 529, 530, 531, 532, 533, 534, 535, 536, 537, 538, 539, 540, 541, 542, 543, 544, 545, 546, 547, 548, 549, 550, 551, 552, 553, 554, 555, 556, 557, 558, 559, 560, 561, 562, 563, 564, 565, 566, 567, 568, 569, 570, 571, 572, 573, 574, 575, 576, 577, 578, 579, 580, 581, 582, 583, 584, 585, 586, 587, 588, 589, 590, 591, 592, 593, 594, 595, 596, 597, 598, 599, 600, 601, 602, 603, 604, 605, 606, 607, 608, 609, 610, 611, 612, 613, 614, 615, 616, 617, 618, 619, 620, 621, 622, 623, 624, 625, 626, 627, 628, 629, 630, 631, 632, 633, 634, 635, 636, 637, 638, 639, 640, 641, 642, 643, 644, 645, 646, 647, 648, 649, 650, 651, 652, 653, 654, 655, 656, 657, 658, 659, 660, 661, 662, 663, 664, 665, 666, 667, 668, 669, 670, 671, 672, 673, 674, 675, 676, 677, 678, 679, 680, 681, 682, 683, 684, 685, 686, 687, 688, 689, 690, 691, 692, 693, 694, 695, 696, 697, 698, 699, 700, 701, 702, 703, 704, 705, 706, 707, 708, 709, 710, 711, 712, 713, 714, 715, 716, 717, 718, 719, 720, 721, 722, 723, 724, 725, 726, 727, 728, 729, 730, 731, 732, 733, 734, 735, 736, 737, 738, 739, 740, 741, 742, 743, 744, 745, 746, 747, 748, 749, 750, 751, 752, 753, 754, 755, 756, 757, 758, 759, 760, 761, 762, 763, 764, 765, 766, 767, 768, 769, 770, 771, 772, 773, 774, 775, 776, 777, 778, 779, 780, 781, 782, 783, 784, 785, 786, 787, 788, 789, 790, 791, 792, 793, 794, 795, 796, 797, 798, 799, 800, 801, 802, 803, 804, 805, 806, 807, 808, 809, 810, 811, 812, 813, 814, 815, 816, 817, 818, 819, 820, 821, 822, 823, 824, 825, 826, 827, 828, 829, 830, 831, 832, 833, 834, 835, 836, 837, 838, 839, 840, 841, 842, 843, 844, 845, 846, 847, 848, 849, 850, 851, 852, 853, 854, 855, 856, 857, 858, 859, 860, 861, 862, 863, 864, 865, 866, 867, 868, 869, 870, 871, 872],
      "AcquisitionTime": ["112110.620000", "112111.080000", "112111.540000", "112112.000000", "112112.460000", "112112.920000", "112113.380000", "112113.840000", "112114.300000", "112114.760000", "112115.220000", "112115.680000", "112116.140000", "112116.600000", "112117.060000", "112117.520000", "112117.980000", "112118.440000", "112118.900000", "112119.360000", "112119.820000", "112120.280000", "112120.740000", "112121.200000", "112121.660000", "112122.120000", "112122.580000", "112123.040000", "112123.500000", "112123.960000", "112124.420000", "112124.880000", "112125.340000", "112125.800000", "112126.260000", "112126.720000", "112127.180000", "112127.640000", "112128.100000", "112128.560000", "112129.020000", "112129.480000", "112129.940000", "112130.400000", "112130.860000", "112131.320000", "112131.780000", "112132.240000", "112132.700000", "112133.160000", "112133.620000", "112134.080000", "112134.540000", "112135.000000", "112135.460000", "112135.920000", "112136.380000", "112136.840000", "112137.300000", "112137.760000", "112138.220000", "112138.680000", "112139.140000", "112139.600000", "112140.060000", "112140.520000", "112140.980000", "112141.440000", "112141.900000", "112142.360000", "112142.820000", "112143.280000", "112143.740000", "112144.200000", "112144.660000", "112145.120000", "112145.580000", "112146.040000", "112146.500000", "112146.960000", "112147.420000", "112147.880000", "112148.340000", "112148.800000", "112149.260000", "112149.720000", "112150.180000", "112150.640000", "112151.100000", "112151.560000", "112152.020000", "112152.480000", "112152.940000", "112153.400000", "112153.860000", "112154.320000", "112154.780000", "112155.240000", "112155.700000", "112156.160000", "112156.620000", "112157.080000", "112157.540000", "112158.000000", "112158.460000", "112158.920000", "112159.380000", "112159.840000", "112200.300000", "112200.760000", "112201.220000", "112201.680000", "112202.140000", "112202.600000", "112203.060000", "112203.520000", "112203.980000", "112204.440000", "112204.900000", "112205.360000", "112205.820000", "112206.280000", "112206.740000", "112207.200000", "112207.660000", "112208.120000", "112208.580000", "112209.040000", "112209.500000", "112209.960000", "112210.420000", "112210.880000", "112211.340000", "112211.800000", "112212.260000", "112212.720000", "112213.180000", "112213.640000", "112214.100000", "112214.560000", "112215.020000", "112215.480000", "112215.940000", "112216.400000", "112216.860000", "112217.320000", "112217.780000", "112218.240000", "112218.700000", "112219.160000", "112219.620000", "112220.080000", "112220.540000", "112221.000000", "112221.460000", "112221.920000", "112222.380000", "112222.840000", "112223.300000", "112223.760000", "112224.220000", "112224.680000", "112225.140000", "112225.600000", "112226.060000", "112226.520000", "112226.980000", "112227.440000", "112227.900000", "112228.360000", "112228.820000", "112229.280000", "112229.740000", "112230.200000", "112230.660000", "112231.120000", "112231.580000", "112232.040000", "112232.500000", "112232.960000", "112233.420000", "112233.880000", "112234.340000", "112234.800000", "112235.260000", "112235.720000", "112236.180000", "112236.640000", "112237.100000", "112237.560000", "112238.020000", "112238.480000", "112238.940000", "112239.400000", "112239.860000", "112240.320000", "112240.780000", "112241.240000", "112241.700000", "112242.160000", "112242.620000", "112243.080000", "112243.540000", "112244.000000", "112244.460000", "112244.920000", "112245.380000", "112245.840000", "112246.300000", "112246.760000", "112247.220000", "112247.680000", "112248.140000", "112248.600000", "112249.060000", "112249.520000", "112249.980000", "112250.440000", "112250.900000", "112251.360000", "112251.820000", "112252.280000", "112252.740000", "112253.200000", "112253.660000", "112254.120000", "112254.580000", "112255.040000", "112255.500000", "112255.960000", "112256.420000", "112256.880000", "112257.340000", "112257.800000", "112258.260000", "112258.720000", "112259.180000", "112259.640000", "112300.100000", "112300.560000", "112301.020000", "112301.480000", "112301.940000", "112302.400000", "112302.860000", "112303.320000", "112303.780000", "112304.240000", "112304.700000", "112305.160000", "112305.620000", "112306.080000", "112306.540000", "112307.000000", "112307.460000", "112307.920000", "112308.380000", "112308.840000", "112309.300000", "112309.760000", "112310.220000", "112310.680000", "112311.140000", "112311.600000", "112312.060000", "112312.520000", "112312.980000", "112313.440000", "112313.900000", "112314.360000", "112314.820000", "112315.280000", "112315.740000", "112316.200000", "112316.660000", "112317.120000", "112317.580000", "112318.040000", "112318.500000", "112318.960000", "112319.420000", "112319.880000", "112320.340000", "112320.800000", "112321.260000", "112321.720000", "112322.180000", "112322.640000", "112323.100000", "112323.560000", "112324.020000", "112324.480000", "112324.940000", "112325.400000", "112325.860000", "112326.320000", "112326.780000", "112327.240000", "112327.700000", "112328.160000", "112328.620000", "112329.080000", "112329.540000", "112330.000000", "112330.460000", "112330.920000", "112331.380000", "112331.840000", "112332.300000", "112332.760000", "112333.220000", "112333.680000", "112334.140000", "112334.600000", "112335.060000", "112335.520000", "112335.980000", "112336.440000", "112336.900000", "112337.360000", "112337.820000", "112338.280000", "112338.740000", "112339.200000", "112339.660000", "112340.120000", "112340.580000", "112341.040000", "112341.500000", "112341.960000", "112342.420000", "112342.880000", "112343.340000", "112343.800000", "112344.260000", "112344.720000", "112345.180000", "112345.640000", "112346.100000", "112346.560000", "112347.020000", "112347.480000", "112347.940000", "112348.400000", "112348.860000", "112349.320000", "112349.780000", "112350.240000", "112350.700000", "112351.160000", "112351.620000", "112352.080000", "112352.540000", "112353.000000", "112353.460000", "112353.920000", "112354.380000", "112354.840000", "112355.300000", "112355.760000", "112356.220000", "112356.680000", "112357.140000", "112357.600000", "112358.060000", "112358.520000", "112358.980000", "112359.440000", "112359.900000", "112400.360000", "112400.820000", "112401.280000", "112401.740000", "112402.200000", "112402.660000", "112403.120000", "112403.580000", "112404.040000", "112404.500000", "112404.960000", "112405.420000", "112405.880000", "112406.340000", "112406.800000", "112407.260000", "112407.720000", "112408.180000", "112408.640000", "112409.100000", "112409.560000", "112410.020000", "112410.480000", "112410.940000", "112411.400000", "112411.860000", "112412.320000", "112412.780000", "112413.240000", "112413.700000", "112414.160000", "112414.620000", "112415.080000", "112415.540000", "112416.000000", "112416.460000", "112416.920000", "112417.380000", "112417.840000", "112418.300000", "112418.760000", "112419.220000", "112419.680000", "112420.140000", "112420.600000", "112421.060000", "112421.520000", "112421.980000", "112422.440000", "112422.900000", "112423.360000", "112423.820000", "112424.280000", "112424.740000", "112425.200000", "112425.660000", "112426.120000", "112426.580000", "112427.040000", "112427.500000", "112427.960000", "112428.420000", "112428.880000", "112429.340000", "112429.800000", "112430.260000", "112430.720000", "112431.180000", "112431.640000", "112432.100000", "112432.560000", "112433.020000", "112433.480000", "112433.940000", "112434.400000", "112434.860000", "112435.320000", "112435.780000", "112436.240000", "112436.700000", "112437.160000", "112437.620000", "112438.080000", "112438.540000", "112439.000000", "112439.460000", "112439.920000", "112440.380000", "112440.840000", "112441.300000", "112441.760000", "112442.220000", "112442.680000", "112443.140000", "112443.600000", "112444.060000", "112444.520000", "112444.980000", "112445.440000", "112445.900000", "112446.360000", "112446.820000", "112447.280000", "112447.740000", "112448.200000", "112448.660000", "112449.120000", "112449.580000", "112450.040000", "112450.500000", "112450.960000", "112451.420000", "112451.880000", "112452.340000", "112452.800000", "112453.260000", "112453.720000", "112454.180000", "112454.640000", "112455.100000", "112455.560000", "112456.020000", "112456.480000", "112456.940000", "112457.400000", "112457.860000", "112458.320000", "112458.780000", "112459.240000", "112459.700000", "112500.160000", "112500.620000", "112501.080000", "112501.540000", "112502.000000", "112502.460000", "112502.920000", "112503.380000", "112503.840000", "112504.300000", "112504.760000", "112505.220000", "112505.680000", "112506.140000", "112506.600000", "112507.060000", "112507.520000", "112507.980000", "112508.440000", "112508.900000", "112509.360000", "112509.820000", "112510.280000", "112510.740000", "112511.200000", "112511.660000", "112512.120000", "112512.580000", "112513.040000", "112513.500000", "112513.960000", "112514.420000", "112514.880000", "112515.340000", "112515.800000", "112516.260000", "112516.720000", "112517.180000", "112517.640000", "112518.100000", "112518.560000", "112519.020000", "112519.480000", "112519.940000", "112520.400000", "112520.860000", "112521.320000", "112521.780000", "112522.240000", "112522.700000", "112523.160000", "112523.620000", "112524.080000", "112524.540000", "112525.000000", "112525.460000", "112525.920000", "112526.380000", "112526.840000", "112527.300000", "112527.760000", "112528.220000", "112528.680000", "112529.140000", "112529.600000", "112530.060000", "112530.520000", "112530.980000", "112531.440000", "112531.900000", "112532.360000", "112532.820000", "112533.280000", "112533.740000", "112534.200000", "112534.660000", "112535.120000", "112535.580000", "112536.040000", "112536.500000", "112536.960000", "112537.420000", "112537.880000", "112538.340000", "112538.800000", "112539.260000", "112539.720000", "112540.180000", "112540.640000", "112541.100000", "112541.560000", "112542.020000", "112542.480000", "112542.940000", "112543.400000", "112543.860000", "112544.320000", "112544.780000", "112545.240000", "112545.700000", "112546.160000", "112546.620000", "112547.080000", "112547.540000", "112548.000000", "112548.460000", "112548.920000", "112549.380000", "112549.840000", "112550.300000", "112550.760000", "112551.220000", "112551.680000", "112552.140000", "112552.600000", "112553.060000", "112553.520000", "112553.980000", "112554.440000", "112554.900000", "112555.360000", "112555.820000", "112556.280000", "112556.740000", "112557.200000", "112557.660000", "112558.120000", "112558.580000", "112559.040000", "112559.500000", "112559.960000", "112600.420000", "112600.880000", "112601.340000", "112601.800000", "112602.260000", "112602.720000", "112603.180000", "112603.640000", "112604.100000", "112604.560000", "112605.020000", "112605.480000", "112605.940000", "112606.400000", "112606.860000", "112607.320000", "112607.780000", "112608.240000", "112608.700000", "112609.160000", "112609.620000", "112610.080000", "112610.540000", "112611.000000", "112611.460000", "112611.920000", "112612.380000", "112612.840000", "112613.300000", "112613.760000", "112614.220000", "112614.680000", "112615.140000", "112615.600000", "112616.060000", "112616.520000", "112616.980000", "112617.440000", "112617.900000", "112618.360000", "112618.820000", "112619.280000", "112619.740000", "112620.200000", "112620.660000", "112621.120000", "112621.580000", "112622.040000", "112622.500000", "112622.960000", "112623.420000", "112623.880000", "112624.340000", "112624.800000", "112625.260000", "112625.720000", "112626.180000", "112626.640000", "112627.100000", "112627.560000", "112628.020000", "112628.480000", "112628.940000", "112629.400000", "112629.860000", "112630.320000", "112630.780000", "112631.240000", "112631.700000", "112632.160000", "112632.620000", "112633.080000", "112633.540000", "112634.000000", "112634.460000", "112634.920000", "112635.380000", "112635.840000", "112636.300000", "112636.760000", "112637.220000", "112637.680000", "112638.140000", "112638.600000", "112639.060000", "112639.520000", "112639.980000", "112640.440000", "112640.900000", "112641.360000", "112641.820000", "112642.280000", "112642.740000", "112643.200000", "112643.660000", "112644.120000", "112644.580000", "112645.040000", "112645.500000", "112645.960000", "112646.420000", "112646.880000", "112647.340000", "112647.800000", "112648.260000", "112648.720000", "112649.180000", "112649.640000", "112650.100000", "112650.560000", "112651.020000", "112651.480000", "112651.940000", "112652.400000", "112652.860000", "112653.320000", "112653.780000", "112654.240000", "112654.700000", "112655.160000", "112655.620000", "112656.080000", "112656.540000", "112657.000000", "112657.460000", "112657.920000", "112658.380000", "112658.840000", "112659.300000", "112659.760000", "112700.220000", "112700.680000", "112701.140000", "112701.600000", "112702.060000", "112702.520000", "112702.980000", "112703.440000", "112703.900000", "112704.360000", "112704.820000", "112705.280000", "112705.740000", "112706.200000", "112706.660000", "112707.120000", "112707.580000", "112708.040000", "112708.500000", "112708.960000", "112709.420000", "112709.880000", "112710.340000", "112710.800000", "112711.260000", "112711.720000", "112712.180000", "112712.640000", "112713.100000", "112713.560000", "112714.020000", "112714.480000", "112714.940000", "112715.400000", "112715.860000", "112716.320000", "112716.780000", "112717.240000", "112717.700000", "112718.160000", "112718.620000", "112719.080000", "112719.540000", "112720.000000", "112720.460000", "112720.920000", "112721.380000", "112721.840000", "112722.300000", "112722.760000", "112723.220000", "112723.680000", "112724.140000", "112724.600000", "112725.060000", "112725.520000", "112725.980000", "112726.440000", "112726.900000", "112727.360000", "112727.820000", "112728.280000", "112728.740000", "112729.200000", "112729.660000", "112730.120000", "112730.580000", "112731.040000", "112731.500000", "112731.960000", "112732.420000", "112732.880000", "112733.340000", "112733.800000", "112734.260000", "112734.720000", "112735.180000", "112735.640000", "112736.100000", "112736.560000", "112737.020000", "112737.480000", "112737.940000", "112738.400000", "112738.860000", "112739.320000", "112739.780000", "112740.240000", "112740.700000", "112741.160000", "112741.620000", "112742.080000", "112742.540000", "112743.000000", "112743.460000", "112743.920000", "112744.380000", "112744.840000", "112745.300000", "112745.760000", "112746.220000", "112746.680000", "112747.140000", "112747.600000", "112748.060000", "112748.520000", "112748.980000", "112749.440000", "112749.900000", "112750.360000", "112750.820000", "112751.280000"],
