{
  "AcquisitionMatrixPE": 82,
  "AcquisitionNumber": 1,
  "AcquisitionTime": "18:01:46.912500",
  "BandwidthPerPixelPhaseEncode": 24.888,
  "BaseResolution": 82,
  "BodyPartExamined": "BRAIN",
  "ConsistencyInfo": "N4_VE11E_LATEST_20181129",
  "ConversionSoftware": "dcm2niix",
  "ConversionSoftwareVersion": "v1.0.20201102",
  "DerivedVendorReportedEchoSpacing": 0.00049,
  "DeviceSerialNumber": "66112",
  "DwellTime": 2e-06,
  "EchoTime": 0.0272,
  "EchoTrainLength": 82,
  "EffectiveEchoSpacing": 0.00049,
  "FlipAngle": 44,
  "ImageComments": "Unaliased MB8/PE3",
  "ImageOrientationPatientDICOM": [0.998922, -0.036031, 0.0292677, 0.0371525, 0.998559, -0.0387251],
  "ImageType": [
    "ORIGINAL",
    "PRIMARY",
    "M",
    "MB",
    "ND",
    "NORM",
    "MOSAIC"
],
  "ImagingFrequency": 123.259,
  "InPlanePhaseEncodingDirectionDICOM": "COL",
  "InstitutionAddress": "Maynard 3,Hanover,NH,US,03755",
  "InstitutionName": "Dartmouth College - PBS",
  "InstitutionalDepartmentName": "Department",
  "MRAcquisitionType": "2D",
  "MagneticFieldStrength": 3,
  "Manufacturer": "Siemens",
  "ManufacturersModelName": "Prisma",
  "Modality": "MR",
  "MultibandAccelerationFactor": 8,
  "PartialFourier": 1,
  "PatientPosition": "HFS",
  "PercentPhaseFOV": 100,
  "PercentSampling": 100,
  "PhaseEncodingDirection": "j-",
  "PhaseEncodingSteps": 82,
  "PhaseResolution": 1,
  "PixelBandwidth": 3050,
  "ProcedureStepDescription": "Wager_Wager^1076_spacetop",
  "ProtocolName": "func_run-01_task-social_acq-ap-mb8",
  "PulseSequenceDetails": "%CustomerSeq%\\cmrr_mbep2d_bold",
  "ReceiveCoilActiveElements": "HEA;HEP",
  "ReceiveCoilName": "Head_32",
  "ReconMatrixPE": 82,
  "RepetitionTime": 0.46,
  "SAR": 0.114347,
  "ScanOptions": "FS",
  "ScanningSequence": "EP",
  "SequenceName": "epfid2d1_82",
  "SequenceVariant": "SK\\SS",
  "SeriesDescription": "func_run-01_task-social_acq-ap-mb8",
  "SeriesNumber": 8,
  "ShimSetting": [4251, -7895, -7077, 668, -37, -211, 342, 91],
  "SliceThickness": 2.7,
  "SliceTiming": [0, 0.2525, 0.0625, 0.315, 0.125, 0.3775, 0.19, 0, 0.2525, 0.0625, 0.315, 0.125, 0.3775, 0.19, 0, 0.2525, 0.0625, 0.315, 0.125, 0.3775, 0.19, 0, 0.2525, 0.0625, 0.315, 0.125, 0.3775, 0.19, 0, 0.2525, 0.0625, 0.315, 0.125, 0.3775, 0.19, 0, 0.2525, 0.0625, 0.315, 0.125, 0.3775, 0.19, 0, 0.2525, 0.0625, 0.315, 0.125, 0.3775, 0.19, 0, 0.2525, 0.0625, 0.315, 0.125, 0.3775, 0.19],
  "SoftwareVersions": "syngo MR E11",
  "SpacingBetweenSlices": 2.7,
  "StationName": "AWP66112",
  "TaskName": "social",
  "TotalReadoutTime": 0.03969,
  "TxRefAmp": 233.758,
  "WipMemBlock": "e0ddc258-377c-4bcb-a218-3077b6c64029||Sequence: R016 ve11e/master r/434b28f1; Aug  7 2019 18:53:46 by eja",
  "dcmmeta_affine": [
    [-2.680034637451172, 0.09967745840549469, 0.07514169067144394, 106.14152526855469],
    [0.09666848182678223, 2.679060697555542, -0.1073809564113617, -107.5296630859375],
    [0.078523188829422, 0.1038966104388237, 2.69681715965271, -39.82487487792969],
    [0.0, 0.0, 0.0, 1.0]
],
  "dcmmeta_reorient_transform": [
    [0.0, -1.0, 0.0, 81.0],
    [1.0, 0.0, 0.0, 0.0],
    [0.0, 0.0, 1.0, 0.0],
    [0.0, 0.0, 0.0, 1.0]
],
  "dcmmeta_shape": [82, 82, 56, 872],
  "dcmmeta_slice_dim": 2,
  "dcmmeta_version": 0.6,
  "global": {
    "const": {
      "AccessionNumber": "A004657",
      "AcquisitionMatrix": [82, 0, 0, 82],
      "AngioFlag": "N",
      "BitsAllocated": 16,
      "BitsStored": 16,
      "BodyPartExamined": "BRAIN",
      "Columns": 656,
      "EchoNumbers": 1,
      "EchoTime": 27.2,
      "EchoTrainLength": 82,
      "FlipAngle": 44.0,
      "HighBit": 15,
      "ImageOrientationPatient": [0.99892200309149, -0.0360309799713, 0.02926773346167, 0.03715250520193, 0.99855899071809, -0.0387251005589],
      "ImagePositionPatient": [-911.99278830307, -850.620845084, -24.127075014104],
      "ImageType": [
        "ORIGINAL",
        "PRIMARY",
        "M",
        "MB",
        "ND",
        "NORM",
        "MOSAIC"
],
      "ImagedNucleus": "1H",
      "ImagingFrequency": 123.259055,
      "InPlanePhaseEncodingDirection": "COL",
      "MRAcquisitionType": "2D",
      "MagneticFieldStrength": 3.0,
      "Manufacturer": "SIEMENS",
      "ManufacturerModelName": "Prisma",
      "Modality": "MR",
      "NumberOfAverages": 1.0,
      "NumberOfPhaseEncodingSteps": 82,
      "PercentPhaseFieldOfView": 100.0,
      "PercentSampling": 100.0,
      "PerformedProcedureStepStartTime": "174730.411000",
      "PhotometricInterpretation": "MONOCHROME2",
      "PixelBandwidth": 3050.0,
      "PixelRepresentation": 0,
      "PixelSpacing": [2.6829268932343, 2.6829268932343],
      "ProtocolName": "func_run-01_task-social_acq-ap-mb8",
      "RepetitionTime": 460.0,
      "Rows": 656,
      "SAR": 0.11434667525755,
      "SamplesPerPixel": 1,
      "ScanOptions": "FS",
      "ScanningSequence": "EP",
      "SequenceName": "epfid2d1_82",
      "SequenceVariant": [
        "SK",
        "SS"
],
      "SeriesDescription": "func_run-01_task-social_acq-ap-mb8",
      "SeriesNumber": 8,
      "SeriesTime": "180200.891000",
      "SliceLocation": -32.547449226061,
      "SliceThickness": 2.7000000476837,
      "SmallestImagePixelValue": 0,
      "SoftwareVersions": "syngo MR E11",
      "SpacingBetweenSlices": 2.7000000160117,
      "SpecificCharacterSet": "ISO_IR 100",
      "StudyID": "1",
      "StudyTime": "174730.284000",
      "TransmitCoilName": "Body",
      "VariableFlipAngleFlag": "N",
      "WindowCenterWidthExplanation": "Algo1"
    },
    "slices": {}
  },
  "time": {
    "samples": {
      "AcquisitionNumber": [1, 2, 3, 4, 5, 6, 7, 8, 9, 10, 11, 12, 13, 14, 15, 16, 17, 18, 19, 20, 21, 22, 23, 24, 25, 26, 27, 28, 29, 30, 31, 32, 33, 34, 35, 36, 37, 38, 39, 40, 41, 42, 43, 44, 45, 46, 47, 48, 49, 50, 51, 52, 53, 54, 55, 56, 57, 58, 59, 60, 61, 62, 63, 64, 65, 66, 67, 68, 69, 70, 71, 72, 73, 74, 75, 76, 77, 78, 79, 80, 81, 82, 83, 84, 85, 86, 87, 88, 89, 90, 91, 92, 93, 94, 95, 96, 97, 98, 99, 100, 101, 102, 103, 104, 105, 106, 107, 108, 109, 110, 111, 112, 113, 114, 115, 116, 117, 118, 119, 120, 121, 122, 123, 124, 125, 126, 127, 128, 129, 130, 131, 132, 133, 134, 135, 136, 137, 138, 139, 140, 141, 142, 143, 144, 145, 146, 147, 148, 149, 150, 151, 152, 153, 154, 155, 156, 157, 158, 159, 160, 161, 162, 163, 164, 165, 166, 167, 168, 169, 170, 171, 172, 173, 174, 175, 176, 177, 178, 179, 180, 181, 182, 183, 184, 185, 186, 187, 188, 189, 190, 191, 192, 193, 194, 195, 196, 197, 198, 199, 200, 201, 202, 203, 204, 205, 206, 207, 208, 209, 210, 211, 212, 213, 214, 215, 216, 217, 218, 219, 220, 221, 222, 223, 224, 225, 226, 227, 228, 229, 230, 231, 232, 233, 234, 235, 236, 237, 238, 239, 240, 241, 242, 243, 244, 245, 246, 247, 248, 249, 250, 251, 252, 253, 254, 255, 256, 257, 258, 259, 260, 261, 262, 263, 264, 265, 266, 267, 268, 269, 270, 271, 272, 273, 274, 275, 276, 277, 278, 279, 280, 281, 282, 283, 284, 285, 286, 287, 288, 289, 290, 291, 292, 293, 294, 295, 296, 297, 298, 299, 300, 301, 302, 303, 304, 305, 306, 307, 308, 309, 310, 311, 312, 313, 314, 315, 316, 317, 318, 319, 320, 321, 322, 323, 324, 325, 326, 327, 328, 329, 330, 331, 332, 333, 334, 335, 336, 337, 338, 339, 340, 341, 342, 343, 344, 345, 346, 347, 348, 349, 350, 351, 352, 353, 354, 355, 356, 357, 358, 359, 360, 361, 362, 363, 364, 365, 366, 367, 368, 369, 370, 371, 372, 373, 374, 375, 376, 377, 378, 379, 380, 381, 382, 383, 384, 385, 386, 387, 388, 389, 390, 391, 392, 393, 394, 395, 396, 397, 398, 399, 400, 401, 402, 403, 404, 405, 406, 407, 408, 409, 410, 411, 412, 413, 414, 415, 416, 417, 418, 419, 420, 421, 422, 423, 424, 425, 426, 427, 428, 429, 430, 431, 432, 433, 434, 435, 436, 437, 438, 439, 440, 441, 442, 443, 444, 445, 446, 447, 448, 449, 450, 451, 452, 453, 454, 455, 456, 457, 458, 459, 460, 461, 462, 463, 464, 465, 466, 467, 468, 469, 470, 471, 472, 473, 474, 475, 476, 477, 478, 479, 480, 481, 482, 483, 484, 485, 486, 487, 488, 489, 490, 491, 492, 493, 494, 495, 496, 497, 498, 499, 500, 501, 502, 503, 504, 505, 506, 507, 508, 509, 510, 511, 512, 513, 514, 515, 516, 517, 518, 519, 520, 521, 522, 523, 524, 525, 526, 527, 528, 529, 530, 531, 532, 533, 534, 535, 536, 537, 538, 539, 540, 541, 542, 543, 544, 545, 546, 547, 548, 549, 550, 551, 552, 553, 554, 555, 556, 557, 558, 559, 560, 561, 562, 563, 564, 565, 566, 567, 568, 569, 570, 571, 572, 573, 574, 575, 576, 577, 578, 579, 580, 581, 582, 583, 584, 585, 586, 587, 588, 589, 590, 591, 592, 593, 594, 595, 596, 597, 598, 599, 600, 601, 602, 603, 604, 605, 606, 607, 608, 609, 610, 611, 612, 613, 614, 615, 616, 617, 618, 619, 620, 621, 622, 623, 624, 625, 626, 627, 628, 629, 630, 631, 632, 633, 634, 635, 636, 637, 638, 639, 640, 641, 642, 643, 644, 645, 646, 647, 648, 649, 650, 651, 652, 653, 654, 655, 656, 657, 658, 659, 660, 661, 662, 663, 664, 665, 666, 667, 668, 669, 670, 671, 672, 673, 674, 675, 676, 677, 678, 679, 680, 681, 682, 683, 684, 685, 686, 687, 688, 689, 690, 691, 692, 693, 694, 695, 696, 697, 698, 699, 700, 701, 702, 703, 704, 705, 706, 707, 708, 709, 710, 711, 712, 713, 714, 715, 716, 717, 718, 719, 720, 721, 722, 723, 724, 725, 726, 727, 728, 729, 730, 731, 732, 733, 734, 735, 736, 737, 738, 739, 740, 741, 742, 743, 744, 745, 746, 747, 748, 749, 750, 751, 752, 753, 754, 755, 756, 757, 758, 759, 760, 761, 762, 763, 764, 765, 766, 767, 768, 769, 770, 771, 772, 773, 774, 775, 776, 777, 778, 779, 780, 781, 782, 783, 784, 785, 786, 787, 788, 789, 790, 791, 792, 793, 794, 795, 796, 797, 798, 799, 800, 801, 802, 803, 804, 805, 806, 807, 808, 809, 810, 811, 812, 813, 814, 815, 816, 817, 818, 819, 820, 821, 822, 823, 824, 825, 826, 827, 828, 829, 830, 831, 832, 833, 834, 835, 836, 837, 838, 839, 840, 841, 842, 843, 844, 845, 846, 847, 848, 849, 850, 851, 852, 853, 854, 855, 856, 857, 858, 859, 860, 861, 862, 863, 864, 865, 866, 867, 868, 869, 870, 871, 872],
      "AcquisitionTime": ["180146.912500", "180147.372500", "180147.832500", "180148.292500", "180148.752500", "180149.212500", "180149.672500", "180150.132500", "180150.592500", "180151.052500", "180151.512500", "180151.972500", "180152.432500", "180152.892500", "180153.352500", "180153.812500", "180154.272500", "180154.732500", "180155.192500", "180155.652500", "180156.112500", "180156.572500", "180157.032500", "180157.492500", "180157.952500", "180158.412500", "180158.872500", "180159.332500", "180159.792500", "180200.252500", "180200.712500", "180201.172500", "180201.632500", "180202.092500", "180202.552500", "180203.012500", "180203.472500", "180203.932500", "180204.392500", "180204.852500", "180205.312500", "180205.772500", "180206.232500", "180206.692500", "180207.152500", "180207.612500", "180208.072500", "180208.532500", "180208.992500", "180209.452500", "180209.912500", "180210.372500", "180210.832500", "180211.292500", "180211.752500", "180212.212500", "180212.672500", "180213.132500", "180213.592500", "180214.052500", "180214.512500", "180214.972500", "180215.432500", "180215.892500", "180216.352500", "180216.812500", "180217.272500", "180217.732500", "180218.192500", "180218.652500", "180219.112500", "180219.572500", "180220.032500", "180220.492500", "180220.952500", "180221.412500", "180221.872500", "180222.332500", "180222.792500", "180223.252500", "180223.712500", "180224.172500", "180224.632500", "180225.092500", "180225.552500", "180226.012500", "180226.472500", "180226.932500", "180227.392500", "180227.852500", "180228.312500", "180228.772500", "180229.232500", "180229.692500", "180230.152500", "180230.612500", "180231.072500", "180231.532500", "180231.992500", "180232.452500", "180232.912500", "180233.372500", "180233.832500", "180234.292500", "180234.752500", "180235.212500", "180235.672500", "180236.132500", "180236.592500", "180237.052500", "180237.512500", "180237.972500", "180238.432500", "180238.892500", "180239.352500", "180239.812500", "180240.272500", "180240.732500", "180241.192500", "180241.652500", "180242.112500", "180242.572500", "180243.032500", "180243.492500", "180243.952500", "180244.412500", "180244.872500", "180245.332500", "180245.792500", "180246.252500", "180246.712500", "180247.172500", "180247.632500", "180248.092500", "180248.552500", "180249.012500", "180249.472500", "180249.932500", "180250.392500", "180250.852500", "180251.312500", "180251.772500", "180252.232500", "180252.692500", "180253.152500", "180253.612500", "180254.072500", "180254.532500", "180254.992500", "180255.452500", "180255.912500", "180256.372500", "180256.832500", "180257.292500", "180257.752500", "180258.212500", "180258.672500", "180259.132500", "180259.592500", "180300.052500", "180300.512500", "180300.972500", "180301.432500", "180301.892500", "180302.352500", "180302.812500", "180303.272500", "180303.732500", "180304.192500", "180304.652500", "180305.112500", "180305.572500", "180306.032500", "180306.492500", "180306.952500", "180307.412500", "180307.872500", "180308.332500", "180308.792500", "180309.252500", "180309.712500", "180310.172500", "180310.632500", "180311.092500", "180311.552500", "180312.012500", "180312.472500", "180312.932500", "180313.392500", "180313.852500", "180314.312500", "180314.772500", "180315.232500", "180315.692500", "180316.152500", "180316.612500", "180317.072500", "180317.532500", "180317.992500", "180318.452500", "180318.912500", "180319.372500", "180319.832500", "180320.292500", "180320.752500", "180321.212500", "180321.672500", "180322.132500", "180322.592500", "180323.052500", "180323.512500", "180323.972500", "180324.432500", "180324.892500", "180325.352500", "180325.812500", "180326.272500", "180326.732500", "180327.192500", "180327.652500", "180328.112500", "180328.572500", "180329.032500", "180329.492500", "180329.952500", "180330.412500", "180330.872500", "180331.332500", "180331.792500", "180332.252500", "180332.712500", "180333.172500", "180333.632500", "180334.092500", "180334.552500", "180335.012500", "180335.472500", "180335.932500", "180336.392500", "180336.852500", "180337.312500", "180337.772500", "180338.232500", "180338.692500", "180339.152500", "180339.612500", "180340.072500", "180340.532500", "180340.992500", "180341.452500", "180341.912500", "180342.372500", "180342.832500", "180343.292500", "180343.752500", "180344.212500", "180344.672500", "180345.132500", "180345.592500", "180346.052500", "180346.512500", "180346.972500", "180347.432500", "180347.892500", "180348.352500", "180348.812500", "180349.272500", "180349.732500", "180350.192500", "180350.652500", "180351.112500", "180351.572500", "180352.032500", "180352.492500", "180352.952500", "180353.412500", "180353.872500", "180354.332500", "180354.792500", "180355.252500", "180355.712500", "180356.172500", "180356.632500", "180357.092500", "180357.552500", "180358.012500", "180358.472500", "180358.932500", "180359.392500", "180359.852500", "180400.312500", "180400.772500", "180401.232500", "180401.692500", "180402.152500", "180402.612500", "180403.072500", "180403.532500", "180403.992500", "180404.452500", "180404.912500", "180405.372500", "180405.832500", "180406.292500", "180406.752500", "180407.212500", "180407.672500", "180408.132500", "180408.592500", "180409.052500", "180409.512500", "180409.972500", "180410.432500", "180410.892500", "180411.352500", "180411.812500", "180412.272500", "180412.732500", "180413.192500", "180413.652500", "180414.112500", "180414.572500", "180415.032500", "180415.492500", "180415.952500", "180416.412500", "180416.872500", "180417.332500", "180417.792500", "180418.252500", "180418.712500", "180419.172500", "180419.632500", "180420.092500", "180420.552500", "180421.012500", "180421.472500", "180421.932500", "180422.392500", "180422.852500", "180423.312500", "180423.772500", "180424.232500", "180424.692500", "180425.152500", "180425.612500", "180426.072500", "180426.532500", "180426.992500", "180427.452500", "180427.912500", "180428.372500", "180428.832500", "180429.292500", "180429.752500", "180430.212500", "180430.672500", "180431.132500", "180431.592500", "180432.052500", "180432.512500", "180432.972500", "180433.432500", "180433.892500", "180434.352500", "180434.812500", "180435.272500", "180435.732500", "180436.192500", "180436.652500", "180437.112500", "180437.572500", "180438.032500", "180438.492500", "180438.952500", "180439.412500", "180439.872500", "180440.332500", "180440.792500", "180441.252500", "180441.712500", "180442.172500", "180442.632500", "180443.092500", "180443.552500", "180444.012500", "180444.472500", "180444.932500", "180445.392500", "180445.852500", "180446.312500", "180446.772500", "180447.232500", "180447.692500", "180448.152500", "180448.612500", "180449.072500", "180449.532500", "180449.992500", "180450.452500", "180450.912500", "180451.372500", "180451.832500", "180452.292500", "180452.752500", "180453.212500", "180453.672500", "180454.132500", "180454.592500", "180455.052500", "180455.512500", "180455.972500", "180456.432500", "180456.892500", "180457.352500", "180457.812500", "180458.272500", "180458.732500", "180459.192500", "180459.652500", "180500.112500", "180500.572500", "180501.032500", "180501.492500", "180501.952500", "180502.412500", "180502.872500", "180503.332500", "180503.792500", "180504.252500", "180504.712500", "180505.172500", "180505.632500", "180506.092500", "180506.552500", "180507.012500", "180507.472500", "180507.932500", "180508.392500", "180508.852500", "180509.312500", "180509.772500", "180510.232500", "180510.692500", "180511.152500", "180511.612500", "180512.072500", "180512.532500", "180512.992500", "180513.452500", "180513.912500", "180514.372500", "180514.832500", "180515.292500", "180515.752500", "180516.212500", "180516.672500", "180517.132500", "180517.592500", "180518.052500", "180518.512500", "180518.972500", "180519.432500", "180519.892500", "180520.352500", "180520.812500", "180521.272500", "180521.732500", "180522.192500", "180522.652500", "180523.112500", "180523.572500", "180524.032500", "180524.492500", "180524.952500", "180525.412500", "180525.872500", "180526.332500", "180526.792500", "180527.252500", "180527.712500", "180528.172500", "180528.632500", "180529.092500", "180529.552500", "180530.012500", "180530.472500", "180530.932500", "180531.392500", "180531.852500", "180532.312500", "180532.772500", "180533.232500", "180533.692500", "180534.152500", "180534.612500", "180535.072500", "180535.532500", "180535.992500", "180536.452500", "180536.912500", "180537.372500", "180537.832500", "180538.292500", "180538.752500", "180539.212500", "180539.672500", "180540.132500", "180540.592500", "180541.052500", "180541.512500", "180541.972500", "180542.432500", "180542.892500", "180543.352500", "180543.812500", "180544.272500", "180544.732500", "180545.192500", "180545.652500", "180546.112500", "180546.572500", "180547.032500", "180547.492500", "180547.952500", "180548.412500", "180548.872500", "180549.332500", "180549.792500", "180550.252500", "180550.712500", "180551.172500", "180551.632500", "180552.092500", "180552.552500", "180553.012500", "180553.472500", "180553.932500", "180554.392500", "180554.852500", "180555.312500", "180555.772500", "180556.232500", "180556.692500", "180557.152500", "180557.612500", "180558.072500", "180558.532500", "180558.992500", "180559.452500", "180559.912500", "180600.372500", "180600.832500", "180601.292500", "180601.752500", "180602.212500", "180602.672500", "180603.132500", "180603.592500", "180604.052500", "180604.512500", "180604.972500", "180605.432500", "180605.892500", "180606.352500", "180606.812500", "180607.272500", "180607.732500", "180608.192500", "180608.652500", "180609.112500", "180609.572500", "180610.032500", "180610.492500", "180610.952500", "180611.412500", "180611.872500", "180612.332500", "180612.792500", "180613.252500", "180613.712500", "180614.172500", "180614.632500", "180615.092500", "180615.552500", "180616.012500", "180616.472500", "180616.932500", "180617.392500", "180617.852500", "180618.312500", "180618.772500", "180619.232500", "180619.692500", "180620.152500", "180620.612500", "180621.072500", "180621.532500", "180621.992500", "180622.452500", "180622.912500", "180623.372500", "180623.832500", "180624.292500", "180624.752500", "180625.212500", "180625.672500", "180626.132500", "180626.592500", "180627.052500", "180627.512500", "180627.972500", "180628.432500", "180628.892500", "180629.352500", "180629.812500", "180630.272500", "180630.732500", "180631.192500", "180631.652500", "180632.112500", "180632.572500", "180633.032500", "180633.492500", "180633.952500", "180634.412500", "180634.872500", "180635.332500", "180635.792500", "180636.252500", "180636.712500", "180637.172500", "180637.632500", "180638.092500", "180638.552500", "180639.012500", "180639.472500", "180639.932500", "180640.392500", "180640.852500", "180641.312500", "180641.772500", "180642.232500", "180642.692500", "180643.152500", "180643.612500", "180644.072500", "180644.532500", "180644.992500", "180645.452500", "180645.912500", "180646.372500", "180646.832500", "180647.292500", "180647.752500", "180648.212500", "180648.672500", "180649.132500", "180649.592500", "180650.052500", "180650.512500", "180650.972500", "180651.432500", "180651.892500", "180652.352500", "180652.812500", "180653.272500", "180653.732500", "180654.192500", "180654.652500", "180655.112500", "180655.572500", "180656.032500", "180656.492500", "180656.952500", "180657.412500", "180657.872500", "180658.332500", "180658.792500", "180659.252500", "180659.712500", "180700.172500", "180700.632500", "180701.092500", "180701.552500", "180702.012500", "180702.472500", "180702.932500", "180703.392500", "180703.852500", "180704.312500", "180704.772500", "180705.232500", "180705.692500", "180706.152500", "180706.612500", "180707.072500", "180707.532500", "180707.992500", "180708.452500", "180708.912500", "180709.372500", "180709.832500", "180710.292500", "180710.752500", "180711.212500", "180711.672500", "180712.132500", "180712.592500", "180713.052500", "180713.512500", "180713.972500", "180714.432500", "180714.892500", "180715.352500", "180715.812500", "180716.272500", "180716.732500", "180717.192500", "180717.652500", "180718.112500", "180718.572500", "180719.032500", "180719.492500", "180719.952500", "180720.412500", "180720.872500", "180721.332500", "180721.792500", "180722.252500", "180722.712500", "180723.172500", "180723.632500", "180724.092500", "180724.552500", "180725.012500", "180725.472500", "180725.932500", "180726.392500", "180726.852500", "180727.312500", "180727.772500", "180728.232500", "180728.692500", "180729.152500", "180729.612500", "180730.072500", "180730.532500", "180730.992500", "180731.452500", "180731.912500", "180732.372500", "180732.832500", "180733.292500", "180733.752500", "180734.212500", "180734.672500", "180735.132500", "180735.592500", "180736.052500", "180736.512500", "180736.972500", "180737.432500", "180737.892500", "180738.352500", "180738.812500", "180739.272500", "180739.732500", "180740.192500", "180740.652500", "180741.112500", "180741.572500", "180742.032500", "180742.492500", "180742.952500", "180743.412500", "180743.872500", "180744.332500", "180744.792500", "180745.252500", "180745.712500", "180746.172500", "180746.632500", "180747.092500", "180747.552500", "180748.012500", "180748.472500", "180748.932500", "180749.392500", "180749.852500", "180750.312500", "180750.772500", "180751.232500", "180751.692500", "180752.152500", "180752.612500", "180753.072500", "180753.532500", "180753.992500", "180754.452500", "180754.912500", "180755.372500", "180755.832500", "180756.292500", "180756.752500", "180757.212500", "180757.672500", "180758.132500", "180758.592500", "180759.052500", "180759.512500", "180759.972500", "180800.432500", "180800.892500", "180801.352500", "180801.812500", "180802.272500", "180802.732500", "180803.192500", "180803.652500", "180804.112500", "180804.572500", "180805.032500", "180805.492500", "180805.952500", "180806.412500", "180806.872500", "180807.332500", "180807.792500", "180808.252500", "180808.712500", "180809.172500", "180809.632500", "180810.092500", "180810.552500", "180811.012500", "180811.472500", "180811.932500", "180812.392500", "180812.852500", "180813.312500", "180813.772500", "180814.232500", "180814.692500", "180815.152500", "180815.612500", "180816.072500", "180816.532500", "180816.992500", "180817.452500", "180817.912500", "180818.372500", "180818.832500", "180819.292500", "180819.752500", "180820.212500", "180820.672500", "180821.132500", "180821.592500", "180822.052500", "180822.512500", "180822.972500", "180823.432500", "180823.892500", "180824.352500", "180824.812500", "180825.272500", "180825.732500", "180826.192500", "180826.652500", "180827.112500", "180827.572500"],
