{
  "AcquisitionMatrixPE": 82,
  "AcquisitionNumber": 1,
  "AcquisitionTime": "18:31:15.605000",
  "BandwidthPerPixelPhaseEncode": 24.888,
  "BaseResolution": 82,
  "BodyPartExamined": "BRAIN",
  "ConsistencyInfo": "N4_VE11E_LATEST_20181129",
  "ConversionSoftware": "dcm2niix",
  "ConversionSoftwareVersion": "v1.0.20201102",
  "DerivedVendorReportedEchoSpacing": 0.00049,
  "DeviceSerialNumber": "66112",
  "DwellTime": 2e-06,
  "EchoTime": 0.0272,
  "EchoTrainLength": 82,
  "EffectiveEchoSpacing": 0.00049,
  "FlipAngle": 44,
  "ImageComments": "Unaliased MB8/PE3",
  "ImageOrientationPatientDICOM": [0.998922, -0.036031, 0.0292677, 0.0371525, 0.998559, -0.0387251],
  "ImageType": [
    "ORIGINAL",
    "PRIMARY",
    "M",
    "MB",
    "ND",
    "NORM",
    "MOSAIC"
],
  "ImagingFrequency": 123.259,
  "InPlanePhaseEncodingDirectionDICOM": "COL",
  "InstitutionAddress": "Maynard 3,Hanover,NH,US,03755",
  "InstitutionName": "Dartmouth College - PBS",
  "InstitutionalDepartmentName": "Department",
  "MRAcquisitionType": "2D",
  "MagneticFieldStrength": 3,
  "Manufacturer": "Siemens",
  "ManufacturersModelName": "Prisma",
  "Modality": "MR",
  "MultibandAccelerationFactor": 8,
  "PartialFourier": 1,
  "PatientPosition": "HFS",
  "PercentPhaseFOV": 100,
  "PercentSampling": 100,
  "PhaseEncodingDirection": "j-",
  "PhaseEncodingSteps": 82,
  "PhaseResolution": 1,
  "PixelBandwidth": 3050,
  "ProcedureStepDescription": "Wager_Wager^1076_spacetop",
  "ProtocolName": "func_run-05_task-social_acq-ap-mb8",
  "PulseSequenceDetails": "%CustomerSeq%\\cmrr_mbep2d_bold",
  "ReceiveCoilActiveElements": "HEA;HEP",
  "ReceiveCoilName": "Head_32",
  "ReconMatrixPE": 82,
  "RepetitionTime": 0.46,
  "SAR": 0.114347,
  "ScanOptions": "FS",
  "ScanningSequence": "EP",
  "SequenceName": "epfid2d1_82",
  "SequenceVariant": "SK\\SS",
  "SeriesDescription": "func_run-05_task-social_acq-ap-mb8",
  "SeriesNumber": 16,
  "ShimSetting": [4251, -7895, -7077, 668, -37, -211, 342, 91],
  "SliceThickness": 2.7,
  "SliceTiming": [0, 0.25, 0.0625, 0.3125, 0.125, 0.3775, 0.1875, 0, 0.25, 0.0625, 0.3125, 0.125, 0.3775, 0.1875, 0, 0.25, 0.0625, 0.3125, 0.125, 0.3775, 0.1875, 0, 0.25, 0.0625, 0.3125, 0.125, 0.3775, 0.1875, 0, 0.25, 0.0625, 0.3125, 0.125, 0.3775, 0.1875, 0, 0.25, 0.0625, 0.3125, 0.125, 0.3775, 0.1875, 0, 0.25, 0.0625, 0.3125, 0.125, 0.3775, 0.1875, 0, 0.25, 0.0625, 0.3125, 0.125, 0.3775, 0.1875],
  "SoftwareVersions": "syngo MR E11",
  "SpacingBetweenSlices": 2.7,
  "StationName": "AWP66112",
  "TaskName": "social",
  "TotalReadoutTime": 0.03969,
  "TxRefAmp": 233.758,
  "WipMemBlock": "ceb7504a-f126-444d-8849-86303d39d723||Sequence: R016 ve11e/master r/434b28f1; Aug  7 2019 18:53:46 by eja",
  "dcmmeta_affine": [
    [-2.680034637451172, 0.09967745840549469, 0.07514169067144394, 106.14152526855469],
    [0.09666848182678223, 2.679060697555542, -0.1073809564113617, -107.5296630859375],
    [0.078523188829422, 0.1038966104388237, 2.69681715965271, -39.82487487792969],
    [0.0, 0.0, 0.0, 1.0]
],
  "dcmmeta_reorient_transform": [
    [0.0, -1.0, 0.0, 81.0],
    [1.0, 0.0, 0.0, 0.0],
    [0.0, 0.0, 1.0, 0.0],
    [0.0, 0.0, 0.0, 1.0]
],
  "dcmmeta_shape": [82, 82, 56, 872],
  "dcmmeta_slice_dim": 2,
  "dcmmeta_version": 0.6,
  "global": {
    "const": {
      "AccessionNumber": "A004657",
      "AcquisitionMatrix": [82, 0, 0, 82],
      "AngioFlag": "N",
      "BitsAllocated": 16,
      "BitsStored": 16,
      "BodyPartExamined": "BRAIN",
      "Columns": 656,
      "EchoNumbers": 1,
      "EchoTime": 27.2,
      "EchoTrainLength": 82,
      "FlipAngle": 44.0,
      "HighBit": 15,
      "ImageOrientationPatient": [0.99892200309149, -0.0360309799713, 0.02926773346167, 0.03715250520193, 0.99855899071809, -0.0387251005589],
      "ImagePositionPatient": [-911.99278830307, -850.620845084, -24.127075014104],
      "ImageType": [
        "ORIGINAL",
        "PRIMARY",
        "M",
        "MB",
        "ND",
        "NORM",
        "MOSAIC"
],
      "ImagedNucleus": "1H",
      "ImagingFrequency": 123.259065,
      "InPlanePhaseEncodingDirection": "COL",
      "MRAcquisitionType": "2D",
      "MagneticFieldStrength": 3.0,
      "Manufacturer": "SIEMENS",
      "ManufacturerModelName": "Prisma",
      "Modality": "MR",
      "NumberOfAverages": 1.0,
      "NumberOfPhaseEncodingSteps": 82,
      "PercentPhaseFieldOfView": 100.0,
      "PercentSampling": 100.0,
      "PerformedProcedureStepStartTime": "174730.411000",
      "PhotometricInterpretation": "MONOCHROME2",
      "PixelBandwidth": 3050.0,
      "PixelRepresentation": 0,
      "PixelSpacing": [2.6829268932343, 2.6829268932343],
      "ProtocolName": "func_run-05_task-social_acq-ap-mb8",
      "RepetitionTime": 460.0,
      "Rows": 656,
      "SAR": 0.11434667525755,
      "SamplesPerPixel": 1,
      "ScanOptions": "FS",
      "ScanningSequence": "EP",
      "SequenceName": "epfid2d1_82",
      "SequenceVariant": [
        "SK",
        "SS"
],
      "SeriesDescription": "func_run-05_task-social_acq-ap-mb8",
      "SeriesNumber": 16,
      "SeriesTime": "183140.721000",
      "SliceLocation": -32.547449226061,
      "SliceThickness": 2.7000000476837,
      "SmallestImagePixelValue": 0,
      "SoftwareVersions": "syngo MR E11",
      "SpacingBetweenSlices": 2.7000000160117,
      "SpecificCharacterSet": "ISO_IR 100",
      "StudyID": "1",
      "StudyTime": "174730.284000",
      "TransmitCoilName": "Body",
      "VariableFlipAngleFlag": "N",
      "WindowCenterWidthExplanation": "Algo1"
    },
    "slices": {}
  },
  "time": {
    "samples": {
      "AcquisitionNumber": [1, 2, 3, 4, 5, 6, 7, 8, 9, 10, 11, 12, 13, 14, 15, 16, 17, 18, 19, 20, 21, 22, 23, 24, 25, 26, 27, 28, 29, 30, 31, 32, 33, 34, 35, 36, 37, 38, 39, 40, 41, 42, 43, 44, 45, 46, 47, 48, 49, 50, 51, 52, 53, 54, 55, 56, 57, 58, 59, 60, 61, 62, 63, 64, 65, 66, 67, 68, 69, 70, 71, 72, 73, 74, 75, 76, 77, 78, 79, 80, 81, 82, 83, 84, 85, 86, 87, 88, 89, 90, 91, 92, 93, 94, 95, 96, 97, 98, 99, 100, 101, 102, 103, 104, 105, 106, 107, 108, 109, 110, 111, 112, 113, 114, 115, 116, 117, 118, 119, 120, 121, 122, 123, 124, 125, 126, 127, 128, 129, 130, 131, 132, 133, 134, 135, 136, 137, 138, 139, 140, 141, 142, 143, 144, 145, 146, 147, 148, 149, 150, 151, 152, 153, 154, 155, 156, 157, 158, 159, 160, 161, 162, 163, 164, 165, 166, 167, 168, 169, 170, 171, 172, 173, 174, 175, 176, 177, 178, 179, 180, 181, 182, 183, 184, 185, 186, 187, 188, 189, 190, 191, 192, 193, 194, 195, 196, 197, 198, 199, 200, 201, 202, 203, 204, 205, 206, 207, 208, 209, 210, 211, 212, 213, 214, 215, 216, 217, 218, 219, 220, 221, 222, 223, 224, 225, 226, 227, 228, 229, 230, 231, 232, 233, 234, 235, 236, 237, 238, 239, 240, 241, 242, 243, 244, 245, 246, 247, 248, 249, 250, 251, 252, 253, 254, 255, 256, 257, 258, 259, 260, 261, 262, 263, 264, 265, 266, 267, 268, 269, 270, 271, 272, 273, 274, 275, 276, 277, 278, 279, 280, 281, 282, 283, 284, 285, 286, 287, 288, 289, 290, 291, 292, 293, 294, 295, 296, 297, 298, 299, 300, 301, 302, 303, 304, 305, 306, 307, 308, 309, 310, 311, 312, 313, 314, 315, 316, 317, 318, 319, 320, 321, 322, 323, 324, 325, 326, 327, 328, 329, 330, 331, 332, 333, 334, 335, 336, 337, 338, 339, 340, 341, 342, 343, 344, 345, 346, 347, 348, 349, 350, 351, 352, 353, 354, 355, 356, 357, 358, 359, 360, 361, 362, 363, 364, 365, 366, 367, 368, 369, 370, 371, 372, 373, 374, 375, 376, 377, 378, 379, 380, 381, 382, 383, 384, 385, 386, 387, 388, 389, 390, 391, 392, 393, 394, 395, 396, 397, 398, 399, 400, 401, 402, 403, 404, 405, 406, 407, 408, 409, 410, 411, 412, 413, 414, 415, 416, 417, 418, 419, 420, 421, 422, 423, 424, 425, 426, 427, 428, 429, 430, 431, 432, 433, 434, 435, 436, 437, 438, 439, 440, 441, 442, 443, 444, 445, 446, 447, 448, 449, 450, 451, 452, 453, 454, 455, 456, 457, 458, 459, 460, 461, 462, 463, 464, 465, 466, 467, 468, 469, 470, 471, 472, 473, 474, 475, 476, 477, 478, 479, 480, 481, 482, 483, 484, 485, 486, 487, 488, 489, 490, 491, 492, 493, 494, 495, 496, 497, 498, 499, 500, 501, 502, 503, 504, 505, 506, 507, 508, 509, 510, 511, 512, 513, 514, 515, 516, 517, 518, 519, 520, 521, 522, 523, 524, 525, 526, 527, 528, 529, 530, 531, 532, 533, 534, 535, 536, 537, 538, 539, 540, 541, 542, 543, 544, 545, 546, 547, 548, 549, 550, 551, 552, 553, 554, 555, 556, 557, 558, 559, 560, 561, 562, 563, 564, 565, 566, 567, 568, 569, 570, 571, 572, 573, 574, 575, 576, 577, 578, 579, 580, 581, 582, 583, 584, 585, 586, 587, 588, 589, 590, 591, 592, 593, 594, 595, 596, 597, 598, 599, 600, 601, 602, 603, 604, 605, 606, 607, 608, 609, 610, 611, 612, 613, 614, 615, 616, 617, 618, 619, 620, 621, 622, 623, 624, 625, 626, 627, 628, 629, 630, 631, 632, 633, 634, 635, 636, 637, 638, 639, 640, 641, 642, 643, 644, 645, 646, 647, 648, 649, 650, 651, 652, 653, 654, 655, 656, 657, 658, 659, 660, 661, 662, 663, 664, 665, 666, 667, 668, 669, 670, 671, 672, 673, 674, 675, 676, 677, 678, 679, 680, 681, 682, 683, 684, 685, 686, 687, 688, 689, 690, 691, 692, 693, 694, 695, 696, 697, 698, 699, 700, 701, 702, 703, 704, 705, 706, 707, 708, 709, 710, 711, 712, 713, 714, 715, 716, 717, 718, 719, 720, 721, 722, 723, 724, 725, 726, 727, 728, 729, 730, 731, 732, 733, 734, 735, 736, 737, 738, 739, 740, 741, 742, 743, 744, 745, 746, 747, 748, 749, 750, 751, 752, 753, 754, 755, 756, 757, 758, 759, 760, 761, 762, 763, 764, 765, 766, 767, 768, 769, 770, 771, 772, 773, 774, 775, 776, 777, 778, 779, 780, 781, 782, 783, 784, 785, 786, 787, 788, 789, 790, 791, 792, 793, 794, 795, 796, 797, 798, 799, 800, 801, 802, 803, 804, 805, 806, 807, 808, 809, 810, 811, 812, 813, 814, 815, 816, 817, 818, 819, 820, 821, 822, 823, 824, 825, 826, 827, 828, 829, 830, 831, 832, 833, 834, 835, 836, 837, 838, 839, 840, 841, 842, 843, 844, 845, 846, 847, 848, 849, 850, 851, 852, 853, 854, 855, 856, 857, 858, 859, 860, 861, 862, 863, 864, 865, 866, 867, 868, 869, 870, 871, 872],
      "AcquisitionTime": ["183115.605000", "183116.065000", "183116.525000", "183116.985000", "183117.445000", "183117.905000", "183118.365000", "183118.825000", "183119.285000", "183119.745000", "183120.205000", "183120.665000", "183121.125000", "183121.585000", "183122.045000", "183122.505000", "183122.965000", "183123.425000", "183123.885000", "183124.345000", "183124.805000", "183125.265000", "183125.725000", "183126.185000", "183126.645000", "183127.105000", "183127.565000", "183128.025000", "183128.485000", "183128.945000", "183129.405000", "183129.865000", "183130.325000", "183130.785000", "183131.245000", "183131.705000", "183132.165000", "183132.625000", "183133.085000", "183133.545000", "183134.005000", "183134.465000", "183134.925000", "183135.385000", "183135.845000", "183136.305000", "183136.765000", "183137.225000", "183137.685000", "183138.145000", "183138.605000", "183139.065000", "183139.525000", "183139.985000", "183140.445000", "183140.905000", "183141.365000", "183141.825000", "183142.285000", "183142.745000", "183143.205000", "183143.665000", "183144.125000", "183144.585000", "183145.045000", "183145.505000", "183145.965000", "183146.425000", "183146.885000", "183147.345000", "183147.805000", "183148.265000", "183148.725000", "183149.185000", "183149.645000", "183150.105000", "183150.565000", "183151.025000", "183151.485000", "183151.945000", "183152.405000", "183152.865000", "183153.325000", "183153.785000", "183154.245000", "183154.705000", "183155.165000", "183155.625000", "183156.085000", "183156.545000", "183157.005000", "183157.465000", "183157.925000", "183158.385000", "183158.845000", "183159.305000", "183159.765000", "183200.225000", "183200.685000", "183201.145000", "183201.605000", "183202.065000", "183202.525000", "183202.985000", "183203.445000", "183203.905000", "183204.365000", "183204.825000", "183205.285000", "183205.745000", "183206.205000", "183206.665000", "183207.125000", "183207.585000", "183208.045000", "183208.505000", "183208.965000", "183209.425000", "183209.885000", "183210.345000", "183210.805000", "183211.265000", "183211.725000", "183212.185000", "183212.645000", "183213.105000", "183213.565000", "183214.025000", "183214.485000", "183214.945000", "183215.405000", "183215.865000", "183216.325000", "183216.785000", "183217.245000", "183217.705000", "183218.165000", "183218.625000", "183219.085000", "183219.545000", "183220.005000", "183220.465000", "183220.925000", "183221.385000", "183221.845000", "183222.305000", "183222.765000", "183223.225000", "183223.685000", "183224.145000", "183224.605000", "183225.065000", "183225.525000", "183225.985000", "183226.445000", "183226.905000", "183227.365000", "183227.825000", "183228.285000", "183228.745000", "183229.205000", "183229.665000", "183230.125000", "183230.585000", "183231.045000", "183231.505000", "183231.965000", "183232.425000", "183232.885000", "183233.345000", "183233.805000", "183234.265000", "183234.725000", "183235.185000", "183235.645000", "183236.105000", "183236.565000", "183237.025000", "183237.485000", "183237.945000", "183238.405000", "183238.865000", "183239.325000", "183239.785000", "183240.245000", "183240.705000", "183241.165000", "183241.625000", "183242.085000", "183242.545000", "183243.005000", "183243.465000", "183243.925000", "183244.385000", "183244.845000", "183245.305000", "183245.765000", "183246.225000", "183246.685000", "183247.145000", "183247.605000", "183248.065000", "183248.525000", "183248.985000", "183249.445000", "183249.905000", "183250.365000", "183250.825000", "183251.285000", "183251.745000", "183252.205000", "183252.665000", "183253.125000", "183253.585000", "183254.045000", "183254.505000", "183254.965000", "183255.425000", "183255.885000", "183256.345000", "183256.805000", "183257.265000", "183257.725000", "183258.185000", "183258.645000", "183259.105000", "183259.565000", "183300.025000", "183300.485000", "183300.945000", "183301.405000", "183301.865000", "183302.325000", "183302.785000", "183303.245000", "183303.705000", "183304.165000", "183304.625000", "183305.085000", "183305.545000", "183306.005000", "183306.465000", "183306.925000", "183307.385000", "183307.845000", "183308.305000", "183308.765000", "183309.225000", "183309.685000", "183310.145000", "183310.605000", "183311.065000", "183311.525000", "183311.985000", "183312.445000", "183312.905000", "183313.365000", "183313.825000", "183314.285000", "183314.745000", "183315.205000", "183315.665000", "183316.125000", "183316.585000", "183317.045000", "183317.505000", "183317.965000", "183318.425000", "183318.885000", "183319.345000", "183319.805000", "183320.265000", "183320.725000", "183321.185000", "183321.645000", "183322.105000", "183322.565000", "183323.025000", "183323.485000", "183323.945000", "183324.405000", "183324.865000", "183325.325000", "183325.785000", "183326.245000", "183326.705000", "183327.165000", "183327.625000", "183328.085000", "183328.545000", "183329.005000", "183329.465000", "183329.925000", "183330.385000", "183330.845000", "183331.305000", "183331.765000", "183332.225000", "183332.685000", "183333.145000", "183333.605000", "183334.065000", "183334.525000", "183334.985000", "183335.445000", "183335.905000", "183336.365000", "183336.825000", "183337.285000", "183337.745000", "183338.205000", "183338.665000", "183339.125000", "183339.585000", "183340.045000", "183340.505000", "183340.965000", "183341.425000", "183341.885000", "183342.345000", "183342.805000", "183343.265000", "183343.725000", "183344.185000", "183344.645000", "183345.105000", "183345.565000", "183346.025000", "183346.485000", "183346.945000", "183347.405000", "183347.865000", "183348.325000", "183348.785000", "183349.245000", "183349.705000", "183350.165000", "183350.625000", "183351.085000", "183351.545000", "183352.005000", "183352.465000", "183352.925000", "183353.385000", "183353.845000", "183354.305000", "183354.765000", "183355.225000", "183355.685000", "183356.145000", "183356.605000", "183357.065000", "183357.525000", "183357.985000", "183358.445000", "183358.905000", "183359.365000", "183359.825000", "183400.285000", "183400.745000", "183401.205000", "183401.665000", "183402.125000", "183402.585000", "183403.045000", "183403.505000", "183403.965000", "183404.425000", "183404.885000", "183405.345000", "183405.805000", "183406.265000", "183406.725000", "183407.185000", "183407.645000", "183408.105000", "183408.565000", "183409.025000", "183409.485000", "183409.945000", "183410.405000", "183410.865000", "183411.325000", "183411.785000", "183412.245000", "183412.705000", "183413.165000", "183413.625000", "183414.085000", "183414.545000", "183415.005000", "183415.465000", "183415.925000", "183416.385000", "183416.845000", "183417.305000", "183417.765000", "183418.225000", "183418.685000", "183419.145000", "183419.605000", "183420.065000", "183420.525000", "183420.985000", "183421.445000", "183421.905000", "183422.365000", "183422.825000", "183423.285000", "183423.745000", "183424.205000", "183424.665000", "183425.125000", "183425.585000", "183426.045000", "183426.505000", "183426.965000", "183427.425000", "183427.885000", "183428.345000", "183428.805000", "183429.265000", "183429.725000", "183430.185000", "183430.645000", "183431.105000", "183431.565000", "183432.025000", "183432.485000", "183432.945000", "183433.405000", "183433.865000", "183434.325000", "183434.785000", "183435.245000", "183435.705000", "183436.165000", "183436.625000", "183437.085000", "183437.545000", "183438.005000", "183438.465000", "183438.925000", "183439.385000", "183439.845000", "183440.305000", "183440.765000", "183441.225000", "183441.685000", "183442.145000", "183442.605000", "183443.065000", "183443.525000", "183443.985000", "183444.445000", "183444.905000", "183445.365000", "183445.825000", "183446.285000", "183446.745000", "183447.205000", "183447.665000", "183448.125000", "183448.585000", "183449.045000", "183449.505000", "183449.965000", "183450.425000", "183450.885000", "183451.345000", "183451.805000", "183452.265000", "183452.725000", "183453.185000", "183453.645000", "183454.105000", "183454.565000", "183455.025000", "183455.485000", "183455.945000", "183456.405000", "183456.865000", "183457.325000", "183457.785000", "183458.245000", "183458.705000", "183459.165000", "183459.625000", "183500.085000", "183500.545000", "183501.005000", "183501.465000", "183501.925000", "183502.385000", "183502.845000", "183503.305000", "183503.765000", "183504.225000", "183504.685000", "183505.145000", "183505.605000", "183506.065000", "183506.525000", "183506.985000", "183507.445000", "183507.905000", "183508.365000", "183508.825000", "183509.285000", "183509.745000", "183510.205000", "183510.665000", "183511.125000", "183511.585000", "183512.045000", "183512.505000", "183512.965000", "183513.425000", "183513.885000", "183514.345000", "183514.805000", "183515.265000", "183515.725000", "183516.185000", "183516.645000", "183517.105000", "183517.565000", "183518.025000", "183518.485000", "183518.945000", "183519.405000", "183519.865000", "183520.325000", "183520.785000", "183521.245000", "183521.705000", "183522.165000", "183522.625000", "183523.085000", "183523.545000", "183524.005000", "183524.465000", "183524.925000", "183525.385000", "183525.845000", "183526.305000", "183526.765000", "183527.225000", "183527.685000", "183528.145000", "183528.605000", "183529.065000", "183529.525000", "183529.985000", "183530.445000", "183530.905000", "183531.365000", "183531.825000", "183532.285000", "183532.745000", "183533.205000", "183533.665000", "183534.125000", "183534.585000", "183535.045000", "183535.505000", "183535.965000", "183536.425000", "183536.885000", "183537.345000", "183537.805000", "183538.265000", "183538.725000", "183539.185000", "183539.645000", "183540.105000", "183540.565000", "183541.025000", "183541.485000", "183541.945000", "183542.405000", "183542.865000", "183543.325000", "183543.785000", "183544.245000", "183544.705000", "183545.165000", "183545.625000", "183546.085000", "183546.545000", "183547.005000", "183547.465000", "183547.925000", "183548.385000", "183548.845000", "183549.305000", "183549.765000", "183550.225000", "183550.685000", "183551.145000", "183551.605000", "183552.065000", "183552.525000", "183552.985000", "183553.445000", "183553.905000", "183554.365000", "183554.825000", "183555.285000", "183555.745000", "183556.205000", "183556.665000", "183557.125000", "183557.585000", "183558.045000", "183558.505000", "183558.965000", "183559.425000", "183559.885000", "183600.345000", "183600.805000", "183601.265000", "183601.725000", "183602.185000", "183602.645000", "183603.105000", "183603.565000", "183604.025000", "183604.485000", "183604.945000", "183605.405000", "183605.865000", "183606.325000", "183606.785000", "183607.245000", "183607.705000", "183608.165000", "183608.625000", "183609.085000", "183609.545000", "183610.005000", "183610.465000", "183610.925000", "183611.385000", "183611.845000", "183612.305000", "183612.765000", "183613.225000", "183613.685000", "183614.145000", "183614.605000", "183615.065000", "183615.525000", "183615.985000", "183616.445000", "183616.905000", "183617.365000", "183617.825000", "183618.285000", "183618.745000", "183619.205000", "183619.665000", "183620.125000", "183620.585000", "183621.045000", "183621.505000", "183621.965000", "183622.425000", "183622.885000", "183623.345000", "183623.805000", "183624.265000", "183624.725000", "183625.185000", "183625.645000", "183626.105000", "183626.565000", "183627.025000", "183627.485000", "183627.945000", "183628.405000", "183628.865000", "183629.325000", "183629.785000", "183630.245000", "183630.705000", "183631.165000", "183631.625000", "183632.085000", "183632.545000", "183633.005000", "183633.465000", "183633.925000", "183634.385000", "183634.845000", "183635.305000", "183635.765000", "183636.225000", "183636.685000", "183637.145000", "183637.605000", "183638.065000", "183638.525000", "183638.985000", "183639.445000", "183639.905000", "183640.365000", "183640.825000", "183641.285000", "183641.745000", "183642.205000", "183642.665000", "183643.125000", "183643.585000", "183644.045000", "183644.505000", "183644.965000", "183645.425000", "183645.885000", "183646.345000", "183646.805000", "183647.265000", "183647.725000", "183648.185000", "183648.645000", "183649.105000", "183649.565000", "183650.025000", "183650.485000", "183650.945000", "183651.405000", "183651.865000", "183652.325000", "183652.785000", "183653.245000", "183653.705000", "183654.165000", "183654.625000", "183655.085000", "183655.545000", "183656.005000", "183656.465000", "183656.925000", "183657.385000", "183657.845000", "183658.305000", "183658.765000", "183659.225000", "183659.685000", "183700.145000", "183700.605000", "183701.065000", "183701.525000", "183701.985000", "183702.445000", "183702.905000", "183703.365000", "183703.825000", "183704.285000", "183704.745000", "183705.205000", "183705.665000", "183706.125000", "183706.585000", "183707.045000", "183707.505000", "183707.965000", "183708.425000", "183708.885000", "183709.345000", "183709.805000", "183710.265000", "183710.725000", "183711.185000", "183711.645000", "183712.105000", "183712.565000", "183713.025000", "183713.485000", "183713.945000", "183714.405000", "183714.865000", "183715.325000", "183715.785000", "183716.245000", "183716.705000", "183717.165000", "183717.625000", "183718.085000", "183718.545000", "183719.005000", "183719.465000", "183719.925000", "183720.385000", "183720.845000", "183721.305000", "183721.765000", "183722.225000", "183722.685000", "183723.145000", "183723.605000", "183724.065000", "183724.525000", "183724.985000", "183725.445000", "183725.905000", "183726.365000", "183726.825000", "183727.285000", "183727.745000", "183728.205000", "183728.665000", "183729.125000", "183729.585000", "183730.045000", "183730.505000", "183730.965000", "183731.425000", "183731.885000", "183732.345000", "183732.805000", "183733.265000", "183733.725000", "183734.185000", "183734.645000", "183735.105000", "183735.565000", "183736.025000", "183736.485000", "183736.945000", "183737.405000", "183737.865000", "183738.325000", "183738.785000", "183739.245000", "183739.705000", "183740.165000", "183740.625000", "183741.085000", "183741.545000", "183742.005000", "183742.465000", "183742.925000", "183743.385000", "183743.845000", "183744.305000", "183744.765000", "183745.225000", "183745.685000", "183746.145000", "183746.605000", "183747.065000", "183747.525000", "183747.985000", "183748.445000", "183748.905000", "183749.365000", "183749.825000", "183750.285000", "183750.745000", "183751.205000", "183751.665000", "183752.125000", "183752.585000", "183753.045000", "183753.505000", "183753.965000", "183754.425000", "183754.885000", "183755.345000", "183755.805000", "183756.265000"],
