{
  "AcquisitionMatrixPE": 82,
  "AcquisitionNumber": 1,
  "AcquisitionTime": "19:22:19.342500",
  "BandwidthPerPixelPhaseEncode": 24.888,
  "BaseResolution": 82,
  "BodyPartExamined": "BRAIN",
  "ConsistencyInfo": "N4_VE11E_LATEST_20181129",
  "ConversionSoftware": "dcm2niix",
  "ConversionSoftwareVersion": "v1.0.20201102",
  "DerivedVendorReportedEchoSpacing": 0.00049,
  "DeviceSerialNumber": "66112",
  "DwellTime": 2e-06,
  "EchoTime": 0.0272,
  "EchoTrainLength": 82,
  "EffectiveEchoSpacing": 0.00049,
  "FlipAngle": 44,
  "ImageComments": "Unaliased MB8/PE3",
  "ImageOrientationPatientDICOM": [0.999338, -0.0304324, 0.0199377, 0.0314054, 0.998232, -0.0504603],
  "ImageType": [
    "ORIGINAL",
    "PRIMARY",
    "M",
    "MB",
    "ND",
    "NORM",
    "MOSAIC"
],
  "ImagingFrequency": 123.259,
  "InPlanePhaseEncodingDirectionDICOM": "COL",
  "InstitutionAddress": "Maynard 3,Hanover,NH,US,03755",
  "InstitutionName": "Dartmouth College - PBS",
  "InstitutionalDepartmentName": "Department",
  "MRAcquisitionType": "2D",
  "MagneticFieldStrength": 3,
  "Manufacturer": "Siemens",
  "ManufacturersModelName": "Prisma",
  "Modality": "MR",
  "MultibandAccelerationFactor": 8,
  "PartialFourier": 1,
  "PatientPosition": "HFS",
  "PercentPhaseFOV": 100,
  "PercentSampling": 100,
  "PhaseEncodingDirection": "j-",
  "PhaseEncodingSteps": 82,
  "PhaseResolution": 1,
  "PixelBandwidth": 3050,
  "ProcedureStepDescription": "Wager_Wager^1076_spacetop",
  "ProtocolName": "func_run-03_task-alignvideo_acq-ap-mb8",
  "PulseSequenceDetails": "%CustomerSeq%\\cmrr_mbep2d_bold",
  "ReceiveCoilActiveElements": "HEA;HEP",
  "ReceiveCoilName": "Head_32",
  "ReconMatrixPE": 82,
  "RepetitionTime": 0.46,
  "SAR": 0.114476,
  "ScanOptions": "FS",
  "ScanningSequence": "EP",
  "SequenceName": "epfid2d1_82",
  "SequenceVariant": "SK\\SS",
  "SeriesDescription": "func_run-03_task-alignvideo_acq-ap-mb8",
  "SeriesNumber": 32,
  "ShimSetting": [4251, -7895, -7078, 667, -36, -211, 343, 91],
  "SliceThickness": 2.7,
  "SliceTiming": [0, 0.25, 0.0625, 0.3125, 0.125, 0.3775, 0.1875, 0, 0.25, 0.0625, 0.3125, 0.125, 0.3775, 0.1875, 0, 0.25, 0.0625, 0.3125, 0.125, 0.3775, 0.1875, 0, 0.25, 0.0625, 0.3125, 0.125, 0.3775, 0.1875, 0, 0.25, 0.0625, 0.3125, 0.125, 0.3775, 0.1875, 0, 0.25, 0.0625, 0.3125, 0.125, 0.3775, 0.1875, 0, 0.25, 0.0625, 0.3125, 0.125, 0.3775, 0.1875, 0, 0.25, 0.0625, 0.3125, 0.125, 0.3775, 0.1875],
  "SoftwareVersions": "syngo MR E11",
  "SpacingBetweenSlices": 2.7,
  "StationName": "AWP66112",
  "TaskName": "alignvideo",
  "TotalReadoutTime": 0.03969,
  "TxRefAmp": 233.758,
  "WipMemBlock": "6b30addc-906c-48f6-9189-012621ded3f2||Sequence: R016 ve11e/master r/434b28f1; Aug  7 2019 18:53:46 by eja",
  "dcmmeta_affine": [
    [-2.6811506748199463, 0.08425851911306381, 0.04959040507674217, 107.64888000488281],
    [0.08164788782596588, 2.6781840324401855, -0.1378433108329773, -105.91764068603516],
    [0.053491368889808655, 0.13538138568401337, 2.6960229873657227, -39.465824127197266],
    [0.0, 0.0, 0.0, 1.0]
],
  "dcmmeta_reorient_transform": [
    [0.0, -1.0, 0.0, 81.0],
    [1.0, 0.0, 0.0, 0.0],
    [0.0, 0.0, 1.0, 0.0],
    [0.0, 0.0, 0.0, 1.0]
],
  "dcmmeta_shape": [82, 82, 56, 1065],
  "dcmmeta_slice_dim": 2,
  "dcmmeta_version": 0.6,
  "global": {
    "const": {
      "AccessionNumber": "A004657",
      "AcquisitionMatrix": [82, 0, 0, 82],
      "AngioFlag": "N",
      "BitsAllocated": 16,
      "BitsStored": 16,
      "BodyPartExamined": "BRAIN",
      "Columns": 656,
      "EchoNumbers": 1,
      "EchoTime": 27.2,
      "EchoTrainLength": 82,
      "FlipAngle": 44.0,
      "HighBit": 15,
      "ImageOrientationPatient": [0.99933795978421, -0.0304323935788, 0.01993769182745, 0.03140544829598, 0.99823216376749, -0.0504603313248],
      "ImagePositionPatient": [-908.1462637786, -856.22110099599, -4.9975003842638],
      "ImageType": [
        "ORIGINAL",
        "PRIMARY",
        "M",
        "MB",
        "ND",
        "NORM",
        "MOSAIC"
],
      "ImagedNucleus": "1H",
      "ImagingFrequency": 123.259068,
      "InPlanePhaseEncodingDirection": "COL",
      "MRAcquisitionType": "2D",
      "MagneticFieldStrength": 3.0,
      "Manufacturer": "SIEMENS",
      "ManufacturerModelName": "Prisma",
      "Modality": "MR",
      "NumberOfAverages": 1.0,
      "NumberOfPhaseEncodingSteps": 82,
      "PercentPhaseFieldOfView": 100.0,
      "PercentSampling": 100.0,
      "PerformedProcedureStepStartTime": "174730.411000",
      "PhotometricInterpretation": "MONOCHROME2",
      "PixelBandwidth": 3050.0,
      "PixelRepresentation": 0,
      "PixelSpacing": [2.6829268932343, 2.6829268932343],
      "ProtocolName": "func_run-03_task-alignvideo_acq-ap-mb8",
      "RepetitionTime": 460.0,
      "Rows": 656,
      "SAR": 0.1144756709751,
      "SamplesPerPixel": 1,
      "ScanOptions": "FS",
      "ScanningSequence": "EP",
      "SequenceName": "epfid2d1_82",
      "SequenceVariant": [
        "SK",
        "SS"
],
      "SeriesDescription": "func_run-03_task-alignvideo_acq-ap-mb8",
      "SeriesNumber": 32,
      "SeriesTime": "192240.884000",
      "SliceLocation": -32.023104932906,
      "SliceThickness": 2.7000000476837,
      "SmallestImagePixelValue": 0,
      "SoftwareVersions": "syngo MR E11",
      "SpacingBetweenSlices": 2.7000000398225,
      "SpecificCharacterSet": "ISO_IR 100",
      "StudyID": "1",
      "StudyTime": "174730.284000",
      "TransmitCoilName": "Body",
      "VariableFlipAngleFlag": "N",
      "WindowCenterWidthExplanation": "Algo1"
    },
    "slices": {}
  },
  "time": {
    "samples": {
      "AcquisitionNumber": [1, 2, 3, 4, 5, 6, 7, 8, 9, 10, 11, 12, 13, 14, 15, 16, 17, 18, 19, 20, 21, 22, 23, 24, 25, 26, 27, 28, 29, 30, 31, 32, 33, 34, 35, 36, 37, 38, 39, 40, 41, 42, 43, 44, 45, 46, 47, 48, 49, 50, 51, 52, 53, 54, 55, 56, 57, 58, 59, 60, 61, 62, 63, 64, 65, 66, 67, 68, 69, 70, 71, 72, 73, 74, 75, 76, 77, 78, 79, 80, 81, 82, 83, 84, 85, 86, 87, 88, 89, 90, 91, 92, 93, 94, 95, 96, 97, 98, 99, 100, 101, 102, 103, 104, 105, 106, 107, 108, 109, 110, 111, 112, 113, 114, 115, 116, 117, 118, 119, 120, 121, 122, 123, 124, 125, 126, 127, 128, 129, 130, 131, 132, 133, 134, 135, 136, 137, 138, 139, 140, 141, 142, 143, 144, 145, 146, 147, 148, 149, 150, 151, 152, 153, 154, 155, 156, 157, 158, 159, 160, 161, 162, 163, 164, 165, 166, 167, 168, 169, 170, 171, 172, 173, 174, 175, 176, 177, 178, 179, 180, 181, 182, 183, 184, 185, 186, 187, 188, 189, 190, 191, 192, 193, 194, 195, 196, 197, 198, 199, 200, 201, 202, 203, 204, 205, 206, 207, 208, 209, 210, 211, 212, 213, 214, 215, 216, 217, 218, 219, 220, 221, 222, 223, 224, 225, 226, 227, 228, 229, 230, 231, 232, 233, 234, 235, 236, 237, 238, 239, 240, 241, 242, 243, 244, 245, 246, 247, 248, 249, 250, 251, 252, 253, 254, 255, 256, 257, 258, 259, 260, 261, 262, 263, 264, 265, 266, 267, 268, 269, 270, 271, 272, 273, 274, 275, 276, 277, 278, 279, 280, 281, 282, 283, 284, 285, 286, 287, 288, 289, 290, 291, 292, 293, 294, 295, 296, 297, 298, 299, 300, 301, 302, 303, 304, 305, 306, 307, 308, 309, 310, 311, 312, 313, 314, 315, 316, 317, 318, 319, 320, 321, 322, 323, 324, 325, 326, 327, 328, 329, 330, 331, 332, 333, 334, 335, 336, 337, 338, 339, 340, 341, 342, 343, 344, 345, 346, 347, 348, 349, 350, 351, 352, 353, 354, 355, 356, 357, 358, 359, 360, 361, 362, 363, 364, 365, 366, 367, 368, 369, 370, 371, 372, 373, 374, 375, 376, 377, 378, 379, 380, 381, 382, 383, 384, 385, 386, 387, 388, 389, 390, 391, 392, 393, 394, 395, 396, 397, 398, 399, 400, 401, 402, 403, 404, 405, 406, 407, 408, 409, 410, 411, 412, 413, 414, 415, 416, 417, 418, 419, 420, 421, 422, 423, 424, 425, 426, 427, 428, 429, 430, 431, 432, 433, 434, 435, 436, 437, 438, 439, 440, 441, 442, 443, 444, 445, 446, 447, 448, 449, 450, 451, 452, 453, 454, 455, 456, 457, 458, 459, 460, 461, 462, 463, 464, 465, 466, 467, 468, 469, 470, 471, 472, 473, 474, 475, 476, 477, 478, 479, 480, 481, 482, 483, 484, 485, 486, 487, 488, 489, 490, 491, 492, 493, 494, 495, 496, 497, 498, 499, 500, 501, 502, 503, 504, 505, 506, 507, 508, 509, 510, 511, 512, 513, 514, 515, 516, 517, 518, 519, 520, 521, 522, 523, 524, 525, 526, 527, 528, 529, 530, 531, 532, 533, 534, 535, 536, 537, 538, 539, 540, 541, 542, 543, 544, 545, 546, 547, 548, 549, 550, 551, 552, 553, 554, 555, 556, 557, 558, 559, 560, 561, 562, 563, 564, 565, 566, 567, 568, 569, 570, 571, 572, 573, 574, 575, 576, 577, 578, 579, 580, 581, 582, 583, 584, 585, 586, 587, 588, 589, 590, 591, 592, 593, 594, 595, 596, 597, 598, 599, 600, 601, 602, 603, 604, 605, 606, 607, 608, 609, 610, 611, 612, 613, 614, 615, 616, 617, 618, 619, 620, 621, 622, 623, 624, 625, 626, 627, 628, 629, 630, 631, 632, 633, 634, 635, 636, 637, 638, 639, 640, 641, 642, 643, 644, 645, 646, 647, 648, 649, 650, 651, 652, 653, 654, 655, 656, 657, 658, 659, 660, 661, 662, 663, 664, 665, 666, 667, 668, 669, 670, 671, 672, 673, 674, 675, 676, 677, 678, 679, 680, 681, 682, 683, 684, 685, 686, 687, 688, 689, 690, 691, 692, 693, 694, 695, 696, 697, 698, 699, 700, 701, 702, 703, 704, 705, 706, 707, 708, 709, 710, 711, 712, 713, 714, 715, 716, 717, 718, 719, 720, 721, 722, 723, 724, 725, 726, 727, 728, 729, 730, 731, 732, 733, 734, 735, 736, 737, 738, 739, 740, 741, 742, 743, 744, 745, 746, 747, 748, 749, 750, 751, 752, 753, 754, 755, 756, 757, 758, 759, 760, 761, 762, 763, 764, 765, 766, 767, 768, 769, 770, 771, 772, 773, 774, 775, 776, 777, 778, 779, 780, 781, 782, 783, 784, 785, 786, 787, 788, 789, 790, 791, 792, 793, 794, 795, 796, 797, 798, 799, 800, 801, 802, 803, 804, 805, 806, 807, 808, 809, 810, 811, 812, 813, 814, 815, 816, 817, 818, 819, 820, 821, 822, 823, 824, 825, 826, 827, 828, 829, 830, 831, 832, 833, 834, 835, 836, 837, 838, 839, 840, 841, 842, 843, 844, 845, 846, 847, 848, 849, 850, 851, 852, 853, 854, 855, 856, 857, 858, 859, 860, 861, 862, 863, 864, 865, 866, 867, 868, 869, 870, 871, 872, 873, 874, 875, 876, 877, 878, 879, 880, 881, 882, 883, 884, 885, 886, 887, 888, 889, 890, 891, 892, 893, 894, 895, 896, 897, 898, 899, 900, 901, 902, 903, 904, 905, 906, 907, 908, 909, 910, 911, 912, 913, 914, 915, 916, 917, 918, 919, 920, 921, 922, 923, 924, 925, 926, 927, 928, 929, 930, 931, 932, 933, 934, 935, 936, 937, 938, 939, 940, 941, 942, 943, 944, 945, 946, 947, 948, 949, 950, 951, 952, 953, 954, 955, 956, 957, 958, 959, 960, 961, 962, 963, 964, 965, 966, 967, 968, 969, 970, 971, 972, 973, 974, 975, 976, 977, 978, 979, 980, 981, 982, 983, 984, 985, 986, 987, 988, 989, 990, 991, 992, 993, 994, 995, 996, 997, 998, 999, 1000, 1001, 1002, 1003, 1004, 1005, 1006, 1007, 1008, 1009, 1010, 1011, 1012, 1013, 1014, 1015, 1016, 1017, 1018, 1019, 1020, 1021, 1022, 1023, 1024, 1025, 1026, 1027, 1028, 1029, 1030, 1031, 1032, 1033, 1034, 1035, 1036, 1037, 1038, 1039, 1040, 1041, 1042, 1043, 1044, 1045, 1046, 1047, 1048, 1049, 1050, 1051, 1052, 1053, 1054, 1055, 1056, 1057, 1058, 1059, 1060, 1061, 1062, 1063, 1064, 1065],
      "AcquisitionTime": ["192219.342500", "192219.802500", "192220.262500", "192220.722500", "192221.182500", "192221.642500", "192222.102500", "192222.562500", "192223.022500", "192223.482500", "192223.942500", "192224.402500", "192224.862500", "192225.322500", "192225.782500", "192226.242500", "192226.702500", "192227.162500", "192227.622500", "192228.082500", "192228.542500", "192229.002500", "192229.462500", "192229.922500", "192230.382500", "192230.842500", "192231.302500", "192231.762500", "192232.222500", "192232.682500", "192233.142500", "192233.602500", "192234.062500", "192234.522500", "192234.982500", "192235.442500", "192235.902500", "192236.362500", "192236.822500", "192237.282500", "192237.742500", "192238.202500", "192238.662500", "192239.122500", "192239.582500", "192240.042500", "192240.502500", "192240.962500", "192241.422500", "192241.882500", "192242.342500", "192242.802500", "192243.262500", "192243.722500", "192244.182500", "192244.642500", "192245.102500", "192245.562500", "192246.022500", "192246.482500", "192246.942500", "192247.402500", "192247.862500", "192248.322500", "192248.782500", "192249.242500", "192249.702500", "192250.162500", "192250.622500", "192251.082500", "192251.542500", "192252.002500", "192252.462500", "192252.922500", "192253.382500", "192253.842500", "192254.302500", "192254.762500", "192255.222500", "192255.682500", "192256.142500", "192256.602500", "192257.062500", "192257.522500", "192257.982500", "192258.442500", "192258.902500", "192259.362500", "192259.822500", "192300.282500", "192300.742500", "192301.202500", "192301.662500", "192302.122500", "192302.582500", "192303.042500", "192303.502500", "192303.962500", "192304.422500", "192304.882500", "192305.342500", "192305.802500", "192306.262500", "192306.722500", "192307.182500", "192307.642500", "192308.102500", "192308.562500", "192309.022500", "192309.482500", "192309.942500", "192310.402500", "192310.862500", "192311.322500", "192311.782500", "192312.242500", "192312.702500", "192313.162500", "192313.622500", "192314.082500", "192314.542500", "192315.002500", "192315.462500", "192315.922500", "192316.382500", "192316.842500", "192317.302500", "192317.762500", "192318.222500", "192318.682500", "192319.142500", "192319.602500", "192320.062500", "192320.522500", "192320.982500", "192321.442500", "192321.902500", "192322.362500", "192322.822500", "192323.282500", "192323.742500", "192324.202500", "192324.662500", "192325.122500", "192325.582500", "192326.042500", "192326.502500", "192326.962500", "192327.422500", "192327.882500", "192328.342500", "192328.802500", "192329.262500", "192329.722500", "192330.182500", "192330.642500", "192331.102500", "192331.562500", "192332.022500", "192332.482500", "192332.942500", "192333.402500", "192333.862500", "192334.322500", "192334.782500", "192335.242500", "192335.702500", "192336.162500", "192336.622500", "192337.082500", "192337.542500", "192338.002500", "192338.462500", "192338.922500", "192339.382500", "192339.842500", "192340.302500", "192340.762500", "192341.222500", "192341.682500", "192342.142500", "192342.602500", "192343.062500", "192343.522500", "192343.982500", "192344.442500", "192344.902500", "192345.362500", "192345.822500", "192346.282500", "192346.742500", "192347.202500", "192347.662500", "192348.122500", "192348.582500", "192349.042500", "192349.502500", "192349.962500", "192350.422500", "192350.882500", "192351.342500", "192351.802500", "192352.262500", "192352.722500", "192353.182500", "192353.642500", "192354.102500", "192354.562500", "192355.022500", "192355.482500", "192355.942500", "192356.402500", "192356.862500", "192357.322500", "192357.782500", "192358.242500", "192358.702500", "192359.162500", "192359.622500", "192400.082500", "192400.542500", "192401.002500", "192401.462500", "192401.922500", "192402.382500", "192402.842500", "192403.302500", "192403.762500", "192404.222500", "192404.682500", "192405.142500", "192405.602500", "192406.062500", "192406.522500", "192406.982500", "192407.442500", "192407.902500", "192408.362500", "192408.822500", "192409.282500", "192409.742500", "192410.202500", "192410.662500", "192411.122500", "192411.582500", "192412.042500", "192412.502500", "192412.962500", "192413.422500", "192413.882500", "192414.342500", "192414.802500", "192415.262500", "192415.722500", "192416.182500", "192416.642500", "192417.102500", "192417.562500", "192418.022500", "192418.482500", "192418.942500", "192419.402500", "192419.862500", "192420.322500", "192420.782500", "192421.242500", "192421.702500", "192422.162500", "192422.622500", "192423.082500", "192423.542500", "192424.002500", "192424.462500", "192424.922500", "192425.382500", "192425.842500", "192426.302500", "192426.762500", "192427.222500", "192427.682500", "192428.142500", "192428.602500", "192429.062500", "192429.522500", "192429.982500", "192430.442500", "192430.902500", "192431.362500", "192431.822500", "192432.282500", "192432.742500", "192433.202500", "192433.662500", "192434.122500", "192434.582500", "192435.042500", "192435.502500", "192435.962500", "192436.422500", "192436.882500", "192437.342500", "192437.802500", "192438.262500", "192438.722500", "192439.182500", "192439.642500", "192440.102500", "192440.562500", "192441.022500", "192441.482500", "192441.942500", "192442.402500", "192442.862500", "192443.322500", "192443.782500", "192444.242500", "192444.702500", "192445.162500", "192445.622500", "192446.082500", "192446.542500", "192447.002500", "192447.462500", "192447.922500", "192448.382500", "192448.842500", "192449.302500", "192449.762500", "192450.222500", "192450.682500", "192451.142500", "192451.602500", "192452.062500", "192452.522500", "192452.982500", "192453.442500", "192453.902500", "192454.362500", "192454.822500", "192455.282500", "192455.742500", "192456.202500", "192456.662500", "192457.122500", "192457.582500", "192458.042500", "192458.502500", "192458.962500", "192459.422500", "192459.882500", "192500.342500", "192500.802500", "192501.262500", "192501.722500", "192502.182500", "192502.642500", "192503.102500", "192503.562500", "192504.022500", "192504.482500", "192504.942500", "192505.402500", "192505.862500", "192506.322500", "192506.782500", "192507.242500", "192507.702500", "192508.162500", "192508.622500", "192509.082500", "192509.542500", "192510.002500", "192510.462500", "192510.922500", "192511.382500", "192511.842500", "192512.302500", "192512.762500", "192513.222500", "192513.682500", "192514.142500", "192514.602500", "192515.062500", "192515.522500", "192515.982500", "192516.442500", "192516.902500", "192517.362500", "192517.822500", "192518.282500", "192518.742500", "192519.202500", "192519.662500", "192520.122500", "192520.582500", "192521.042500", "192521.502500", "192521.962500", "192522.422500", "192522.882500", "192523.342500", "192523.802500", "192524.262500", "192524.722500", "192525.182500", "192525.642500", "192526.102500", "192526.562500", "192527.022500", "192527.482500", "192527.942500", "192528.402500", "192528.862500", "192529.322500", "192529.782500", "192530.242500", "192530.702500", "192531.162500", "192531.622500", "192532.082500", "192532.542500", "192533.002500", "192533.462500", "192533.922500", "192534.382500", "192534.842500", "192535.302500", "192535.762500", "192536.222500", "192536.682500", "192537.142500", "192537.602500", "192538.062500", "192538.522500", "192538.982500", "192539.442500", "192539.902500", "192540.362500", "192540.822500", "192541.282500", "192541.742500", "192542.202500", "192542.662500", "192543.122500", "192543.582500", "192544.042500", "192544.502500", "192544.962500", "192545.422500", "192545.882500", "192546.342500", "192546.802500", "192547.262500", "192547.722500", "192548.182500", "192548.642500", "192549.102500", "192549.562500", "192550.022500", "192550.482500", "192550.942500", "192551.402500", "192551.862500", "192552.322500", "192552.782500", "192553.242500", "192553.702500", "192554.162500", "192554.622500", "192555.082500", "192555.542500", "192556.002500", "192556.462500", "192556.922500", "192557.382500", "192557.842500", "192558.302500", "192558.762500", "192559.222500", "192559.682500", "192600.142500", "192600.602500", "192601.062500", "192601.522500", "192601.982500", "192602.442500", "192602.902500", "192603.362500", "192603.822500", "192604.282500", "192604.742500", "192605.202500", "192605.662500", "192606.122500", "192606.582500", "192607.042500", "192607.502500", "192607.962500", "192608.422500", "192608.882500", "192609.342500", "192609.802500", "192610.262500", "192610.722500", "192611.182500", "192611.642500", "192612.102500", "192612.562500", "192613.022500", "192613.482500", "192613.942500", "192614.402500", "192614.862500", "192615.322500", "192615.782500", "192616.242500", "192616.702500", "192617.162500", "192617.622500", "192618.082500", "192618.542500", "192619.002500", "192619.462500", "192619.922500", "192620.382500", "192620.842500", "192621.302500", "192621.762500", "192622.222500", "192622.682500", "192623.142500", "192623.602500", "192624.062500", "192624.522500", "192624.982500", "192625.442500", "192625.902500", "192626.362500", "192626.822500", "192627.282500", "192627.742500", "192628.202500", "192628.662500", "192629.122500", "192629.582500", "192630.042500", "192630.502500", "192630.962500", "192631.422500", "192631.882500", "192632.342500", "192632.802500", "192633.262500", "192633.722500", "192634.182500", "192634.642500", "192635.102500", "192635.562500", "192636.022500", "192636.482500", "192636.942500", "192637.402500", "192637.862500", "192638.322500", "192638.782500", "192639.242500", "192639.702500", "192640.162500", "192640.622500", "192641.082500", "192641.542500", "192642.002500", "192642.462500", "192642.922500", "192643.382500", "192643.842500", "192644.302500", "192644.762500", "192645.222500", "192645.682500", "192646.142500", "192646.602500", "192647.062500", "192647.522500", "192647.982500", "192648.442500", "192648.902500", "192649.362500", "192649.822500", "192650.282500", "192650.742500", "192651.202500", "192651.662500", "192652.122500", "192652.582500", "192653.042500", "192653.502500", "192653.962500", "192654.422500", "192654.882500", "192655.342500", "192655.802500", "192656.262500", "192656.722500", "192657.182500", "192657.642500", "192658.102500", "192658.562500", "192659.022500", "192659.482500", "192659.942500", "192700.402500", "192700.862500", "192701.322500", "192701.782500", "192702.242500", "192702.702500", "192703.162500", "192703.622500", "192704.082500", "192704.542500", "192705.002500", "192705.462500", "192705.922500", "192706.382500", "192706.842500", "192707.302500", "192707.762500", "192708.222500", "192708.682500", "192709.142500", "192709.602500", "192710.062500", "192710.522500", "192710.982500", "192711.442500", "192711.902500", "192712.362500", "192712.822500", "192713.282500", "192713.742500", "192714.202500", "192714.662500", "192715.122500", "192715.582500", "192716.042500", "192716.502500", "192716.962500", "192717.422500", "192717.882500", "192718.342500", "192718.802500", "192719.262500", "192719.722500", "192720.182500", "192720.642500", "192721.102500", "192721.562500", "192722.022500", "192722.482500", "192722.942500", "192723.402500", "192723.862500", "192724.322500", "192724.782500", "192725.242500", "192725.702500", "192726.162500", "192726.622500", "192727.082500", "192727.542500", "192728.002500", "192728.462500", "192728.922500", "192729.382500", "192729.842500", "192730.302500", "192730.762500", "192731.222500", "192731.682500", "192732.142500", "192732.602500", "192733.062500", "192733.522500", "192733.982500", "192734.442500", "192734.902500", "192735.362500", "192735.822500", "192736.282500", "192736.742500", "192737.202500", "192737.662500", "192738.122500", "192738.582500", "192739.042500", "192739.502500", "192739.962500", "192740.422500", "192740.882500", "192741.342500", "192741.802500", "192742.262500", "192742.722500", "192743.182500", "192743.642500", "192744.102500", "192744.562500", "192745.022500", "192745.482500", "192745.942500", "192746.402500", "192746.862500", "192747.322500", "192747.782500", "192748.242500", "192748.702500", "192749.162500", "192749.622500", "192750.082500", "192750.542500", "192751.002500", "192751.462500", "192751.922500", "192752.382500", "192752.842500", "192753.302500", "192753.762500", "192754.222500", "192754.682500", "192755.142500", "192755.602500", "192756.062500", "192756.522500", "192756.982500", "192757.442500", "192757.902500", "192758.362500", "192758.822500", "192759.282500", "192759.742500", "192800.202500", "192800.662500", "192801.122500", "192801.582500", "192802.042500", "192802.502500", "192802.962500", "192803.422500", "192803.882500", "192804.342500", "192804.802500", "192805.262500", "192805.722500", "192806.182500", "192806.642500", "192807.102500", "192807.562500", "192808.022500", "192808.482500", "192808.942500", "192809.402500", "192809.862500", "192810.322500", "192810.782500", "192811.242500", "192811.702500", "192812.162500", "192812.622500", "192813.082500", "192813.542500", "192814.002500", "192814.462500", "192814.922500", "192815.382500", "192815.842500", "192816.302500", "192816.762500", "192817.222500", "192817.682500", "192818.142500", "192818.602500", "192819.062500", "192819.522500", "192819.982500", "192820.442500", "192820.902500", "192821.362500", "192821.822500", "192822.282500", "192822.742500", "192823.202500", "192823.662500", "192824.122500", "192824.582500", "192825.042500", "192825.502500", "192825.962500", "192826.422500", "192826.882500", "192827.342500", "192827.802500", "192828.262500", "192828.722500", "192829.182500", "192829.642500", "192830.102500", "192830.562500", "192831.022500", "192831.482500", "192831.942500", "192832.402500", "192832.862500", "192833.322500", "192833.782500", "192834.242500", "192834.702500", "192835.162500", "192835.622500", "192836.082500", "192836.542500", "192837.002500", "192837.462500", "192837.922500", "192838.382500", "192838.842500", "192839.302500", "192839.762500", "192840.222500", "192840.682500", "192841.142500", "192841.602500", "192842.062500", "192842.522500", "192842.982500", "192843.442500", "192843.902500", "192844.362500", "192844.822500", "192845.282500", "192845.742500", "192846.202500", "192846.662500", "192847.122500", "192847.582500", "192848.042500", "192848.502500", "192848.962500", "192849.422500", "192849.882500", "192850.342500", "192850.802500", "192851.262500", "192851.722500", "192852.182500", "192852.642500", "192853.102500", "192853.562500", "192854.022500", "192854.482500", "192854.942500", "192855.402500", "192855.862500", "192856.322500", "192856.782500", "192857.242500", "192857.702500", "192858.162500", "192858.622500", "192859.082500", "192859.542500", "192900.002500", "192900.462500", "192900.922500", "192901.382500", "192901.842500", "192902.302500", "192902.762500", "192903.222500", "192903.682500", "192904.142500", "192904.602500", "192905.062500", "192905.522500", "192905.982500", "192906.442500", "192906.902500", "192907.362500", "192907.822500", "192908.282500", "192908.742500", "192909.202500", "192909.662500", "192910.122500", "192910.582500", "192911.042500", "192911.502500", "192911.962500", "192912.422500", "192912.882500", "192913.342500", "192913.802500", "192914.262500", "192914.722500", "192915.182500", "192915.642500", "192916.102500", "192916.562500", "192917.022500", "192917.482500", "192917.942500", "192918.402500", "192918.862500", "192919.322500", "192919.782500", "192920.242500", "192920.702500", "192921.162500", "192921.622500", "192922.082500", "192922.542500", "192923.002500", "192923.462500", "192923.922500", "192924.382500", "192924.842500", "192925.302500", "192925.762500", "192926.222500", "192926.682500", "192927.142500", "192927.602500", "192928.062500", "192928.522500", "192928.982500", "192929.442500", "192929.902500", "192930.362500", "192930.822500", "192931.282500", "192931.742500", "192932.202500", "192932.662500", "192933.122500", "192933.582500", "192934.042500", "192934.502500", "192934.962500", "192935.422500", "192935.882500", "192936.342500", "192936.802500", "192937.262500", "192937.722500", "192938.182500", "192938.642500", "192939.102500", "192939.562500", "192940.022500", "192940.482500", "192940.942500", "192941.402500", "192941.862500", "192942.322500", "192942.782500", "192943.242500", "192943.702500", "192944.162500", "192944.622500", "192945.082500", "192945.542500", "192946.002500", "192946.462500", "192946.922500", "192947.382500", "192947.842500", "192948.302500", "192948.762500", "192949.222500", "192949.682500", "192950.142500", "192950.602500", "192951.062500", "192951.522500", "192951.982500", "192952.442500", "192952.902500", "192953.362500", "192953.822500", "192954.282500", "192954.742500", "192955.202500", "192955.662500", "192956.122500", "192956.582500", "192957.042500", "192957.502500", "192957.962500", "192958.422500", "192958.882500", "192959.342500", "192959.802500", "193000.262500", "193000.722500", "193001.182500", "193001.642500", "193002.102500", "193002.562500", "193003.022500", "193003.482500", "193003.942500", "193004.402500", "193004.862500", "193005.322500", "193005.782500", "193006.242500", "193006.702500", "193007.162500", "193007.622500", "193008.082500", "193008.542500", "193009.002500", "193009.462500", "193009.922500", "193010.382500", "193010.842500", "193011.302500", "193011.762500", "193012.222500", "193012.682500", "193013.142500", "193013.602500", "193014.062500", "193014.522500", "193014.982500", "193015.442500", "193015.902500", "193016.362500", "193016.822500", "193017.282500", "193017.742500", "193018.202500", "193018.662500", "193019.122500", "193019.582500", "193020.042500", "193020.502500", "193020.962500", "193021.422500", "193021.882500", "193022.342500", "193022.802500", "193023.262500", "193023.722500", "193024.182500", "193024.642500", "193025.102500", "193025.562500", "193026.022500", "193026.482500", "193026.942500", "193027.402500", "193027.862500", "193028.322500", "193028.782500"],
