{
  "AcquisitionMatrixPE": 82,
  "AcquisitionNumber": 1,
  "AcquisitionTime": "18:22:50.697500",
  "BandwidthPerPixelPhaseEncode": 24.888,
  "BaseResolution": 82,
  "BodyPartExamined": "BRAIN",
  "ConsistencyInfo": "N4_VE11E_LATEST_20181129",
  "ConversionSoftware": "dcm2niix",
  "ConversionSoftwareVersion": "v1.0.20201102",
  "DerivedVendorReportedEchoSpacing": 0.00049,
  "DeviceSerialNumber": "66112",
  "DwellTime": 2e-06,
  "EchoTime": 0.0272,
  "EchoTrainLength": 82,
  "EffectiveEchoSpacing": 0.00049,
  "FlipAngle": 44,
  "ImageComments": "Unaliased MB8/PE3",
  "ImageOrientationPatientDICOM": [0.998922, -0.036031, 0.0292677, 0.0371525, 0.998559, -0.0387251],
  "ImageType": [
    "ORIGINAL",
    "PRIMARY",
    "M",
    "MB",
    "ND",
    "NORM",
    "MOSAIC"
],
  "ImagingFrequency": 123.259,
  "InPlanePhaseEncodingDirectionDICOM": "COL",
  "InstitutionAddress": "Maynard 3,Hanover,NH,US,03755",
  "InstitutionName": "Dartmouth College - PBS",
  "InstitutionalDepartmentName": "Department",
  "MRAcquisitionType": "2D",
  "MagneticFieldStrength": 3,
  "Manufacturer": "Siemens",
  "ManufacturersModelName": "Prisma",
  "Modality": "MR",
  "MultibandAccelerationFactor": 8,
  "PartialFourier": 1,
  "PatientPosition": "HFS",
  "PercentPhaseFOV": 100,
  "PercentSampling": 100,
  "PhaseEncodingDirection": "j-",
  "PhaseEncodingSteps": 82,
  "PhaseResolution": 1,
  "PixelBandwidth": 3050,
  "ProcedureStepDescription": "Wager_Wager^1076_spacetop",
  "ProtocolName": "func_run-04_task-social_acq-ap-mb8",
  "PulseSequenceDetails": "%CustomerSeq%\\cmrr_mbep2d_bold",
  "ReceiveCoilActiveElements": "HEA;HEP",
  "ReceiveCoilName": "Head_32",
  "ReconMatrixPE": 82,
  "RepetitionTime": 0.46,
  "SAR": 0.114347,
  "ScanOptions": "FS",
  "ScanningSequence": "EP",
  "SequenceName": "epfid2d1_82",
  "SequenceVariant": "SK\\SS",
  "SeriesDescription": "func_run-04_task-social_acq-ap-mb8",
  "SeriesNumber": 14,
  "ShimSetting": [4251, -7895, -7077, 668, -37, -211, 342, 91],
  "SliceThickness": 2.7,
  "SliceTiming": [0, 0.2525, 0.065, 0.315, 0.1275, 0.3775, 0.19, 0, 0.2525, 0.065, 0.315, 0.1275, 0.3775, 0.19, 0, 0.2525, 0.065, 0.315, 0.1275, 0.3775, 0.19, 0, 0.2525, 0.065, 0.315, 0.1275, 0.3775, 0.19, 0, 0.2525, 0.065, 0.315, 0.1275, 0.3775, 0.19, 0, 0.2525, 0.065, 0.315, 0.1275, 0.3775, 0.19, 0, 0.2525, 0.065, 0.315, 0.1275, 0.3775, 0.19, 0, 0.2525, 0.065, 0.315, 0.1275, 0.3775, 0.19],
  "SoftwareVersions": "syngo MR E11",
  "SpacingBetweenSlices": 2.7,
  "StationName": "AWP66112",
  "TaskName": "social",
  "TotalReadoutTime": 0.03969,
  "TxRefAmp": 233.758,
  "WipMemBlock": "a9511a7a-49ee-4841-bcfa-b314e83c3fbd||Sequence: R016 ve11e/master r/434b28f1; Aug  7 2019 18:53:46 by eja",
  "dcmmeta_affine": [
    [-2.680034637451172, 0.09967745840549469, 0.07514169067144394, 106.14152526855469],
    [0.09666848182678223, 2.679060697555542, -0.1073809564113617, -107.5296630859375],
    [0.078523188829422, 0.1038966104388237, 2.69681715965271, -39.82487487792969],
    [0.0, 0.0, 0.0, 1.0]
],
  "dcmmeta_reorient_transform": [
    [0.0, -1.0, 0.0, 81.0],
    [1.0, 0.0, 0.0, 0.0],
    [0.0, 0.0, 1.0, 0.0],
    [0.0, 0.0, 0.0, 1.0]
],
  "dcmmeta_shape": [82, 82, 56, 872],
  "dcmmeta_slice_dim": 2,
  "dcmmeta_version": 0.6,
  "global": {
    "const": {
      "AccessionNumber": "A004657",
      "AcquisitionMatrix": [82, 0, 0, 82],
      "AngioFlag": "N",
      "BitsAllocated": 16,
      "BitsStored": 16,
      "BodyPartExamined": "BRAIN",
      "Columns": 656,
      "EchoNumbers": 1,
      "EchoTime": 27.2,
      "EchoTrainLength": 82,
      "FlipAngle": 44.0,
      "HighBit": 15,
      "ImageOrientationPatient": [0.99892200309149, -0.0360309799713, 0.02926773346167, 0.03715250520193, 0.99855899071809, -0.0387251005589],
      "ImagePositionPatient": [-911.99278830307, -850.620845084, -24.127075014104],
      "ImageType": [
        "ORIGINAL",
        "PRIMARY",
        "M",
        "MB",
        "ND",
        "NORM",
        "MOSAIC"
],
      "ImagedNucleus": "1H",
      "ImagingFrequency": 123.259063,
      "InPlanePhaseEncodingDirection": "COL",
      "MRAcquisitionType": "2D",
      "MagneticFieldStrength": 3.0,
      "Manufacturer": "SIEMENS",
      "ManufacturerModelName": "Prisma",
      "Modality": "MR",
      "NumberOfAverages": 1.0,
      "NumberOfPhaseEncodingSteps": 82,
      "PercentPhaseFieldOfView": 100.0,
      "PercentSampling": 100.0,
      "PerformedProcedureStepStartTime": "174730.411000",
      "PhotometricInterpretation": "MONOCHROME2",
      "PixelBandwidth": 3050.0,
      "PixelRepresentation": 0,
      "PixelSpacing": [2.6829268932343, 2.6829268932343],
      "ProtocolName": "func_run-04_task-social_acq-ap-mb8",
      "RepetitionTime": 460.0,
      "Rows": 656,
      "SAR": 0.11434667525755,
      "SamplesPerPixel": 1,
      "ScanOptions": "FS",
      "ScanningSequence": "EP",
      "SequenceName": "epfid2d1_82",
      "SequenceVariant": [
        "SK",
        "SS"
],
      "SeriesDescription": "func_run-04_task-social_acq-ap-mb8",
      "SeriesNumber": 14,
      "SeriesTime": "182320.888000",
      "SliceLocation": -32.547449226061,
      "SliceThickness": 2.7000000476837,
      "SmallestImagePixelValue": 0,
      "SoftwareVersions": "syngo MR E11",
      "SpacingBetweenSlices": 2.7000000160117,
      "SpecificCharacterSet": "ISO_IR 100",
      "StudyID": "1",
      "StudyTime": "174730.284000",
      "TransmitCoilName": "Body",
      "VariableFlipAngleFlag": "N",
      "WindowCenterWidthExplanation": "Algo1"
    },
    "slices": {}
  },
  "time": {
    "samples": {
      "AcquisitionNumber": [1, 2, 3, 4, 5, 6, 7, 8, 9, 10, 11, 12, 13, 14, 15, 16, 17, 18, 19, 20, 21, 22, 23, 24, 25, 26, 27, 28, 29, 30, 31, 32, 33, 34, 35, 36, 37, 38, 39, 40, 41, 42, 43, 44, 45, 46, 47, 48, 49, 50, 51, 52, 53, 54, 55, 56, 57, 58, 59, 60, 61, 62, 63, 64, 65, 66, 67, 68, 69, 70, 71, 72, 73, 74, 75, 76, 77, 78, 79, 80, 81, 82, 83, 84, 85, 86, 87, 88, 89, 90, 91, 92, 93, 94, 95, 96, 97, 98, 99, 100, 101, 102, 103, 104, 105, 106, 107, 108, 109, 110, 111, 112, 113, 114, 115, 116, 117, 118, 119, 120, 121, 122, 123, 124, 125, 126, 127, 128, 129, 130, 131, 132, 133, 134, 135, 136, 137, 138, 139, 140, 141, 142, 143, 144, 145, 146, 147, 148, 149, 150, 151, 152, 153, 154, 155, 156, 157, 158, 159, 160, 161, 162, 163, 164, 165, 166, 167, 168, 169, 170, 171, 172, 173, 174, 175, 176, 177, 178, 179, 180, 181, 182, 183, 184, 185, 186, 187, 188, 189, 190, 191, 192, 193, 194, 195, 196, 197, 198, 199, 200, 201, 202, 203, 204, 205, 206, 207, 208, 209, 210, 211, 212, 213, 214, 215, 216, 217, 218, 219, 220, 221, 222, 223, 224, 225, 226, 227, 228, 229, 230, 231, 232, 233, 234, 235, 236, 237, 238, 239, 240, 241, 242, 243, 244, 245, 246, 247, 248, 249, 250, 251, 252, 253, 254, 255, 256, 257, 258, 259, 260, 261, 262, 263, 264, 265, 266, 267, 268, 269, 270, 271, 272, 273, 274, 275, 276, 277, 278, 279, 280, 281, 282, 283, 284, 285, 286, 287, 288, 289, 290, 291, 292, 293, 294, 295, 296, 297, 298, 299, 300, 301, 302, 303, 304, 305, 306, 307, 308, 309, 310, 311, 312, 313, 314, 315, 316, 317, 318, 319, 320, 321, 322, 323, 324, 325, 326, 327, 328, 329, 330, 331, 332, 333, 334, 335, 336, 337, 338, 339, 340, 341, 342, 343, 344, 345, 346, 347, 348, 349, 350, 351, 352, 353, 354, 355, 356, 357, 358, 359, 360, 361, 362, 363, 364, 365, 366, 367, 368, 369, 370, 371, 372, 373, 374, 375, 376, 377, 378, 379, 380, 381, 382, 383, 384, 385, 386, 387, 388, 389, 390, 391, 392, 393, 394, 395, 396, 397, 398, 399, 400, 401, 402, 403, 404, 405, 406, 407, 408, 409, 410, 411, 412, 413, 414, 415, 416, 417, 418, 419, 420, 421, 422, 423, 424, 425, 426, 427, 428, 429, 430, 431, 432, 433, 434, 435, 436, 437, 438, 439, 440, 441, 442, 443, 444, 445, 446, 447, 448, 449, 450, 451, 452, 453, 454, 455, 456, 457, 458, 459, 460, 461, 462, 463, 464, 465, 466, 467, 468, 469, 470, 471, 472, 473, 474, 475, 476, 477, 478, 479, 480, 481, 482, 483, 484, 485, 486, 487, 488, 489, 490, 491, 492, 493, 494, 495, 496, 497, 498, 499, 500, 501, 502, 503, 504, 505, 506, 507, 508, 509, 510, 511, 512, 513, 514, 515, 516, 517, 518, 519, 520, 521, 522, 523, 524, 525, 526, 527, 528, 529, 530, 531, 532, 533, 534, 535, 536, 537, 538, 539, 540, 541, 542, 543, 544, 545, 546, 547, 548, 549, 550, 551, 552, 553, 554, 555, 556, 557, 558, 559, 560, 561, 562, 563, 564, 565, 566, 567, 568, 569, 570, 571, 572, 573, 574, 575, 576, 577, 578, 579, 580, 581, 582, 583, 584, 585, 586, 587, 588, 589, 590, 591, 592, 593, 594, 595, 596, 597, 598, 599, 600, 601, 602, 603, 604, 605, 606, 607, 608, 609, 610, 611, 612, 613, 614, 615, 616, 617, 618, 619, 620, 621, 622, 623, 624, 625, 626, 627, 628, 629, 630, 631, 632, 633, 634, 635, 636, 637, 638, 639, 640, 641, 642, 643, 644, 645, 646, 647, 648, 649, 650, 651, 652, 653, 654, 655, 656, 657, 658, 659, 660, 661, 662, 663, 664, 665, 666, 667, 668, 669, 670, 671, 672, 673, 674, 675, 676, 677, 678, 679, 680, 681, 682, 683, 684, 685, 686, 687, 688, 689, 690, 691, 692, 693, 694, 695, 696, 697, 698, 699, 700, 701, 702, 703, 704, 705, 706, 707, 708, 709, 710, 711, 712, 713, 714, 715, 716, 717, 718, 719, 720, 721, 722, 723, 724, 725, 726, 727, 728, 729, 730, 731, 732, 733, 734, 735, 736, 737, 738, 739, 740, 741, 742, 743, 744, 745, 746, 747, 748, 749, 750, 751, 752, 753, 754, 755, 756, 757, 758, 759, 760, 761, 762, 763, 764, 765, 766, 767, 768, 769, 770, 771, 772, 773, 774, 775, 776, 777, 778, 779, 780, 781, 782, 783, 784, 785, 786, 787, 788, 789, 790, 791, 792, 793, 794, 795, 796, 797, 798, 799, 800, 801, 802, 803, 804, 805, 806, 807, 808, 809, 810, 811, 812, 813, 814, 815, 816, 817, 818, 819, 820, 821, 822, 823, 824, 825, 826, 827, 828, 829, 830, 831, 832, 833, 834, 835, 836, 837, 838, 839, 840, 841, 842, 843, 844, 845, 846, 847, 848, 849, 850, 851, 852, 853, 854, 855, 856, 857, 858, 859, 860, 861, 862, 863, 864, 865, 866, 867, 868, 869, 870, 871, 872],
      "AcquisitionTime": ["182250.697500", "182251.157500", "182251.617500", "182252.077500", "182252.537500", "182252.997500", "182253.457500", "182253.917500", "182254.377500", "182254.837500", "182255.297500", "182255.757500", "182256.217500", "182256.677500", "182257.137500", "182257.597500", "182258.057500", "182258.517500", "182258.977500", "182259.437500", "182259.897500", "182300.357500", "182300.817500", "182301.277500", "182301.737500", "182302.197500", "182302.657500", "182303.117500", "182303.577500", "182304.037500", "182304.497500", "182304.957500", "182305.417500", "182305.877500", "182306.337500", "182306.797500", "182307.257500", "182307.717500", "182308.177500", "182308.637500", "182309.097500", "182309.557500", "182310.017500", "182310.477500", "182310.937500", "182311.397500", "182311.857500", "182312.317500", "182312.777500", "182313.237500", "182313.697500", "182314.157500", "182314.617500", "182315.077500", "182315.537500", "182315.997500", "182316.457500", "182316.917500", "182317.377500", "182317.837500", "182318.297500", "182318.757500", "182319.217500", "182319.677500", "182320.137500", "182320.597500", "182321.057500", "182321.517500", "182321.977500", "182322.437500", "182322.897500", "182323.357500", "182323.817500", "182324.277500", "182324.737500", "182325.197500", "182325.657500", "182326.117500", "182326.577500", "182327.037500", "182327.497500", "182327.957500", "182328.417500", "182328.877500", "182329.337500", "182329.797500", "182330.257500", "182330.717500", "182331.177500", "182331.637500", "182332.097500", "182332.557500", "182333.017500", "182333.477500", "182333.937500", "182334.397500", "182334.857500", "182335.317500", "182335.777500", "182336.237500", "182336.697500", "182337.157500", "182337.617500", "182338.077500", "182338.537500", "182338.997500", "182339.457500", "182339.917500", "182340.377500", "182340.837500", "182341.297500", "182341.757500", "182342.217500", "182342.677500", "182343.137500", "182343.597500", "182344.057500", "182344.517500", "182344.977500", "182345.437500", "182345.897500", "182346.357500", "182346.817500", "182347.277500", "182347.737500", "182348.197500", "182348.657500", "182349.117500", "182349.577500", "182350.037500", "182350.497500", "182350.957500", "182351.417500", "182351.877500", "182352.337500", "182352.797500", "182353.257500", "182353.717500", "182354.177500", "182354.637500", "182355.097500", "182355.557500", "182356.017500", "182356.477500", "182356.937500", "182357.397500", "182357.857500", "182358.317500", "182358.777500", "182359.237500", "182359.697500", "182400.157500", "182400.617500", "182401.077500", "182401.537500", "182401.997500", "182402.457500", "182402.917500", "182403.377500", "182403.837500", "182404.297500", "182404.757500", "182405.217500", "182405.677500", "182406.137500", "182406.597500", "182407.057500", "182407.517500", "182407.977500", "182408.437500", "182408.897500", "182409.357500", "182409.817500", "182410.277500", "182410.737500", "182411.197500", "182411.657500", "182412.117500", "182412.577500", "182413.037500", "182413.497500", "182413.957500", "182414.417500", "182414.877500", "182415.337500", "182415.797500", "182416.257500", "182416.717500", "182417.177500", "182417.637500", "182418.097500", "182418.557500", "182419.017500", "182419.477500", "182419.937500", "182420.397500", "182420.857500", "182421.317500", "182421.777500", "182422.237500", "182422.697500", "182423.157500", "182423.617500", "182424.077500", "182424.537500", "182424.997500", "182425.457500", "182425.917500", "182426.377500", "182426.837500", "182427.297500", "182427.757500", "182428.217500", "182428.677500", "182429.137500", "182429.597500", "182430.057500", "182430.517500", "182430.977500", "182431.437500", "182431.897500", "182432.357500", "182432.817500", "182433.277500", "182433.737500", "182434.197500", "182434.657500", "182435.117500", "182435.577500", "182436.037500", "182436.497500", "182436.957500", "182437.417500", "182437.877500", "182438.337500", "182438.797500", "182439.257500", "182439.717500", "182440.177500", "182440.637500", "182441.097500", "182441.557500", "182442.017500", "182442.477500", "182442.937500", "182443.397500", "182443.857500", "182444.317500", "182444.777500", "182445.237500", "182445.697500", "182446.157500", "182446.617500", "182447.077500", "182447.537500", "182447.997500", "182448.457500", "182448.917500", "182449.377500", "182449.837500", "182450.297500", "182450.757500", "182451.217500", "182451.677500", "182452.137500", "182452.597500", "182453.057500", "182453.517500", "182453.977500", "182454.437500", "182454.897500", "182455.357500", "182455.817500", "182456.277500", "182456.737500", "182457.197500", "182457.657500", "182458.117500", "182458.577500", "182459.037500", "182459.497500", "182459.957500", "182500.417500", "182500.877500", "182501.337500", "182501.797500", "182502.257500", "182502.717500", "182503.177500", "182503.637500", "182504.097500", "182504.557500", "182505.017500", "182505.477500", "182505.937500", "182506.397500", "182506.857500", "182507.317500", "182507.777500", "182508.237500", "182508.697500", "182509.157500", "182509.617500", "182510.077500", "182510.537500", "182510.997500", "182511.457500", "182511.917500", "182512.377500", "182512.837500", "182513.297500", "182513.757500", "182514.217500", "182514.677500", "182515.137500", "182515.597500", "182516.057500", "182516.517500", "182516.977500", "182517.437500", "182517.897500", "182518.357500", "182518.817500", "182519.277500", "182519.737500", "182520.197500", "182520.657500", "182521.117500", "182521.577500", "182522.037500", "182522.497500", "182522.957500", "182523.417500", "182523.877500", "182524.337500", "182524.797500", "182525.257500", "182525.717500", "182526.177500", "182526.637500", "182527.097500", "182527.557500", "182528.017500", "182528.477500", "182528.937500", "182529.397500", "182529.857500", "182530.317500", "182530.777500", "182531.237500", "182531.697500", "182532.157500", "182532.617500", "182533.077500", "182533.537500", "182533.997500", "182534.457500", "182534.917500", "182535.377500", "182535.837500", "182536.297500", "182536.757500", "182537.217500", "182537.677500", "182538.137500", "182538.597500", "182539.057500", "182539.517500", "182539.977500", "182540.437500", "182540.897500", "182541.357500", "182541.817500", "182542.277500", "182542.737500", "182543.197500", "182543.657500", "182544.117500", "182544.577500", "182545.037500", "182545.497500", "182545.957500", "182546.417500", "182546.877500", "182547.337500", "182547.797500", "182548.257500", "182548.717500", "182549.177500", "182549.637500", "182550.097500", "182550.557500", "182551.017500", "182551.477500", "182551.937500", "182552.397500", "182552.857500", "182553.317500", "182553.777500", "182554.237500", "182554.697500", "182555.157500", "182555.617500", "182556.077500", "182556.537500", "182556.997500", "182557.457500", "182557.917500", "182558.377500", "182558.837500", "182559.297500", "182559.757500", "182600.217500", "182600.677500", "182601.137500", "182601.597500", "182602.057500", "182602.517500", "182602.977500", "182603.437500", "182603.897500", "182604.357500", "182604.817500", "182605.277500", "182605.737500", "182606.197500", "182606.657500", "182607.117500", "182607.577500", "182608.037500", "182608.497500", "182608.957500", "182609.417500", "182609.877500", "182610.337500", "182610.797500", "182611.257500", "182611.717500", "182612.177500", "182612.637500", "182613.097500", "182613.557500", "182614.017500", "182614.477500", "182614.937500", "182615.397500", "182615.857500", "182616.317500", "182616.777500", "182617.237500", "182617.697500", "182618.157500", "182618.617500", "182619.077500", "182619.537500", "182619.997500", "182620.457500", "182620.917500", "182621.377500", "182621.837500", "182622.297500", "182622.757500", "182623.217500", "182623.677500", "182624.137500", "182624.597500", "182625.057500", "182625.517500", "182625.977500", "182626.437500", "182626.897500", "182627.357500", "182627.817500", "182628.277500", "182628.737500", "182629.197500", "182629.657500", "182630.117500", "182630.577500", "182631.037500", "182631.497500", "182631.957500", "182632.417500", "182632.877500", "182633.337500", "182633.797500", "182634.257500", "182634.717500", "182635.177500", "182635.637500", "182636.097500", "182636.557500", "182637.017500", "182637.477500", "182637.937500", "182638.397500", "182638.857500", "182639.317500", "182639.777500", "182640.237500", "182640.697500", "182641.157500", "182641.617500", "182642.077500", "182642.537500", "182642.997500", "182643.457500", "182643.917500", "182644.377500", "182644.837500", "182645.297500", "182645.757500", "182646.217500", "182646.677500", "182647.137500", "182647.597500", "182648.057500", "182648.517500", "182648.977500", "182649.437500", "182649.897500", "182650.357500", "182650.817500", "182651.277500", "182651.737500", "182652.197500", "182652.657500", "182653.117500", "182653.577500", "182654.037500", "182654.497500", "182654.957500", "182655.417500", "182655.877500", "182656.337500", "182656.797500", "182657.257500", "182657.717500", "182658.177500", "182658.637500", "182659.097500", "182659.557500", "182700.017500", "182700.477500", "182700.937500", "182701.397500", "182701.857500", "182702.317500", "182702.777500", "182703.237500", "182703.697500", "182704.157500", "182704.617500", "182705.077500", "182705.537500", "182705.997500", "182706.457500", "182706.917500", "182707.377500", "182707.837500", "182708.297500", "182708.757500", "182709.217500", "182709.677500", "182710.137500", "182710.597500", "182711.057500", "182711.517500", "182711.977500", "182712.437500", "182712.897500", "182713.357500", "182713.817500", "182714.277500", "182714.737500", "182715.197500", "182715.657500", "182716.117500", "182716.577500", "182717.037500", "182717.497500", "182717.957500", "182718.417500", "182718.877500", "182719.337500", "182719.797500", "182720.257500", "182720.717500", "182721.177500", "182721.637500", "182722.097500", "182722.557500", "182723.017500", "182723.477500", "182723.937500", "182724.397500", "182724.857500", "182725.317500", "182725.777500", "182726.237500", "182726.697500", "182727.157500", "182727.617500", "182728.077500", "182728.537500", "182728.997500", "182729.457500", "182729.917500", "182730.377500", "182730.837500", "182731.297500", "182731.757500", "182732.217500", "182732.677500", "182733.137500", "182733.597500", "182734.057500", "182734.517500", "182734.977500", "182735.437500", "182735.897500", "182736.357500", "182736.817500", "182737.277500", "182737.737500", "182738.197500", "182738.657500", "182739.117500", "182739.577500", "182740.037500", "182740.497500", "182740.957500", "182741.417500", "182741.877500", "182742.337500", "182742.797500", "182743.257500", "182743.717500", "182744.177500", "182744.637500", "182745.097500", "182745.557500", "182746.017500", "182746.477500", "182746.937500", "182747.397500", "182747.857500", "182748.317500", "182748.777500", "182749.237500", "182749.697500", "182750.157500", "182750.617500", "182751.077500", "182751.537500", "182751.997500", "182752.457500", "182752.917500", "182753.377500", "182753.837500", "182754.297500", "182754.757500", "182755.217500", "182755.677500", "182756.137500", "182756.597500", "182757.057500", "182757.517500", "182757.977500", "182758.437500", "182758.897500", "182759.357500", "182759.817500", "182800.277500", "182800.737500", "182801.197500", "182801.657500", "182802.117500", "182802.577500", "182803.037500", "182803.497500", "182803.957500", "182804.417500", "182804.877500", "182805.337500", "182805.797500", "182806.257500", "182806.717500", "182807.177500", "182807.637500", "182808.097500", "182808.557500", "182809.017500", "182809.477500", "182809.937500", "182810.397500", "182810.857500", "182811.317500", "182811.777500", "182812.237500", "182812.697500", "182813.157500", "182813.617500", "182814.077500", "182814.537500", "182814.997500", "182815.457500", "182815.917500", "182816.377500", "182816.837500", "182817.297500", "182817.757500", "182818.217500", "182818.677500", "182819.137500", "182819.597500", "182820.057500", "182820.517500", "182820.977500", "182821.437500", "182821.897500", "182822.357500", "182822.817500", "182823.277500", "182823.737500", "182824.197500", "182824.657500", "182825.117500", "182825.577500", "182826.037500", "182826.497500", "182826.957500", "182827.417500", "182827.877500", "182828.337500", "182828.797500", "182829.257500", "182829.717500", "182830.177500", "182830.637500", "182831.097500", "182831.557500", "182832.017500", "182832.477500", "182832.937500", "182833.397500", "182833.857500", "182834.317500", "182834.777500", "182835.237500", "182835.697500", "182836.157500", "182836.617500", "182837.077500", "182837.537500", "182837.997500", "182838.457500", "182838.917500", "182839.377500", "182839.837500", "182840.297500", "182840.757500", "182841.217500", "182841.677500", "182842.137500", "182842.597500", "182843.057500", "182843.517500", "182843.977500", "182844.437500", "182844.897500", "182845.357500", "182845.817500", "182846.277500", "182846.737500", "182847.197500", "182847.657500", "182848.117500", "182848.577500", "182849.037500", "182849.497500", "182849.957500", "182850.417500", "182850.877500", "182851.337500", "182851.797500", "182852.257500", "182852.717500", "182853.177500", "182853.637500", "182854.097500", "182854.557500", "182855.017500", "182855.477500", "182855.937500", "182856.397500", "182856.857500", "182857.317500", "182857.777500", "182858.237500", "182858.697500", "182859.157500", "182859.617500", "182900.077500", "182900.537500", "182900.997500", "182901.457500", "182901.917500", "182902.377500", "182902.837500", "182903.297500", "182903.757500", "182904.217500", "182904.677500", "182905.137500", "182905.597500", "182906.057500", "182906.517500", "182906.977500", "182907.437500", "182907.897500", "182908.357500", "182908.817500", "182909.277500", "182909.737500", "182910.197500", "182910.657500", "182911.117500", "182911.577500", "182912.037500", "182912.497500", "182912.957500", "182913.417500", "182913.877500", "182914.337500", "182914.797500", "182915.257500", "182915.717500", "182916.177500", "182916.637500", "182917.097500", "182917.557500", "182918.017500", "182918.477500", "182918.937500", "182919.397500", "182919.857500", "182920.317500", "182920.777500", "182921.237500", "182921.697500", "182922.157500", "182922.617500", "182923.077500", "182923.537500", "182923.997500", "182924.457500", "182924.917500", "182925.377500", "182925.837500", "182926.297500", "182926.757500", "182927.217500", "182927.677500", "182928.137500", "182928.597500", "182929.057500", "182929.517500", "182929.977500", "182930.437500", "182930.897500", "182931.357500"],
