{
  "AcquisitionMatrixPE": 82,
  "AcquisitionNumber": 1,
  "AcquisitionTime": "18:08:46.210000",
  "BandwidthPerPixelPhaseEncode": 24.888,
  "BaseResolution": 82,
  "BodyPartExamined": "BRAIN",
  "ConsistencyInfo": "N4_VE11E_LATEST_20181129",
  "ConversionSoftware": "dcm2niix",
  "ConversionSoftwareVersion": "v1.0.20201102",
  "DerivedVendorReportedEchoSpacing": 0.00049,
  "DeviceSerialNumber": "66112",
  "DwellTime": 2e-06,
  "EchoTime": 0.0272,
  "EchoTrainLength": 82,
  "EffectiveEchoSpacing": 0.00049,
  "FlipAngle": 44,
  "ImageComments": "Unaliased MB8/PE3",
  "ImageOrientationPatientDICOM": [0.998922, -0.036031, 0.0292677, 0.0371525, 0.998559, -0.0387251],
  "ImageType": [
    "ORIGINAL",
    "PRIMARY",
    "M",
    "MB",
    "ND",
    "NORM",
    "MOSAIC"
],
  "ImagingFrequency": 123.259,
  "InPlanePhaseEncodingDirectionDICOM": "COL",
  "InstitutionAddress": "Maynard 3,Hanover,NH,US,03755",
  "InstitutionName": "Dartmouth College - PBS",
  "InstitutionalDepartmentName": "Department",
  "MRAcquisitionType": "2D",
  "MagneticFieldStrength": 3,
  "Manufacturer": "Siemens",
  "ManufacturersModelName": "Prisma",
  "Modality": "MR",
  "MultibandAccelerationFactor": 8,
  "PartialFourier": 1,
  "PatientPosition": "HFS",
  "PercentPhaseFOV": 100,
  "PercentSampling": 100,
  "PhaseEncodingDirection": "j-",
  "PhaseEncodingSteps": 82,
  "PhaseResolution": 1,
  "PixelBandwidth": 3050,
  "ProcedureStepDescription": "Wager_Wager^1076_spacetop",
  "ProtocolName": "func_run-02_task-social_acq-ap-mb8",
  "PulseSequenceDetails": "%CustomerSeq%\\cmrr_mbep2d_bold",
  "ReceiveCoilActiveElements": "HEA;HEP",
  "ReceiveCoilName": "Head_32",
  "ReconMatrixPE": 82,
  "RepetitionTime": 0.46,
  "SAR": 0.114347,
  "ScanOptions": "FS",
  "ScanningSequence": "EP",
  "SequenceName": "epfid2d1_82",
  "SequenceVariant": "SK\\SS",
  "SeriesDescription": "func_run-02_task-social_acq-ap-mb8",
  "SeriesNumber": 10,
  "ShimSetting": [4251, -7895, -7077, 668, -37, -211, 342, 91],
  "SliceThickness": 2.7,
  "SliceTiming": [0, 0.2525, 0.0625, 0.315, 0.125, 0.3775, 0.1875, 0, 0.2525, 0.0625, 0.315, 0.125, 0.3775, 0.1875, 0, 0.2525, 0.0625, 0.315, 0.125, 0.3775, 0.1875, 0, 0.2525, 0.0625, 0.315, 0.125, 0.3775, 0.1875, 0, 0.2525, 0.0625, 0.315, 0.125, 0.3775, 0.1875, 0, 0.2525, 0.0625, 0.315, 0.125, 0.3775, 0.1875, 0, 0.2525, 0.0625, 0.315, 0.125, 0.3775, 0.1875, 0, 0.2525, 0.0625, 0.315, 0.125, 0.3775, 0.1875],
  "SoftwareVersions": "syngo MR E11",
  "SpacingBetweenSlices": 2.7,
  "StationName": "AWP66112",
  "TaskName": "social",
  "TotalReadoutTime": 0.03969,
  "TxRefAmp": 233.758,
  "WipMemBlock": "d4be887a-602e-4003-a93a-90843d6fa284||Sequence: R016 ve11e/master r/434b28f1; Aug  7 2019 18:53:46 by eja",
  "dcmmeta_affine": [
    [-2.680034637451172, 0.09967745840549469, 0.07514169067144394, 106.14152526855469],
    [0.09666848182678223, 2.679060697555542, -0.1073809564113617, -107.5296630859375],
    [0.078523188829422, 0.1038966104388237, 2.69681715965271, -39.82487487792969],
    [0.0, 0.0, 0.0, 1.0]
],
  "dcmmeta_reorient_transform": [
    [0.0, -1.0, 0.0, 81.0],
    [1.0, 0.0, 0.0, 0.0],
    [0.0, 0.0, 1.0, 0.0],
    [0.0, 0.0, 0.0, 1.0]
],
  "dcmmeta_shape": [82, 82, 56, 872],
  "dcmmeta_slice_dim": 2,
  "dcmmeta_version": 0.6,
  "global": {
    "const": {
      "AccessionNumber": "A004657",
      "AcquisitionMatrix": [82, 0, 0, 82],
      "AngioFlag": "N",
      "BitsAllocated": 16,
      "BitsStored": 16,
      "BodyPartExamined": "BRAIN",
      "Columns": 656,
      "EchoNumbers": 1,
      "EchoTime": 27.2,
      "EchoTrainLength": 82,
      "FlipAngle": 44.0,
      "HighBit": 15,
      "ImageOrientationPatient": [0.99892200309149, -0.0360309799713, 0.02926773346167, 0.03715250520193, 0.99855899071809, -0.0387251005589],
      "ImagePositionPatient": [-911.99278830307, -850.620845084, -24.127075014104],
      "ImageType": [
        "ORIGINAL",
        "PRIMARY",
        "M",
        "MB",
        "ND",
        "NORM",
        "MOSAIC"
],
      "ImagedNucleus": "1H",
      "ImagingFrequency": 123.25906,
      "InPlanePhaseEncodingDirection": "COL",
      "MRAcquisitionType": "2D",
      "MagneticFieldStrength": 3.0,
      "Manufacturer": "SIEMENS",
      "ManufacturerModelName": "Prisma",
      "Modality": "MR",
      "NumberOfAverages": 1.0,
      "NumberOfPhaseEncodingSteps": 82,
      "PercentPhaseFieldOfView": 100.0,
      "PercentSampling": 100.0,
      "PerformedProcedureStepStartTime": "174730.411000",
      "PhotometricInterpretation": "MONOCHROME2",
      "PixelBandwidth": 3050.0,
      "PixelRepresentation": 0,
      "PixelSpacing": [2.6829268932343, 2.6829268932343],
      "ProtocolName": "func_run-02_task-social_acq-ap-mb8",
      "RepetitionTime": 460.0,
      "Rows": 656,
      "SAR": 0.11434667525755,
      "SamplesPerPixel": 1,
      "ScanOptions": "FS",
      "ScanningSequence": "EP",
      "SequenceName": "epfid2d1_82",
      "SequenceVariant": [
        "SK",
        "SS"
],
      "SeriesDescription": "func_run-02_task-social_acq-ap-mb8",
      "SeriesNumber": 10,
      "SeriesTime": "180900.731000",
      "SliceLocation": -32.547449226061,
      "SliceThickness": 2.7000000476837,
      "SmallestImagePixelValue": 0,
      "SoftwareVersions": "syngo MR E11",
      "SpacingBetweenSlices": 2.7000000160117,
      "SpecificCharacterSet": "ISO_IR 100",
      "StudyID": "1",
      "StudyTime": "174730.284000",
      "TransmitCoilName": "Body",
      "VariableFlipAngleFlag": "N",
      "WindowCenterWidthExplanation": "Algo1"
    },
    "slices": {}
  },
  "time": {
    "samples": {
      "AcquisitionNumber": [1, 2, 3, 4, 5, 6, 7, 8, 9, 10, 11, 12, 13, 14, 15, 16, 17, 18, 19, 20, 21, 22, 23, 24, 25, 26, 27, 28, 29, 30, 31, 32, 33, 34, 35, 36, 37, 38, 39, 40, 41, 42, 43, 44, 45, 46, 47, 48, 49, 50, 51, 52, 53, 54, 55, 56, 57, 58, 59, 60, 61, 62, 63, 64, 65, 66, 67, 68, 69, 70, 71, 72, 73, 74, 75, 76, 77, 78, 79, 80, 81, 82, 83, 84, 85, 86, 87, 88, 89, 90, 91, 92, 93, 94, 95, 96, 97, 98, 99, 100, 101, 102, 103, 104, 105, 106, 107, 108, 109, 110, 111, 112, 113, 114, 115, 116, 117, 118, 119, 120, 121, 122, 123, 124, 125, 126, 127, 128, 129, 130, 131, 132, 133, 134, 135, 136, 137, 138, 139, 140, 141, 142, 143, 144, 145, 146, 147, 148, 149, 150, 151, 152, 153, 154, 155, 156, 157, 158, 159, 160, 161, 162, 163, 164, 165, 166, 167, 168, 169, 170, 171, 172, 173, 174, 175, 176, 177, 178, 179, 180, 181, 182, 183, 184, 185, 186, 187, 188, 189, 190, 191, 192, 193, 194, 195, 196, 197, 198, 199, 200, 201, 202, 203, 204, 205, 206, 207, 208, 209, 210, 211, 212, 213, 214, 215, 216, 217, 218, 219, 220, 221, 222, 223, 224, 225, 226, 227, 228, 229, 230, 231, 232, 233, 234, 235, 236, 237, 238, 239, 240, 241, 242, 243, 244, 245, 246, 247, 248, 249, 250, 251, 252, 253, 254, 255, 256, 257, 258, 259, 260, 261, 262, 263, 264, 265, 266, 267, 268, 269, 270, 271, 272, 273, 274, 275, 276, 277, 278, 279, 280, 281, 282, 283, 284, 285, 286, 287, 288, 289, 290, 291, 292, 293, 294, 295, 296, 297, 298, 299, 300, 301, 302, 303, 304, 305, 306, 307, 308, 309, 310, 311, 312, 313, 314, 315, 316, 317, 318, 319, 320, 321, 322, 323, 324, 325, 326, 327, 328, 329, 330, 331, 332, 333, 334, 335, 336, 337, 338, 339, 340, 341, 342, 343, 344, 345, 346, 347, 348, 349, 350, 351, 352, 353, 354, 355, 356, 357, 358, 359, 360, 361, 362, 363, 364, 365, 366, 367, 368, 369, 370, 371, 372, 373, 374, 375, 376, 377, 378, 379, 380, 381, 382, 383, 384, 385, 386, 387, 388, 389, 390, 391, 392, 393, 394, 395, 396, 397, 398, 399, 400, 401, 402, 403, 404, 405, 406, 407, 408, 409, 410, 411, 412, 413, 414, 415, 416, 417, 418, 419, 420, 421, 422, 423, 424, 425, 426, 427, 428, 429, 430, 431, 432, 433, 434, 435, 436, 437, 438, 439, 440, 441, 442, 443, 444, 445, 446, 447, 448, 449, 450, 451, 452, 453, 454, 455, 456, 457, 458, 459, 460, 461, 462, 463, 464, 465, 466, 467, 468, 469, 470, 471, 472, 473, 474, 475, 476, 477, 478, 479, 480, 481, 482, 483, 484, 485, 486, 487, 488, 489, 490, 491, 492, 493, 494, 495, 496, 497, 498, 499, 500, 501, 502, 503, 504, 505, 506, 507, 508, 509, 510, 511, 512, 513, 514, 515, 516, 517, 518, 519, 520, 521, 522, 523, 524, 525, 526, 527, 528, 529, 530, 531, 532, 533, 534, 535, 536, 537, 538, 539, 540, 541, 542, 543, 544, 545, 546, 547, 548, 549, 550, 551, 552, 553, 554, 555, 556, 557, 558, 559, 560, 561, 562, 563, 564, 565, 566, 567, 568, 569, 570, 571, 572, 573, 574, 575, 576, 577, 578, 579, 580, 581, 582, 583, 584, 585, 586, 587, 588, 589, 590, 591, 592, 593, 594, 595, 596, 597, 598, 599, 600, 601, 602, 603, 604, 605, 606, 607, 608, 609, 610, 611, 612, 613, 614, 615, 616, 617, 618, 619, 620, 621, 622, 623, 624, 625, 626, 627, 628, 629, 630, 631, 632, 633, 634, 635, 636, 637, 638, 639, 640, 641, 642, 643, 644, 645, 646, 647, 648, 649, 650, 651, 652, 653, 654, 655, 656, 657, 658, 659, 660, 661, 662, 663, 664, 665, 666, 667, 668, 669, 670, 671, 672, 673, 674, 675, 676, 677, 678, 679, 680, 681, 682, 683, 684, 685, 686, 687, 688, 689, 690, 691, 692, 693, 694, 695, 696, 697, 698, 699, 700, 701, 702, 703, 704, 705, 706, 707, 708, 709, 710, 711, 712, 713, 714, 715, 716, 717, 718, 719, 720, 721, 722, 723, 724, 725, 726, 727, 728, 729, 730, 731, 732, 733, 734, 735, 736, 737, 738, 739, 740, 741, 742, 743, 744, 745, 746, 747, 748, 749, 750, 751, 752, 753, 754, 755, 756, 757, 758, 759, 760, 761, 762, 763, 764, 765, 766, 767, 768, 769, 770, 771, 772, 773, 774, 775, 776, 777, 778, 779, 780, 781, 782, 783, 784, 785, 786, 787, 788, 789, 790, 791, 792, 793, 794, 795, 796, 797, 798, 799, 800, 801, 802, 803, 804, 805, 806, 807, 808, 809, 810, 811, 812, 813, 814, 815, 816, 817, 818, 819, 820, 821, 822, 823, 824, 825, 826, 827, 828, 829, 830, 831, 832, 833, 834, 835, 836, 837, 838, 839, 840, 841, 842, 843, 844, 845, 846, 847, 848, 849, 850, 851, 852, 853, 854, 855, 856, 857, 858, 859, 860, 861, 862, 863, 864, 865, 866, 867, 868, 869, 870, 871, 872],
      "AcquisitionTime": ["180846.210000", "180846.670000", "180847.130000", "180847.590000", "180848.050000", "180848.510000", "180848.970000", "180849.430000", "180849.890000", "180850.350000", "180850.810000", "180851.270000", "180851.730000", "180852.190000", "180852.650000", "180853.110000", "180853.570000", "180854.030000", "180854.490000", "180854.950000", "180855.410000", "180855.870000", "180856.330000", "180856.790000", "180857.250000", "180857.710000", "180858.170000", "180858.630000", "180859.090000", "180859.550000", "180900.010000", "180900.470000", "180900.930000", "180901.390000", "180901.850000", "180902.310000", "180902.770000", "180903.230000", "180903.690000", "180904.150000", "180904.610000", "180905.070000", "180905.530000", "180905.990000", "180906.450000", "180906.910000", "180907.370000", "180907.830000", "180908.290000", "180908.750000", "180909.210000", "180909.670000", "180910.130000", "180910.590000", "180911.050000", "180911.510000", "180911.970000", "180912.430000", "180912.890000", "180913.350000", "180913.810000", "180914.270000", "180914.730000", "180915.190000", "180915.650000", "180916.110000", "180916.570000", "180917.030000", "180917.490000", "180917.950000", "180918.410000", "180918.870000", "180919.330000", "180919.790000", "180920.250000", "180920.710000", "180921.170000", "180921.630000", "180922.090000", "180922.550000", "180923.010000", "180923.470000", "180923.930000", "180924.390000", "180924.850000", "180925.310000", "180925.770000", "180926.230000", "180926.690000", "180927.150000", "180927.610000", "180928.070000", "180928.530000", "180928.990000", "180929.450000", "180929.910000", "180930.370000", "180930.830000", "180931.290000", "180931.750000", "180932.210000", "180932.670000", "180933.130000", "180933.590000", "180934.050000", "180934.510000", "180934.970000", "180935.430000", "180935.890000", "180936.350000", "180936.810000", "180937.270000", "180937.730000", "180938.190000", "180938.650000", "180939.110000", "180939.570000", "180940.030000", "180940.490000", "180940.950000", "180941.410000", "180941.870000", "180942.330000", "180942.790000", "180943.250000", "180943.710000", "180944.170000", "180944.630000", "180945.090000", "180945.550000", "180946.010000", "180946.470000", "180946.930000", "180947.390000", "180947.850000", "180948.310000", "180948.770000", "180949.230000", "180949.690000", "180950.150000", "180950.610000", "180951.070000", "180951.530000", "180951.990000", "180952.450000", "180952.910000", "180953.370000", "180953.830000", "180954.290000", "180954.750000", "180955.210000", "180955.670000", "180956.130000", "180956.590000", "180957.050000", "180957.510000", "180957.970000", "180958.430000", "180958.890000", "180959.350000", "180959.810000", "181000.270000", "181000.730000", "181001.190000", "181001.650000", "181002.110000", "181002.570000", "181003.030000", "181003.490000", "181003.950000", "181004.410000", "181004.870000", "181005.330000", "181005.790000", "181006.250000", "181006.710000", "181007.170000", "181007.630000", "181008.090000", "181008.550000", "181009.010000", "181009.470000", "181009.930000", "181010.390000", "181010.850000", "181011.310000", "181011.770000", "181012.230000", "181012.690000", "181013.150000", "181013.610000", "181014.070000", "181014.530000", "181014.990000", "181015.450000", "181015.910000", "181016.370000", "181016.830000", "181017.290000", "181017.750000", "181018.210000", "181018.670000", "181019.130000", "181019.590000", "181020.050000", "181020.510000", "181020.970000", "181021.430000", "181021.890000", "181022.350000", "181022.810000", "181023.270000", "181023.730000", "181024.190000", "181024.650000", "181025.110000", "181025.570000", "181026.030000", "181026.490000", "181026.950000", "181027.410000", "181027.870000", "181028.330000", "181028.790000", "181029.250000", "181029.710000", "181030.170000", "181030.630000", "181031.090000", "181031.550000", "181032.010000", "181032.470000", "181032.930000", "181033.390000", "181033.850000", "181034.310000", "181034.770000", "181035.230000", "181035.690000", "181036.150000", "181036.610000", "181037.070000", "181037.530000", "181037.990000", "181038.450000", "181038.910000", "181039.370000", "181039.830000", "181040.290000", "181040.750000", "181041.210000", "181041.670000", "181042.130000", "181042.590000", "181043.050000", "181043.510000", "181043.970000", "181044.430000", "181044.890000", "181045.350000", "181045.810000", "181046.270000", "181046.730000", "181047.190000", "181047.650000", "181048.110000", "181048.570000", "181049.030000", "181049.490000", "181049.950000", "181050.410000", "181050.870000", "181051.330000", "181051.790000", "181052.250000", "181052.710000", "181053.170000", "181053.630000", "181054.090000", "181054.550000", "181055.010000", "181055.470000", "181055.930000", "181056.390000", "181056.850000", "181057.310000", "181057.770000", "181058.230000", "181058.690000", "181059.150000", "181059.610000", "181100.070000", "181100.530000", "181100.990000", "181101.450000", "181101.910000", "181102.370000", "181102.830000", "181103.290000", "181103.750000", "181104.210000", "181104.670000", "181105.130000", "181105.590000", "181106.050000", "181106.510000", "181106.970000", "181107.430000", "181107.890000", "181108.350000", "181108.810000", "181109.270000", "181109.730000", "181110.190000", "181110.650000", "181111.110000", "181111.570000", "181112.030000", "181112.490000", "181112.950000", "181113.410000", "181113.870000", "181114.330000", "181114.790000", "181115.250000", "181115.710000", "181116.170000", "181116.630000", "181117.090000", "181117.550000", "181118.010000", "181118.470000", "181118.930000", "181119.390000", "181119.850000", "181120.310000", "181120.770000", "181121.230000", "181121.690000", "181122.150000", "181122.610000", "181123.070000", "181123.530000", "181123.990000", "181124.450000", "181124.910000", "181125.370000", "181125.830000", "181126.290000", "181126.750000", "181127.210000", "181127.670000", "181128.130000", "181128.590000", "181129.050000", "181129.510000", "181129.970000", "181130.430000", "181130.890000", "181131.350000", "181131.810000", "181132.270000", "181132.730000", "181133.190000", "181133.650000", "181134.110000", "181134.570000", "181135.030000", "181135.490000", "181135.950000", "181136.410000", "181136.870000", "181137.330000", "181137.790000", "181138.250000", "181138.710000", "181139.170000", "181139.630000", "181140.090000", "181140.550000", "181141.010000", "181141.470000", "181141.930000", "181142.390000", "181142.850000", "181143.310000", "181143.770000", "181144.230000", "181144.690000", "181145.150000", "181145.610000", "181146.070000", "181146.530000", "181146.990000", "181147.450000", "181147.910000", "181148.370000", "181148.830000", "181149.290000", "181149.750000", "181150.210000", "181150.670000", "181151.130000", "181151.590000", "181152.050000", "181152.510000", "181152.970000", "181153.430000", "181153.890000", "181154.350000", "181154.810000", "181155.270000", "181155.730000", "181156.190000", "181156.650000", "181157.110000", "181157.570000", "181158.030000", "181158.490000", "181158.950000", "181159.410000", "181159.870000", "181200.330000", "181200.790000", "181201.250000", "181201.710000", "181202.170000", "181202.630000", "181203.090000", "181203.550000", "181204.010000", "181204.470000", "181204.930000", "181205.390000", "181205.850000", "181206.310000", "181206.770000", "181207.230000", "181207.690000", "181208.150000", "181208.610000", "181209.070000", "181209.530000", "181209.990000", "181210.450000", "181210.910000", "181211.370000", "181211.830000", "181212.290000", "181212.750000", "181213.210000", "181213.670000", "181214.130000", "181214.590000", "181215.050000", "181215.510000", "181215.970000", "181216.430000", "181216.890000", "181217.350000", "181217.810000", "181218.270000", "181218.730000", "181219.190000", "181219.650000", "181220.110000", "181220.570000", "181221.030000", "181221.490000", "181221.950000", "181222.410000", "181222.870000", "181223.330000", "181223.790000", "181224.250000", "181224.710000", "181225.170000", "181225.630000", "181226.090000", "181226.550000", "181227.010000", "181227.470000", "181227.930000", "181228.390000", "181228.850000", "181229.310000", "181229.770000", "181230.230000", "181230.690000", "181231.150000", "181231.610000", "181232.070000", "181232.530000", "181232.990000", "181233.450000", "181233.910000", "181234.370000", "181234.830000", "181235.290000", "181235.750000", "181236.210000", "181236.670000", "181237.130000", "181237.590000", "181238.050000", "181238.510000", "181238.970000", "181239.430000", "181239.890000", "181240.350000", "181240.810000", "181241.270000", "181241.730000", "181242.190000", "181242.650000", "181243.110000", "181243.570000", "181244.030000", "181244.490000", "181244.950000", "181245.410000", "181245.870000", "181246.330000", "181246.790000", "181247.250000", "181247.710000", "181248.170000", "181248.630000", "181249.090000", "181249.550000", "181250.010000", "181250.470000", "181250.930000", "181251.390000", "181251.850000", "181252.310000", "181252.770000", "181253.230000", "181253.690000", "181254.150000", "181254.610000", "181255.070000", "181255.530000", "181255.990000", "181256.450000", "181256.910000", "181257.370000", "181257.830000", "181258.290000", "181258.750000", "181259.210000", "181259.670000", "181300.130000", "181300.590000", "181301.050000", "181301.510000", "181301.970000", "181302.430000", "181302.890000", "181303.350000", "181303.810000", "181304.270000", "181304.730000", "181305.190000", "181305.650000", "181306.110000", "181306.570000", "181307.030000", "181307.490000", "181307.950000", "181308.410000", "181308.870000", "181309.330000", "181309.790000", "181310.250000", "181310.710000", "181311.170000", "181311.630000", "181312.090000", "181312.550000", "181313.010000", "181313.470000", "181313.930000", "181314.390000", "181314.850000", "181315.310000", "181315.770000", "181316.230000", "181316.690000", "181317.150000", "181317.610000", "181318.070000", "181318.530000", "181318.990000", "181319.450000", "181319.910000", "181320.370000", "181320.830000", "181321.290000", "181321.750000", "181322.210000", "181322.670000", "181323.130000", "181323.590000", "181324.050000", "181324.510000", "181324.970000", "181325.430000", "181325.890000", "181326.350000", "181326.810000", "181327.270000", "181327.730000", "181328.190000", "181328.650000", "181329.110000", "181329.570000", "181330.030000", "181330.490000", "181330.950000", "181331.410000", "181331.870000", "181332.330000", "181332.790000", "181333.250000", "181333.710000", "181334.170000", "181334.630000", "181335.090000", "181335.550000", "181336.010000", "181336.470000", "181336.930000", "181337.390000", "181337.850000", "181338.310000", "181338.770000", "181339.230000", "181339.690000", "181340.150000", "181340.610000", "181341.070000", "181341.530000", "181341.990000", "181342.450000", "181342.910000", "181343.370000", "181343.830000", "181344.290000", "181344.750000", "181345.210000", "181345.670000", "181346.130000", "181346.590000", "181347.050000", "181347.510000", "181347.970000", "181348.430000", "181348.890000", "181349.350000", "181349.810000", "181350.270000", "181350.730000", "181351.190000", "181351.650000", "181352.110000", "181352.570000", "181353.030000", "181353.490000", "181353.950000", "181354.410000", "181354.870000", "181355.330000", "181355.790000", "181356.250000", "181356.710000", "181357.170000", "181357.630000", "181358.090000", "181358.550000", "181359.010000", "181359.470000", "181359.930000", "181400.390000", "181400.850000", "181401.310000", "181401.770000", "181402.230000", "181402.690000", "181403.150000", "181403.610000", "181404.070000", "181404.530000", "181404.990000", "181405.450000", "181405.910000", "181406.370000", "181406.830000", "181407.290000", "181407.750000", "181408.210000", "181408.670000", "181409.130000", "181409.590000", "181410.050000", "181410.510000", "181410.970000", "181411.430000", "181411.890000", "181412.350000", "181412.810000", "181413.270000", "181413.730000", "181414.190000", "181414.650000", "181415.110000", "181415.570000", "181416.030000", "181416.490000", "181416.950000", "181417.410000", "181417.870000", "181418.330000", "181418.790000", "181419.250000", "181419.710000", "181420.170000", "181420.630000", "181421.090000", "181421.550000", "181422.010000", "181422.470000", "181422.930000", "181423.390000", "181423.850000", "181424.310000", "181424.770000", "181425.230000", "181425.690000", "181426.150000", "181426.610000", "181427.070000", "181427.530000", "181427.990000", "181428.450000", "181428.910000", "181429.370000", "181429.830000", "181430.290000", "181430.750000", "181431.210000", "181431.670000", "181432.130000", "181432.590000", "181433.050000", "181433.510000", "181433.970000", "181434.430000", "181434.890000", "181435.350000", "181435.810000", "181436.270000", "181436.730000", "181437.190000", "181437.650000", "181438.110000", "181438.570000", "181439.030000", "181439.490000", "181439.950000", "181440.410000", "181440.870000", "181441.330000", "181441.790000", "181442.250000", "181442.710000", "181443.170000", "181443.630000", "181444.090000", "181444.550000", "181445.010000", "181445.470000", "181445.930000", "181446.390000", "181446.850000", "181447.310000", "181447.770000", "181448.230000", "181448.690000", "181449.150000", "181449.610000", "181450.070000", "181450.530000", "181450.990000", "181451.450000", "181451.910000", "181452.370000", "181452.830000", "181453.290000", "181453.750000", "181454.210000", "181454.670000", "181455.130000", "181455.590000", "181456.050000", "181456.510000", "181456.970000", "181457.430000", "181457.890000", "181458.350000", "181458.810000", "181459.270000", "181459.730000", "181500.190000", "181500.650000", "181501.110000", "181501.570000", "181502.030000", "181502.490000", "181502.950000", "181503.410000", "181503.870000", "181504.330000", "181504.790000", "181505.250000", "181505.710000", "181506.170000", "181506.630000", "181507.090000", "181507.550000", "181508.010000", "181508.470000", "181508.930000", "181509.390000", "181509.850000", "181510.310000", "181510.770000", "181511.230000", "181511.690000", "181512.150000", "181512.610000", "181513.070000", "181513.530000", "181513.990000", "181514.450000", "181514.910000", "181515.370000", "181515.830000", "181516.290000", "181516.750000", "181517.210000", "181517.670000", "181518.130000", "181518.590000", "181519.050000", "181519.510000", "181519.970000", "181520.430000", "181520.890000", "181521.350000", "181521.810000", "181522.270000", "181522.730000", "181523.190000", "181523.650000", "181524.110000", "181524.570000", "181525.030000", "181525.490000", "181525.950000", "181526.410000", "181526.870000"],
