{
  "AcquisitionMatrixPE": 82,
  "AcquisitionNumber": 1,
  "AcquisitionTime": "12:32:37.115000",
  "BandwidthPerPixelPhaseEncode": 24.888,
  "BaseResolution": 82,
  "BodyPartExamined": "BRAIN",
  "ConsistencyInfo": "N4_VE11C_LATEST_20160120",
  "ConversionSoftware": "dcm2niix",
  "ConversionSoftwareVersion": "v1.0.20201102",
  "DerivedVendorReportedEchoSpacing": 0.00049,
  "DeviceSerialNumber": "66112",
  "DwellTime": 2e-06,
  "EchoTime": 0.0272,
  "EchoTrainLength": 82,
  "EffectiveEchoSpacing": 0.00049,
  "FlipAngle": 44,
  "ImageComments": "Unaliased MB8/PE3",
  "ImageOrientationPatientDICOM": [0.998956, 0.0440549, 0.0121063, -0.0441395, 0.999002, 0.00681321],
  "ImageType": [
    "ORIGINAL",
    "PRIMARY",
    "M",
    "MB",
    "ND",
    "NORM",
    "MOSAIC"
],
  "ImagingFrequency": 123.252,
  "InPlanePhaseEncodingDirectionDICOM": "COL",
  "InstitutionAddress": "Maynard 3,Hanover,NH,US,03755",
  "InstitutionName": "Dartmouth College - PBS",
  "InstitutionalDepartmentName": "Department",
  "MRAcquisitionType": "2D",
  "MagneticFieldStrength": 3,
  "Manufacturer": "Siemens",
  "ManufacturersModelName": "Prisma",
  "Modality": "MR",
  "MultibandAccelerationFactor": 8,
  "PartialFourier": 1,
  "PatientPosition": "HFS",
  "PercentPhaseFOV": 100,
  "PercentSampling": 100,
  "PhaseEncodingDirection": "j-",
  "PhaseEncodingSteps": 82,
  "PhaseResolution": 1,
  "PixelBandwidth": 3050,
  "ProcedureStepDescription": "Wager_Wager^1076_spacetop",
  "ProtocolName": "func_run-02_task-narratives_acq-ap-mb8",
  "PulseSequenceDetails": "%CustomerSeq%\\cmrr_mbep2d_bold",
  "ReceiveCoilActiveElements": "HEA;HEP",
  "ReceiveCoilName": "Head_32",
  "ReconMatrixPE": 82,
  "RepetitionTime": 0.46,
  "SAR": 0.0907686,
  "ScanOptions": "FS",
  "ScanningSequence": "EP",
  "SequenceName": "epfid2d1_82",
  "SequenceVariant": "SK\\SS",
  "SeriesDescription": "func_run-02_task-narratives_acq-ap-mb8",
  "SeriesNumber": 12,
  "ShimSetting": [4155, -7720, -7281, 466, -17, -214, -76, 124],
  "SliceThickness": 2.7,
  "SliceTiming": [0, 0.2525, 0.065, 0.315, 0.1275, 0.3775, 0.19, 0, 0.2525, 0.065, 0.315, 0.1275, 0.3775, 0.19, 0, 0.2525, 0.065, 0.315, 0.1275, 0.3775, 0.19, 0, 0.2525, 0.065, 0.315, 0.1275, 0.3775, 0.19, 0, 0.2525, 0.065, 0.315, 0.1275, 0.3775, 0.19, 0, 0.2525, 0.065, 0.315, 0.1275, 0.3775, 0.19, 0, 0.2525, 0.065, 0.315, 0.1275, 0.3775, 0.19, 0, 0.2525, 0.065, 0.315, 0.1275, 0.3775, 0.19],
  "SoftwareVersions": "syngo MR E11",
  "SpacingBetweenSlices": 2.7,
  "StationName": "AWP66112",
  "TaskName": "narratives",
  "TotalReadoutTime": 0.03969,
  "TxRefAmp": 237.02,
  "WipMemBlock": "cc0906b9-c305-453d-a17b-7c91666f46cb||Sequence: R016 ve11c/master r/e634e98; Dec 19 2017 11:00:25 by eja",
  "dcmmeta_affine": [
    [-2.6801252365112305, -0.1184229627251625, 0.03184400871396065, 117.9590072631836],
    [-0.11819595098495483, 2.6802496910095215, 0.019819237291812897, -88.52741241455078],
    [0.03248034790158272, -0.018279336392879486, 2.699739456176758, -80.2042236328125],
    [0.0, 0.0, 0.0, 1.0]
],
  "dcmmeta_reorient_transform": [
    [0.0, -1.0, 0.0, 81.0],
    [1.0, 0.0, 0.0, 0.0],
    [0.0, 0.0, 1.0, 0.0],
    [0.0, 0.0, 0.0, 1.0]
],
  "dcmmeta_shape": [82, 82, 56, 1098],
  "dcmmeta_slice_dim": 2,
  "dcmmeta_version": 0.6,
  "global": {
    "const": {
      "AccessionNumber": "A003507",
      "AcquisitionMatrix": [82, 0, 0, 82],
      "AngioFlag": "N",
      "BitsAllocated": 16,
      "BitsStored": 16,
      "BodyPartExamined": "BRAIN",
      "Columns": 656,
      "EchoNumbers": 1,
      "EchoTime": 27.2,
      "EchoTrainLength": 82,
      "FlipAngle": 44.0,
      "HighBit": 15,
      "ImageOrientationPatient": [0.99895575837929, 0.04405485233307, 0.01210631185643, -0.0441394670967, 0.99900214597211, 0.00681320684753],
      "ImagePositionPatient": [-843.57530833256, -931.72672156861, -96.252883216295],
      "ImageType": [
        "ORIGINAL",
        "PRIMARY",
        "M",
        "MB",
        "ND",
        "NORM",
        "MOSAIC"
],
      "ImagedNucleus": "1H",
      "ImagingFrequency": 123.252158,
      "InPlanePhaseEncodingDirection": "COL",
      "MRAcquisitionType": "2D",
      "MagneticFieldStrength": 3.0,
      "Manufacturer": "SIEMENS",
      "ManufacturerModelName": "Prisma",
      "Modality": "MR",
      "NumberOfAverages": 1.0,
      "NumberOfPhaseEncodingSteps": 82,
      "PercentPhaseFieldOfView": 100.0,
      "PercentSampling": 100.0,
      "PerformedProcedureStepStartTime": "115138.891000",
      "PhotometricInterpretation": "MONOCHROME2",
      "PixelBandwidth": 3050.0,
      "PixelRepresentation": 0,
      "PixelSpacing": [2.6829268932343, 2.6829268932343],
      "ProtocolName": "func_run-02_task-narratives_acq-ap-mb8",
      "RepetitionTime": 460.0,
      "Rows": 656,
      "SAR": 0.09076861613332,
      "SamplesPerPixel": 1,
      "ScanOptions": "FS",
      "ScanningSequence": "EP",
      "SequenceName": "epfid2d1_82",
      "SequenceVariant": [
        "SK",
        "SS"
],
      "SeriesDescription": "func_run-02_task-narratives_acq-ap-mb8",
      "SeriesNumber": 12,
      "SeriesTime": "123302.678000",
      "SliceLocation": -79.455102103213,
      "SliceThickness": 2.7000000476837,
      "SmallestImagePixelValue": 0,
      "SoftwareVersions": "syngo MR E11",
      "SpacingBetweenSlices": 2.700000029778,
      "SpecificCharacterSet": "ISO_IR 100",
      "StudyID": "2",
      "StudyTime": "115138.858000",
      "TransmitCoilName": "Body",
      "VariableFlipAngleFlag": "N",
      "WindowCenterWidthExplanation": "Algo1",
      "dBdt": 0.0},
    "slices": {}
  },
  "time": {
    "samples": {
      "AcquisitionNumber": [1, 2, 3, 4, 5, 6, 7, 8, 9, 10, 11, 12, 13, 14, 15, 16, 17, 18, 19, 20, 21, 22, 23, 24, 25, 26, 27, 28, 29, 30, 31, 32, 33, 34, 35, 36, 37, 38, 39, 40, 41, 42, 43, 44, 45, 46, 47, 48, 49, 50, 51, 52, 53, 54, 55, 56, 57, 58, 59, 60, 61, 62, 63, 64, 65, 66, 67, 68, 69, 70, 71, 72, 73, 74, 75, 76, 77, 78, 79, 80, 81, 82, 83, 84, 85, 86, 87, 88, 89, 90, 91, 92, 93, 94, 95, 96, 97, 98, 99, 100, 101, 102, 103, 104, 105, 106, 107, 108, 109, 110, 111, 112, 113, 114, 115, 116, 117, 118, 119, 120, 121, 122, 123, 124, 125, 126, 127, 128, 129, 130, 131, 132, 133, 134, 135, 136, 137, 138, 139, 140, 141, 142, 143, 144, 145, 146, 147, 148, 149, 150, 151, 152, 153, 154, 155, 156, 157, 158, 159, 160, 161, 162, 163, 164, 165, 166, 167, 168, 169, 170, 171, 172, 173, 174, 175, 176, 177, 178, 179, 180, 181, 182, 183, 184, 185, 186, 187, 188, 189, 190, 191, 192, 193, 194, 195, 196, 197, 198, 199, 200, 201, 202, 203, 204, 205, 206, 207, 208, 209, 210, 211, 212, 213, 214, 215, 216, 217, 218, 219, 220, 221, 222, 223, 224, 225, 226, 227, 228, 229, 230, 231, 232, 233, 234, 235, 236, 237, 238, 239, 240, 241, 242, 243, 244, 245, 246, 247, 248, 249, 250, 251, 252, 253, 254, 255, 256, 257, 258, 259, 260, 261, 262, 263, 264, 265, 266, 267, 268, 269, 270, 271, 272, 273, 274, 275, 276, 277, 278, 279, 280, 281, 282, 283, 284, 285, 286, 287, 288, 289, 290, 291, 292, 293, 294, 295, 296, 297, 298, 299, 300, 301, 302, 303, 304, 305, 306, 307, 308, 309, 310, 311, 312, 313, 314, 315, 316, 317, 318, 319, 320, 321, 322, 323, 324, 325, 326, 327, 328, 329, 330, 331, 332, 333, 334, 335, 336, 337, 338, 339, 340, 341, 342, 343, 344, 345, 346, 347, 348, 349, 350, 351, 352, 353, 354, 355, 356, 357, 358, 359, 360, 361, 362, 363, 364, 365, 366, 367, 368, 369, 370, 371, 372, 373, 374, 375, 376, 377, 378, 379, 380, 381, 382, 383, 384, 385, 386, 387, 388, 389, 390, 391, 392, 393, 394, 395, 396, 397, 398, 399, 400, 401, 402, 403, 404, 405, 406, 407, 408, 409, 410, 411, 412, 413, 414, 415, 416, 417, 418, 419, 420, 421, 422, 423, 424, 425, 426, 427, 428, 429, 430, 431, 432, 433, 434, 435, 436, 437, 438, 439, 440, 441, 442, 443, 444, 445, 446, 447, 448, 449, 450, 451, 452, 453, 454, 455, 456, 457, 458, 459, 460, 461, 462, 463, 464, 465, 466, 467, 468, 469, 470, 471, 472, 473, 474, 475, 476, 477, 478, 479, 480, 481, 482, 483, 484, 485, 486, 487, 488, 489, 490, 491, 492, 493, 494, 495, 496, 497, 498, 499, 500, 501, 502, 503, 504, 505, 506, 507, 508, 509, 510, 511, 512, 513, 514, 515, 516, 517, 518, 519, 520, 521, 522, 523, 524, 525, 526, 527, 528, 529, 530, 531, 532, 533, 534, 535, 536, 537, 538, 539, 540, 541, 542, 543, 544, 545, 546, 547, 548, 549, 550, 551, 552, 553, 554, 555, 556, 557, 558, 559, 560, 561, 562, 563, 564, 565, 566, 567, 568, 569, 570, 571, 572, 573, 574, 575, 576, 577, 578, 579, 580, 581, 582, 583, 584, 585, 586, 587, 588, 589, 590, 591, 592, 593, 594, 595, 596, 597, 598, 599, 600, 601, 602, 603, 604, 605, 606, 607, 608, 609, 610, 611, 612, 613, 614, 615, 616, 617, 618, 619, 620, 621, 622, 623, 624, 625, 626, 627, 628, 629, 630, 631, 632, 633, 634, 635, 636, 637, 638, 639, 640, 641, 642, 643, 644, 645, 646, 647, 648, 649, 650, 651, 652, 653, 654, 655, 656, 657, 658, 659, 660, 661, 662, 663, 664, 665, 666, 667, 668, 669, 670, 671, 672, 673, 674, 675, 676, 677, 678, 679, 680, 681, 682, 683, 684, 685, 686, 687, 688, 689, 690, 691, 692, 693, 694, 695, 696, 697, 698, 699, 700, 701, 702, 703, 704, 705, 706, 707, 708, 709, 710, 711, 712, 713, 714, 715, 716, 717, 718, 719, 720, 721, 722, 723, 724, 725, 726, 727, 728, 729, 730, 731, 732, 733, 734, 735, 736, 737, 738, 739, 740, 741, 742, 743, 744, 745, 746, 747, 748, 749, 750, 751, 752, 753, 754, 755, 756, 757, 758, 759, 760, 761, 762, 763, 764, 765, 766, 767, 768, 769, 770, 771, 772, 773, 774, 775, 776, 777, 778, 779, 780, 781, 782, 783, 784, 785, 786, 787, 788, 789, 790, 791, 792, 793, 794, 795, 796, 797, 798, 799, 800, 801, 802, 803, 804, 805, 806, 807, 808, 809, 810, 811, 812, 813, 814, 815, 816, 817, 818, 819, 820, 821, 822, 823, 824, 825, 826, 827, 828, 829, 830, 831, 832, 833, 834, 835, 836, 837, 838, 839, 840, 841, 842, 843, 844, 845, 846, 847, 848, 849, 850, 851, 852, 853, 854, 855, 856, 857, 858, 859, 860, 861, 862, 863, 864, 865, 866, 867, 868, 869, 870, 871, 872, 873, 874, 875, 876, 877, 878, 879, 880, 881, 882, 883, 884, 885, 886, 887, 888, 889, 890, 891, 892, 893, 894, 895, 896, 897, 898, 899, 900, 901, 902, 903, 904, 905, 906, 907, 908, 909, 910, 911, 912, 913, 914, 915, 916, 917, 918, 919, 920, 921, 922, 923, 924, 925, 926, 927, 928, 929, 930, 931, 932, 933, 934, 935, 936, 937, 938, 939, 940, 941, 942, 943, 944, 945, 946, 947, 948, 949, 950, 951, 952, 953, 954, 955, 956, 957, 958, 959, 960, 961, 962, 963, 964, 965, 966, 967, 968, 969, 970, 971, 972, 973, 974, 975, 976, 977, 978, 979, 980, 981, 982, 983, 984, 985, 986, 987, 988, 989, 990, 991, 992, 993, 994, 995, 996, 997, 998, 999, 1000, 1001, 1002, 1003, 1004, 1005, 1006, 1007, 1008, 1009, 1010, 1011, 1012, 1013, 1014, 1015, 1016, 1017, 1018, 1019, 1020, 1021, 1022, 1023, 1024, 1025, 1026, 1027, 1028, 1029, 1030, 1031, 1032, 1033, 1034, 1035, 1036, 1037, 1038, 1039, 1040, 1041, 1042, 1043, 1044, 1045, 1046, 1047, 1048, 1049, 1050, 1051, 1052, 1053, 1054, 1055, 1056, 1057, 1058, 1059, 1060, 1061, 1062, 1063, 1064, 1065, 1066, 1067, 1068, 1069, 1070, 1071, 1072, 1073, 1074, 1075, 1076, 1077, 1078, 1079, 1080, 1081, 1082, 1083, 1084, 1085, 1086, 1087, 1088, 1089, 1090, 1091, 1092, 1093, 1094, 1095, 1096, 1097, 1098],
      "AcquisitionTime": ["123237.115000", "123237.575000", "123238.035000", "123238.495000", "123238.955000", "123239.415000", "123239.875000", "123240.335000", "123240.795000", "123241.255000", "123241.715000", "123242.175000", "123242.635000", "123243.095000", "123243.555000", "123244.015000", "123244.475000", "123244.935000", "123245.395000", "123245.855000", "123246.315000", "123246.775000", "123247.235000", "123247.695000", "123248.155000", "123248.615000", "123249.075000", "123249.535000", "123249.995000", "123250.455000", "123250.915000", "123251.375000", "123251.835000", "123252.295000", "123252.755000", "123253.215000", "123253.675000", "123254.135000", "123254.595000", "123255.055000", "123255.515000", "123255.975000", "123256.435000", "123256.895000", "123257.355000", "123257.815000", "123258.275000", "123258.735000", "123259.195000", "123259.655000", "123300.115000", "123300.575000", "123301.035000", "123301.495000", "123301.955000", "123302.415000", "123302.875000", "123303.335000", "123303.795000", "123304.255000", "123304.715000", "123305.175000", "123305.635000", "123306.095000", "123306.555000", "123307.015000", "123307.475000", "123307.935000", "123308.395000", "123308.855000", "123309.315000", "123309.775000", "123310.235000", "123310.695000", "123311.155000", "123311.615000", "123312.075000", "123312.535000", "123312.995000", "123313.455000", "123313.915000", "123314.375000", "123314.835000", "123315.295000", "123315.755000", "123316.215000", "123316.675000", "123317.135000", "123317.595000", "123318.055000", "123318.515000", "123318.975000", "123319.435000", "123319.895000", "123320.355000", "123320.815000", "123321.275000", "123321.735000", "123322.195000", "123322.655000", "123323.115000", "123323.575000", "123324.035000", "123324.495000", "123324.955000", "123325.415000", "123325.875000", "123326.335000", "123326.795000", "123327.255000", "123327.715000", "123328.175000", "123328.635000", "123329.095000", "123329.555000", "123330.015000", "123330.475000", "123330.935000", "123331.395000", "123331.855000", "123332.315000", "123332.775000", "123333.235000", "123333.695000", "123334.155000", "123334.615000", "123335.075000", "123335.535000", "123335.995000", "123336.455000", "123336.915000", "123337.375000", "123337.835000", "123338.295000", "123338.755000", "123339.215000", "123339.675000", "123340.135000", "123340.595000", "123341.055000", "123341.515000", "123341.975000", "123342.435000", "123342.895000", "123343.355000", "123343.815000", "123344.275000", "123344.735000", "123345.195000", "123345.655000", "123346.115000", "123346.575000", "123347.035000", "123347.495000", "123347.955000", "123348.415000", "123348.875000", "123349.335000", "123349.795000", "123350.255000", "123350.715000", "123351.175000", "123351.635000", "123352.095000", "123352.555000", "123353.015000", "123353.475000", "123353.935000", "123354.395000", "123354.855000", "123355.315000", "123355.775000", "123356.235000", "123356.695000", "123357.155000", "123357.615000", "123358.075000", "123358.535000", "123358.995000", "123359.455000", "123359.915000", "123400.375000", "123400.835000", "123401.295000", "123401.755000", "123402.215000", "123402.675000", "123403.135000", "123403.595000", "123404.055000", "123404.515000", "123404.975000", "123405.435000", "123405.895000", "123406.355000", "123406.815000", "123407.275000", "123407.735000", "123408.195000", "123408.655000", "123409.115000", "123409.575000", "123410.035000", "123410.495000", "123410.955000", "123411.415000", "123411.875000", "123412.335000", "123412.795000", "123413.255000", "123413.715000", "123414.175000", "123414.635000", "123415.095000", "123415.555000", "123416.015000", "123416.475000", "123416.935000", "123417.395000", "123417.855000", "123418.315000", "123418.775000", "123419.235000", "123419.695000", "123420.155000", "123420.615000", "123421.075000", "123421.535000", "123421.995000", "123422.455000", "123422.915000", "123423.375000", "123423.835000", "123424.295000", "123424.755000", "123425.215000", "123425.675000", "123426.135000", "123426.595000", "123427.055000", "123427.515000", "123427.975000", "123428.435000", "123428.895000", "123429.355000", "123429.815000", "123430.275000", "123430.735000", "123431.195000", "123431.655000", "123432.115000", "123432.575000", "123433.035000", "123433.495000", "123433.955000", "123434.415000", "123434.875000", "123435.335000", "123435.795000", "123436.255000", "123436.715000", "123437.175000", "123437.635000", "123438.095000", "123438.555000", "123439.015000", "123439.475000", "123439.935000", "123440.395000", "123440.855000", "123441.315000", "123441.775000", "123442.235000", "123442.695000", "123443.155000", "123443.615000", "123444.075000", "123444.535000", "123444.995000", "123445.455000", "123445.915000", "123446.375000", "123446.835000", "123447.295000", "123447.755000", "123448.215000", "123448.675000", "123449.135000", "123449.595000", "123450.055000", "123450.515000", "123450.975000", "123451.435000", "123451.895000", "123452.355000", "123452.815000", "123453.275000", "123453.735000", "123454.195000", "123454.655000", "123455.115000", "123455.575000", "123456.035000", "123456.495000", "123456.955000", "123457.415000", "123457.875000", "123458.335000", "123458.795000", "123459.255000", "123459.715000", "123500.175000", "123500.635000", "123501.095000", "123501.555000", "123502.015000", "123502.475000", "123502.935000", "123503.395000", "123503.855000", "123504.315000", "123504.775000", "123505.235000", "123505.695000", "123506.155000", "123506.615000", "123507.075000", "123507.535000", "123507.995000", "123508.455000", "123508.915000", "123509.375000", "123509.835000", "123510.295000", "123510.755000", "123511.215000", "123511.675000", "123512.135000", "123512.595000", "123513.055000", "123513.515000", "123513.975000", "123514.435000", "123514.895000", "123515.355000", "123515.815000", "123516.275000", "123516.735000", "123517.195000", "123517.655000", "123518.115000", "123518.575000", "123519.035000", "123519.495000", "123519.955000", "123520.415000", "123520.875000", "123521.335000", "123521.795000", "123522.255000", "123522.715000", "123523.175000", "123523.635000", "123524.095000", "123524.555000", "123525.015000", "123525.475000", "123525.935000", "123526.395000", "123526.855000", "123527.315000", "123527.775000", "123528.235000", "123528.695000", "123529.155000", "123529.615000", "123530.075000", "123530.535000", "123530.995000", "123531.455000", "123531.915000", "123532.375000", "123532.835000", "123533.295000", "123533.755000", "123534.215000", "123534.675000", "123535.135000", "123535.595000", "123536.055000", "123536.515000", "123536.975000", "123537.435000", "123537.895000", "123538.355000", "123538.815000", "123539.275000", "123539.735000", "123540.195000", "123540.655000", "123541.115000", "123541.575000", "123542.035000", "123542.495000", "123542.955000", "123543.415000", "123543.875000", "123544.335000", "123544.795000", "123545.255000", "123545.715000", "123546.175000", "123546.635000", "123547.095000", "123547.555000", "123548.015000", "123548.475000", "123548.935000", "123549.395000", "123549.855000", "123550.315000", "123550.775000", "123551.235000", "123551.695000", "123552.155000", "123552.615000", "123553.075000", "123553.535000", "123553.995000", "123554.455000", "123554.915000", "123555.375000", "123555.835000", "123556.295000", "123556.755000", "123557.215000", "123557.675000", "123558.135000", "123558.595000", "123559.055000", "123559.515000", "123559.975000", "123600.435000", "123600.895000", "123601.355000", "123601.815000", "123602.275000", "123602.735000", "123603.195000", "123603.655000", "123604.115000", "123604.575000", "123605.035000", "123605.495000", "123605.955000", "123606.415000", "123606.875000", "123607.335000", "123607.795000", "123608.255000", "123608.715000", "123609.175000", "123609.635000", "123610.095000", "123610.555000", "123611.015000", "123611.475000", "123611.935000", "123612.395000", "123612.855000", "123613.315000", "123613.775000", "123614.235000", "123614.695000", "123615.155000", "123615.615000", "123616.075000", "123616.535000", "123616.995000", "123617.455000", "123617.915000", "123618.375000", "123618.835000", "123619.295000", "123619.755000", "123620.215000", "123620.675000", "123621.135000", "123621.595000", "123622.055000", "123622.515000", "123622.975000", "123623.435000", "123623.895000", "123624.355000", "123624.815000", "123625.275000", "123625.735000", "123626.195000", "123626.655000", "123627.115000", "123627.575000", "123628.035000", "123628.495000", "123628.955000", "123629.415000", "123629.875000", "123630.335000", "123630.795000", "123631.255000", "123631.715000", "123632.175000", "123632.635000", "123633.095000", "123633.555000", "123634.015000", "123634.475000", "123634.935000", "123635.395000", "123635.855000", "123636.315000", "123636.775000", "123637.235000", "123637.695000", "123638.155000", "123638.615000", "123639.075000", "123639.535000", "123639.995000", "123640.455000", "123640.915000", "123641.375000", "123641.835000", "123642.295000", "123642.755000", "123643.215000", "123643.675000", "123644.135000", "123644.595000", "123645.055000", "123645.515000", "123645.975000", "123646.435000", "123646.895000", "123647.355000", "123647.815000", "123648.275000", "123648.735000", "123649.195000", "123649.655000", "123650.115000", "123650.575000", "123651.035000", "123651.495000", "123651.955000", "123652.415000", "123652.875000", "123653.335000", "123653.795000", "123654.255000", "123654.715000", "123655.175000", "123655.635000", "123656.095000", "123656.555000", "123657.015000", "123657.475000", "123657.935000", "123658.395000", "123658.855000", "123659.315000", "123659.775000", "123700.235000", "123700.695000", "123701.155000", "123701.615000", "123702.075000", "123702.535000", "123702.995000", "123703.455000", "123703.915000", "123704.375000", "123704.835000", "123705.295000", "123705.755000", "123706.215000", "123706.675000", "123707.135000", "123707.595000", "123708.055000", "123708.515000", "123708.975000", "123709.435000", "123709.895000", "123710.355000", "123710.815000", "123711.275000", "123711.735000", "123712.195000", "123712.655000", "123713.115000", "123713.575000", "123714.035000", "123714.495000", "123714.955000", "123715.415000", "123715.875000", "123716.335000", "123716.795000", "123717.255000", "123717.715000", "123718.175000", "123718.635000", "123719.095000", "123719.555000", "123720.015000", "123720.475000", "123720.935000", "123721.395000", "123721.855000", "123722.315000", "123722.775000", "123723.235000", "123723.695000", "123724.155000", "123724.615000", "123725.075000", "123725.535000", "123725.995000", "123726.455000", "123726.915000", "123727.375000", "123727.835000", "123728.295000", "123728.755000", "123729.215000", "123729.675000", "123730.135000", "123730.595000", "123731.055000", "123731.515000", "123731.975000", "123732.435000", "123732.895000", "123733.355000", "123733.815000", "123734.275000", "123734.735000", "123735.195000", "123735.655000", "123736.115000", "123736.575000", "123737.035000", "123737.495000", "123737.955000", "123738.415000", "123738.875000", "123739.335000", "123739.795000", "123740.255000", "123740.715000", "123741.175000", "123741.635000", "123742.095000", "123742.555000", "123743.015000", "123743.475000", "123743.935000", "123744.395000", "123744.855000", "123745.315000", "123745.775000", "123746.235000", "123746.695000", "123747.155000", "123747.615000", "123748.075000", "123748.535000", "123748.995000", "123749.455000", "123749.915000", "123750.375000", "123750.835000", "123751.295000", "123751.755000", "123752.215000", "123752.675000", "123753.135000", "123753.595000", "123754.055000", "123754.515000", "123754.975000", "123755.435000", "123755.895000", "123756.355000", "123756.815000", "123757.275000", "123757.735000", "123758.195000", "123758.655000", "123759.115000", "123759.575000", "123800.035000", "123800.495000", "123800.955000", "123801.415000", "123801.875000", "123802.335000", "123802.795000", "123803.255000", "123803.715000", "123804.175000", "123804.635000", "123805.095000", "123805.555000", "123806.015000", "123806.475000", "123806.935000", "123807.395000", "123807.855000", "123808.315000", "123808.775000", "123809.235000", "123809.695000", "123810.155000", "123810.615000", "123811.075000", "123811.535000", "123811.995000", "123812.455000", "123812.915000", "123813.375000", "123813.835000", "123814.295000", "123814.755000", "123815.215000", "123815.675000", "123816.135000", "123816.595000", "123817.055000", "123817.515000", "123817.975000", "123818.435000", "123818.895000", "123819.355000", "123819.815000", "123820.275000", "123820.735000", "123821.195000", "123821.655000", "123822.115000", "123822.575000", "123823.035000", "123823.495000", "123823.955000", "123824.415000", "123824.875000", "123825.335000", "123825.795000", "123826.255000", "123826.715000", "123827.175000", "123827.635000", "123828.095000", "123828.555000", "123829.015000", "123829.475000", "123829.935000", "123830.395000", "123830.855000", "123831.315000", "123831.775000", "123832.235000", "123832.695000", "123833.155000", "123833.615000", "123834.075000", "123834.535000", "123834.995000", "123835.455000", "123835.915000", "123836.375000", "123836.835000", "123837.295000", "123837.755000", "123838.215000", "123838.675000", "123839.135000", "123839.595000", "123840.055000", "123840.515000", "123840.975000", "123841.435000", "123841.895000", "123842.355000", "123842.815000", "123843.275000", "123843.735000", "123844.195000", "123844.655000", "123845.115000", "123845.575000", "123846.035000", "123846.495000", "123846.955000", "123847.415000", "123847.875000", "123848.335000", "123848.795000", "123849.255000", "123849.715000", "123850.175000", "123850.635000", "123851.095000", "123851.555000", "123852.015000", "123852.475000", "123852.935000", "123853.395000", "123853.855000", "123854.315000", "123854.775000", "123855.235000", "123855.695000", "123856.155000", "123856.615000", "123857.075000", "123857.535000", "123857.995000", "123858.455000", "123858.915000", "123859.375000", "123859.835000", "123900.295000", "123900.755000", "123901.215000", "123901.675000", "123902.135000", "123902.595000", "123903.055000", "123903.515000", "123903.975000", "123904.435000", "123904.895000", "123905.355000", "123905.815000", "123906.275000", "123906.735000", "123907.195000", "123907.655000", "123908.115000", "123908.575000", "123909.035000", "123909.495000", "123909.955000", "123910.415000", "123910.875000", "123911.335000", "123911.795000", "123912.255000", "123912.715000", "123913.175000", "123913.635000", "123914.095000", "123914.555000", "123915.015000", "123915.475000", "123915.935000", "123916.395000", "123916.855000", "123917.315000", "123917.775000", "123918.235000", "123918.695000", "123919.155000", "123919.615000", "123920.075000", "123920.535000", "123920.995000", "123921.455000", "123921.915000", "123922.375000", "123922.835000", "123923.295000", "123923.755000", "123924.215000", "123924.675000", "123925.135000", "123925.595000", "123926.055000", "123926.515000", "123926.975000", "123927.435000", "123927.895000", "123928.355000", "123928.815000", "123929.275000", "123929.735000", "123930.195000", "123930.655000", "123931.115000", "123931.575000", "123932.035000", "123932.495000", "123932.955000", "123933.415000", "123933.875000", "123934.335000", "123934.795000", "123935.255000", "123935.715000", "123936.175000", "123936.635000", "123937.095000", "123937.555000", "123938.015000", "123938.475000", "123938.935000", "123939.395000", "123939.855000", "123940.315000", "123940.775000", "123941.235000", "123941.695000", "123942.155000", "123942.615000", "123943.075000", "123943.535000", "123943.995000", "123944.455000", "123944.915000", "123945.375000", "123945.835000", "123946.295000", "123946.755000", "123947.215000", "123947.675000", "123948.135000", "123948.595000", "123949.055000", "123949.515000", "123949.975000", "123950.435000", "123950.895000", "123951.355000", "123951.815000", "123952.275000", "123952.735000", "123953.195000", "123953.655000", "123954.115000", "123954.575000", "123955.035000", "123955.495000", "123955.955000", "123956.415000", "123956.875000", "123957.335000", "123957.795000", "123958.255000", "123958.715000", "123959.175000", "123959.635000", "124000.095000", "124000.555000", "124001.015000", "124001.475000", "124001.935000", "124002.395000", "124002.855000", "124003.315000", "124003.775000", "124004.235000", "124004.695000", "124005.155000", "124005.615000", "124006.075000", "124006.535000", "124006.995000", "124007.455000", "124007.915000", "124008.375000", "124008.835000", "124009.295000", "124009.755000", "124010.215000", "124010.675000", "124011.135000", "124011.595000", "124012.055000", "124012.515000", "124012.975000", "124013.435000", "124013.895000", "124014.355000", "124014.815000", "124015.275000", "124015.735000", "124016.195000", "124016.655000", "124017.115000", "124017.575000", "124018.035000", "124018.495000", "124018.955000", "124019.415000", "124019.875000", "124020.335000", "124020.795000", "124021.255000", "124021.715000", "124022.175000", "124022.635000", "124023.095000", "124023.555000", "124024.015000", "124024.475000", "124024.935000", "124025.395000", "124025.855000", "124026.315000", "124026.775000", "124027.235000", "124027.695000", "124028.155000", "124028.615000", "124029.075000", "124029.535000", "124029.995000", "124030.455000", "124030.915000", "124031.375000", "124031.835000", "124032.295000", "124032.755000", "124033.215000", "124033.675000", "124034.135000", "124034.595000", "124035.055000", "124035.515000", "124035.975000", "124036.435000", "124036.895000", "124037.355000", "124037.815000", "124038.275000", "124038.735000", "124039.195000", "124039.655000", "124040.115000", "124040.575000", "124041.035000", "124041.495000", "124041.955000", "124042.415000", "124042.875000", "124043.335000", "124043.795000", "124044.255000", "124044.715000", "124045.175000", "124045.635000", "124046.095000", "124046.555000", "124047.015000", "124047.475000", "124047.935000", "124048.395000", "124048.855000", "124049.315000", "124049.775000", "124050.235000", "124050.695000", "124051.155000", "124051.615000", "124052.075000", "124052.535000", "124052.995000", "124053.455000", "124053.915000", "124054.375000", "124054.835000", "124055.295000", "124055.755000", "124056.215000", "124056.675000", "124057.135000", "124057.595000", "124058.055000", "124058.515000", "124058.975000", "124059.435000", "124059.895000", "124100.355000", "124100.815000", "124101.275000", "124101.735000"],
