{
  "AcquisitionMatrixPE": 82,
  "AcquisitionNumber": 1,
  "AcquisitionTime": "13:32:37.822500",
  "BandwidthPerPixelPhaseEncode": 24.888,
  "BaseResolution": 82,
  "BodyPartExamined": "BRAIN",
  "ConsistencyInfo": "N4_VE11C_LATEST_20160120",
  "ConversionSoftware": "dcm2niix",
  "ConversionSoftwareVersion": "v1.0.20201102",
  "DerivedVendorReportedEchoSpacing": 0.00049,
  "DeviceSerialNumber": "66112",
  "DwellTime": 2e-06,
  "EchoTime": 0.0272,
  "EchoTrainLength": 82,
  "EffectiveEchoSpacing": 0.00049,
  "FlipAngle": 44,
  "ImageComments": "Unaliased MB8/PE3",
  "ImageOrientationPatientDICOM": [0.997411, 0.0600923, 0.0394888, -0.0601307, 0.99819, -0.000214335],
  "ImageType": [
    "ORIGINAL",
    "PRIMARY",
    "M",
    "MB",
    "ND",
    "NORM",
    "MOSAIC"
],
  "ImagingFrequency": 123.252,
  "InPlanePhaseEncodingDirectionDICOM": "COL",
  "InstitutionAddress": "Maynard 3,Hanover,NH,US,03755",
  "InstitutionName": "Dartmouth College - PBS",
  "InstitutionalDepartmentName": "Department",
  "MRAcquisitionType": "2D",
  "MagneticFieldStrength": 3,
  "Manufacturer": "Siemens",
  "ManufacturersModelName": "Prisma",
  "Modality": "MR",
  "MultibandAccelerationFactor": 8,
  "PartialFourier": 1,
  "PatientPosition": "HFS",
  "PercentPhaseFOV": 100,
  "PercentSampling": 100,
  "PhaseEncodingDirection": "j-",
  "PhaseEncodingSteps": 82,
  "PhaseResolution": 1,
  "PixelBandwidth": 3050,
  "ProcedureStepDescription": "Wager_Wager^1076_spacetop",
  "ProtocolName": "func_run-01_task-alignvideo_acq-ap-mb8",
  "PulseSequenceDetails": "%CustomerSeq%\\cmrr_mbep2d_bold",
  "ReceiveCoilActiveElements": "HEA;HEP",
  "ReceiveCoilName": "Head_32",
  "ReconMatrixPE": 82,
  "RepetitionTime": 0.46,
  "SAR": 0.0906303,
  "ScanOptions": "FS",
  "ScanningSequence": "EP",
  "SequenceName": "epfid2d1_82",
  "SequenceVariant": "SK\\SS",
  "SeriesDescription": "func_run-01_task-alignvideo_acq-ap-mb8",
  "SeriesNumber": 30,
  "ShimSetting": [4155, -7720, -7281, 464, -15, -228, -72, 124],
  "SliceThickness": 2.7,
  "SliceTiming": [0, 0.2525, 0.065, 0.315, 0.1275, 0.3775, 0.19, 0, 0.2525, 0.065, 0.315, 0.1275, 0.3775, 0.19, 0, 0.2525, 0.065, 0.315, 0.1275, 0.3775, 0.19, 0, 0.2525, 0.065, 0.315, 0.1275, 0.3775, 0.19, 0, 0.2525, 0.065, 0.315, 0.1275, 0.3775, 0.19, 0, 0.2525, 0.065, 0.315, 0.1275, 0.3775, 0.19, 0, 0.2525, 0.065, 0.315, 0.1275, 0.3775, 0.19, 0, 0.2525, 0.065, 0.315, 0.1275, 0.3775, 0.19],
  "SoftwareVersions": "syngo MR E11",
  "SpacingBetweenSlices": 2.7,
  "StationName": "AWP66112",
  "TaskName": "alignvideo",
  "TotalReadoutTime": 0.03969,
  "TxRefAmp": 237.02,
  "WipMemBlock": "04c6f331-5311-45e3-a7be-a7c7a6e8f35d||Sequence: R016 ve11c/master r/e634e98; Dec 19 2017 11:00:25 by eja",
  "dcmmeta_affine": [
    [-2.6759819984436035, -0.16132639348506927, 0.10646151751279831, 117.24737548828125],
    [-0.16122323274612427, 2.678072214126587, 0.005833913572132587, -87.86425018310547],
    [0.10594548285007477, 0.0005750453565269709, 2.6978938579559326, -87.35539245605469],
    [0.0, 0.0, 0.0, 1.0]
],
  "dcmmeta_reorient_transform": [
    [0.0, -1.0, 0.0, 81.0],
    [1.0, 0.0, 0.0, 0.0],
    [0.0, 0.0, 1.0, 0.0],
    [0.0, 0.0, 0.0, 1.0]
],
  "dcmmeta_shape": [82, 82, 56, 839],
  "dcmmeta_slice_dim": 2,
  "dcmmeta_version": 0.6,
  "global": {
    "const": {
      "AccessionNumber": "A003507",
      "AcquisitionMatrix": [82, 0, 0, 82],
      "AngioFlag": "N",
      "BitsAllocated": 16,
      "BitsStored": 16,
      "BodyPartExamined": "BRAIN",
      "Columns": 656,
      "EchoNumbers": 1,
      "EchoTime": 27.2,
      "EchoTrainLength": 82,
      "FlipAngle": 44.0,
      "HighBit": 15,
      "ImageOrientationPatient": [0.99741142628253, 0.06009229390419, 0.03948876972495, -0.0601307451315, 0.99819048660584, -0.000214335076],
      "ImagePositionPatient": [-825.88607951315, -943.93734946783, -117.55012788783],
      "ImageType": [
        "ORIGINAL",
        "PRIMARY",
        "M",
        "MB",
        "ND",
        "NORM",
        "MOSAIC"
],
      "ImagedNucleus": "1H",
      "ImagingFrequency": 123.252177,
      "InPlanePhaseEncodingDirection": "COL",
      "MRAcquisitionType": "2D",
      "MagneticFieldStrength": 3.0,
      "Manufacturer": "SIEMENS",
      "ManufacturerModelName": "Prisma",
      "Modality": "MR",
      "NumberOfAverages": 1.0,
      "NumberOfPhaseEncodingSteps": 82,
      "PercentPhaseFieldOfView": 100.0,
      "PercentSampling": 100.0,
      "PerformedProcedureStepStartTime": "115138.891000",
      "PhotometricInterpretation": "MONOCHROME2",
      "PixelBandwidth": 3050.0,
      "PixelRepresentation": 0,
      "PixelSpacing": [2.6829268932343, 2.6829268932343],
      "ProtocolName": "func_run-01_task-alignvideo_acq-ap-mb8",
      "RepetitionTime": 460.0,
      "Rows": 656,
      "SAR": 0.09063031078703,
      "SamplesPerPixel": 1,
      "ScanOptions": "FS",
      "ScanningSequence": "EP",
      "SequenceName": "epfid2d1_82",
      "SequenceVariant": [
        "SK",
        "SS"
],
      "SeriesDescription": "func_run-01_task-alignvideo_acq-ap-mb8",
      "SeriesNumber": 30,
      "SeriesTime": "133302.682000",
      "SliceLocation": -82.854015481662,
      "SliceThickness": 2.7000000476837,
      "SmallestImagePixelValue": 0,
      "SoftwareVersions": "syngo MR E11",
      "SpacingBetweenSlices": 2.6999998941308,
      "SpecificCharacterSet": "ISO_IR 100",
      "StudyID": "2",
      "StudyTime": "115138.858000",
      "TransmitCoilName": "Body",
      "VariableFlipAngleFlag": "N",
      "WindowCenterWidthExplanation": "Algo1",
      "dBdt": 0.0},
    "slices": {}
  },
  "time": {
    "samples": {
      "AcquisitionNumber": [1, 2, 3, 4, 5, 6, 7, 8, 9, 10, 11, 12, 13, 14, 15, 16, 17, 18, 19, 20, 21, 22, 23, 24, 25, 26, 27, 28, 29, 30, 31, 32, 33, 34, 35, 36, 37, 38, 39, 40, 41, 42, 43, 44, 45, 46, 47, 48, 49, 50, 51, 52, 53, 54, 55, 56, 57, 58, 59, 60, 61, 62, 63, 64, 65, 66, 67, 68, 69, 70, 71, 72, 73, 74, 75, 76, 77, 78, 79, 80, 81, 82, 83, 84, 85, 86, 87, 88, 89, 90, 91, 92, 93, 94, 95, 96, 97, 98, 99, 100, 101, 102, 103, 104, 105, 106, 107, 108, 109, 110, 111, 112, 113, 114, 115, 116, 117, 118, 119, 120, 121, 122, 123, 124, 125, 126, 127, 128, 129, 130, 131, 132, 133, 134, 135, 136, 137, 138, 139, 140, 141, 142, 143, 144, 145, 146, 147, 148, 149, 150, 151, 152, 153, 154, 155, 156, 157, 158, 159, 160, 161, 162, 163, 164, 165, 166, 167, 168, 169, 170, 171, 172, 173, 174, 175, 176, 177, 178, 179, 180, 181, 182, 183, 184, 185, 186, 187, 188, 189, 190, 191, 192, 193, 194, 195, 196, 197, 198, 199, 200, 201, 202, 203, 204, 205, 206, 207, 208, 209, 210, 211, 212, 213, 214, 215, 216, 217, 218, 219, 220, 221, 222, 223, 224, 225, 226, 227, 228, 229, 230, 231, 232, 233, 234, 235, 236, 237, 238, 239, 240, 241, 242, 243, 244, 245, 246, 247, 248, 249, 250, 251, 252, 253, 254, 255, 256, 257, 258, 259, 260, 261, 262, 263, 264, 265, 266, 267, 268, 269, 270, 271, 272, 273, 274, 275, 276, 277, 278, 279, 280, 281, 282, 283, 284, 285, 286, 287, 288, 289, 290, 291, 292, 293, 294, 295, 296, 297, 298, 299, 300, 301, 302, 303, 304, 305, 306, 307, 308, 309, 310, 311, 312, 313, 314, 315, 316, 317, 318, 319, 320, 321, 322, 323, 324, 325, 326, 327, 328, 329, 330, 331, 332, 333, 334, 335, 336, 337, 338, 339, 340, 341, 342, 343, 344, 345, 346, 347, 348, 349, 350, 351, 352, 353, 354, 355, 356, 357, 358, 359, 360, 361, 362, 363, 364, 365, 366, 367, 368, 369, 370, 371, 372, 373, 374, 375, 376, 377, 378, 379, 380, 381, 382, 383, 384, 385, 386, 387, 388, 389, 390, 391, 392, 393, 394, 395, 396, 397, 398, 399, 400, 401, 402, 403, 404, 405, 406, 407, 408, 409, 410, 411, 412, 413, 414, 415, 416, 417, 418, 419, 420, 421, 422, 423, 424, 425, 426, 427, 428, 429, 430, 431, 432, 433, 434, 435, 436, 437, 438, 439, 440, 441, 442, 443, 444, 445, 446, 447, 448, 449, 450, 451, 452, 453, 454, 455, 456, 457, 458, 459, 460, 461, 462, 463, 464, 465, 466, 467, 468, 469, 470, 471, 472, 473, 474, 475, 476, 477, 478, 479, 480, 481, 482, 483, 484, 485, 486, 487, 488, 489, 490, 491, 492, 493, 494, 495, 496, 497, 498, 499, 500, 501, 502, 503, 504, 505, 506, 507, 508, 509, 510, 511, 512, 513, 514, 515, 516, 517, 518, 519, 520, 521, 522, 523, 524, 525, 526, 527, 528, 529, 530, 531, 532, 533, 534, 535, 536, 537, 538, 539, 540, 541, 542, 543, 544, 545, 546, 547, 548, 549, 550, 551, 552, 553, 554, 555, 556, 557, 558, 559, 560, 561, 562, 563, 564, 565, 566, 567, 568, 569, 570, 571, 572, 573, 574, 575, 576, 577, 578, 579, 580, 581, 582, 583, 584, 585, 586, 587, 588, 589, 590, 591, 592, 593, 594, 595, 596, 597, 598, 599, 600, 601, 602, 603, 604, 605, 606, 607, 608, 609, 610, 611, 612, 613, 614, 615, 616, 617, 618, 619, 620, 621, 622, 623, 624, 625, 626, 627, 628, 629, 630, 631, 632, 633, 634, 635, 636, 637, 638, 639, 640, 641, 642, 643, 644, 645, 646, 647, 648, 649, 650, 651, 652, 653, 654, 655, 656, 657, 658, 659, 660, 661, 662, 663, 664, 665, 666, 667, 668, 669, 670, 671, 672, 673, 674, 675, 676, 677, 678, 679, 680, 681, 682, 683, 684, 685, 686, 687, 688, 689, 690, 691, 692, 693, 694, 695, 696, 697, 698, 699, 700, 701, 702, 703, 704, 705, 706, 707, 708, 709, 710, 711, 712, 713, 714, 715, 716, 717, 718, 719, 720, 721, 722, 723, 724, 725, 726, 727, 728, 729, 730, 731, 732, 733, 734, 735, 736, 737, 738, 739, 740, 741, 742, 743, 744, 745, 746, 747, 748, 749, 750, 751, 752, 753, 754, 755, 756, 757, 758, 759, 760, 761, 762, 763, 764, 765, 766, 767, 768, 769, 770, 771, 772, 773, 774, 775, 776, 777, 778, 779, 780, 781, 782, 783, 784, 785, 786, 787, 788, 789, 790, 791, 792, 793, 794, 795, 796, 797, 798, 799, 800, 801, 802, 803, 804, 805, 806, 807, 808, 809, 810, 811, 812, 813, 814, 815, 816, 817, 818, 819, 820, 821, 822, 823, 824, 825, 826, 827, 828, 829, 830, 831, 832, 833, 834, 835, 836, 837, 838, 839],
      "AcquisitionTime": ["133237.822500", "133238.282500", "133238.742500", "133239.202500", "133239.662500", "133240.122500", "133240.582500", "133241.042500", "133241.502500", "133241.962500", "133242.422500", "133242.882500", "133243.342500", "133243.802500", "133244.262500", "133244.722500", "133245.182500", "133245.642500", "133246.102500", "133246.562500", "133247.022500", "133247.482500", "133247.942500", "133248.402500", "133248.862500", "133249.322500", "133249.782500", "133250.242500", "133250.702500", "133251.162500", "133251.622500", "133252.082500", "133252.542500", "133253.002500", "133253.462500", "133253.922500", "133254.382500", "133254.842500", "133255.302500", "133255.762500", "133256.222500", "133256.682500", "133257.142500", "133257.602500", "133258.062500", "133258.522500", "133258.982500", "133259.442500", "133259.902500", "133300.362500", "133300.822500", "133301.282500", "133301.742500", "133302.202500", "133302.662500", "133303.122500", "133303.582500", "133304.042500", "133304.502500", "133304.962500", "133305.422500", "133305.882500", "133306.342500", "133306.802500", "133307.262500", "133307.722500", "133308.182500", "133308.642500", "133309.102500", "133309.562500", "133310.022500", "133310.482500", "133310.942500", "133311.402500", "133311.862500", "133312.322500", "133312.782500", "133313.242500", "133313.702500", "133314.162500", "133314.622500", "133315.082500", "133315.542500", "133316.002500", "133316.462500", "133316.922500", "133317.382500", "133317.842500", "133318.302500", "133318.762500", "133319.222500", "133319.682500", "133320.142500", "133320.602500", "133321.062500", "133321.522500", "133321.982500", "133322.442500", "133322.902500", "133323.362500", "133323.822500", "133324.282500", "133324.742500", "133325.202500", "133325.662500", "133326.122500", "133326.582500", "133327.042500", "133327.502500", "133327.962500", "133328.422500", "133328.882500", "133329.342500", "133329.802500", "133330.262500", "133330.722500", "133331.182500", "133331.642500", "133332.102500", "133332.562500", "133333.022500", "133333.482500", "133333.942500", "133334.402500", "133334.862500", "133335.322500", "133335.782500", "133336.242500", "133336.702500", "133337.162500", "133337.622500", "133338.082500", "133338.542500", "133339.002500", "133339.462500", "133339.922500", "133340.382500", "133340.842500", "133341.302500", "133341.762500", "133342.222500", "133342.682500", "133343.142500", "133343.602500", "133344.062500", "133344.522500", "133344.982500", "133345.442500", "133345.902500", "133346.362500", "133346.822500", "133347.282500", "133347.742500", "133348.202500", "133348.662500", "133349.122500", "133349.582500", "133350.042500", "133350.502500", "133350.962500", "133351.422500", "133351.882500", "133352.342500", "133352.802500", "133353.262500", "133353.722500", "133354.182500", "133354.642500", "133355.102500", "133355.562500", "133356.022500", "133356.482500", "133356.942500", "133357.402500", "133357.862500", "133358.322500", "133358.782500", "133359.242500", "133359.702500", "133400.162500", "133400.622500", "133401.082500", "133401.542500", "133402.002500", "133402.462500", "133402.922500", "133403.382500", "133403.842500", "133404.302500", "133404.762500", "133405.222500", "133405.682500", "133406.142500", "133406.602500", "133407.062500", "133407.522500", "133407.982500", "133408.442500", "133408.902500", "133409.362500", "133409.822500", "133410.282500", "133410.742500", "133411.202500", "133411.662500", "133412.122500", "133412.582500", "133413.042500", "133413.502500", "133413.962500", "133414.422500", "133414.882500", "133415.342500", "133415.802500", "133416.262500", "133416.722500", "133417.182500", "133417.642500", "133418.102500", "133418.562500", "133419.022500", "133419.482500", "133419.942500", "133420.402500", "133420.862500", "133421.322500", "133421.782500", "133422.242500", "133422.702500", "133423.162500", "133423.622500", "133424.082500", "133424.542500", "133425.002500", "133425.462500", "133425.922500", "133426.382500", "133426.842500", "133427.302500", "133427.762500", "133428.222500", "133428.682500", "133429.142500", "133429.602500", "133430.062500", "133430.522500", "133430.982500", "133431.442500", "133431.902500", "133432.362500", "133432.822500", "133433.282500", "133433.742500", "133434.202500", "133434.662500", "133435.122500", "133435.582500", "133436.042500", "133436.502500", "133436.962500", "133437.422500", "133437.882500", "133438.342500", "133438.802500", "133439.262500", "133439.722500", "133440.182500", "133440.642500", "133441.102500", "133441.562500", "133442.022500", "133442.482500", "133442.942500", "133443.402500", "133443.862500", "133444.322500", "133444.782500", "133445.242500", "133445.702500", "133446.162500", "133446.622500", "133447.082500", "133447.542500", "133448.002500", "133448.462500", "133448.922500", "133449.382500", "133449.842500", "133450.302500", "133450.762500", "133451.222500", "133451.682500", "133452.142500", "133452.602500", "133453.062500", "133453.522500", "133453.982500", "133454.442500", "133454.902500", "133455.362500", "133455.822500", "133456.282500", "133456.742500", "133457.202500", "133457.662500", "133458.122500", "133458.582500", "133459.042500", "133459.502500", "133459.962500", "133500.422500", "133500.882500", "133501.342500", "133501.802500", "133502.262500", "133502.722500", "133503.182500", "133503.642500", "133504.102500", "133504.562500", "133505.022500", "133505.482500", "133505.942500", "133506.402500", "133506.862500", "133507.322500", "133507.782500", "133508.242500", "133508.702500", "133509.162500", "133509.622500", "133510.082500", "133510.542500", "133511.002500", "133511.462500", "133511.922500", "133512.382500", "133512.842500", "133513.302500", "133513.762500", "133514.222500", "133514.682500", "133515.142500", "133515.602500", "133516.062500", "133516.522500", "133516.982500", "133517.442500", "133517.902500", "133518.362500", "133518.822500", "133519.282500", "133519.742500", "133520.202500", "133520.662500", "133521.122500", "133521.582500", "133522.042500", "133522.502500", "133522.962500", "133523.422500", "133523.882500", "133524.342500", "133524.802500", "133525.262500", "133525.722500", "133526.182500", "133526.642500", "133527.102500", "133527.562500", "133528.022500", "133528.482500", "133528.942500", "133529.402500", "133529.862500", "133530.322500", "133530.782500", "133531.242500", "133531.702500", "133532.162500", "133532.622500", "133533.082500", "133533.542500", "133534.002500", "133534.462500", "133534.922500", "133535.382500", "133535.842500", "133536.302500", "133536.762500", "133537.222500", "133537.682500", "133538.142500", "133538.602500", "133539.062500", "133539.522500", "133539.982500", "133540.442500", "133540.902500", "133541.362500", "133541.822500", "133542.282500", "133542.742500", "133543.202500", "133543.662500", "133544.122500", "133544.582500", "133545.042500", "133545.502500", "133545.962500", "133546.422500", "133546.882500", "133547.342500", "133547.802500", "133548.262500", "133548.722500", "133549.182500", "133549.642500", "133550.102500", "133550.562500", "133551.022500", "133551.482500", "133551.942500", "133552.402500", "133552.862500", "133553.322500", "133553.782500", "133554.242500", "133554.702500", "133555.162500", "133555.622500", "133556.082500", "133556.542500", "133557.002500", "133557.462500", "133557.922500", "133558.382500", "133558.842500", "133559.302500", "133559.762500", "133600.222500", "133600.682500", "133601.142500", "133601.602500", "133602.062500", "133602.522500", "133602.982500", "133603.442500", "133603.902500", "133604.362500", "133604.822500", "133605.282500", "133605.742500", "133606.202500", "133606.662500", "133607.122500", "133607.582500", "133608.042500", "133608.502500", "133608.962500", "133609.422500", "133609.882500", "133610.342500", "133610.802500", "133611.262500", "133611.722500", "133612.182500", "133612.642500", "133613.102500", "133613.562500", "133614.022500", "133614.482500", "133614.942500", "133615.402500", "133615.862500", "133616.322500", "133616.782500", "133617.242500", "133617.702500", "133618.162500", "133618.622500", "133619.082500", "133619.542500", "133620.002500", "133620.462500", "133620.922500", "133621.382500", "133621.842500", "133622.302500", "133622.762500", "133623.222500", "133623.682500", "133624.142500", "133624.602500", "133625.062500", "133625.522500", "133625.982500", "133626.442500", "133626.902500", "133627.362500", "133627.822500", "133628.282500", "133628.742500", "133629.202500", "133629.662500", "133630.122500", "133630.582500", "133631.042500", "133631.502500", "133631.962500", "133632.422500", "133632.882500", "133633.342500", "133633.802500", "133634.262500", "133634.722500", "133635.182500", "133635.642500", "133636.102500", "133636.562500", "133637.022500", "133637.482500", "133637.942500", "133638.402500", "133638.862500", "133639.322500", "133639.782500", "133640.242500", "133640.702500", "133641.162500", "133641.622500", "133642.082500", "133642.542500", "133643.002500", "133643.462500", "133643.922500", "133644.382500", "133644.842500", "133645.302500", "133645.762500", "133646.222500", "133646.682500", "133647.142500", "133647.602500", "133648.062500", "133648.522500", "133648.982500", "133649.442500", "133649.902500", "133650.362500", "133650.822500", "133651.282500", "133651.742500", "133652.202500", "133652.662500", "133653.122500", "133653.582500", "133654.042500", "133654.502500", "133654.962500", "133655.422500", "133655.882500", "133656.342500", "133656.802500", "133657.262500", "133657.722500", "133658.182500", "133658.642500", "133659.102500", "133659.562500", "133700.022500", "133700.482500", "133700.942500", "133701.402500", "133701.862500", "133702.322500", "133702.782500", "133703.242500", "133703.702500", "133704.162500", "133704.622500", "133705.082500", "133705.542500", "133706.002500", "133706.462500", "133706.922500", "133707.382500", "133707.842500", "133708.302500", "133708.762500", "133709.222500", "133709.682500", "133710.142500", "133710.602500", "133711.062500", "133711.522500", "133711.982500", "133712.442500", "133712.902500", "133713.362500", "133713.822500", "133714.282500", "133714.742500", "133715.202500", "133715.662500", "133716.122500", "133716.582500", "133717.042500", "133717.502500", "133717.962500", "133718.422500", "133718.882500", "133719.342500", "133719.802500", "133720.262500", "133720.722500", "133721.182500", "133721.642500", "133722.102500", "133722.562500", "133723.022500", "133723.482500", "133723.942500", "133724.402500", "133724.862500", "133725.322500", "133725.782500", "133726.242500", "133726.702500", "133727.162500", "133727.622500", "133728.082500", "133728.542500", "133729.002500", "133729.462500", "133729.922500", "133730.382500", "133730.842500", "133731.302500", "133731.762500", "133732.222500", "133732.682500", "133733.142500", "133733.602500", "133734.062500", "133734.522500", "133734.982500", "133735.442500", "133735.902500", "133736.362500", "133736.822500", "133737.282500", "133737.742500", "133738.202500", "133738.662500", "133739.122500", "133739.582500", "133740.042500", "133740.502500", "133740.962500", "133741.422500", "133741.882500", "133742.342500", "133742.802500", "133743.262500", "133743.722500", "133744.182500", "133744.642500", "133745.102500", "133745.562500", "133746.022500", "133746.482500", "133746.942500", "133747.402500", "133747.862500", "133748.322500", "133748.782500", "133749.242500", "133749.702500", "133750.162500", "133750.622500", "133751.082500", "133751.542500", "133752.002500", "133752.462500", "133752.922500", "133753.382500", "133753.842500", "133754.302500", "133754.762500", "133755.222500", "133755.682500", "133756.142500", "133756.602500", "133757.062500", "133757.522500", "133757.982500", "133758.442500", "133758.902500", "133759.362500", "133759.822500", "133800.282500", "133800.742500", "133801.202500", "133801.662500", "133802.122500", "133802.582500", "133803.042500", "133803.502500", "133803.962500", "133804.422500", "133804.882500", "133805.342500", "133805.802500", "133806.262500", "133806.722500", "133807.182500", "133807.642500", "133808.102500", "133808.562500", "133809.022500", "133809.482500", "133809.942500", "133810.402500", "133810.862500", "133811.322500", "133811.782500", "133812.242500", "133812.702500", "133813.162500", "133813.622500", "133814.082500", "133814.542500", "133815.002500", "133815.462500", "133815.922500", "133816.382500", "133816.842500", "133817.302500", "133817.762500", "133818.222500", "133818.682500", "133819.142500", "133819.602500", "133820.062500", "133820.522500", "133820.982500", "133821.442500", "133821.902500", "133822.362500", "133822.822500", "133823.282500", "133823.742500", "133824.202500", "133824.662500", "133825.122500", "133825.582500", "133826.042500", "133826.502500", "133826.962500", "133827.422500", "133827.882500", "133828.342500", "133828.802500", "133829.262500", "133829.722500", "133830.182500", "133830.642500", "133831.102500", "133831.562500", "133832.022500", "133832.482500", "133832.942500", "133833.402500", "133833.862500", "133834.322500", "133834.782500", "133835.242500", "133835.702500", "133836.162500", "133836.622500", "133837.082500", "133837.542500", "133838.002500", "133838.462500", "133838.922500", "133839.382500", "133839.842500", "133840.302500", "133840.762500", "133841.222500", "133841.682500", "133842.142500", "133842.602500", "133843.062500", "133843.522500", "133843.982500", "133844.442500", "133844.902500", "133845.362500", "133845.822500", "133846.282500", "133846.742500", "133847.202500", "133847.662500", "133848.122500", "133848.582500", "133849.042500", "133849.502500", "133849.962500", "133850.422500", "133850.882500", "133851.342500", "133851.802500", "133852.262500", "133852.722500", "133853.182500", "133853.642500", "133854.102500", "133854.562500", "133855.022500", "133855.482500", "133855.942500", "133856.402500", "133856.862500", "133857.322500", "133857.782500", "133858.242500", "133858.702500", "133859.162500", "133859.622500", "133900.082500", "133900.542500", "133901.002500", "133901.462500", "133901.922500", "133902.382500", "133902.842500", "133903.302500"],
