{
  "AcquisitionMatrixPE": 82,
  "AcquisitionNumber": 1,
  "AcquisitionTime": "12:24:5.505000",
  "BandwidthPerPixelPhaseEncode": 24.888,
  "BaseResolution": 82,
  "BodyPartExamined": "BRAIN",
  "ConsistencyInfo": "N4_VE11C_LATEST_20160120",
  "ConversionSoftware": "dcm2niix",
  "ConversionSoftwareVersion": "v1.0.20201102",
  "DerivedVendorReportedEchoSpacing": 0.00049,
  "DeviceSerialNumber": "66112",
  "DwellTime": 2e-06,
  "EchoTime": 0.0272,
  "EchoTrainLength": 82,
  "EffectiveEchoSpacing": 0.00049,
  "FlipAngle": 44,
  "ImageComments": "Unaliased MB8/PE3",
  "ImageOrientationPatientDICOM": [0.998956, 0.0440549, 0.0121063, -0.0441395, 0.999002, 0.00681321],
  "ImageType": [
    "ORIGINAL",
    "PRIMARY",
    "M",
    "MB",
    "ND",
    "NORM",
    "MOSAIC"
],
  "ImagingFrequency": 123.252,
  "InPlanePhaseEncodingDirectionDICOM": "COL",
  "InstitutionAddress": "Maynard 3,Hanover,NH,US,03755",
  "InstitutionName": "Dartmouth College - PBS",
  "InstitutionalDepartmentName": "Department",
  "MRAcquisitionType": "2D",
  "MagneticFieldStrength": 3,
  "Manufacturer": "Siemens",
  "ManufacturersModelName": "Prisma",
  "Modality": "MR",
  "MultibandAccelerationFactor": 8,
  "PartialFourier": 1,
  "PatientPosition": "HFS",
  "PercentPhaseFOV": 100,
  "PercentSampling": 100,
  "PhaseEncodingDirection": "j-",
  "PhaseEncodingSteps": 82,
  "PhaseResolution": 1,
  "PixelBandwidth": 3050,
  "ProcedureStepDescription": "Wager_Wager^1076_spacetop",
  "ProtocolName": "func_run-01_task-narratives_acq-ap-mb8",
  "PulseSequenceDetails": "%CustomerSeq%\\cmrr_mbep2d_bold",
  "ReceiveCoilActiveElements": "HEA;HEP",
  "ReceiveCoilName": "Head_32",
  "ReconMatrixPE": 82,
  "RepetitionTime": 0.46,
  "SAR": 0.0907078,
  "ScanOptions": "FS",
  "ScanningSequence": "EP",
  "SequenceName": "epfid2d1_82",
  "SequenceVariant": "SK\\SS",
  "SeriesDescription": "func_run-01_task-narratives_acq-ap-mb8",
  "SeriesNumber": 10,
  "ShimSetting": [4155, -7720, -7281, 466, -17, -214, -76, 124],
  "SliceThickness": 2.7,
  "SliceTiming": [0, 0.25, 0.0625, 0.3125, 0.125, 0.375, 0.1875, 0, 0.25, 0.0625, 0.3125, 0.125, 0.375, 0.1875, 0, 0.25, 0.0625, 0.3125, 0.125, 0.375, 0.1875, 0, 0.25, 0.0625, 0.3125, 0.125, 0.375, 0.1875, 0, 0.25, 0.0625, 0.3125, 0.125, 0.375, 0.1875, 0, 0.25, 0.0625, 0.3125, 0.125, 0.375, 0.1875, 0, 0.25, 0.0625, 0.3125, 0.125, 0.375, 0.1875, 0, 0.25, 0.0625, 0.3125, 0.125, 0.375, 0.1875],
  "SoftwareVersions": "syngo MR E11",
  "SpacingBetweenSlices": 2.7,
  "StationName": "AWP66112",
  "TaskName": "narratives",
  "TotalReadoutTime": 0.03969,
  "TxRefAmp": 237.02,
  "WipMemBlock": "cc3c5774-c416-4243-abcb-ff2c78f76e0f||Sequence: R016 ve11c/master r/e634e98; Dec 19 2017 11:00:25 by eja",
  "dcmmeta_affine": [
    [-2.6801252365112305, -0.1184229627251625, 0.03184400871396065, 117.9590072631836],
    [-0.11819595098495483, 2.6802496910095215, 0.019819237291812897, -88.52741241455078],
    [0.03248034790158272, -0.018279336392879486, 2.699739456176758, -80.2042236328125],
    [0.0, 0.0, 0.0, 1.0]
],
  "dcmmeta_reorient_transform": [
    [0.0, -1.0, 0.0, 81.0],
    [1.0, 0.0, 0.0, 0.0],
    [0.0, 0.0, 1.0, 0.0],
    [0.0, 0.0, 0.0, 1.0]
],
  "dcmmeta_shape": [82, 82, 56, 967],
  "dcmmeta_slice_dim": 2,
  "dcmmeta_version": 0.6,
  "global": {
    "const": {
      "AccessionNumber": "A003507",
      "AcquisitionMatrix": [82, 0, 0, 82],
      "AngioFlag": "N",
      "BitsAllocated": 16,
      "BitsStored": 16,
      "BodyPartExamined": "BRAIN",
      "Columns": 656,
      "EchoNumbers": 1,
      "EchoTime": 27.2,
      "EchoTrainLength": 82,
      "FlipAngle": 44.0,
      "HighBit": 15,
      "ImageOrientationPatient": [0.99895575837929, 0.04405485233307, 0.01210631185643, -0.0441394670967, 0.99900214597211, 0.00681320684753],
      "ImagePositionPatient": [-843.57530833256, -931.72672156861, -96.252883216295],
      "ImageType": [
        "ORIGINAL",
        "PRIMARY",
        "M",
        "MB",
        "ND",
        "NORM",
        "MOSAIC"
],
      "ImagedNucleus": "1H",
      "ImagingFrequency": 123.252145,
      "InPlanePhaseEncodingDirection": "COL",
      "MRAcquisitionType": "2D",
      "MagneticFieldStrength": 3.0,
      "Manufacturer": "SIEMENS",
      "ManufacturerModelName": "Prisma",
      "Modality": "MR",
      "NumberOfAverages": 1.0,
      "NumberOfPhaseEncodingSteps": 82,
      "PercentPhaseFieldOfView": 100.0,
      "PercentSampling": 100.0,
      "PerformedProcedureStepStartTime": "115138.891000",
      "PhotometricInterpretation": "MONOCHROME2",
      "PixelBandwidth": 3050.0,
      "PixelRepresentation": 0,
      "PixelSpacing": [2.6829268932343, 2.6829268932343],
      "ProtocolName": "func_run-01_task-narratives_acq-ap-mb8",
      "RepetitionTime": 460.0,
      "Rows": 656,
      "SAR": 0.090707782904,
      "SamplesPerPixel": 1,
      "ScanOptions": "FS",
      "ScanningSequence": "EP",
      "SequenceName": "epfid2d1_82",
      "SequenceVariant": [
        "SK",
        "SS"
],
      "SeriesDescription": "func_run-01_task-narratives_acq-ap-mb8",
      "SeriesNumber": 10,
      "SeriesTime": "122422.608000",
      "SliceLocation": -79.455102103213,
      "SliceThickness": 2.7000000476837,
      "SmallestImagePixelValue": 0,
      "SoftwareVersions": "syngo MR E11",
      "SpacingBetweenSlices": 2.700000029778,
      "SpecificCharacterSet": "ISO_IR 100",
      "StudyID": "2",
      "StudyTime": "115138.858000",
      "TransmitCoilName": "Body",
      "VariableFlipAngleFlag": "N",
      "WindowCenterWidthExplanation": "Algo1",
      "dBdt": 0.0},
    "slices": {}
  },
  "time": {
    "samples": {
      "AcquisitionNumber": [1, 2, 3, 4, 5, 6, 7, 8, 9, 10, 11, 12, 13, 14, 15, 16, 17, 18, 19, 20, 21, 22, 23, 24, 25, 26, 27, 28, 29, 30, 31, 32, 33, 34, 35, 36, 37, 38, 39, 40, 41, 42, 43, 44, 45, 46, 47, 48, 49, 50, 51, 52, 53, 54, 55, 56, 57, 58, 59, 60, 61, 62, 63, 64, 65, 66, 67, 68, 69, 70, 71, 72, 73, 74, 75, 76, 77, 78, 79, 80, 81, 82, 83, 84, 85, 86, 87, 88, 89, 90, 91, 92, 93, 94, 95, 96, 97, 98, 99, 100, 101, 102, 103, 104, 105, 106, 107, 108, 109, 110, 111, 112, 113, 114, 115, 116, 117, 118, 119, 120, 121, 122, 123, 124, 125, 126, 127, 128, 129, 130, 131, 132, 133, 134, 135, 136, 137, 138, 139, 140, 141, 142, 143, 144, 145, 146, 147, 148, 149, 150, 151, 152, 153, 154, 155, 156, 157, 158, 159, 160, 161, 162, 163, 164, 165, 166, 167, 168, 169, 170, 171, 172, 173, 174, 175, 176, 177, 178, 179, 180, 181, 182, 183, 184, 185, 186, 187, 188, 189, 190, 191, 192, 193, 194, 195, 196, 197, 198, 199, 200, 201, 202, 203, 204, 205, 206, 207, 208, 209, 210, 211, 212, 213, 214, 215, 216, 217, 218, 219, 220, 221, 222, 223, 224, 225, 226, 227, 228, 229, 230, 231, 232, 233, 234, 235, 236, 237, 238, 239, 240, 241, 242, 243, 244, 245, 246, 247, 248, 249, 250, 251, 252, 253, 254, 255, 256, 257, 258, 259, 260, 261, 262, 263, 264, 265, 266, 267, 268, 269, 270, 271, 272, 273, 274, 275, 276, 277, 278, 279, 280, 281, 282, 283, 284, 285, 286, 287, 288, 289, 290, 291, 292, 293, 294, 295, 296, 297, 298, 299, 300, 301, 302, 303, 304, 305, 306, 307, 308, 309, 310, 311, 312, 313, 314, 315, 316, 317, 318, 319, 320, 321, 322, 323, 324, 325, 326, 327, 328, 329, 330, 331, 332, 333, 334, 335, 336, 337, 338, 339, 340, 341, 342, 343, 344, 345, 346, 347, 348, 349, 350, 351, 352, 353, 354, 355, 356, 357, 358, 359, 360, 361, 362, 363, 364, 365, 366, 367, 368, 369, 370, 371, 372, 373, 374, 375, 376, 377, 378, 379, 380, 381, 382, 383, 384, 385, 386, 387, 388, 389, 390, 391, 392, 393, 394, 395, 396, 397, 398, 399, 400, 401, 402, 403, 404, 405, 406, 407, 408, 409, 410, 411, 412, 413, 414, 415, 416, 417, 418, 419, 420, 421, 422, 423, 424, 425, 426, 427, 428, 429, 430, 431, 432, 433, 434, 435, 436, 437, 438, 439, 440, 441, 442, 443, 444, 445, 446, 447, 448, 449, 450, 451, 452, 453, 454, 455, 456, 457, 458, 459, 460, 461, 462, 463, 464, 465, 466, 467, 468, 469, 470, 471, 472, 473, 474, 475, 476, 477, 478, 479, 480, 481, 482, 483, 484, 485, 486, 487, 488, 489, 490, 491, 492, 493, 494, 495, 496, 497, 498, 499, 500, 501, 502, 503, 504, 505, 506, 507, 508, 509, 510, 511, 512, 513, 514, 515, 516, 517, 518, 519, 520, 521, 522, 523, 524, 525, 526, 527, 528, 529, 530, 531, 532, 533, 534, 535, 536, 537, 538, 539, 540, 541, 542, 543, 544, 545, 546, 547, 548, 549, 550, 551, 552, 553, 554, 555, 556, 557, 558, 559, 560, 561, 562, 563, 564, 565, 566, 567, 568, 569, 570, 571, 572, 573, 574, 575, 576, 577, 578, 579, 580, 581, 582, 583, 584, 585, 586, 587, 588, 589, 590, 591, 592, 593, 594, 595, 596, 597, 598, 599, 600, 601, 602, 603, 604, 605, 606, 607, 608, 609, 610, 611, 612, 613, 614, 615, 616, 617, 618, 619, 620, 621, 622, 623, 624, 625, 626, 627, 628, 629, 630, 631, 632, 633, 634, 635, 636, 637, 638, 639, 640, 641, 642, 643, 644, 645, 646, 647, 648, 649, 650, 651, 652, 653, 654, 655, 656, 657, 658, 659, 660, 661, 662, 663, 664, 665, 666, 667, 668, 669, 670, 671, 672, 673, 674, 675, 676, 677, 678, 679, 680, 681, 682, 683, 684, 685, 686, 687, 688, 689, 690, 691, 692, 693, 694, 695, 696, 697, 698, 699, 700, 701, 702, 703, 704, 705, 706, 707, 708, 709, 710, 711, 712, 713, 714, 715, 716, 717, 718, 719, 720, 721, 722, 723, 724, 725, 726, 727, 728, 729, 730, 731, 732, 733, 734, 735, 736, 737, 738, 739, 740, 741, 742, 743, 744, 745, 746, 747, 748, 749, 750, 751, 752, 753, 754, 755, 756, 757, 758, 759, 760, 761, 762, 763, 764, 765, 766, 767, 768, 769, 770, 771, 772, 773, 774, 775, 776, 777, 778, 779, 780, 781, 782, 783, 784, 785, 786, 787, 788, 789, 790, 791, 792, 793, 794, 795, 796, 797, 798, 799, 800, 801, 802, 803, 804, 805, 806, 807, 808, 809, 810, 811, 812, 813, 814, 815, 816, 817, 818, 819, 820, 821, 822, 823, 824, 825, 826, 827, 828, 829, 830, 831, 832, 833, 834, 835, 836, 837, 838, 839, 840, 841, 842, 843, 844, 845, 846, 847, 848, 849, 850, 851, 852, 853, 854, 855, 856, 857, 858, 859, 860, 861, 862, 863, 864, 865, 866, 867, 868, 869, 870, 871, 872, 873, 874, 875, 876, 877, 878, 879, 880, 881, 882, 883, 884, 885, 886, 887, 888, 889, 890, 891, 892, 893, 894, 895, 896, 897, 898, 899, 900, 901, 902, 903, 904, 905, 906, 907, 908, 909, 910, 911, 912, 913, 914, 915, 916, 917, 918, 919, 920, 921, 922, 923, 924, 925, 926, 927, 928, 929, 930, 931, 932, 933, 934, 935, 936, 937, 938, 939, 940, 941, 942, 943, 944, 945, 946, 947, 948, 949, 950, 951, 952, 953, 954, 955, 956, 957, 958, 959, 960, 961, 962, 963, 964, 965, 966, 967],
      "AcquisitionTime": ["122405.505000", "122405.965000", "122406.425000", "122406.885000", "122407.345000", "122407.805000", "122408.265000", "122408.725000", "122409.185000", "122409.645000", "122410.105000", "122410.565000", "122411.025000", "122411.485000", "122411.945000", "122412.405000", "122412.865000", "122413.325000", "122413.785000", "122414.245000", "122414.705000", "122415.165000", "122415.625000", "122416.085000", "122416.545000", "122417.005000", "122417.465000", "122417.925000", "122418.385000", "122418.845000", "122419.305000", "122419.765000", "122420.225000", "122420.685000", "122421.145000", "122421.605000", "122422.065000", "122422.525000", "122422.985000", "122423.445000", "122423.905000", "122424.365000", "122424.825000", "122425.285000", "122425.745000", "122426.205000", "122426.665000", "122427.125000", "122427.585000", "122428.045000", "122428.505000", "122428.965000", "122429.425000", "122429.885000", "122430.345000", "122430.805000", "122431.265000", "122431.725000", "122432.185000", "122432.645000", "122433.105000", "122433.565000", "122434.025000", "122434.485000", "122434.945000", "122435.405000", "122435.865000", "122436.325000", "122436.785000", "122437.245000", "122437.705000", "122438.165000", "122438.625000", "122439.085000", "122439.545000", "122440.005000", "122440.465000", "122440.925000", "122441.385000", "122441.845000", "122442.305000", "122442.765000", "122443.225000", "122443.685000", "122444.145000", "122444.605000", "122445.065000", "122445.525000", "122445.985000", "122446.445000", "122446.905000", "122447.365000", "122447.825000", "122448.285000", "122448.745000", "122449.205000", "122449.665000", "122450.125000", "122450.585000", "122451.045000", "122451.505000", "122451.965000", "122452.425000", "122452.885000", "122453.345000", "122453.805000", "122454.265000", "122454.725000", "122455.185000", "122455.645000", "122456.105000", "122456.565000", "122457.025000", "122457.485000", "122457.945000", "122458.405000", "122458.865000", "122459.325000", "122459.785000", "122500.245000", "122500.705000", "122501.165000", "122501.625000", "122502.085000", "122502.545000", "122503.005000", "122503.465000", "122503.925000", "122504.385000", "122504.845000", "122505.305000", "122505.765000", "122506.225000", "122506.685000", "122507.145000", "122507.605000", "122508.065000", "122508.525000", "122508.985000", "122509.445000", "122509.905000", "122510.365000", "122510.825000", "122511.285000", "122511.745000", "122512.205000", "122512.665000", "122513.125000", "122513.585000", "122514.045000", "122514.505000", "122514.965000", "122515.425000", "122515.885000", "122516.345000", "122516.805000", "122517.265000", "122517.725000", "122518.185000", "122518.645000", "122519.105000", "122519.565000", "122520.025000", "122520.485000", "122520.945000", "122521.405000", "122521.865000", "122522.325000", "122522.785000", "122523.245000", "122523.705000", "122524.165000", "122524.625000", "122525.085000", "122525.545000", "122526.005000", "122526.465000", "122526.925000", "122527.385000", "122527.845000", "122528.305000", "122528.765000", "122529.225000", "122529.685000", "122530.145000", "122530.605000", "122531.065000", "122531.525000", "122531.985000", "122532.445000", "122532.905000", "122533.365000", "122533.825000", "122534.285000", "122534.745000", "122535.205000", "122535.665000", "122536.125000", "122536.585000", "122537.045000", "122537.505000", "122537.965000", "122538.425000", "122538.885000", "122539.345000", "122539.805000", "122540.265000", "122540.725000", "122541.185000", "122541.645000", "122542.105000", "122542.565000", "122543.025000", "122543.485000", "122543.945000", "122544.405000", "122544.865000", "122545.325000", "122545.785000", "122546.245000", "122546.705000", "122547.165000", "122547.625000", "122548.085000", "122548.545000", "122549.005000", "122549.465000", "122549.925000", "122550.385000", "122550.845000", "122551.305000", "122551.765000", "122552.225000", "122552.685000", "122553.145000", "122553.605000", "122554.065000", "122554.525000", "122554.985000", "122555.445000", "122555.905000", "122556.365000", "122556.825000", "122557.285000", "122557.745000", "122558.205000", "122558.665000", "122559.125000", "122559.585000", "122600.045000", "122600.505000", "122600.965000", "122601.425000", "122601.885000", "122602.345000", "122602.805000", "122603.265000", "122603.725000", "122604.185000", "122604.645000", "122605.105000", "122605.565000", "122606.025000", "122606.485000", "122606.945000", "122607.405000", "122607.865000", "122608.325000", "122608.785000", "122609.245000", "122609.705000", "122610.165000", "122610.625000", "122611.085000", "122611.545000", "122612.005000", "122612.465000", "122612.925000", "122613.385000", "122613.845000", "122614.305000", "122614.765000", "122615.225000", "122615.685000", "122616.145000", "122616.605000", "122617.065000", "122617.525000", "122617.985000", "122618.445000", "122618.905000", "122619.365000", "122619.825000", "122620.285000", "122620.745000", "122621.205000", "122621.665000", "122622.125000", "122622.585000", "122623.045000", "122623.505000", "122623.965000", "122624.425000", "122624.885000", "122625.345000", "122625.805000", "122626.265000", "122626.725000", "122627.185000", "122627.645000", "122628.105000", "122628.565000", "122629.025000", "122629.485000", "122629.945000", "122630.405000", "122630.865000", "122631.325000", "122631.785000", "122632.245000", "122632.705000", "122633.165000", "122633.625000", "122634.085000", "122634.545000", "122635.005000", "122635.465000", "122635.925000", "122636.385000", "122636.845000", "122637.305000", "122637.765000", "122638.225000", "122638.685000", "122639.145000", "122639.605000", "122640.065000", "122640.525000", "122640.985000", "122641.445000", "122641.905000", "122642.365000", "122642.825000", "122643.285000", "122643.745000", "122644.205000", "122644.665000", "122645.125000", "122645.585000", "122646.045000", "122646.505000", "122646.965000", "122647.425000", "122647.885000", "122648.345000", "122648.805000", "122649.265000", "122649.725000", "122650.185000", "122650.645000", "122651.105000", "122651.565000", "122652.025000", "122652.485000", "122652.945000", "122653.405000", "122653.865000", "122654.325000", "122654.785000", "122655.245000", "122655.705000", "122656.165000", "122656.625000", "122657.085000", "122657.545000", "122658.005000", "122658.465000", "122658.925000", "122659.385000", "122659.845000", "122700.305000", "122700.765000", "122701.225000", "122701.685000", "122702.145000", "122702.605000", "122703.065000", "122703.525000", "122703.985000", "122704.445000", "122704.905000", "122705.365000", "122705.825000", "122706.285000", "122706.745000", "122707.205000", "122707.665000", "122708.125000", "122708.585000", "122709.045000", "122709.505000", "122709.965000", "122710.425000", "122710.885000", "122711.345000", "122711.805000", "122712.265000", "122712.725000", "122713.185000", "122713.645000", "122714.105000", "122714.565000", "122715.025000", "122715.485000", "122715.945000", "122716.405000", "122716.865000", "122717.325000", "122717.785000", "122718.245000", "122718.705000", "122719.165000", "122719.625000", "122720.085000", "122720.545000", "122721.005000", "122721.465000", "122721.925000", "122722.385000", "122722.845000", "122723.305000", "122723.765000", "122724.225000", "122724.685000", "122725.145000", "122725.605000", "122726.065000", "122726.525000", "122726.985000", "122727.445000", "122727.905000", "122728.365000", "122728.825000", "122729.285000", "122729.745000", "122730.205000", "122730.665000", "122731.125000", "122731.585000", "122732.045000", "122732.505000", "122732.965000", "122733.425000", "122733.885000", "122734.345000", "122734.805000", "122735.265000", "122735.725000", "122736.185000", "122736.645000", "122737.105000", "122737.565000", "122738.025000", "122738.485000", "122738.945000", "122739.405000", "122739.865000", "122740.325000", "122740.785000", "122741.245000", "122741.705000", "122742.165000", "122742.625000", "122743.085000", "122743.545000", "122744.005000", "122744.465000", "122744.925000", "122745.385000", "122745.845000", "122746.305000", "122746.765000", "122747.225000", "122747.685000", "122748.145000", "122748.605000", "122749.065000", "122749.525000", "122749.985000", "122750.445000", "122750.905000", "122751.365000", "122751.825000", "122752.285000", "122752.745000", "122753.205000", "122753.665000", "122754.125000", "122754.585000", "122755.045000", "122755.505000", "122755.965000", "122756.425000", "122756.885000", "122757.345000", "122757.805000", "122758.265000", "122758.725000", "122759.185000", "122759.645000", "122800.105000", "122800.565000", "122801.025000", "122801.485000", "122801.945000", "122802.405000", "122802.865000", "122803.325000", "122803.785000", "122804.245000", "122804.705000", "122805.165000", "122805.625000", "122806.085000", "122806.545000", "122807.005000", "122807.465000", "122807.925000", "122808.385000", "122808.845000", "122809.305000", "122809.765000", "122810.225000", "122810.685000", "122811.145000", "122811.605000", "122812.065000", "122812.525000", "122812.985000", "122813.445000", "122813.905000", "122814.365000", "122814.825000", "122815.285000", "122815.745000", "122816.205000", "122816.665000", "122817.125000", "122817.585000", "122818.045000", "122818.505000", "122818.965000", "122819.425000", "122819.885000", "122820.345000", "122820.805000", "122821.265000", "122821.725000", "122822.185000", "122822.645000", "122823.105000", "122823.565000", "122824.025000", "122824.485000", "122824.945000", "122825.405000", "122825.865000", "122826.325000", "122826.785000", "122827.245000", "122827.705000", "122828.165000", "122828.625000", "122829.085000", "122829.545000", "122830.005000", "122830.465000", "122830.925000", "122831.385000", "122831.845000", "122832.305000", "122832.765000", "122833.225000", "122833.685000", "122834.145000", "122834.605000", "122835.065000", "122835.525000", "122835.985000", "122836.445000", "122836.905000", "122837.365000", "122837.825000", "122838.285000", "122838.745000", "122839.205000", "122839.665000", "122840.125000", "122840.585000", "122841.045000", "122841.505000", "122841.965000", "122842.425000", "122842.885000", "122843.345000", "122843.805000", "122844.265000", "122844.725000", "122845.185000", "122845.645000", "122846.105000", "122846.565000", "122847.025000", "122847.485000", "122847.945000", "122848.405000", "122848.865000", "122849.325000", "122849.785000", "122850.245000", "122850.705000", "122851.165000", "122851.625000", "122852.085000", "122852.545000", "122853.005000", "122853.465000", "122853.925000", "122854.385000", "122854.845000", "122855.305000", "122855.765000", "122856.225000", "122856.685000", "122857.145000", "122857.605000", "122858.065000", "122858.525000", "122858.985000", "122859.445000", "122859.905000", "122900.365000", "122900.825000", "122901.285000", "122901.745000", "122902.205000", "122902.665000", "122903.125000", "122903.585000", "122904.045000", "122904.505000", "122904.965000", "122905.425000", "122905.885000", "122906.345000", "122906.805000", "122907.265000", "122907.725000", "122908.185000", "122908.645000", "122909.105000", "122909.565000", "122910.025000", "122910.485000", "122910.945000", "122911.405000", "122911.865000", "122912.325000", "122912.785000", "122913.245000", "122913.705000", "122914.165000", "122914.625000", "122915.085000", "122915.545000", "122916.005000", "122916.465000", "122916.925000", "122917.385000", "122917.845000", "122918.305000", "122918.765000", "122919.225000", "122919.685000", "122920.145000", "122920.605000", "122921.065000", "122921.525000", "122921.985000", "122922.445000", "122922.905000", "122923.365000", "122923.825000", "122924.285000", "122924.745000", "122925.205000", "122925.665000", "122926.125000", "122926.585000", "122927.045000", "122927.505000", "122927.965000", "122928.425000", "122928.885000", "122929.345000", "122929.805000", "122930.265000", "122930.725000", "122931.185000", "122931.645000", "122932.105000", "122932.565000", "122933.025000", "122933.485000", "122933.945000", "122934.405000", "122934.865000", "122935.325000", "122935.785000", "122936.245000", "122936.705000", "122937.165000", "122937.625000", "122938.085000", "122938.545000", "122939.005000", "122939.465000", "122939.925000", "122940.385000", "122940.845000", "122941.305000", "122941.765000", "122942.225000", "122942.685000", "122943.145000", "122943.605000", "122944.065000", "122944.525000", "122944.985000", "122945.445000", "122945.905000", "122946.365000", "122946.825000", "122947.285000", "122947.745000", "122948.205000", "122948.665000", "122949.125000", "122949.585000", "122950.045000", "122950.505000", "122950.965000", "122951.425000", "122951.885000", "122952.345000", "122952.805000", "122953.265000", "122953.725000", "122954.185000", "122954.645000", "122955.105000", "122955.565000", "122956.025000", "122956.485000", "122956.945000", "122957.405000", "122957.865000", "122958.325000", "122958.785000", "122959.245000", "122959.705000", "123000.165000", "123000.625000", "123001.085000", "123001.545000", "123002.005000", "123002.465000", "123002.925000", "123003.385000", "123003.845000", "123004.305000", "123004.765000", "123005.225000", "123005.685000", "123006.145000", "123006.605000", "123007.065000", "123007.525000", "123007.985000", "123008.445000", "123008.905000", "123009.365000", "123009.825000", "123010.285000", "123010.745000", "123011.205000", "123011.665000", "123012.125000", "123012.585000", "123013.045000", "123013.505000", "123013.965000", "123014.425000", "123014.885000", "123015.345000", "123015.805000", "123016.265000", "123016.725000", "123017.185000", "123017.645000", "123018.105000", "123018.565000", "123019.025000", "123019.485000", "123019.945000", "123020.405000", "123020.865000", "123021.325000", "123021.785000", "123022.245000", "123022.705000", "123023.165000", "123023.625000", "123024.085000", "123024.545000", "123025.005000", "123025.465000", "123025.925000", "123026.385000", "123026.845000", "123027.305000", "123027.765000", "123028.225000", "123028.685000", "123029.145000", "123029.605000", "123030.065000", "123030.525000", "123030.985000", "123031.445000", "123031.905000", "123032.365000", "123032.825000", "123033.285000", "123033.745000", "123034.205000", "123034.665000", "123035.125000", "123035.585000", "123036.045000", "123036.505000", "123036.965000", "123037.425000", "123037.885000", "123038.345000", "123038.805000", "123039.265000", "123039.725000", "123040.185000", "123040.645000", "123041.105000", "123041.565000", "123042.025000", "123042.485000", "123042.945000", "123043.405000", "123043.865000", "123044.325000", "123044.785000", "123045.245000", "123045.705000", "123046.165000", "123046.625000", "123047.085000", "123047.545000", "123048.005000", "123048.465000", "123048.925000", "123049.385000", "123049.845000", "123050.305000", "123050.765000", "123051.225000", "123051.685000", "123052.145000", "123052.605000", "123053.065000", "123053.525000", "123053.985000", "123054.445000", "123054.905000", "123055.365000", "123055.825000", "123056.285000", "123056.745000", "123057.205000", "123057.665000", "123058.125000", "123058.585000", "123059.045000", "123059.505000", "123059.965000", "123100.425000", "123100.885000", "123101.345000", "123101.805000", "123102.265000", "123102.725000", "123103.185000", "123103.645000", "123104.105000", "123104.565000", "123105.025000", "123105.485000", "123105.945000", "123106.405000", "123106.865000", "123107.325000", "123107.785000", "123108.245000", "123108.705000", "123109.165000", "123109.625000", "123110.085000", "123110.545000", "123111.005000", "123111.465000", "123111.925000", "123112.385000", "123112.845000", "123113.305000", "123113.765000", "123114.225000", "123114.685000", "123115.145000", "123115.605000", "123116.065000", "123116.525000", "123116.985000", "123117.445000", "123117.905000", "123118.365000", "123118.825000", "123119.285000", "123119.745000", "123120.205000", "123120.665000", "123121.125000", "123121.585000", "123122.045000", "123122.505000", "123122.965000", "123123.425000", "123123.885000", "123124.345000", "123124.805000", "123125.265000", "123125.725000", "123126.185000", "123126.645000", "123127.105000", "123127.565000", "123128.025000", "123128.485000", "123128.945000", "123129.405000", "123129.865000"],
