{
  "AcquisitionMatrixPE": 82,
  "AcquisitionNumber": 1,
  "AcquisitionTime": "13:13:28.135000",
  "BandwidthPerPixelPhaseEncode": 24.888,
  "BaseResolution": 82,
  "BodyPartExamined": "BRAIN",
  "ConsistencyInfo": "N4_VE11C_LATEST_20160120",
  "ConversionSoftware": "dcm2niix",
  "ConversionSoftwareVersion": "v1.0.20201102",
  "DerivedVendorReportedEchoSpacing": 0.00049,
  "DeviceSerialNumber": "66112",
  "DwellTime": 2e-06,
  "EchoTime": 0.0272,
  "EchoTrainLength": 82,
  "EffectiveEchoSpacing": 0.00049,
  "FlipAngle": 44,
  "ImageComments": "Unaliased MB8/PE3",
  "ImageOrientationPatientDICOM": [0.998956, 0.0440549, 0.0121063, -0.0441395, 0.999002, 0.00681321],
  "ImageType": [
    "ORIGINAL",
    "PRIMARY",
    "M",
    "MB",
    "ND",
    "NORM",
    "MOSAIC"
],
  "ImagingFrequency": 123.252,
  "InPlanePhaseEncodingDirectionDICOM": "COL",
  "InstitutionAddress": "Maynard 3,Hanover,NH,US,03755",
  "InstitutionName": "Dartmouth College - PBS",
  "InstitutionalDepartmentName": "Department",
  "MRAcquisitionType": "2D",
  "MagneticFieldStrength": 3,
  "Manufacturer": "Siemens",
  "ManufacturersModelName": "Prisma",
  "Modality": "MR",
  "MultibandAccelerationFactor": 8,
  "PartialFourier": 1,
  "PatientPosition": "HFS",
  "PercentPhaseFOV": 100,
  "PercentSampling": 100,
  "PhaseEncodingDirection": "j-",
  "PhaseEncodingSteps": 82,
  "PhaseResolution": 1,
  "PixelBandwidth": 3050,
  "ProcedureStepDescription": "Wager_Wager^1076_spacetop",
  "ProtocolName": "func_run-02_task-faces_acq-ap-mb8",
  "PulseSequenceDetails": "%CustomerSeq%\\cmrr_mbep2d_bold",
  "ReceiveCoilActiveElements": "HEA;HEP",
  "ReceiveCoilName": "Head_32",
  "ReconMatrixPE": 82,
  "RepetitionTime": 0.46,
  "SAR": 0.0906783,
  "ScanOptions": "FS",
  "ScanningSequence": "EP",
  "SequenceName": "epfid2d1_82",
  "SequenceVariant": "SK\\SS",
  "SeriesDescription": "func_run-02_task-faces_acq-ap-mb8",
  "SeriesNumber": 20,
  "ShimSetting": [4155, -7720, -7281, 466, -17, -214, -76, 124],
  "SliceThickness": 2.7,
  "SliceTiming": [0, 0.2525, 0.065, 0.315, 0.1275, 0.3775, 0.19, 0, 0.2525, 0.065, 0.315, 0.1275, 0.3775, 0.19, 0, 0.2525, 0.065, 0.315, 0.1275, 0.3775, 0.19, 0, 0.2525, 0.065, 0.315, 0.1275, 0.3775, 0.19, 0, 0.2525, 0.065, 0.315, 0.1275, 0.3775, 0.19, 0, 0.2525, 0.065, 0.315, 0.1275, 0.3775, 0.19, 0, 0.2525, 0.065, 0.315, 0.1275, 0.3775, 0.19, 0, 0.2525, 0.065, 0.315, 0.1275, 0.3775, 0.19],
  "SoftwareVersions": "syngo MR E11",
  "SpacingBetweenSlices": 2.7,
  "StationName": "AWP66112",
  "TaskName": "faces",
  "TotalReadoutTime": 0.03969,
  "TxRefAmp": 237.02,
  "WipMemBlock": "e8b82e63-be57-4508-9760-ddf20008ec2d||Sequence: R016 ve11c/master r/e634e98; Dec 19 2017 11:00:25 by eja",
  "dcmmeta_affine": [
    [-2.6801252365112305, -0.1184229627251625, 0.03184400871396065, 117.9590072631836],
    [-0.11819595098495483, 2.6802496910095215, 0.019819237291812897, -88.52741241455078],
    [0.03248034790158272, -0.018279336392879486, 2.699739456176758, -80.2042236328125],
    [0.0, 0.0, 0.0, 1.0]
],
  "dcmmeta_reorient_transform": [
    [0.0, -1.0, 0.0, 81.0],
    [1.0, 0.0, 0.0, 0.0],
    [0.0, 0.0, 1.0, 0.0],
    [0.0, 0.0, 0.0, 1.0]
],
  "dcmmeta_shape": [82, 82, 56, 914],
  "dcmmeta_slice_dim": 2,
  "dcmmeta_version": 0.6,
  "global": {
    "const": {
      "AccessionNumber": "A003507",
      "AcquisitionMatrix": [82, 0, 0, 82],
      "AngioFlag": "N",
      "BitsAllocated": 16,
      "BitsStored": 16,
      "BodyPartExamined": "BRAIN",
      "Columns": 656,
      "EchoNumbers": 1,
      "EchoTime": 27.2,
      "EchoTrainLength": 82,
      "FlipAngle": 44.0,
      "HighBit": 15,
      "ImageOrientationPatient": [0.99895575837929, 0.04405485233307, 0.01210631185643, -0.0441394670967, 0.99900214597211, 0.00681320684753],
      "ImagePositionPatient": [-843.57530833256, -931.72672156861, -96.252883216295],
      "ImageType": [
        "ORIGINAL",
        "PRIMARY",
        "M",
        "MB",
        "ND",
        "NORM",
        "MOSAIC"
],
      "ImagedNucleus": "1H",
      "ImagingFrequency": 123.25218,
      "InPlanePhaseEncodingDirection": "COL",
      "MRAcquisitionType": "2D",
      "MagneticFieldStrength": 3.0,
      "Manufacturer": "SIEMENS",
      "ManufacturerModelName": "Prisma",
      "Modality": "MR",
      "NumberOfAverages": 1.0,
      "NumberOfPhaseEncodingSteps": 82,
      "PercentPhaseFieldOfView": 100.0,
      "PercentSampling": 100.0,
      "PerformedProcedureStepStartTime": "115138.891000",
      "PhotometricInterpretation": "MONOCHROME2",
      "PixelBandwidth": 3050.0,
      "PixelRepresentation": 0,
      "PixelSpacing": [2.6829268932343, 2.6829268932343],
      "ProtocolName": "func_run-02_task-faces_acq-ap-mb8",
      "RepetitionTime": 460.0,
      "Rows": 656,
      "SAR": 0.09067829266325,
      "SamplesPerPixel": 1,
      "ScanOptions": "FS",
      "ScanningSequence": "EP",
      "SequenceName": "epfid2d1_82",
      "SequenceVariant": [
        "SK",
        "SS"
],
      "SeriesDescription": "func_run-02_task-faces_acq-ap-mb8",
      "SeriesNumber": 20,
      "SeriesTime": "131342.539000",
      "SliceLocation": -79.455102103213,
      "SliceThickness": 2.7000000476837,
      "SmallestImagePixelValue": 0,
      "SoftwareVersions": "syngo MR E11",
      "SpacingBetweenSlices": 2.700000029778,
      "SpecificCharacterSet": "ISO_IR 100",
      "StudyID": "2",
      "StudyTime": "115138.858000",
      "TransmitCoilName": "Body",
      "VariableFlipAngleFlag": "N",
      "WindowCenterWidthExplanation": "Algo1",
      "dBdt": 0.0},
    "slices": {}
  },
  "time": {
    "samples": {
      "AcquisitionNumber": [1, 2, 3, 4, 5, 6, 7, 8, 9, 10, 11, 12, 13, 14, 15, 16, 17, 18, 19, 20, 21, 22, 23, 24, 25, 26, 27, 28, 29, 30, 31, 32, 33, 34, 35, 36, 37, 38, 39, 40, 41, 42, 43, 44, 45, 46, 47, 48, 49, 50, 51, 52, 53, 54, 55, 56, 57, 58, 59, 60, 61, 62, 63, 64, 65, 66, 67, 68, 69, 70, 71, 72, 73, 74, 75, 76, 77, 78, 79, 80, 81, 82, 83, 84, 85, 86, 87, 88, 89, 90, 91, 92, 93, 94, 95, 96, 97, 98, 99, 100, 101, 102, 103, 104, 105, 106, 107, 108, 109, 110, 111, 112, 113, 114, 115, 116, 117, 118, 119, 120, 121, 122, 123, 124, 125, 126, 127, 128, 129, 130, 131, 132, 133, 134, 135, 136, 137, 138, 139, 140, 141, 142, 143, 144, 145, 146, 147, 148, 149, 150, 151, 152, 153, 154, 155, 156, 157, 158, 159, 160, 161, 162, 163, 164, 165, 166, 167, 168, 169, 170, 171, 172, 173, 174, 175, 176, 177, 178, 179, 180, 181, 182, 183, 184, 185, 186, 187, 188, 189, 190, 191, 192, 193, 194, 195, 196, 197, 198, 199, 200, 201, 202, 203, 204, 205, 206, 207, 208, 209, 210, 211, 212, 213, 214, 215, 216, 217, 218, 219, 220, 221, 222, 223, 224, 225, 226, 227, 228, 229, 230, 231, 232, 233, 234, 235, 236, 237, 238, 239, 240, 241, 242, 243, 244, 245, 246, 247, 248, 249, 250, 251, 252, 253, 254, 255, 256, 257, 258, 259, 260, 261, 262, 263, 264, 265, 266, 267, 268, 269, 270, 271, 272, 273, 274, 275, 276, 277, 278, 279, 280, 281, 282, 283, 284, 285, 286, 287, 288, 289, 290, 291, 292, 293, 294, 295, 296, 297, 298, 299, 300, 301, 302, 303, 304, 305, 306, 307, 308, 309, 310, 311, 312, 313, 314, 315, 316, 317, 318, 319, 320, 321, 322, 323, 324, 325, 326, 327, 328, 329, 330, 331, 332, 333, 334, 335, 336, 337, 338, 339, 340, 341, 342, 343, 344, 345, 346, 347, 348, 349, 350, 351, 352, 353, 354, 355, 356, 357, 358, 359, 360, 361, 362, 363, 364, 365, 366, 367, 368, 369, 370, 371, 372, 373, 374, 375, 376, 377, 378, 379, 380, 381, 382, 383, 384, 385, 386, 387, 388, 389, 390, 391, 392, 393, 394, 395, 396, 397, 398, 399, 400, 401, 402, 403, 404, 405, 406, 407, 408, 409, 410, 411, 412, 413, 414, 415, 416, 417, 418, 419, 420, 421, 422, 423, 424, 425, 426, 427, 428, 429, 430, 431, 432, 433, 434, 435, 436, 437, 438, 439, 440, 441, 442, 443, 444, 445, 446, 447, 448, 449, 450, 451, 452, 453, 454, 455, 456, 457, 458, 459, 460, 461, 462, 463, 464, 465, 466, 467, 468, 469, 470, 471, 472, 473, 474, 475, 476, 477, 478, 479, 480, 481, 482, 483, 484, 485, 486, 487, 488, 489, 490, 491, 492, 493, 494, 495, 496, 497, 498, 499, 500, 501, 502, 503, 504, 505, 506, 507, 508, 509, 510, 511, 512, 513, 514, 515, 516, 517, 518, 519, 520, 521, 522, 523, 524, 525, 526, 527, 528, 529, 530, 531, 532, 533, 534, 535, 536, 537, 538, 539, 540, 541, 542, 543, 544, 545, 546, 547, 548, 549, 550, 551, 552, 553, 554, 555, 556, 557, 558, 559, 560, 561, 562, 563, 564, 565, 566, 567, 568, 569, 570, 571, 572, 573, 574, 575, 576, 577, 578, 579, 580, 581, 582, 583, 584, 585, 586, 587, 588, 589, 590, 591, 592, 593, 594, 595, 596, 597, 598, 599, 600, 601, 602, 603, 604, 605, 606, 607, 608, 609, 610, 611, 612, 613, 614, 615, 616, 617, 618, 619, 620, 621, 622, 623, 624, 625, 626, 627, 628, 629, 630, 631, 632, 633, 634, 635, 636, 637, 638, 639, 640, 641, 642, 643, 644, 645, 646, 647, 648, 649, 650, 651, 652, 653, 654, 655, 656, 657, 658, 659, 660, 661, 662, 663, 664, 665, 666, 667, 668, 669, 670, 671, 672, 673, 674, 675, 676, 677, 678, 679, 680, 681, 682, 683, 684, 685, 686, 687, 688, 689, 690, 691, 692, 693, 694, 695, 696, 697, 698, 699, 700, 701, 702, 703, 704, 705, 706, 707, 708, 709, 710, 711, 712, 713, 714, 715, 716, 717, 718, 719, 720, 721, 722, 723, 724, 725, 726, 727, 728, 729, 730, 731, 732, 733, 734, 735, 736, 737, 738, 739, 740, 741, 742, 743, 744, 745, 746, 747, 748, 749, 750, 751, 752, 753, 754, 755, 756, 757, 758, 759, 760, 761, 762, 763, 764, 765, 766, 767, 768, 769, 770, 771, 772, 773, 774, 775, 776, 777, 778, 779, 780, 781, 782, 783, 784, 785, 786, 787, 788, 789, 790, 791, 792, 793, 794, 795, 796, 797, 798, 799, 800, 801, 802, 803, 804, 805, 806, 807, 808, 809, 810, 811, 812, 813, 814, 815, 816, 817, 818, 819, 820, 821, 822, 823, 824, 825, 826, 827, 828, 829, 830, 831, 832, 833, 834, 835, 836, 837, 838, 839, 840, 841, 842, 843, 844, 845, 846, 847, 848, 849, 850, 851, 852, 853, 854, 855, 856, 857, 858, 859, 860, 861, 862, 863, 864, 865, 866, 867, 868, 869, 870, 871, 872, 873, 874, 875, 876, 877, 878, 879, 880, 881, 882, 883, 884, 885, 886, 887, 888, 889, 890, 891, 892, 893, 894, 895, 896, 897, 898, 899, 900, 901, 902, 903, 904, 905, 906, 907, 908, 909, 910, 911, 912, 913, 914],
      "AcquisitionTime": ["131328.135000", "131328.595000", "131329.055000", "131329.515000", "131329.975000", "131330.435000", "131330.895000", "131331.355000", "131331.815000", "131332.275000", "131332.735000", "131333.195000", "131333.655000", "131334.115000", "131334.575000", "131335.035000", "131335.495000", "131335.955000", "131336.415000", "131336.875000", "131337.335000", "131337.795000", "131338.255000", "131338.715000", "131339.175000", "131339.635000", "131340.095000", "131340.555000", "131341.015000", "131341.475000", "131341.935000", "131342.395000", "131342.855000", "131343.315000", "131343.775000", "131344.235000", "131344.695000", "131345.155000", "131345.615000", "131346.075000", "131346.535000", "131346.995000", "131347.455000", "131347.915000", "131348.375000", "131348.835000", "131349.295000", "131349.755000", "131350.215000", "131350.675000", "131351.135000", "131351.595000", "131352.055000", "131352.515000", "131352.975000", "131353.435000", "131353.895000", "131354.355000", "131354.815000", "131355.275000", "131355.735000", "131356.195000", "131356.655000", "131357.115000", "131357.575000", "131358.035000", "131358.495000", "131358.955000", "131359.415000", "131359.875000", "131400.335000", "131400.795000", "131401.255000", "131401.715000", "131402.175000", "131402.635000", "131403.095000", "131403.555000", "131404.015000", "131404.475000", "131404.935000", "131405.395000", "131405.855000", "131406.315000", "131406.775000", "131407.235000", "131407.695000", "131408.155000", "131408.615000", "131409.075000", "131409.535000", "131409.995000", "131410.455000", "131410.915000", "131411.375000", "131411.835000", "131412.295000", "131412.755000", "131413.215000", "131413.675000", "131414.135000", "131414.595000", "131415.055000", "131415.515000", "131415.975000", "131416.435000", "131416.895000", "131417.355000", "131417.815000", "131418.275000", "131418.735000", "131419.195000", "131419.655000", "131420.115000", "131420.575000", "131421.035000", "131421.495000", "131421.955000", "131422.415000", "131422.875000", "131423.335000", "131423.795000", "131424.255000", "131424.715000", "131425.175000", "131425.635000", "131426.095000", "131426.555000", "131427.015000", "131427.475000", "131427.935000", "131428.395000", "131428.855000", "131429.315000", "131429.775000", "131430.235000", "131430.695000", "131431.155000", "131431.615000", "131432.075000", "131432.535000", "131432.995000", "131433.455000", "131433.915000", "131434.375000", "131434.835000", "131435.295000", "131435.755000", "131436.215000", "131436.675000", "131437.135000", "131437.595000", "131438.055000", "131438.515000", "131438.975000", "131439.435000", "131439.895000", "131440.355000", "131440.815000", "131441.275000", "131441.735000", "131442.195000", "131442.655000", "131443.115000", "131443.575000", "131444.035000", "131444.495000", "131444.955000", "131445.415000", "131445.875000", "131446.335000", "131446.795000", "131447.255000", "131447.715000", "131448.175000", "131448.635000", "131449.095000", "131449.555000", "131450.015000", "131450.475000", "131450.935000", "131451.395000", "131451.855000", "131452.315000", "131452.775000", "131453.235000", "131453.695000", "131454.155000", "131454.615000", "131455.075000", "131455.535000", "131455.995000", "131456.455000", "131456.915000", "131457.375000", "131457.835000", "131458.295000", "131458.755000", "131459.215000", "131459.675000", "131500.135000", "131500.595000", "131501.055000", "131501.515000", "131501.975000", "131502.435000", "131502.895000", "131503.355000", "131503.815000", "131504.275000", "131504.735000", "131505.195000", "131505.655000", "131506.115000", "131506.575000", "131507.035000", "131507.495000", "131507.955000", "131508.415000", "131508.875000", "131509.335000", "131509.795000", "131510.255000", "131510.715000", "131511.175000", "131511.635000", "131512.095000", "131512.555000", "131513.015000", "131513.475000", "131513.935000", "131514.395000", "131514.855000", "131515.315000", "131515.775000", "131516.235000", "131516.695000", "131517.155000", "131517.615000", "131518.075000", "131518.535000", "131518.995000", "131519.455000", "131519.915000", "131520.375000", "131520.835000", "131521.295000", "131521.755000", "131522.215000", "131522.675000", "131523.135000", "131523.595000", "131524.055000", "131524.515000", "131524.975000", "131525.435000", "131525.895000", "131526.355000", "131526.815000", "131527.275000", "131527.735000", "131528.195000", "131528.655000", "131529.115000", "131529.575000", "131530.035000", "131530.495000", "131530.955000", "131531.415000", "131531.875000", "131532.335000", "131532.795000", "131533.255000", "131533.715000", "131534.175000", "131534.635000", "131535.095000", "131535.555000", "131536.015000", "131536.475000", "131536.935000", "131537.395000", "131537.855000", "131538.315000", "131538.775000", "131539.235000", "131539.695000", "131540.155000", "131540.615000", "131541.075000", "131541.535000", "131541.995000", "131542.455000", "131542.915000", "131543.375000", "131543.835000", "131544.295000", "131544.755000", "131545.215000", "131545.675000", "131546.135000", "131546.595000", "131547.055000", "131547.515000", "131547.975000", "131548.435000", "131548.895000", "131549.355000", "131549.815000", "131550.275000", "131550.735000", "131551.195000", "131551.655000", "131552.115000", "131552.575000", "131553.035000", "131553.495000", "131553.955000", "131554.415000", "131554.875000", "131555.335000", "131555.795000", "131556.255000", "131556.715000", "131557.175000", "131557.635000", "131558.095000", "131558.555000", "131559.015000", "131559.475000", "131559.935000", "131600.395000", "131600.855000", "131601.315000", "131601.775000", "131602.235000", "131602.695000", "131603.155000", "131603.615000", "131604.075000", "131604.535000", "131604.995000", "131605.455000", "131605.915000", "131606.375000", "131606.835000", "131607.295000", "131607.755000", "131608.215000", "131608.675000", "131609.135000", "131609.595000", "131610.055000", "131610.515000", "131610.975000", "131611.435000", "131611.895000", "131612.355000", "131612.815000", "131613.275000", "131613.735000", "131614.195000", "131614.655000", "131615.115000", "131615.575000", "131616.035000", "131616.495000", "131616.955000", "131617.415000", "131617.875000", "131618.335000", "131618.795000", "131619.255000", "131619.715000", "131620.175000", "131620.635000", "131621.095000", "131621.555000", "131622.015000", "131622.475000", "131622.935000", "131623.395000", "131623.855000", "131624.315000", "131624.775000", "131625.235000", "131625.695000", "131626.155000", "131626.615000", "131627.075000", "131627.535000", "131627.995000", "131628.455000", "131628.915000", "131629.375000", "131629.835000", "131630.295000", "131630.755000", "131631.215000", "131631.675000", "131632.135000", "131632.595000", "131633.055000", "131633.515000", "131633.975000", "131634.435000", "131634.895000", "131635.355000", "131635.815000", "131636.275000", "131636.735000", "131637.195000", "131637.655000", "131638.115000", "131638.575000", "131639.035000", "131639.495000", "131639.955000", "131640.415000", "131640.875000", "131641.335000", "131641.795000", "131642.255000", "131642.715000", "131643.175000", "131643.635000", "131644.095000", "131644.555000", "131645.015000", "131645.475000", "131645.935000", "131646.395000", "131646.855000", "131647.315000", "131647.775000", "131648.235000", "131648.695000", "131649.155000", "131649.615000", "131650.075000", "131650.535000", "131650.995000", "131651.455000", "131651.915000", "131652.375000", "131652.835000", "131653.295000", "131653.755000", "131654.215000", "131654.675000", "131655.135000", "131655.595000", "131656.055000", "131656.515000", "131656.975000", "131657.435000", "131657.895000", "131658.355000", "131658.815000", "131659.275000", "131659.735000", "131700.195000", "131700.655000", "131701.115000", "131701.575000", "131702.035000", "131702.495000", "131702.955000", "131703.415000", "131703.875000", "131704.335000", "131704.795000", "131705.255000", "131705.715000", "131706.175000", "131706.635000", "131707.095000", "131707.555000", "131708.015000", "131708.475000", "131708.935000", "131709.395000", "131709.855000", "131710.315000", "131710.775000", "131711.235000", "131711.695000", "131712.155000", "131712.615000", "131713.075000", "131713.535000", "131713.995000", "131714.455000", "131714.915000", "131715.375000", "131715.835000", "131716.295000", "131716.755000", "131717.215000", "131717.675000", "131718.135000", "131718.595000", "131719.055000", "131719.515000", "131719.975000", "131720.435000", "131720.895000", "131721.355000", "131721.815000", "131722.275000", "131722.735000", "131723.195000", "131723.655000", "131724.115000", "131724.575000", "131725.035000", "131725.495000", "131725.955000", "131726.415000", "131726.875000", "131727.335000", "131727.795000", "131728.255000", "131728.715000", "131729.175000", "131729.635000", "131730.095000", "131730.555000", "131731.015000", "131731.475000", "131731.935000", "131732.395000", "131732.855000", "131733.315000", "131733.775000", "131734.235000", "131734.695000", "131735.155000", "131735.615000", "131736.075000", "131736.535000", "131736.995000", "131737.455000", "131737.915000", "131738.375000", "131738.835000", "131739.295000", "131739.755000", "131740.215000", "131740.675000", "131741.135000", "131741.595000", "131742.055000", "131742.515000", "131742.975000", "131743.435000", "131743.895000", "131744.355000", "131744.815000", "131745.275000", "131745.735000", "131746.195000", "131746.655000", "131747.115000", "131747.575000", "131748.035000", "131748.495000", "131748.955000", "131749.415000", "131749.875000", "131750.335000", "131750.795000", "131751.255000", "131751.715000", "131752.175000", "131752.635000", "131753.095000", "131753.555000", "131754.015000", "131754.475000", "131754.935000", "131755.395000", "131755.855000", "131756.315000", "131756.775000", "131757.235000", "131757.695000", "131758.155000", "131758.615000", "131759.075000", "131759.535000", "131759.995000", "131800.455000", "131800.915000", "131801.375000", "131801.835000", "131802.295000", "131802.755000", "131803.215000", "131803.675000", "131804.135000", "131804.595000", "131805.055000", "131805.515000", "131805.975000", "131806.435000", "131806.895000", "131807.355000", "131807.815000", "131808.275000", "131808.735000", "131809.195000", "131809.655000", "131810.115000", "131810.575000", "131811.035000", "131811.495000", "131811.955000", "131812.415000", "131812.875000", "131813.335000", "131813.795000", "131814.255000", "131814.715000", "131815.175000", "131815.635000", "131816.095000", "131816.555000", "131817.015000", "131817.475000", "131817.935000", "131818.395000", "131818.855000", "131819.315000", "131819.775000", "131820.235000", "131820.695000", "131821.155000", "131821.615000", "131822.075000", "131822.535000", "131822.995000", "131823.455000", "131823.915000", "131824.375000", "131824.835000", "131825.295000", "131825.755000", "131826.215000", "131826.675000", "131827.135000", "131827.595000", "131828.055000", "131828.515000", "131828.975000", "131829.435000", "131829.895000", "131830.355000", "131830.815000", "131831.275000", "131831.735000", "131832.195000", "131832.655000", "131833.115000", "131833.575000", "131834.035000", "131834.495000", "131834.955000", "131835.415000", "131835.875000", "131836.335000", "131836.795000", "131837.255000", "131837.715000", "131838.175000", "131838.635000", "131839.095000", "131839.555000", "131840.015000", "131840.475000", "131840.935000", "131841.395000", "131841.855000", "131842.315000", "131842.775000", "131843.235000", "131843.695000", "131844.155000", "131844.615000", "131845.075000", "131845.535000", "131845.995000", "131846.455000", "131846.915000", "131847.375000", "131847.835000", "131848.295000", "131848.755000", "131849.215000", "131849.675000", "131850.135000", "131850.595000", "131851.055000", "131851.515000", "131851.975000", "131852.435000", "131852.895000", "131853.355000", "131853.815000", "131854.275000", "131854.735000", "131855.195000", "131855.655000", "131856.115000", "131856.575000", "131857.035000", "131857.495000", "131857.955000", "131858.415000", "131858.875000", "131859.335000", "131859.795000", "131900.255000", "131900.715000", "131901.175000", "131901.635000", "131902.095000", "131902.555000", "131903.015000", "131903.475000", "131903.935000", "131904.395000", "131904.855000", "131905.315000", "131905.775000", "131906.235000", "131906.695000", "131907.155000", "131907.615000", "131908.075000", "131908.535000", "131908.995000", "131909.455000", "131909.915000", "131910.375000", "131910.835000", "131911.295000", "131911.755000", "131912.215000", "131912.675000", "131913.135000", "131913.595000", "131914.055000", "131914.515000", "131914.975000", "131915.435000", "131915.895000", "131916.355000", "131916.815000", "131917.275000", "131917.735000", "131918.195000", "131918.655000", "131919.115000", "131919.575000", "131920.035000", "131920.495000", "131920.955000", "131921.415000", "131921.875000", "131922.335000", "131922.795000", "131923.255000", "131923.715000", "131924.175000", "131924.635000", "131925.095000", "131925.555000", "131926.015000", "131926.475000", "131926.935000", "131927.395000", "131927.855000", "131928.315000", "131928.775000", "131929.235000", "131929.695000", "131930.155000", "131930.615000", "131931.075000", "131931.535000", "131931.995000", "131932.455000", "131932.915000", "131933.375000", "131933.835000", "131934.295000", "131934.755000", "131935.215000", "131935.675000", "131936.135000", "131936.595000", "131937.055000", "131937.515000", "131937.975000", "131938.435000", "131938.895000", "131939.355000", "131939.815000", "131940.275000", "131940.735000", "131941.195000", "131941.655000", "131942.115000", "131942.575000", "131943.035000", "131943.495000", "131943.955000", "131944.415000", "131944.875000", "131945.335000", "131945.795000", "131946.255000", "131946.715000", "131947.175000", "131947.635000", "131948.095000", "131948.555000", "131949.015000", "131949.475000", "131949.935000", "131950.395000", "131950.855000", "131951.315000", "131951.775000", "131952.235000", "131952.695000", "131953.155000", "131953.615000", "131954.075000", "131954.535000", "131954.995000", "131955.455000", "131955.915000", "131956.375000", "131956.835000", "131957.295000", "131957.755000", "131958.215000", "131958.675000", "131959.135000", "131959.595000", "132000.055000", "132000.515000", "132000.975000", "132001.435000", "132001.895000", "132002.355000", "132002.815000", "132003.275000", "132003.735000", "132004.195000", "132004.655000", "132005.115000", "132005.575000", "132006.035000", "132006.495000", "132006.955000", "132007.415000", "132007.875000", "132008.335000", "132008.795000", "132009.255000", "132009.715000", "132010.175000", "132010.635000", "132011.095000", "132011.555000", "132012.015000", "132012.475000", "132012.935000", "132013.395000", "132013.855000", "132014.315000", "132014.775000", "132015.235000", "132015.695000", "132016.155000", "132016.615000", "132017.075000", "132017.535000", "132017.995000", "132018.455000", "132018.915000", "132019.375000", "132019.835000", "132020.295000", "132020.755000", "132021.215000", "132021.675000", "132022.135000", "132022.595000", "132023.055000", "132023.515000", "132023.975000", "132024.435000", "132024.895000", "132025.355000", "132025.815000", "132026.275000", "132026.735000", "132027.195000", "132027.655000", "132028.115000"],
