{
  "AcquisitionMatrixPE": 140,
  "AcquisitionNumber": 1,
  "AcquisitionTime": "08:54:24.020000",
  "BandwidthPerPixelPhaseEncode": 10.352,
  "BaseResolution": 140,
  "BodyPartExamined": "BRAIN",
  "ConsistencyInfo": "N4_VE11E_LATEST_20181129",
  "ConversionSoftware": "dcm2niix",
  "ConversionSoftwareVersion": "v1.0.20201102",
  "DerivedVendorReportedEchoSpacing": 0.000689998,
  "DeviceSerialNumber": "66112",
  "DiffusionScheme": "Monopolar",
  "DwellTime": 2.1e-06,
  "EchoTime": 0.088,
  "EchoTrainLength": 105,
  "EffectiveEchoSpacing": 0.000689998,
  "FlipAngle": 90,
  "ImageComments": "Unaliased MB3/PE3",
  "ImageOrientationPatientDICOM": [0.999968, -0.00471342, 0.00650457, 0.00453775, 0.999632, 0.0267622],
  "ImageType": [
    "ORIGINAL",
    "PRIMARY",
    "DIFFUSION",
    "NONE",
    "MB",
    "ND"
],
  "ImagingFrequency": 123.259,
  "InPlanePhaseEncodingDirectionDICOM": "COL",
  "InstitutionAddress": "Maynard 3,Hanover,NH,US,03755",
  "InstitutionName": "Dartmouth College - PBS",
  "InstitutionalDepartmentName": "Department",
  "IntendedFor": [
    "ses-01/dwi/sub-0123_ses-01_acq-96dirX6b0Xmb_dwi.nii.gz"
],
  "MRAcquisitionType": "2D",
  "MagneticFieldStrength": 3,
  "Manufacturer": "Siemens",
  "ManufacturersModelName": "Prisma",
  "Modality": "MR",
  "MultibandAccelerationFactor": 3,
  "PartialFourier": 0.75,
  "PatientPosition": "HFS",
  "PercentPhaseFOV": 100,
  "PercentSampling": 100,
  "PhaseEncodingDirection": "j-",
  "PhaseEncodingSteps": 105,
  "PhaseResolution": 1,
  "PixelBandwidth": 1700,
  "ProcedureStepDescription": "Wager_Wager^1076_spacetop",
  "ProtocolName": "dwi_acq-discorr-AP",
  "PulseSequenceDetails": "%CustomerSeq%\\cmrr_mbep2d_diff",
  "ReceiveCoilActiveElements": "HEA;HEP",
  "ReceiveCoilName": "Head_32",
  "ReconMatrixPE": 140,
  "RepetitionTime": 4.1,
  "SAR": 0.119558,
  "ScanOptions": "PFP\\FS",
  "ScanningSequence": "EP",
  "SequenceName": "ep_b0",
  "SequenceVariant": "SK\\SS",
  "SeriesDescription": "dwi_acq-discorr-AP",
  "SeriesNumber": 7,
  "ShimSetting": [4239, -7734, -7338, 134, -118, 58, -91, 101],
  "SliceThickness": 1.7,
  "SliceTiming": [0, 2.10938, 0.14844, 2.25781, 0.29688, 2.41406, 0.44531, 2.5625, 0.60156, 2.71875, 0.75, 2.86719, 0.89844, 3.01562, 1.05469, 3.17188, 1.20312, 3.32031, 1.35938, 3.46875, 1.50781, 3.625, 1.65625, 3.77344, 1.8125, 3.92188, 1.96094, 0, 2.10938, 0.14844, 2.25781, 0.29688, 2.41406, 0.44531, 2.5625, 0.60156, 2.71875, 0.75, 2.86719, 0.89844, 3.01562, 1.05469, 3.17188, 1.20312, 3.32031, 1.35938, 3.46875, 1.50781, 3.625, 1.65625, 3.77344, 1.8125, 3.92188, 1.96094, 0, 2.10938, 0.14844, 2.25781, 0.29688, 2.41406, 0.44531, 2.5625, 0.60156, 2.71875, 0.75, 2.86719, 0.89844, 3.01562, 1.05469, 3.17188, 1.20312, 3.32031, 1.35938, 3.46875, 1.50781, 3.625, 1.65625, 3.77344, 1.8125, 3.92188, 1.96094],
  "SoftwareVersions": "syngo MR E11",
  "SpacingBetweenSlices": 1.7,
  "StationName": "AWP66112",
  "TotalReadoutTime": 0.0959097,
  "TxRefAmp": 228.75,
  "WipMemBlock": "c250c634-8b24-48c5-a489-80b9aef62a23||Sequence: R016 ve11e/master r/434b28f1; Aug  7 2019 19:06:17 by eja",
  "dcmmeta_affine": [
    [-1.7142304182052612, 0.007779006380587816, 0.011268138885498047, 120.57695007324219],
    [0.008080150000751019, 1.7136540412902832, 0.04544353485107422, -111.97881317138672],
    [0.011150683276355267, -0.04587806016206741, 1.6993522644042969, -90.3863296508789],
    [0.0, 0.0, 0.0, 1.0]
],
  "dcmmeta_reorient_transform": [
    [0.0, -1.0, 0.0, 139.0],
    [1.0, 0.0, 0.0, 0.0],
    [0.0, 0.0, -1.0, 80.0],
    [0.0, 0.0, 0.0, 1.0]
],
  "dcmmeta_shape": [140, 140, 81],
  "dcmmeta_slice_dim": 2,
  "dcmmeta_version": 0.6,
  "global": {
    "const": {
      "AccessionNumber": "A004707",
      "AcquisitionMatrix": [140, 0, 0, 140],
      "AcquisitionNumber": 1,
      "AngioFlag": "N",
      "BitsAllocated": 16,
      "BitsStored": 16,
      "BodyPartExamined": "BRAIN",
      "Columns": 140,
      "EchoNumbers": 1,
      "EchoTime": 88.0,
      "EchoTrainLength": 105,
      "FlipAngle": 90.0,
      "HighBit": 15,
      "ImageOrientationPatient": [0.99996773662955, -0.0047134205553, 0.00650456506241, 0.00453775372067, 0.99963152880665, 0.02676220108399],
      "ImageType": [
        "ORIGINAL",
        "PRIMARY",
        "DIFFUSION",
        "NONE",
        "MB",
        "ND"
],
      "ImagedNucleus": "1H",
      "ImagingFrequency": 123.259141,
      "InPlanePhaseEncodingDirection": "COL",
      "MRAcquisitionType": "2D",
      "MagneticFieldStrength": 3.0,
      "Manufacturer": "SIEMENS",
      "ManufacturerModelName": "Prisma",
      "Modality": "MR",
      "NumberOfAverages": 1.0,
      "NumberOfPhaseEncodingSteps": 105,
      "PercentPhaseFieldOfView": 100.0,
      "PercentSampling": 100.0,
      "PerformedProcedureStepStartTime": "084346.241000",
      "PhotometricInterpretation": "MONOCHROME2",
      "PixelBandwidth": 1700.0,
      "PixelRepresentation": 0,
      "PixelSpacing": [1.7142857313156, 1.7142857313156],
      "ProtocolName": "dwi_acq-discorr-AP",
      "RepetitionTime": 4100.0,
      "Rows": 140,
      "SAR": 0.11955849022919,
      "SamplesPerPixel": 1,
      "ScanOptions": [
        "PFP",
        "FS"
],
      "ScanningSequence": "EP",
      "SequenceName": "ep_b0",
      "SequenceVariant": [
        "SK",
        "SS"
],
      "SeriesDescription": "dwi_acq-discorr-AP",
      "SeriesNumber": 7,
      "SeriesTime": "085429.133000",
      "SliceThickness": 1.7000000476837,
      "SmallestImagePixelValue": 0,
      "SoftwareVersions": "syngo MR E11",
      "SpacingBetweenSlices": 1.7,
      "SpecificCharacterSet": "ISO_IR 100",
      "StudyID": "1",
      "StudyTime": "084346.047000",
      "TransmitCoilName": "Body",
      "VariableFlipAngleFlag": "N",
      "WindowCenterWidthExplanation": "Algo1"
    },
    "slices": {
      "AcquisitionTime": ["085424.020000", "085426.135000", "085424.170000", "085426.285000", "085424.320000", "085426.437500", "085424.472500", "085426.587500", "085424.622500", "085426.740000", "085424.775000", "085426.890000", "085424.925000", "085427.040000", "085425.077500", "085427.192500", "085425.227500", "085427.342500", "085425.380000", "085427.495000", "085425.530000", "085427.645000", "085425.680000", "085427.797500", "085425.832500", "085427.947500", "085425.982500", "085424.020000", "085426.135000", "085424.170000", "085426.285000", "085424.320000", "085426.437500", "085424.472500", "085426.587500", "085424.622500", "085426.740000", "085424.775000", "085426.890000", "085424.925000", "085427.040000", "085425.077500", "085427.192500", "085425.227500", "085427.342500", "085425.380000", "085427.495000", "085425.530000", "085427.645000", "085425.680000", "085427.797500", "085425.832500", "085427.947500", "085425.982500", "085424.020000", "085426.135000", "085424.170000", "085426.285000", "085424.320000", "085426.437500", "085424.472500", "085426.587500", "085424.622500", "085426.740000", "085424.775000", "085426.890000", "085424.925000", "085427.040000", "085425.077500", "085427.192500", "085425.227500", "085427.342500", "085425.380000", "085427.495000", "085425.530000", "085427.645000", "085425.680000", "085427.797500", "085425.832500", "085427.947500", "085425.982500"],
      "ContentTime": ["085429.136000", "085429.221000", "085429.143000", "085429.227000", "085429.149000", "085429.233000", "085429.155000", "085429.239000", "085429.161000", "085429.245000", "085429.167000", "085429.252000", "085429.173000", "085429.259000", "085429.179000", "085429.265000", "085429.185000", "085429.271000", "085429.191000", "085429.277000", "085429.197000", "085429.284000", "085429.203000", "085429.290000", "085429.209000", "085429.299000", "085429.215000", "085429.139000", "085429.223000", "085429.145000", "085429.229000", "085429.151000", "085429.235000", "085429.157000", "085429.241000", "085429.163000", "085429.247000", "085429.169000", "085429.254000", "085429.175000", "085429.261000", "085429.181000", "085429.267000", "085429.187000", "085429.273000", "085429.193000", "085429.279000", "085429.199000", "085429.286000", "085429.205000", "085429.292000", "085429.211000", "085429.301000", "085429.217000", "085429.141000", "085429.225000", "085429.147000", "085429.231000", "085429.153000", "085429.237000", "085429.159000", "085429.243000", "085429.165000", "085429.249000", "085429.171000", "085429.256000", "085429.177000", "085429.263000", "085429.183000", "085429.269000", "085429.189000", "085429.275000", "085429.195000", "085429.282000", "085429.201000", "085429.288000", "085429.207000", "085429.294000", "085429.213000", "085429.304000", "085429.219000"],
      "CsaImage.GSWDDataType": [
        "predicted",
        "predicted",
        "predicted",
        "predicted",
        "predicted",
        "predicted",
        "predicted",
        "predicted",
        "predicted",
        "predicted",
        "predicted",
        "predicted",
        "predicted",
        "predicted",
        "predicted",
        "predicted",
        "predicted",
        "predicted",
        "predicted",
        "predicted",
        "predicted",
        "predicted",
        "predicted",
        "measured",
        "predicted",
        "measured",
        "predicted",
        "predicted",
        "predicted",
        "predicted",
        "predicted",
        "predicted",
        "predicted",
        "predicted",
        "predicted",
        "predicted",
        "predicted",
        "predicted",
        "predicted",
        "predicted",
        "predicted",
        "predicted",
        "predicted",
        "predicted",
        "predicted",
        "predicted",
        "predicted",
        "predicted",
        "predicted",
        "predicted",
        "measured",
        "predicted",
        "measured",
        "predicted",
        "predicted",
        "predicted",
        "predicted",
        "predicted",
        "predicted",
        "predicted",
        "predicted",
        "predicted",
        "predicted",
        "predicted",
        "predicted",
        "predicted",
        "predicted",
        "predicted",
        "predicted",
        "predicted",
        "predicted",
        "predicted",
        "predicted",
        "predicted",
        "predicted",
        "predicted",
        "predicted",
        "measured",
        "predicted",
        "measured",
        "predicted"
],
      "CsaImage.ICE_Dims": [
        "X_1_1_1_1_1_1_1_1_1_1_1_25",
        "X_1_1_1_1_1_1_42_1_1_2_1_25",
        "X_1_1_1_1_1_1_2_1_1_3_1_25",
        "X_1_1_1_1_1_1_43_1_1_4_1_25",
        "X_1_1_1_1_1_1_3_1_1_5_1_25",
        "X_1_1_1_1_1_1_44_1_1_6_1_25",
        "X_1_1_1_1_1_1_4_1_1_7_1_25",
        "X_1_1_1_1_1_1_45_1_1_8_1_25",
        "X_1_1_1_1_1_1_5_1_1_9_1_25",
        "X_1_1_1_1_1_1_46_1_1_10_1_25",
        "X_1_1_1_1_1_1_6_1_1_11_1_25",
        "X_1_1_1_1_1_1_47_1_1_12_1_25",
        "X_1_1_1_1_1_1_7_1_1_13_1_25",
        "X_1_1_1_1_1_1_48_1_1_14_1_25",
        "X_1_1_1_1_1_1_8_1_1_15_1_25",
        "X_1_1_1_1_1_1_49_1_1_16_1_25",
        "X_1_1_1_1_1_1_9_1_1_17_1_25",
        "X_1_1_1_1_1_1_50_1_1_18_1_25",
        "X_1_1_1_1_1_1_10_1_1_19_1_25",
        "X_1_1_1_1_1_1_51_1_1_20_1_25",
        "X_1_1_1_1_1_1_11_1_1_21_1_25",
        "X_1_1_1_1_1_1_52_1_1_22_1_25",
        "X_1_1_1_1_1_1_12_1_1_23_1_25",
        "X_1_1_1_1_1_1_53_1_1_24_1_25",
        "X_1_1_1_1_1_1_13_1_1_25_1_25",
        "X_1_1_1_1_1_1_54_1_1_26_1_25",
        "X_1_1_1_1_1_1_14_1_1_27_1_25",
        "X_1_1_1_1_1_1_55_1_1_28_1_25",
        "X_1_1_1_1_1_1_15_1_1_29_1_25",
        "X_1_1_1_1_1_1_56_1_1_30_1_25",
        "X_1_1_1_1_1_1_16_1_1_31_1_25",
        "X_1_1_1_1_1_1_57_1_1_32_1_25",
        "X_1_1_1_1_1_1_17_1_1_33_1_25",
        "X_1_1_1_1_1_1_58_1_1_34_1_25",
        "X_1_1_1_1_1_1_18_1_1_35_1_25",
        "X_1_1_1_1_1_1_59_1_1_36_1_25",
        "X_1_1_1_1_1_1_19_1_1_37_1_25",
        "X_1_1_1_1_1_1_60_1_1_38_1_25",
        "X_1_1_1_1_1_1_20_1_1_39_1_25",
        "X_1_1_1_1_1_1_61_1_1_40_1_25",
        "X_1_1_1_1_1_1_21_1_1_41_1_25",
        "X_1_1_1_1_1_1_62_1_1_42_1_25",
        "X_1_1_1_1_1_1_22_1_1_43_1_25",
        "X_1_1_1_1_1_1_63_1_1_44_1_25",
        "X_1_1_1_1_1_1_23_1_1_45_1_25",
        "X_1_1_1_1_1_1_64_1_1_46_1_25",
        "X_1_1_1_1_1_1_24_1_1_47_1_25",
        "X_1_1_1_1_1_1_65_1_1_48_1_25",
        "X_1_1_1_1_1_1_25_1_1_49_1_25",
        "X_1_1_1_1_1_1_66_1_1_50_1_25",
        "X_1_1_1_1_1_1_26_1_1_51_1_25",
        "X_1_1_1_1_1_1_67_1_1_52_1_25",
        "X_1_1_1_1_1_1_27_1_1_53_1_25",
        "X_1_1_1_1_1_1_68_1_1_54_1_25",
        "X_1_1_1_1_1_1_28_1_1_55_1_25",
        "X_1_1_1_1_1_1_69_1_1_56_1_25",
        "X_1_1_1_1_1_1_29_1_1_57_1_25",
        "X_1_1_1_1_1_1_70_1_1_58_1_25",
        "X_1_1_1_1_1_1_30_1_1_59_1_25",
        "X_1_1_1_1_1_1_71_1_1_60_1_25",
        "X_1_1_1_1_1_1_31_1_1_61_1_25",
        "X_1_1_1_1_1_1_72_1_1_62_1_25",
        "X_1_1_1_1_1_1_32_1_1_63_1_25",
        "X_1_1_1_1_1_1_73_1_1_64_1_25",
        "X_1_1_1_1_1_1_33_1_1_65_1_25",
        "X_1_1_1_1_1_1_74_1_1_66_1_25",
        "X_1_1_1_1_1_1_34_1_1_67_1_25",
        "X_1_1_1_1_1_1_75_1_1_68_1_25",
        "X_1_1_1_1_1_1_35_1_1_69_1_25",
        "X_1_1_1_1_1_1_76_1_1_70_1_25",
        "X_1_1_1_1_1_1_36_1_1_71_1_25",
        "X_1_1_1_1_1_1_77_1_1_72_1_25",
        "X_1_1_1_1_1_1_37_1_1_73_1_25",
        "X_1_1_1_1_1_1_78_1_1_74_1_25",
        "X_1_1_1_1_1_1_38_1_1_75_1_25",
        "X_1_1_1_1_1_1_79_1_1_76_1_25",
        "X_1_1_1_1_1_1_39_1_1_77_1_25",
        "X_1_1_1_1_1_1_80_1_1_78_1_25",
        "X_1_1_1_1_1_1_40_1_1_79_1_25",
        "X_1_1_1_1_1_1_81_1_1_80_1_25",
        "X_1_1_1_1_1_1_41_1_1_81_1_25"
],
      "CsaImage.ProtocolSliceNumber": [0, 1, 2, 3, 4, 5, 6, 7, 8, 9, 10, 11, 12, 13, 14, 15, 16, 17, 18, 19, 20, 21, 22, 23, 24, 25, 26, 27, 28, 29, 30, 31, 32, 33, 34, 35, 36, 37, 38, 39, 40, 41, 42, 43, 44, 45, 46, 47, 48, 49, 50, 51, 52, 53, 54, 55, 56, 57, 58, 59, 60, 61, 62, 63, 64, 65, 66, 67, 68, 69, 70, 71, 72, 73, 74, 75, 76, 77, 78, 79, 80],
      "CsaImage.RFSWDDataType": [
        "predicted",
        "predicted",
        "predicted",
        "predicted",
        "predicted",
        "predicted",
        "predicted",
        "predicted",
        "predicted",
        "predicted",
        "predicted",
        "predicted",
        "predicted",
        "predicted",
        "predicted",
        "predicted",
        "predicted",
        "predicted",
        "predicted",
        "predicted",
        "predicted",
        "predicted",
        "predicted",
        "measured",
        "predicted",
        "measured",
        "predicted",
        "predicted",
        "predicted",
        "predicted",
        "predicted",
        "predicted",
        "predicted",
        "predicted",
        "predicted",
        "predicted",
        "predicted",
        "predicted",
        "predicted",
        "predicted",
        "predicted",
        "predicted",
        "predicted",
        "predicted",
        "predicted",
        "predicted",
        "predicted",
        "predicted",
        "predicted",
        "predicted",
        "measured",
        "predicted",
        "measured",
        "predicted",
        "predicted",
        "predicted",
        "predicted",
        "predicted",
        "predicted",
        "predicted",
        "predicted",
        "predicted",
        "predicted",
        "predicted",
        "predicted",
        "predicted",
        "predicted",
        "predicted",
        "predicted",
        "predicted",
        "predicted",
        "predicted",
        "predicted",
        "predicted",
        "predicted",
        "predicted",
        "predicted",
        "measured",
        "predicted",
        "measured",
        "predicted"
],
      "CsaImage.SlicePosition_PCS": [
        [-121.65822961, -126.21905878, -96.76361079],
        [-121.66949774, -126.26450279, -95.06425471],
        [-121.68076588, -126.3099468, -93.36489863],
        [-121.69203402, -126.35539081, -91.66554256],
        [-121.70330216, -126.40083482, -89.96618648],
        [-121.7145703, -126.44627931, -88.26683803],
        [-121.72583844, -126.49172332, -86.56748195],
        [-121.73710658, -126.53716734, -84.86812587],
        [-121.7483746, -126.58261135, -83.16876979],
        [-121.75964274, -126.62805536, -81.46941371],
        [-121.77091087, -126.67349937, -79.77005763],
        [-121.78217901, -126.71894386, -78.07070155],
        [-121.79344715, -126.76438787, -76.37134547],
        [-121.80471529, -126.80983188, -74.67199702],
        [-121.81598343, -126.8552759, -72.97264094],
        [-121.82725157, -126.90071991, -71.27328487],
        [-121.83851959, -126.94616392, -69.57392879],
        [-121.84978773, -126.99160841, -67.87457271],
        [-121.86105587, -127.03705242, -66.17521663],
        [-121.87232401, -127.08249643, -64.47586436],
        [-121.88359214, -127.12794044, -62.77650828],
        [-121.89486028, -127.17338445, -61.07715221],
        [-121.90612842, -127.21882847, -59.37779613],
        [-121.91739656, -127.26427295, -57.67844386],
        [-121.9286647, -127.30971697, -55.97908778],
        [-121.93993272, -127.35516098, -54.2797317],
        [-121.95120086, -127.40060547, -52.58037562],
        [-121.962469, -127.446049, -50.88102336],
        [-121.97373714, -127.49149349, -49.18166728],
        [-121.98500528, -127.53693702, -47.4823112],
        [-121.99627341, -127.58238151, -45.78295512],
        [-122.00754155, -127.627826, -44.08360286],
        [-122.01880969, -127.67326954, -42.38424678],
        [-122.03007783, -127.71871402, -40.6848907],
        [-122.04134585, -127.76415756, -38.98553462],
        [-122.05261399, -127.80960205, -37.28618236],
        [-122.06388213, -127.85504558, -35.58682628],
        [-122.07515027, -127.90049007, -33.8874702],
        [-122.08641841, -127.94593456, -32.18811603],
        [-122.09768654, -127.99137809, -30.48875995],
        [-122.10895468, -128.03682258, -28.78940578],
        [-122.12022282, -128.08226612, -27.0900497],
        [-122.13149096, -128.12771061, -25.39069553],
        [-122.14275898, -128.1731551, -23.69133945],
        [-122.15402712, -128.21859863, -21.99198527],
        [-122.16529526, -128.26404312, -20.2926292],
        [-122.1765634, -128.30948665, -18.59327407],
        [-122.18783154, -128.35493114, -16.89391894],
        [-122.19909968, -128.40037468, -15.19456382],
        [-122.21036781, -128.44581917, -13.49520869],
        [-122.22163595, -128.49126365, -11.79585357],
        [-122.23290409, -128.53670719, -10.09649844],
        [-122.24417211, -128.58215168, -8.39714332],
        [-122.25544025, -128.62759521, -6.69778819],
        [-122.26670839, -128.6730397, -4.99843307],
        [-122.27797653, -128.71848419, -3.29907794],
        [-122.28924467, -128.76392772, -1.59972282],
        [-122.30051281, -128.80937221, 0.09963231],
        [-122.31178095, -128.85481575, 1.79898744],
        [-122.32304908, -128.90026024, 3.49834256],
        [-122.3343171, -128.94570472, 5.19769769],
        [-122.34558524, -128.99114826, 6.89705281],
        [-122.35685338, -129.03659275, 8.59640794],
        [-122.36812152, -129.08203628, 10.29576306],
        [-122.37938966, -129.12748077, 11.99511819],
        [-122.3906578, -129.17292431, 13.69447331],
        [-122.40192594, -129.21836879, 15.39382939],
        [-122.41319408, -129.26381328, 17.09318356],
        [-122.42446222, -129.30925682, 18.79253964],
        [-122.43573023, -129.35470131, 20.49189382],
        [-122.44699837, -129.40014484, 22.19124989],
        [-122.45826651, -129.44558933, 23.89060407],
        [-122.46953465, -129.49103382, 25.58996014],
        [-122.48080279, -129.53647735, 27.28931432],
        [-122.49207093, -129.58192184, 28.9886704],
        [-122.50333907, -129.62736538, 30.68802647],
        [-122.51460721, -129.67280986, 32.38737874],
        [-122.52587535, -129.7182534, 34.08673482],
        [-122.53714337, -129.76369789, 35.7860909],
        [-122.5484115, -129.80914238, 37.48544698],
        [-122.55967964, -129.85458591, 39.18479924]
],
      "CsaImage.TimeAfterStart": [16.4, 18.5175, 16.5525, 18.6675, 16.7025, 18.8175, 16.855, 18.97, 17.005, 19.12, 17.1575, 19.2725, 17.3075, 19.4225, 17.4575, 19.575, 17.61, 19.725, 17.76, 19.8775, 17.9125, 20.0275, 18.0625, 20.1775, 18.215, 20.33, 18.365, 16.4, 18.5175, 16.5525, 18.6675, 16.7025, 18.8175, 16.855, 18.97, 17.005, 19.12, 17.1575, 19.2725, 17.3075, 19.4225, 17.4575, 19.575, 17.61, 19.725, 17.76, 19.8775, 17.9125, 20.0275, 18.0625, 20.1775, 18.215, 20.33, 18.365, 16.4, 18.5175, 16.5525, 18.6675, 16.7025, 18.8175, 16.855, 18.97, 17.005, 19.12, 17.1575, 19.2725, 17.3075, 19.4225, 17.4575, 19.575, 17.61, 19.725, 17.76, 19.8775, 17.9125, 20.0275, 18.0625, 20.1775, 18.215, 20.33, 18.365],
      "ImagePositionPatient": [
        [-121.65822960526, -126.21905877779, -96.763610793143],
        [-121.66949774415, -126.26450278948, -95.064254714041],
        [-121.68076588303, -126.30994680117, -93.36489863494],
        [-121.69203402192, -126.35539081285, -91.665542555838],
        [-121.7033021608, -126.40083482454, -89.966186476736],
        [-121.71457029969, -126.44627931307, -88.266838027029],
        [-121.72583843858, -126.49172332476, -86.567481947928],
        [-121.73710657746, -126.53716733644, -84.868125868826],
        [-121.74837459714, -126.58261134813, -83.168769789725],
        [-121.75964273602, -126.62805535982, -81.469413710623],
        [-121.77091087491, -126.67349937151, -79.770057631522],
        [-121.78217901379, -126.71894386003, -78.07070155242],
        [-121.79344715268, -126.76438787172, -76.371345473318],
        [-121.80471529156, -126.80983188341, -74.671997023611],
        [-121.81598343045, -126.8552758951, -72.97264094451],
        [-121.82725156934, -126.90071990679, -71.273284865408],
        [-121.83851958901, -126.94616391848, -69.573928786307],
        [-121.8497877279, -126.991608407, -67.874572707205],
        [-121.86105586678, -127.03705241869, -66.175216628104],
        [-121.87232400567, -127.08249643038, -64.475864363699],
        [-121.88359214455, -127.12794044207, -62.776508284598],
        [-121.89486028344, -127.17338445375, -61.077152205496],
        [-121.90612842233, -127.21882846544, -59.377796126395],
        [-121.91739656121, -127.26427295397, -57.67844386199],
        [-121.9286647001, -127.30971696566, -55.979087782889],
        [-121.93993271977, -127.35516097734, -54.279731703787],
        [-121.95120085866, -127.40060546587, -52.580375624686],
        [-121.96246899754, -127.44604900072, -50.881023360281],
        [-121.97373713643, -127.49149348925, -49.18166728118],
        [-121.98500527531, -127.5369370241, -47.482311202078],
        [-121.9962734142, -127.58238151262, -45.782955122977],
        [-122.00754155309, -127.62782600115, -44.083602858572],
        [-122.01880969197, -127.673269536, -42.384246779471],
        [-122.03007783086, -127.71871402452, -40.684890700369],
        [-122.04134585053, -127.76415755938, -38.985534621268],
        [-122.05261398942, -127.8096020479, -37.286182356863],
        [-122.0638821283, -127.85504558275, -35.586826277762],
        [-122.07515026719, -127.90049007128, -33.88747019866],
        [-122.08641840607, -127.9459345598, -32.188116026907],
        [-122.09768654496, -127.99137809465, -30.488759947806],
        [-122.10895468385, -128.03682258318, -28.789405776053],
        [-122.12022282273, -128.08226611803, -27.090049696951],
        [-122.13149096162, -128.12771060656, -25.390695525198],
        [-122.14275898129, -128.17315509508, -23.691339446097],
        [-122.15402712018, -128.21859862993, -21.991985274344],
        [-122.16529525906, -128.26404311846, -20.292629195242],
        [-122.17656339795, -128.30948665331, -18.593274069815],
        [-122.18783153683, -128.35493114183, -16.893918944388],
        [-122.19909967572, -128.40037467669, -15.194563818961],
        [-122.21036781461, -128.44581916521, -13.495208693533],
        [-122.22163595349, -128.49126365374, -11.795853568106],
        [-122.23290409238, -128.53670718859, -10.096498442679],
        [-122.24417211205, -128.58215167711, -8.3971433172516],
        [-122.25544025094, -128.62759521196, -6.6977881918243],
        [-122.26670838982, -128.67303970049, -4.9984330663971],
        [-122.27797652871, -128.71848418901, -3.2990779409698],
        [-122.28924466759, -128.76392772387, -1.5997228155426],
        [-122.30051280648, -128.80937221239, 0.09963230988466],
        [-122.31178094537, -128.85481574724, 1.7989874353119],
        [-122.32304908425, -128.90026023577, 3.4983425607392],
        [-122.33431710393, -128.94570472429, 5.1976976861664],
        [-122.34558524281, -128.99114825914, 6.8970528115936],
        [-122.3568533817, -129.03659274767, 8.5964079370209],
        [-122.36812152058, -129.08203628252, 10.295763062448],
        [-122.37938965947, -129.12748077105, 11.995118187875],
        [-122.39065779836, -129.1729243059, 13.694473313303],
        [-122.40192593724, -129.21836879442, 15.393829392404],
        [-122.41319407613, -129.26381328295, 17.093183564157],
        [-122.42446221501, -129.3092568178, 18.792539643259],
        [-122.43573023469, -129.35470130632, 20.491893815012],
        [-122.44699837357, -129.40014484118, 22.191249894113],
        [-122.45826651246, -129.4455893297, 23.890604065866],
        [-122.46953465134, -129.49103381823, 25.589960144968],
        [-122.48080279023, -129.53647735308, 27.289314316721],
        [-122.49207092912, -129.5819218416, 28.988670395822],
        [-122.503339068, -129.62736537645, 30.688026474924],
        [-122.51460720689, -129.67280986498, 32.387378739328],
        [-122.52587534577, -129.71825339983, 34.08673481843],
        [-122.53714336545, -129.76369788836, 35.786090897531],
        [-122.54841150433, -129.80914237688, 37.485446976633],
        [-122.55967964322, -129.85458591173, 39.184799241037]
],
      "InstanceCreationTime": ["085429.136000", "085429.221000", "085429.143000", "085429.227000", "085429.149000", "085429.233000", "085429.155000", "085429.239000", "085429.161000", "085429.245000", "085429.167000", "085429.252000", "085429.173000", "085429.259000", "085429.179000", "085429.265000", "085429.185000", "085429.271000", "085429.191000", "085429.277000", "085429.197000", "085429.284000", "085429.203000", "085429.290000", "085429.209000", "085429.299000", "085429.215000", "085429.139000", "085429.223000", "085429.145000", "085429.229000", "085429.151000", "085429.235000", "085429.157000", "085429.241000", "085429.163000", "085429.247000", "085429.169000", "085429.254000", "085429.175000", "085429.261000", "085429.181000", "085429.267000", "085429.187000", "085429.273000", "085429.193000", "085429.279000", "085429.199000", "085429.286000", "085429.205000", "085429.292000", "085429.211000", "085429.301000", "085429.217000", "085429.141000", "085429.225000", "085429.147000", "085429.231000", "085429.153000", "085429.237000", "085429.159000", "085429.243000", "085429.165000", "085429.249000", "085429.171000", "085429.256000", "085429.177000", "085429.263000", "085429.183000", "085429.269000", "085429.189000", "085429.275000", "085429.195000", "085429.282000", "085429.201000", "085429.288000", "085429.207000", "085429.294000", "085429.213000", "085429.304000", "085429.219000"],
      "InstanceNumber": [1, 2, 3, 4, 5, 6, 7, 8, 9, 10, 11, 12, 13, 14, 15, 16, 17, 18, 19, 20, 21, 22, 23, 24, 25, 26, 27, 28, 29, 30, 31, 32, 33, 34, 35, 36, 37, 38, 39, 40, 41, 42, 43, 44, 45, 46, 47, 48, 49, 50, 51, 52, 53, 54, 55, 56, 57, 58, 59, 60, 61, 62, 63, 64, 65, 66, 67, 68, 69, 70, 71, 72, 73, 74, 75, 76, 77, 78, 79, 80, 81],
      "LargestImagePixelValue": [23448, 32326, 25259, 16542, 17384, 14817, 21120, 28496, 25647, 30888, 28047, 28431, 40426, 38896, 34604, 48678, 36994, 34446, 35821, 48549, 55498, 59070, 56867, 64969, 63845, 45002, 37524, 42143, 50156, 42208, 49710, 52893, 43783, 38261, 62031, 46390, 35953, 35657, 39288, 46887, 35845, 32796, 42719, 38813, 40395, 35290, 40826, 36659, 52487, 62203, 54014, 56357, 47177, 46014, 41363, 39013, 43544, 45158, 43532, 51659, 45817, 46960, 49269, 45313, 44975, 40816, 36461, 42579, 39401, 36992, 42062, 41331, 54964, 41672, 42735, 40387, 15094, 10618, 12295, 13497, 13753],
      "SliceLocation": [-92.546451241506, -90.846450296585, -89.146449351664, -87.446448406743, -85.746447461823, -84.046454130655, -82.346453185735, -80.646452240814, -78.946451296683, -77.246450351762, -75.546449406841, -73.846448449174, -72.146447504253, -70.446454185833, -68.746453240912, -67.046452295991, -65.34645135186, -63.646450394193, -61.946449449272, -60.246452317601, -58.546451372681, -56.84645042776, -55.146449482839, -53.446452338422, -51.746451393501, -50.04645044937, -48.346449491703, -46.646452372779, -44.946451415111, -43.246450482937, -41.54644952527, -39.846452380852, -38.146451448678, -36.446450491011, -34.746449559627, -33.046452415209, -31.346451483035, -29.646450525368, -27.946451474325, -26.246450542151, -24.546451491109, -22.846450558935, -21.146451507892, -19.446450551015, -17.746451525466, -16.046450567798, -14.346450588937, -12.646450584582, -10.94645060572, -9.2464506013652, -7.5464505970102, -5.8464506181486, -4.1464506145838, -2.4464506357222, -0.7464506313672, 0.95354937298774, 2.6535493518493, 4.3535493562043, 6.0535493350658, 7.7535493394208, 9.4535493429856, 11.153549321847, 12.853549326202, 14.553549305064, 16.253549309419, 17.95354928828, 19.653550245948, 21.35354929699, 23.053550229164, 24.753549279417, 26.453550211591, 28.153549262633, 29.853550220301, 31.55354924585, 33.253550203517, 34.953551135691, 36.653548280109, 38.353549212283, 40.05355016916, 41.753551126828, 43.453548245752],
