{
  "AcquisitionMatrixPE": 82,
  "AcquisitionNumber": 1,
  "AcquisitionTime": "19:18:13.362500",
  "BandwidthPerPixelPhaseEncode": 24.888,
  "BaseResolution": 82,
  "BodyPartExamined": "BRAIN",
  "ConsistencyInfo": "N4_VE11E_LATEST_20181129",
  "ConversionSoftware": "dcm2niix",
  "ConversionSoftwareVersion": "v1.0.20201102",
  "DerivedVendorReportedEchoSpacing": 0.00049,
  "DeviceSerialNumber": "66112",
  "DwellTime": 2e-06,
  "EchoTime": 0.0272,
  "EchoTrainLength": 82,
  "EffectiveEchoSpacing": 0.00049,
  "FlipAngle": 44,
  "ImageComments": "Unaliased MB8/PE3",
  "ImageOrientationPatientDICOM": [0.999228, 0.0349686, -0.0178879, -0.0336716, 0.997097, 0.068286],
  "ImageType": [
    "ORIGINAL",
    "PRIMARY",
    "M",
    "MB",
    "ND",
    "NORM",
    "MOSAIC"
],
  "ImagingFrequency": 123.259,
  "InPlanePhaseEncodingDirectionDICOM": "COL",
  "InstitutionAddress": "Maynard 3,Hanover,NH,US,03755",
  "InstitutionName": "Dartmouth College - PBS",
  "InstitutionalDepartmentName": "Department",
  "MRAcquisitionType": "2D",
  "MagneticFieldStrength": 3,
  "Manufacturer": "Siemens",
  "ManufacturersModelName": "Prisma",
  "Modality": "MR",
  "MultibandAccelerationFactor": 8,
  "PartialFourier": 1,
  "PatientPosition": "HFS",
  "PercentPhaseFOV": 100,
  "PercentSampling": 100,
  "PhaseEncodingDirection": "j-",
  "PhaseEncodingSteps": 82,
  "PhaseResolution": 1,
  "PixelBandwidth": 3050,
  "ProcedureStepDescription": "Wager_Wager^1076_spacetop",
  "ProtocolName": "func_run-06_task-social_acq-ap-mb8",
  "PulseSequenceDetails": "%CustomerSeq%\\cmrr_mbep2d_bold",
  "ReceiveCoilActiveElements": "HEA;HEP",
  "ReceiveCoilName": "Head_32",
  "ReconMatrixPE": 82,
  "RepetitionTime": 0.46,
  "SAR": 0.0846848,
  "ScanOptions": "FS",
  "ScanningSequence": "EP",
  "SequenceName": "epfid2d1_82",
  "SequenceVariant": "SK\\SS",
  "SeriesDescription": "func_run-06_task-social_acq-ap-mb8",
  "SeriesNumber": 22,
  "ShimSetting": [4223, -7659, -7103, 778, -68, 199, -270, 59],
  "SliceThickness": 2.7,
  "SliceTiming": [0, 0.25, 0.0625, 0.315, 0.125, 0.3775, 0.1875, 0, 0.25, 0.0625, 0.315, 0.125, 0.3775, 0.1875, 0, 0.25, 0.0625, 0.315, 0.125, 0.3775, 0.1875, 0, 0.25, 0.0625, 0.315, 0.125, 0.3775, 0.1875, 0, 0.25, 0.0625, 0.315, 0.125, 0.3775, 0.1875, 0, 0.25, 0.0625, 0.315, 0.125, 0.3775, 0.1875, 0, 0.25, 0.0625, 0.315, 0.125, 0.3775, 0.1875, 0, 0.25, 0.0625, 0.315, 0.125, 0.3775, 0.1875],
  "SoftwareVersions": "syngo MR E11",
  "SpacingBetweenSlices": 2.7,
  "StationName": "AWP66112",
  "TaskName": "social",
  "TotalReadoutTime": 0.03969,
  "TxRefAmp": 233.418,
  "WipMemBlock": "7c0fc457-59de-45ac-b843-1f9f4be77d7b||Sequence: R016 ve11e/master r/434b28f1; Aug  7 2019 18:53:46 by eja",
  "dcmmeta_affine": [
    [-2.680856466293335, -0.0903383418917656, -0.0546044185757637, 118.17657470703125],
    [-0.09381812810897827, 2.6751394271850586, 0.18260374665260315, -101.6076889038086],
    [-0.04799196869134903, -0.18320642411708832, 2.6932644844055176, -47.46393966674805],
    [0.0, 0.0, 0.0, 1.0]
],
  "dcmmeta_reorient_transform": [
    [0.0, -1.0, 0.0, 81.0],
    [1.0, 0.0, 0.0, 0.0],
    [0.0, 0.0, 1.0, 0.0],
    [0.0, 0.0, 0.0, 1.0]
],
  "dcmmeta_shape": [82, 82, 56, 872],
  "dcmmeta_slice_dim": 2,
  "dcmmeta_version": 0.6,
  "global": {
    "const": {
      "AccessionNumber": "A004784",
      "AcquisitionMatrix": [82, 0, 0, 82],
      "AngioFlag": "N",
      "BitsAllocated": 16,
      "BitsStored": 16,
      "BodyPartExamined": "BRAIN",
      "Columns": 656,
      "EchoNumbers": 1,
      "EchoTime": 27.2,
      "EchoTrainLength": 82,
      "FlipAngle": 44.0,
      "HighBit": 15,
      "ImageOrientationPatient": [0.99922831292197, 0.03496857349912, -0.017887915545, -0.0336715632441, 0.99709740953026, 0.06828602885466],
      "ImagePositionPatient": [-854.33788535157, -909.76943135256, -101.1102093917],
      "ImageType": [
        "ORIGINAL",
        "PRIMARY",
        "M",
        "MB",
        "ND",
        "NORM",
        "MOSAIC"
],
      "ImagedNucleus": "1H",
      "ImagingFrequency": 123.259095,
      "InPlanePhaseEncodingDirection": "COL",
      "MRAcquisitionType": "2D",
      "MagneticFieldStrength": 3.0,
      "Manufacturer": "SIEMENS",
      "ManufacturerModelName": "Prisma",
      "Modality": "MR",
      "NumberOfAverages": 1.0,
      "NumberOfPhaseEncodingSteps": 82,
      "PercentPhaseFieldOfView": 100.0,
      "PercentSampling": 100.0,
      "PerformedProcedureStepStartTime": "174802.279000",
      "PhotometricInterpretation": "MONOCHROME2",
      "PixelBandwidth": 3050.0,
      "PixelRepresentation": 0,
      "PixelSpacing": [2.6829268932343, 2.6829268932343],
      "ProtocolName": "func_run-06_task-social_acq-ap-mb8",
      "RepetitionTime": 460.0,
      "Rows": 656,
      "SAR": 0.08468479279538,
      "SamplesPerPixel": 1,
      "ScanOptions": "FS",
      "ScanningSequence": "EP",
      "SequenceName": "epfid2d1_82",
      "SequenceVariant": [
        "SK",
        "SS"
],
      "SeriesDescription": "func_run-06_task-social_acq-ap-mb8",
      "SeriesNumber": 22,
      "SeriesTime": "191828.688000",
      "SliceLocation": -56.607355927328,
      "SliceThickness": 2.7000000476837,
      "SmallestImagePixelValue": 0,
      "SoftwareVersions": "syngo MR E11",
      "SpacingBetweenSlices": 2.6999999585324,
      "SpecificCharacterSet": "ISO_IR 100",
      "StudyID": "1",
      "StudyTime": "174802.199000",
      "TransmitCoilName": "Body",
      "VariableFlipAngleFlag": "N",
      "WindowCenterWidthExplanation": "Algo1"
    },
    "slices": {}
  },
  "time": {
    "samples": {
      "AcquisitionNumber": [1, 2, 3, 4, 5, 6, 7, 8, 9, 10, 11, 12, 13, 14, 15, 16, 17, 18, 19, 20, 21, 22, 23, 24, 25, 26, 27, 28, 29, 30, 31, 32, 33, 34, 35, 36, 37, 38, 39, 40, 41, 42, 43, 44, 45, 46, 47, 48, 49, 50, 51, 52, 53, 54, 55, 56, 57, 58, 59, 60, 61, 62, 63, 64, 65, 66, 67, 68, 69, 70, 71, 72, 73, 74, 75, 76, 77, 78, 79, 80, 81, 82, 83, 84, 85, 86, 87, 88, 89, 90, 91, 92, 93, 94, 95, 96, 97, 98, 99, 100, 101, 102, 103, 104, 105, 106, 107, 108, 109, 110, 111, 112, 113, 114, 115, 116, 117, 118, 119, 120, 121, 122, 123, 124, 125, 126, 127, 128, 129, 130, 131, 132, 133, 134, 135, 136, 137, 138, 139, 140, 141, 142, 143, 144, 145, 146, 147, 148, 149, 150, 151, 152, 153, 154, 155, 156, 157, 158, 159, 160, 161, 162, 163, 164, 165, 166, 167, 168, 169, 170, 171, 172, 173, 174, 175, 176, 177, 178, 179, 180, 181, 182, 183, 184, 185, 186, 187, 188, 189, 190, 191, 192, 193, 194, 195, 196, 197, 198, 199, 200, 201, 202, 203, 204, 205, 206, 207, 208, 209, 210, 211, 212, 213, 214, 215, 216, 217, 218, 219, 220, 221, 222, 223, 224, 225, 226, 227, 228, 229, 230, 231, 232, 233, 234, 235, 236, 237, 238, 239, 240, 241, 242, 243, 244, 245, 246, 247, 248, 249, 250, 251, 252, 253, 254, 255, 256, 257, 258, 259, 260, 261, 262, 263, 264, 265, 266, 267, 268, 269, 270, 271, 272, 273, 274, 275, 276, 277, 278, 279, 280, 281, 282, 283, 284, 285, 286, 287, 288, 289, 290, 291, 292, 293, 294, 295, 296, 297, 298, 299, 300, 301, 302, 303, 304, 305, 306, 307, 308, 309, 310, 311, 312, 313, 314, 315, 316, 317, 318, 319, 320, 321, 322, 323, 324, 325, 326, 327, 328, 329, 330, 331, 332, 333, 334, 335, 336, 337, 338, 339, 340, 341, 342, 343, 344, 345, 346, 347, 348, 349, 350, 351, 352, 353, 354, 355, 356, 357, 358, 359, 360, 361, 362, 363, 364, 365, 366, 367, 368, 369, 370, 371, 372, 373, 374, 375, 376, 377, 378, 379, 380, 381, 382, 383, 384, 385, 386, 387, 388, 389, 390, 391, 392, 393, 394, 395, 396, 397, 398, 399, 400, 401, 402, 403, 404, 405, 406, 407, 408, 409, 410, 411, 412, 413, 414, 415, 416, 417, 418, 419, 420, 421, 422, 423, 424, 425, 426, 427, 428, 429, 430, 431, 432, 433, 434, 435, 436, 437, 438, 439, 440, 441, 442, 443, 444, 445, 446, 447, 448, 449, 450, 451, 452, 453, 454, 455, 456, 457, 458, 459, 460, 461, 462, 463, 464, 465, 466, 467, 468, 469, 470, 471, 472, 473, 474, 475, 476, 477, 478, 479, 480, 481, 482, 483, 484, 485, 486, 487, 488, 489, 490, 491, 492, 493, 494, 495, 496, 497, 498, 499, 500, 501, 502, 503, 504, 505, 506, 507, 508, 509, 510, 511, 512, 513, 514, 515, 516, 517, 518, 519, 520, 521, 522, 523, 524, 525, 526, 527, 528, 529, 530, 531, 532, 533, 534, 535, 536, 537, 538, 539, 540, 541, 542, 543, 544, 545, 546, 547, 548, 549, 550, 551, 552, 553, 554, 555, 556, 557, 558, 559, 560, 561, 562, 563, 564, 565, 566, 567, 568, 569, 570, 571, 572, 573, 574, 575, 576, 577, 578, 579, 580, 581, 582, 583, 584, 585, 586, 587, 588, 589, 590, 591, 592, 593, 594, 595, 596, 597, 598, 599, 600, 601, 602, 603, 604, 605, 606, 607, 608, 609, 610, 611, 612, 613, 614, 615, 616, 617, 618, 619, 620, 621, 622, 623, 624, 625, 626, 627, 628, 629, 630, 631, 632, 633, 634, 635, 636, 637, 638, 639, 640, 641, 642, 643, 644, 645, 646, 647, 648, 649, 650, 651, 652, 653, 654, 655, 656, 657, 658, 659, 660, 661, 662, 663, 664, 665, 666, 667, 668, 669, 670, 671, 672, 673, 674, 675, 676, 677, 678, 679, 680, 681, 682, 683, 684, 685, 686, 687, 688, 689, 690, 691, 692, 693, 694, 695, 696, 697, 698, 699, 700, 701, 702, 703, 704, 705, 706, 707, 708, 709, 710, 711, 712, 713, 714, 715, 716, 717, 718, 719, 720, 721, 722, 723, 724, 725, 726, 727, 728, 729, 730, 731, 732, 733, 734, 735, 736, 737, 738, 739, 740, 741, 742, 743, 744, 745, 746, 747, 748, 749, 750, 751, 752, 753, 754, 755, 756, 757, 758, 759, 760, 761, 762, 763, 764, 765, 766, 767, 768, 769, 770, 771, 772, 773, 774, 775, 776, 777, 778, 779, 780, 781, 782, 783, 784, 785, 786, 787, 788, 789, 790, 791, 792, 793, 794, 795, 796, 797, 798, 799, 800, 801, 802, 803, 804, 805, 806, 807, 808, 809, 810, 811, 812, 813, 814, 815, 816, 817, 818, 819, 820, 821, 822, 823, 824, 825, 826, 827, 828, 829, 830, 831, 832, 833, 834, 835, 836, 837, 838, 839, 840, 841, 842, 843, 844, 845, 846, 847, 848, 849, 850, 851, 852, 853, 854, 855, 856, 857, 858, 859, 860, 861, 862, 863, 864, 865, 866, 867, 868, 869, 870, 871, 872],
      "AcquisitionTime": ["191813.362500", "191813.822500", "191814.282500", "191814.742500", "191815.202500", "191815.662500", "191816.122500", "191816.582500", "191817.042500", "191817.502500", "191817.962500", "191818.422500", "191818.882500", "191819.342500", "191819.802500", "191820.262500", "191820.722500", "191821.182500", "191821.642500", "191822.102500", "191822.562500", "191823.022500", "191823.482500", "191823.942500", "191824.402500", "191824.862500", "191825.322500", "191825.782500", "191826.242500", "191826.702500", "191827.162500", "191827.622500", "191828.082500", "191828.542500", "191829.002500", "191829.462500", "191829.922500", "191830.382500", "191830.842500", "191831.302500", "191831.762500", "191832.222500", "191832.682500", "191833.142500", "191833.602500", "191834.062500", "191834.522500", "191834.982500", "191835.442500", "191835.902500", "191836.362500", "191836.822500", "191837.282500", "191837.742500", "191838.202500", "191838.662500", "191839.122500", "191839.582500", "191840.042500", "191840.502500", "191840.962500", "191841.422500", "191841.882500", "191842.342500", "191842.802500", "191843.262500", "191843.722500", "191844.182500", "191844.642500", "191845.102500", "191845.562500", "191846.022500", "191846.482500", "191846.942500", "191847.402500", "191847.862500", "191848.322500", "191848.782500", "191849.242500", "191849.702500", "191850.162500", "191850.622500", "191851.082500", "191851.542500", "191852.002500", "191852.462500", "191852.922500", "191853.382500", "191853.842500", "191854.302500", "191854.762500", "191855.222500", "191855.682500", "191856.142500", "191856.602500", "191857.062500", "191857.522500", "191857.982500", "191858.442500", "191858.902500", "191859.362500", "191859.822500", "191900.282500", "191900.742500", "191901.202500", "191901.662500", "191902.122500", "191902.582500", "191903.042500", "191903.502500", "191903.962500", "191904.422500", "191904.882500", "191905.342500", "191905.802500", "191906.262500", "191906.722500", "191907.182500", "191907.642500", "191908.102500", "191908.562500", "191909.022500", "191909.482500", "191909.942500", "191910.402500", "191910.862500", "191911.322500", "191911.782500", "191912.242500", "191912.702500", "191913.162500", "191913.622500", "191914.082500", "191914.542500", "191915.002500", "191915.462500", "191915.922500", "191916.382500", "191916.842500", "191917.302500", "191917.762500", "191918.222500", "191918.682500", "191919.142500", "191919.602500", "191920.062500", "191920.522500", "191920.982500", "191921.442500", "191921.902500", "191922.362500", "191922.822500", "191923.282500", "191923.742500", "191924.202500", "191924.662500", "191925.122500", "191925.582500", "191926.042500", "191926.502500", "191926.962500", "191927.422500", "191927.882500", "191928.342500", "191928.802500", "191929.262500", "191929.722500", "191930.182500", "191930.642500", "191931.102500", "191931.562500", "191932.022500", "191932.482500", "191932.942500", "191933.402500", "191933.862500", "191934.322500", "191934.782500", "191935.242500", "191935.702500", "191936.162500", "191936.622500", "191937.082500", "191937.542500", "191938.002500", "191938.462500", "191938.922500", "191939.382500", "191939.842500", "191940.302500", "191940.762500", "191941.222500", "191941.682500", "191942.142500", "191942.602500", "191943.062500", "191943.522500", "191943.982500", "191944.442500", "191944.902500", "191945.362500", "191945.822500", "191946.282500", "191946.742500", "191947.202500", "191947.662500", "191948.122500", "191948.582500", "191949.042500", "191949.502500", "191949.962500", "191950.422500", "191950.882500", "191951.342500", "191951.802500", "191952.262500", "191952.722500", "191953.182500", "191953.642500", "191954.102500", "191954.562500", "191955.022500", "191955.482500", "191955.942500", "191956.402500", "191956.862500", "191957.322500", "191957.782500", "191958.242500", "191958.702500", "191959.162500", "191959.622500", "192000.082500", "192000.542500", "192001.002500", "192001.462500", "192001.922500", "192002.382500", "192002.842500", "192003.302500", "192003.762500", "192004.222500", "192004.682500", "192005.142500", "192005.602500", "192006.062500", "192006.522500", "192006.982500", "192007.442500", "192007.902500", "192008.362500", "192008.822500", "192009.282500", "192009.742500", "192010.202500", "192010.662500", "192011.122500", "192011.582500", "192012.042500", "192012.502500", "192012.962500", "192013.422500", "192013.882500", "192014.342500", "192014.802500", "192015.262500", "192015.722500", "192016.182500", "192016.642500", "192017.102500", "192017.562500", "192018.022500", "192018.482500", "192018.942500", "192019.402500", "192019.862500", "192020.322500", "192020.782500", "192021.242500", "192021.702500", "192022.162500", "192022.622500", "192023.082500", "192023.542500", "192024.002500", "192024.462500", "192024.922500", "192025.382500", "192025.842500", "192026.302500", "192026.762500", "192027.222500", "192027.682500", "192028.142500", "192028.602500", "192029.062500", "192029.522500", "192029.982500", "192030.442500", "192030.902500", "192031.362500", "192031.822500", "192032.282500", "192032.742500", "192033.202500", "192033.662500", "192034.122500", "192034.582500", "192035.042500", "192035.502500", "192035.962500", "192036.422500", "192036.882500", "192037.342500", "192037.802500", "192038.262500", "192038.722500", "192039.182500", "192039.642500", "192040.102500", "192040.562500", "192041.022500", "192041.482500", "192041.942500", "192042.402500", "192042.862500", "192043.322500", "192043.782500", "192044.242500", "192044.702500", "192045.162500", "192045.622500", "192046.082500", "192046.542500", "192047.002500", "192047.462500", "192047.922500", "192048.382500", "192048.842500", "192049.302500", "192049.762500", "192050.222500", "192050.682500", "192051.142500", "192051.602500", "192052.062500", "192052.522500", "192052.982500", "192053.442500", "192053.902500", "192054.362500", "192054.822500", "192055.282500", "192055.742500", "192056.202500", "192056.662500", "192057.122500", "192057.582500", "192058.042500", "192058.502500", "192058.962500", "192059.422500", "192059.882500", "192100.342500", "192100.802500", "192101.262500", "192101.722500", "192102.182500", "192102.642500", "192103.102500", "192103.562500", "192104.022500", "192104.482500", "192104.942500", "192105.402500", "192105.862500", "192106.322500", "192106.782500", "192107.242500", "192107.702500", "192108.162500", "192108.622500", "192109.082500", "192109.542500", "192110.002500", "192110.462500", "192110.922500", "192111.382500", "192111.842500", "192112.302500", "192112.762500", "192113.222500", "192113.682500", "192114.142500", "192114.602500", "192115.062500", "192115.522500", "192115.982500", "192116.442500", "192116.902500", "192117.362500", "192117.822500", "192118.282500", "192118.742500", "192119.202500", "192119.662500", "192120.122500", "192120.582500", "192121.042500", "192121.502500", "192121.962500", "192122.422500", "192122.882500", "192123.342500", "192123.802500", "192124.262500", "192124.722500", "192125.182500", "192125.642500", "192126.102500", "192126.562500", "192127.022500", "192127.482500", "192127.942500", "192128.402500", "192128.862500", "192129.322500", "192129.782500", "192130.242500", "192130.702500", "192131.162500", "192131.622500", "192132.082500", "192132.542500", "192133.002500", "192133.462500", "192133.922500", "192134.382500", "192134.842500", "192135.302500", "192135.762500", "192136.222500", "192136.682500", "192137.142500", "192137.602500", "192138.062500", "192138.522500", "192138.982500", "192139.442500", "192139.902500", "192140.362500", "192140.822500", "192141.282500", "192141.742500", "192142.202500", "192142.662500", "192143.122500", "192143.582500", "192144.042500", "192144.502500", "192144.962500", "192145.422500", "192145.882500", "192146.342500", "192146.802500", "192147.262500", "192147.722500", "192148.182500", "192148.642500", "192149.102500", "192149.562500", "192150.022500", "192150.482500", "192150.942500", "192151.402500", "192151.862500", "192152.322500", "192152.782500", "192153.242500", "192153.702500", "192154.162500", "192154.622500", "192155.082500", "192155.542500", "192156.002500", "192156.462500", "192156.922500", "192157.382500", "192157.842500", "192158.302500", "192158.762500", "192159.222500", "192159.682500", "192200.142500", "192200.602500", "192201.062500", "192201.522500", "192201.982500", "192202.442500", "192202.902500", "192203.362500", "192203.822500", "192204.282500", "192204.742500", "192205.202500", "192205.662500", "192206.122500", "192206.582500", "192207.042500", "192207.502500", "192207.962500", "192208.422500", "192208.882500", "192209.342500", "192209.802500", "192210.262500", "192210.722500", "192211.182500", "192211.642500", "192212.102500", "192212.562500", "192213.022500", "192213.482500", "192213.942500", "192214.402500", "192214.862500", "192215.322500", "192215.782500", "192216.242500", "192216.702500", "192217.162500", "192217.622500", "192218.082500", "192218.542500", "192219.002500", "192219.462500", "192219.922500", "192220.382500", "192220.842500", "192221.302500", "192221.762500", "192222.222500", "192222.682500", "192223.142500", "192223.602500", "192224.062500", "192224.522500", "192224.982500", "192225.442500", "192225.902500", "192226.362500", "192226.822500", "192227.282500", "192227.742500", "192228.202500", "192228.662500", "192229.122500", "192229.582500", "192230.042500", "192230.502500", "192230.962500", "192231.422500", "192231.882500", "192232.342500", "192232.802500", "192233.262500", "192233.722500", "192234.182500", "192234.642500", "192235.102500", "192235.562500", "192236.022500", "192236.482500", "192236.942500", "192237.402500", "192237.862500", "192238.322500", "192238.782500", "192239.242500", "192239.702500", "192240.162500", "192240.622500", "192241.082500", "192241.542500", "192242.002500", "192242.462500", "192242.922500", "192243.382500", "192243.842500", "192244.302500", "192244.762500", "192245.222500", "192245.682500", "192246.142500", "192246.602500", "192247.062500", "192247.522500", "192247.982500", "192248.442500", "192248.902500", "192249.362500", "192249.822500", "192250.282500", "192250.742500", "192251.202500", "192251.662500", "192252.122500", "192252.582500", "192253.042500", "192253.502500", "192253.962500", "192254.422500", "192254.882500", "192255.342500", "192255.802500", "192256.262500", "192256.722500", "192257.182500", "192257.642500", "192258.102500", "192258.562500", "192259.022500", "192259.482500", "192259.942500", "192300.402500", "192300.862500", "192301.322500", "192301.782500", "192302.242500", "192302.702500", "192303.162500", "192303.622500", "192304.082500", "192304.542500", "192305.002500", "192305.462500", "192305.922500", "192306.382500", "192306.842500", "192307.302500", "192307.762500", "192308.222500", "192308.682500", "192309.142500", "192309.602500", "192310.062500", "192310.522500", "192310.982500", "192311.442500", "192311.902500", "192312.362500", "192312.822500", "192313.282500", "192313.742500", "192314.202500", "192314.662500", "192315.122500", "192315.582500", "192316.042500", "192316.502500", "192316.962500", "192317.422500", "192317.882500", "192318.342500", "192318.802500", "192319.262500", "192319.722500", "192320.182500", "192320.642500", "192321.102500", "192321.562500", "192322.022500", "192322.482500", "192322.942500", "192323.402500", "192323.862500", "192324.322500", "192324.782500", "192325.242500", "192325.702500", "192326.162500", "192326.622500", "192327.082500", "192327.542500", "192328.002500", "192328.462500", "192328.922500", "192329.382500", "192329.842500", "192330.302500", "192330.762500", "192331.222500", "192331.682500", "192332.142500", "192332.602500", "192333.062500", "192333.522500", "192333.982500", "192334.442500", "192334.902500", "192335.362500", "192335.822500", "192336.282500", "192336.742500", "192337.202500", "192337.662500", "192338.122500", "192338.582500", "192339.042500", "192339.502500", "192339.962500", "192340.422500", "192340.882500", "192341.342500", "192341.802500", "192342.262500", "192342.722500", "192343.182500", "192343.642500", "192344.102500", "192344.562500", "192345.022500", "192345.482500", "192345.942500", "192346.402500", "192346.862500", "192347.322500", "192347.782500", "192348.242500", "192348.702500", "192349.162500", "192349.622500", "192350.082500", "192350.542500", "192351.002500", "192351.462500", "192351.922500", "192352.382500", "192352.842500", "192353.302500", "192353.762500", "192354.222500", "192354.682500", "192355.142500", "192355.602500", "192356.062500", "192356.522500", "192356.982500", "192357.442500", "192357.902500", "192358.362500", "192358.822500", "192359.282500", "192359.742500", "192400.202500", "192400.662500", "192401.122500", "192401.582500", "192402.042500", "192402.502500", "192402.962500", "192403.422500", "192403.882500", "192404.342500", "192404.802500", "192405.262500", "192405.722500", "192406.182500", "192406.642500", "192407.102500", "192407.562500", "192408.022500", "192408.482500", "192408.942500", "192409.402500", "192409.862500", "192410.322500", "192410.782500", "192411.242500", "192411.702500", "192412.162500", "192412.622500", "192413.082500", "192413.542500", "192414.002500", "192414.462500", "192414.922500", "192415.382500", "192415.842500", "192416.302500", "192416.762500", "192417.222500", "192417.682500", "192418.142500", "192418.602500", "192419.062500", "192419.522500", "192419.982500", "192420.442500", "192420.902500", "192421.362500", "192421.822500", "192422.282500", "192422.742500", "192423.202500", "192423.662500", "192424.122500", "192424.582500", "192425.042500", "192425.502500", "192425.962500", "192426.422500", "192426.882500", "192427.342500", "192427.802500", "192428.262500", "192428.722500", "192429.182500", "192429.642500", "192430.102500", "192430.562500", "192431.022500", "192431.482500", "192431.942500", "192432.402500", "192432.862500", "192433.322500", "192433.782500", "192434.242500", "192434.702500", "192435.162500", "192435.622500", "192436.082500", "192436.542500", "192437.002500", "192437.462500", "192437.922500", "192438.382500", "192438.842500", "192439.302500", "192439.762500", "192440.222500", "192440.682500", "192441.142500", "192441.602500", "192442.062500", "192442.522500", "192442.982500", "192443.442500", "192443.902500", "192444.362500", "192444.822500", "192445.282500", "192445.742500", "192446.202500", "192446.662500", "192447.122500", "192447.582500", "192448.042500", "192448.502500", "192448.962500", "192449.422500", "192449.882500", "192450.342500", "192450.802500", "192451.262500", "192451.722500", "192452.182500", "192452.642500", "192453.102500", "192453.562500", "192454.022500"],
