{
  "AcquisitionMatrixPE": 140,
  "AcquisitionNumber": 1,
  "AcquisitionTime": "17:01:39.117500",
  "BandwidthPerPixelPhaseEncode": 10.352,
  "BaseResolution": 140,
  "BodyPartExamined": "BRAIN",
  "ConsistencyInfo": "N4_VE11C_LATEST_20160120",
  "ConversionSoftware": "dcm2niix",
  "ConversionSoftwareVersion": "v1.0.20201102",
  "DerivedVendorReportedEchoSpacing": 0.000689998,
  "DeviceSerialNumber": "66112",
  "DiffusionScheme": "Monopolar",
  "DwellTime": 2.1e-06,
  "EchoTime": 0.0884,
  "EchoTrainLength": 105,
  "EffectiveEchoSpacing": 0.000689998,
  "FlipAngle": 90,
  "ImageComments": "Unaliased MB3/PE3 SENSE1",
  "ImageOrientationPatientDICOM": [0.992537, -0.0377284, 0.115963, 0.00935474, 0.971691, 0.23607],
  "ImageType": [
    "ORIGINAL",
    "PRIMARY",
    "DIFFUSION",
    "NONE",
    "MB",
    "ND",
    "MOSAIC"
],
  "ImagingFrequency": 123.252,
  "InPlanePhaseEncodingDirectionDICOM": "COL",
  "InstitutionAddress": "Maynard 3,Hanover,NH,US,03755",
  "InstitutionName": "Dartmouth College - PBS",
  "InstitutionalDepartmentName": "Department",
  "MRAcquisitionType": "2D",
  "MagneticFieldStrength": 3,
  "Manufacturer": "Siemens",
  "ManufacturersModelName": "Prisma",
  "Modality": "MR",
  "MultibandAccelerationFactor": 3,
  "PartialFourier": 0.75,
  "PatientPosition": "HFS",
  "PercentPhaseFOV": 100,
  "PercentSampling": 100,
  "PhaseEncodingDirection": "j-",
  "PhaseEncodingSteps": 105,
  "PhaseResolution": 1,
  "PixelBandwidth": 1700,
  "ProcedureStepDescription": "Wager_Wager^1076_spacetop",
  "ProtocolName": "dwi_acq-96dir-6b0-mb",
  "PulseSequenceDetails": "%CustomerSeq%\\cmrr_mbep2d_diff",
  "ReceiveCoilActiveElements": "HEA;HEP",
  "ReceiveCoilName": "Head_32",
  "ReconMatrixPE": 140,
  "RepetitionTime": 4.11,
  "SAR": 0.303891,
  "ScanOptions": "PFP\\FS",
  "ScanningSequence": "EP",
  "SequenceName": "ep_b5#1",
  "SequenceVariant": "SK\\SS",
  "SeriesDescription": "dwi_acq-96dir-6b0-mb",
  "SeriesNumber": 8,
  "ShimSetting": [4187, -7717, -7175, 543, 0, -65, 50, 23],
  "SliceThickness": 1.7,
  "SliceTiming": [0, 2.12, 0.1525, 2.2725, 0.3025, 2.425, 0.455, 2.575, 0.6075, 2.7275, 0.7575, 2.8775, 0.91, 3.03, 1.06, 3.1825, 1.2125, 3.3325, 1.365, 3.485, 1.515, 3.635, 1.6675, 3.7875, 1.8175, 3.94, 1.97, 0, 2.12, 0.1525, 2.2725, 0.3025, 2.425, 0.455, 2.575, 0.6075, 2.7275, 0.7575, 2.8775, 0.91, 3.03, 1.06, 3.1825, 1.2125, 3.3325, 1.365, 3.485, 1.515, 3.635, 1.6675, 3.7875, 1.8175, 3.94, 1.97, 0, 2.12, 0.1525, 2.2725, 0.3025, 2.425, 0.455, 2.575, 0.6075, 2.7275, 0.7575, 2.8775, 0.91, 3.03, 1.06, 3.1825, 1.2125, 3.3325, 1.365, 3.485, 1.515, 3.635, 1.6675, 3.7875, 1.8175, 3.94, 1.97],
  "SoftwareVersions": "syngo MR E11",
  "SpacingBetweenSlices": 1.7,
  "StationName": "AWP66112",
  "TotalReadoutTime": 0.0959097,
  "TxRefAmp": 267.7,
  "WipMemBlock": "2920c8ba-f333-4c9c-920a-bbd388b47c1e||Sequence: R016 ve11c/master r/e634e98; Dec 19 2017 11:11:25 by eja",
  "dcmmeta_affine": [
    [-1.7014914751052856, 0.01603669673204422, 0.2066977322101593, 115.46112823486328],
    [0.06467734277248383, 1.6657558679580688, 0.39648041129112244, -94.80264282226562],
    [0.1987939476966858, -0.4046921730041504, 1.6401461362838745, -7.1876325607299805],
    [0.0, 0.0, 0.0, 1.0]
],
  "dcmmeta_reorient_transform": [
    [0.0, -1.0, 0.0, 139.0],
    [1.0, 0.0, 0.0, 0.0],
    [0.0, 0.0, 1.0, 0.0],
    [0.0, 0.0, 0.0, 1.0]
],
  "dcmmeta_shape": [140, 140, 81, 103],
  "dcmmeta_slice_dim": 2,
  "dcmmeta_version": 0.6,
  "global": {
    "const": {
      "AccessionNumber": "A003799",
      "AcquisitionMatrix": [140, 0, 0, 140],
      "AngioFlag": "N",
      "BitsAllocated": 16,
      "BitsStored": 16,
      "BodyPartExamined": "BRAIN",
      "Columns": 1260,
      "EchoNumbers": 1,
      "EchoTime": 88.4,
      "EchoTrainLength": 105,
      "FlipAngle": 90.0,
      "HighBit": 15,
      "ImageOrientationPatient": [0.99253670730638, -0.0377284482163, 0.11596313571393, 0.00935473992339, 0.9716909175867, 0.23607043338902],
      "ImagePositionPatient": [-1079.5060251096, -1033.3414013026, -401.39207444814],
      "ImageType": [
        "ORIGINAL",
        "PRIMARY",
        "DIFFUSION",
        "NONE",
        "MB",
        "ND",
        "MOSAIC"
],
      "ImagedNucleus": "1H",
      "ImagingFrequency": 123.252131,
      "InPlanePhaseEncodingDirection": "COL",
      "MRAcquisitionType": "2D",
      "MagneticFieldStrength": 3.0,
      "Manufacturer": "SIEMENS",
      "ManufacturerModelName": "Prisma",
      "Modality": "MR",
      "NumberOfAverages": 1.0,
      "NumberOfPhaseEncodingSteps": 105,
      "PercentPhaseFieldOfView": 100.0,
      "PercentSampling": 100.0,
      "PerformedProcedureStepStartTime": "164116.521000",
      "PhotometricInterpretation": "MONOCHROME2",
      "PixelBandwidth": 1700.0,
      "PixelRepresentation": 0,
      "PixelSpacing": [1.7142857313156, 1.7142857313156],
      "ProtocolName": "dwi_acq-96dir-6b0-mb",
      "RepetitionTime": 4110.0,
      "Rows": 1260,
      "SAR": 0.30389093811449,
      "SamplesPerPixel": 1,
      "ScanOptions": [
        "PFP",
        "FS"
],
      "ScanningSequence": "EP",
      "SequenceVariant": [
        "SK",
        "SS"
],
      "SeriesDescription": "dwi_acq-96dir-6b0-mb",
      "SeriesNumber": 8,
      "SeriesTime": "170317.568000",
      "SliceLocation": -15.006238963329,
      "SliceThickness": 1.7000000476837,
      "SmallestImagePixelValue": 0,
      "SoftwareVersions": "syngo MR E11",
      "SpacingBetweenSlices": 1.7000000228642,
      "SpecificCharacterSet": "ISO_IR 100",
      "StudyID": "1",
      "StudyTime": "164116.411000",
      "TransmitCoilName": "Body",
      "VariableFlipAngleFlag": "N",
      "WindowCenterWidthExplanation": "Algo1",
      "dBdt": 0.0},
    "slices": {}
  },
  "time": {
    "samples": {
      "AcquisitionNumber": [1, 2, 3, 4, 5, 6, 7, 8, 9, 10, 11, 12, 13, 14, 15, 16, 17, 18, 19, 20, 21, 22, 23, 24, 25, 26, 27, 28, 29, 30, 31, 32, 33, 34, 35, 36, 37, 38, 39, 40, 41, 42, 43, 44, 45, 46, 47, 48, 49, 50, 51, 52, 53, 54, 55, 56, 57, 58, 59, 60, 61, 62, 63, 64, 65, 66, 67, 68, 69, 70, 71, 72, 73, 74, 75, 76, 77, 78, 79, 80, 81, 82, 83, 84, 85, 86, 87, 88, 89, 90, 91, 92, 93, 94, 95, 96, 97, 98, 99, 100, 101, 102, 103],
      "AcquisitionTime": ["170139.117500", "170143.227500", "170147.337500", "170151.447500", "170155.557500", "170159.667500", "170203.777500", "170207.887500", "170211.997500", "170216.107500", "170220.217500", "170224.327500", "170228.437500", "170232.547500", "170236.657500", "170240.767500", "170244.877500", "170248.987500", "170253.097500", "170257.207500", "170301.317500", "170305.427500", "170309.537500", "170313.647500", "170317.757500", "170321.867500", "170325.977500", "170330.087500", "170334.197500", "170338.307500", "170342.417500", "170346.527500", "170350.637500", "170354.747500", "170358.857500", "170402.967500", "170407.077500", "170411.187500", "170415.297500", "170419.407500", "170423.517500", "170427.627500", "170431.737500", "170435.847500", "170439.957500", "170444.067500", "170448.177500", "170452.287500", "170456.397500", "170500.507500", "170504.617500", "170508.727500", "170512.837500", "170516.947500", "170521.057500", "170525.167500", "170529.277500", "170533.387500", "170537.497500", "170541.607500", "170545.717500", "170549.827500", "170553.937500", "170558.047500", "170602.157500", "170606.267500", "170610.377500", "170614.487500", "170618.597500", "170622.707500", "170626.817500", "170630.927500", "170635.037500", "170639.147500", "170643.257500", "170647.367500", "170651.477500", "170655.587500", "170659.697500", "170703.807500", "170707.917500", "170712.027500", "170716.137500", "170720.247500", "170724.357500", "170728.467500", "170732.577500", "170736.687500", "170740.797500", "170744.907500", "170749.017500", "170753.127500", "170757.237500", "170801.347500", "170805.457500", "170809.567500", "170813.677500", "170817.787500", "170821.897500", "170826.007500", "170830.117500", "170834.227500", "170838.337500"],
      "ContentTime": ["170317.572000", "170317.576000", "170317.580000", "170317.588000", "170317.591000", "170317.595000", "170317.598000", "170317.601000", "170317.605000", "170317.608000", "170317.611000", "170317.615000", "170317.618000", "170317.621000", "170317.625000", "170317.628000", "170317.644000", "170317.647000", "170317.657000", "170317.660000", "170317.663000", "170317.667000", "170317.670000", "170437.567000", "170437.571000", "170437.574000", "170437.577000", "170437.581000", "170437.584000", "170437.596000", "170437.599000", "170437.602000", "170437.606000", "170437.609000", "170437.612000", "170437.615000", "170437.619000", "170437.622000", "170437.625000", "170437.628000", "170437.632000", "170437.635000", "170437.638000", "170617.567000", "170617.571000", "170617.574000", "170617.578000", "170617.581000", "170617.584000", "170617.587000", "170617.591000", "170617.594000", "170617.612000", "170617.615000", "170617.619000", "170617.622000", "170617.625000", "170617.628000", "170617.632000", "170617.635000", "170617.638000", "170617.642000", "170617.645000", "170617.648000", "170617.651000", "170617.655000", "170617.658000", "170737.567000", "170737.571000", "170737.574000", "170737.577000", "170737.581000", "170737.584000", "170737.587000", "170737.590000", "170737.594000", "170737.597000", "170737.600000", "170737.604000", "170737.607000", "170737.610000", "170737.613000", "170737.617000", "170737.620000", "170737.623000", "170737.626000", "170737.630000", "170842.841000", "170842.847000", "170842.850000", "170842.853000", "170842.857000", "170842.861000", "170842.864000", "170842.870000", "170842.876000", "170842.881000", "170842.884000", "170842.888000", "170842.892000", "170842.895000", "170842.899000", "170842.903000"],
      "InstanceCreationTime": ["170317.572000", "170317.576000", "170317.580000", "170317.588000", "170317.591000", "170317.595000", "170317.598000", "170317.601000", "170317.605000", "170317.608000", "170317.611000", "170317.615000", "170317.618000", "170317.621000", "170317.625000", "170317.628000", "170317.644000", "170317.647000", "170317.657000", "170317.660000", "170317.663000", "170317.667000", "170317.670000", "170437.567000", "170437.571000", "170437.574000", "170437.577000", "170437.581000", "170437.584000", "170437.596000", "170437.599000", "170437.602000", "170437.606000", "170437.609000", "170437.612000", "170437.615000", "170437.619000", "170437.622000", "170437.625000", "170437.628000", "170437.632000", "170437.635000", "170437.638000", "170617.567000", "170617.571000", "170617.574000", "170617.578000", "170617.581000", "170617.584000", "170617.587000", "170617.591000", "170617.594000", "170617.612000", "170617.615000", "170617.619000", "170617.622000", "170617.625000", "170617.628000", "170617.632000", "170617.635000", "170617.638000", "170617.642000", "170617.645000", "170617.648000", "170617.651000", "170617.655000", "170617.658000", "170737.567000", "170737.571000", "170737.574000", "170737.577000", "170737.581000", "170737.584000", "170737.587000", "170737.590000", "170737.594000", "170737.597000", "170737.600000", "170737.604000", "170737.607000", "170737.610000", "170737.613000", "170737.617000", "170737.620000", "170737.623000", "170737.626000", "170737.630000", "170842.841000", "170842.847000", "170842.850000", "170842.853000", "170842.857000", "170842.861000", "170842.864000", "170842.870000", "170842.876000", "170842.881000", "170842.884000", "170842.888000", "170842.892000", "170842.895000", "170842.899000", "170842.903000"],
      "InstanceNumber": [1, 2, 3, 4, 5, 6, 7, 8, 9, 10, 11, 12, 13, 14, 15, 16, 17, 18, 19, 20, 21, 22, 23, 24, 25, 26, 27, 28, 29, 30, 31, 32, 33, 34, 35, 36, 37, 38, 39, 40, 41, 42, 43, 44, 45, 46, 47, 48, 49, 50, 51, 52, 53, 54, 55, 56, 57, 58, 59, 60, 61, 62, 63, 64, 65, 66, 67, 68, 69, 70, 71, 72, 73, 74, 75, 76, 77, 78, 79, 80, 81, 82, 83, 84, 85, 86, 87, 88, 89, 90, 91, 92, 93, 94, 95, 96, 97, 98, 99, 100, 101, 102, 103],
      "LargestImagePixelValue": [65535, 65535, 50856, 48747, 46929, 51759, 49772, 49361, 65535, 31014, 28679, 33608, 30059, 32902, 29546, 29247, 28784, 29547, 29693, 31559, 29623, 30264, 34046, 29306, 65535, 16747, 18338, 17011, 15342, 15935, 15838, 15539, 19733, 16247, 15276, 16668, 16314, 17176, 15652, 15775, 65535, 9627, 11540, 9316, 9999, 9610, 8762, 9196, 9375, 9532, 10309, 10016, 10386, 10479, 10857, 9277, 9939, 9155, 9159, 9539, 8300, 11872, 8617, 8373, 8705, 8663, 9799, 8780, 9680, 9547, 10334, 8624, 9112, 65535, 9807, 8734, 9544, 8778, 9292, 11057, 9261, 10963, 8518, 10883, 9270, 9942, 10835, 9760, 9273, 9908, 10993, 9660, 10886, 9381, 11340, 10033, 9247, 9510, 10285, 8464, 10213, 9048, 65535],
      "SequenceName": [
 "ep_b5#1",
 "ep_b5#1",
 "ep_b500#2",
 "ep_b500#3",
 "ep_b500#4",
 "ep_b505#5",
 "ep_b495#6",
 "ep_b500#7",
 "ep_b5#8",
 "ep_b1000#9",
 "ep_b1005#10",
 "ep_b1000#11",
 "ep_b1005#12",
 "ep_b995#13",
 "ep_b995#14",
 "ep_b1005#15",
 "ep_b1000#16",
 "ep_b1000#17",
 "ep_b995#18",
 "ep_b1000#19",
 "ep_b995#20",
 "ep_b1000#21",
 "ep_b1005#22",
 "ep_b1005#23",
 "ep_b5#24",
 "ep_b2000#25",
 "ep_b2000#26",
 "ep_b1995#27",
 "ep_b1995#28",
 "ep_b2010#29",
 "ep_b2010#30",
 "ep_b2000#31",
 "ep_b2005#32",
 "ep_b1995#33",
 "ep_b1995#34",
 "ep_b1995#35",
 "ep_b2005#36",
 "ep_b2000#37",
 "ep_b2010#38",
 "ep_b2000#39",
 "ep_b5#40",
 "ep_b3000#41",
 "ep_b3005#42",
 "ep_b3010#43",
 "ep_b3010#44",
 "ep_b2995#45",
 "ep_b2995#46",
 "ep_b2990#47",
 "ep_b3005#48",
 "ep_b3005#49",
 "ep_b2990#50",
 "ep_b2990#51",
 "ep_b2995#52",
 "ep_b2995#53",
 "ep_b3010#54",
 "ep_b3000#55",
 "ep_b3000#56",
 "ep_b3000#57",
 "ep_b2990#58",
 "ep_b2990#59",
 "ep_b3000#60",
 "ep_b2995#61",
 "ep_b2990#62",
 "ep_b2995#63",
 "ep_b3005#64",
 "ep_b3010#65",
 "ep_b3000#66",
 "ep_b3005#67",
 "ep_b3010#68",
 "ep_b3005#69",
 "ep_b3005#70",
 "ep_b3010#71",
 "ep_b2990#72",
 "ep_b5#73",
 "ep_b3010#74",
 "ep_b3000#75",
 "ep_b3005#76",
 "ep_b3005#77",
 "ep_b2995#78",
 "ep_b3000#79",
 "ep_b2995#80",
 "ep_b3010#81",
 "ep_b3010#82",
 "ep_b3005#83",
 "ep_b2995#84",
 "ep_b3000#85",
 "ep_b3005#86",
 "ep_b3010#87",
 "ep_b2990#88",
 "ep_b3010#89",
 "ep_b2990#90",
 "ep_b2995#91",
 "ep_b2995#92",
 "ep_b2995#93",
 "ep_b3005#94",
 "ep_b3005#95",
 "ep_b2995#96",
 "ep_b3000#97",
 "ep_b2990#98",
 "ep_b3000#99",
 "ep_b3000#100",
 "ep_b2995#101",
 "ep_b5#102"
],
      "WindowCenter": [11563.0, 11563.0, 7990.0, 7977.0, 7943.0, 7909.0, 8007.0, 7963.0, 11556.0, 5935.0, 5807.0, 5936.0, 5814.0, 5885.0, 5895.0, 5821.0, 5878.0, 5751.0, 5871.0, 5902.0, 5919.0, 5870.0, 5909.0, 5868.0, 11581.0, 3786.0, 3770.0, 3711.0, 3756.0, 3699.0, 3648.0, 3710.0, 3724.0, 3767.0, 3726.0, 3753.0, 3672.0, 3727.0, 3707.0, 3672.0, 11575.0, 2593.0, 2562.0, 2531.0, 2530.0, 2585.0, 2523.0, 2569.0, 2481.0, 2545.0, 2529.0, 2546.0, 2596.0, 2626.0, 2590.0, 2517.0, 2593.0, 2499.0, 2554.0, 2548.0, 2455.0, 2623.0, 2561.0, 2498.0, 2508.0, 2507.0, 2557.0, 2524.0, 2541.0, 2558.0, 2581.0, 2519.0, 2539.0, 11509.0, 2530.0, 2475.0, 2478.0, 2479.0, 2493.0, 2579.0, 2501.0, 2518.0, 2519.0, 2573.0, 2567.0, 2574.0, 2523.0, 2501.0, 2528.0, 2515.0, 2602.0, 2507.0, 2569.0, 2587.0, 2584.0, 2570.0, 2583.0, 2538.0, 2585.0, 2450.0, 2598.0, 2547.0, 11481.0],
      "WindowWidth": [27043.0, 27048.0, 16995.0, 16973.0, 16892.0, 16824.0, 17046.0, 16958.0, 27031.0, 12727.0, 12512.0, 12725.0, 12539.0, 12663.0, 12692.0, 12520.0, 12648.0, 12390.0, 12610.0, 12645.0, 12694.0, 12628.0, 12669.0, 12584.0, 27116.0, 8534.0, 8504.0, 8401.0, 8486.0, 8369.0, 8271.0, 8399.0, 8403.0, 8499.0, 8429.0, 8484.0, 8330.0, 8422.0, 8371.0, 8341.0, 27098.0, 6266.0, 6134.0, 6121.0, 6073.0, 6236.0, 6131.0, 6176.0, 6010.0, 6153.0, 6074.0, 6108.0, 6248.0, 6311.0, 6218.0, 6099.0, 6265.0, 6058.0, 6147.0, 6119.0, 5997.0, 6258.0, 6185.0, 6086.0, 6099.0, 6083.0, 6181.0, 6137.0, 6130.0, 6179.0, 6214.0, 6112.0, 6114.0, 26884.0, 6072.0, 6022.0, 5993.0, 6036.0, 6024.0, 6179.0, 6061.0, 6033.0, 6106.0, 6172.0, 6218.0, 6218.0, 6057.0, 6023.0, 6102.0, 6046.0, 6239.0, 6054.0, 6156.0, 6243.0, 6195.0, 6201.0, 6229.0, 6135.0, 6190.0, 5973.0, 6257.0, 6166.0, 26780.0]
    },
    "slices": {}
  }
}