{
  "AcquisitionMatrixPE": 82,
  "AcquisitionNumber": 1,
  "AcquisitionTime": "19:28:1.705000",
  "BandwidthPerPixelPhaseEncode": 24.888,
  "BaseResolution": 82,
  "BodyPartExamined": "BRAIN",
  "ConsistencyInfo": "N4_VE11E_LATEST_20181129",
  "ConversionSoftware": "dcm2niix",
  "ConversionSoftwareVersion": "v1.0.20201102",
  "DerivedVendorReportedEchoSpacing": 0.00049,
  "DeviceSerialNumber": "66112",
  "DwellTime": 2e-06,
  "EchoTime": 0.0272,
  "EchoTrainLength": 82,
  "EffectiveEchoSpacing": 0.00049,
  "FlipAngle": 44,
  "ImageComments": "Unaliased MB8/PE3",
  "ImageOrientationPatientDICOM": [0.990884, 0.0891463, 0.101006, -0.0851229, 0.995422, -0.0434753],
  "ImageType": [
    "ORIGINAL",
    "PRIMARY",
    "M",
    "MB",
    "ND",
    "NORM",
    "MOSAIC"
],
  "ImagingFrequency": 123.259,
  "InPlanePhaseEncodingDirectionDICOM": "COL",
  "InstitutionAddress": "Maynard 3,Hanover,NH,US,03755",
  "InstitutionName": "Dartmouth College - PBS",
  "InstitutionalDepartmentName": "Department",
  "MRAcquisitionType": "2D",
  "MagneticFieldStrength": 3,
  "Manufacturer": "Siemens",
  "ManufacturersModelName": "Prisma",
  "Modality": "MR",
  "MultibandAccelerationFactor": 8,
  "PartialFourier": 1,
  "PatientPosition": "HFS",
  "PercentPhaseFOV": 100,
  "PercentSampling": 100,
  "PhaseEncodingDirection": "j-",
  "PhaseEncodingSteps": 82,
  "PhaseResolution": 1,
  "PixelBandwidth": 3050,
  "ProcedureStepDescription": "Wager_Wager^1076_spacetop",
  "ProtocolName": "func_run-05_task-social_acq-ap-mb8",
  "PulseSequenceDetails": "%CustomerSeq%\\cmrr_mbep2d_bold",
  "ReceiveCoilActiveElements": "HEA;HEP",
  "ReceiveCoilName": "Head_32",
  "ReconMatrixPE": 82,
  "RepetitionTime": 0.46,
  "SAR": 0.077383,
  "ScanOptions": "FS",
  "ScanningSequence": "EP",
  "SequenceName": "epfid2d1_82",
  "SequenceVariant": "SK\\SS",
  "SeriesDescription": "func_run-05_task-social_acq-ap-mb8",
  "SeriesNumber": 16,
  "ShimSetting": [4240, -7797, -7274, 190, -156, -140, -154, 83],
  "SliceThickness": 2.7,
  "SliceTiming": [0, 0.25, 0.0625, 0.3125, 0.125, 0.375, 0.1875, 0, 0.25, 0.0625, 0.3125, 0.125, 0.375, 0.1875, 0, 0.25, 0.0625, 0.3125, 0.125, 0.375, 0.1875, 0, 0.25, 0.0625, 0.3125, 0.125, 0.375, 0.1875, 0, 0.25, 0.0625, 0.3125, 0.125, 0.375, 0.1875, 0, 0.25, 0.0625, 0.3125, 0.125, 0.375, 0.1875, 0, 0.25, 0.0625, 0.3125, 0.125, 0.375, 0.1875, 0, 0.25, 0.0625, 0.3125, 0.125, 0.375, 0.1875],
  "SoftwareVersions": "syngo MR E11",
  "SpacingBetweenSlices": 2.7,
  "StationName": "AWP66112",
  "TaskName": "social",
  "TotalReadoutTime": 0.03969,
  "TxRefAmp": 227.439,
  "WipMemBlock": "5937585b-c4f2-4fbe-ba00-43d8a5de203f||Sequence: R016 ve11e/master r/434b28f1; Aug  7 2019 18:53:46 by eja",
  "dcmmeta_affine": [
    [-2.658468723297119, -0.22837845981121063, 0.2819322943687439, 117.1225357055664],
    [-0.2391730397939682, 2.6706430912017822, -0.09309882670640945, -88.25395965576172],
    [0.27099213004112244, 0.1166410818696022, 2.6836256980895996, -97.76757049560547],
    [0.0, 0.0, 0.0, 1.0]
],
  "dcmmeta_reorient_transform": [
    [0.0, -1.0, 0.0, 81.0],
    [1.0, 0.0, 0.0, 0.0],
    [0.0, 0.0, 1.0, 0.0],
    [0.0, 0.0, 0.0, 1.0]
],
  "dcmmeta_shape": [82, 82, 56, 872],
  "dcmmeta_slice_dim": 2,
  "dcmmeta_version": 0.6,
  "global": {
    "const": {
      "AccessionNumber": "A004622",
      "AcquisitionMatrix": [82, 0, 0, 82],
      "AngioFlag": "N",
      "BitsAllocated": 16,
      "BitsStored": 16,
      "BodyPartExamined": "BRAIN",
      "Columns": 656,
      "EchoNumbers": 1,
      "EchoTime": 27.2,
      "EchoTrainLength": 82,
      "FlipAngle": 44.0,
      "HighBit": 15,
      "ImageOrientationPatient": [0.99088379329064, 0.08914631034714, 0.10100615597801, -0.0851228789284, 0.99542151510353, -0.0434753119821],
      "ImagePositionPatient": [-796.05980437322, -963.18538374279, -132.61839300794],
      "ImageType": [
        "ORIGINAL",
        "PRIMARY",
        "M",
        "MB",
        "ND",
        "NORM",
        "MOSAIC"
],
      "ImagedNucleus": "1H",
      "ImagingFrequency": 123.259132,
      "InPlanePhaseEncodingDirection": "COL",
      "MRAcquisitionType": "2D",
      "MagneticFieldStrength": 3.0,
      "Manufacturer": "SIEMENS",
      "ManufacturerModelName": "Prisma",
      "Modality": "MR",
      "NumberOfAverages": 1.0,
      "NumberOfPhaseEncodingSteps": 82,
      "PercentPhaseFieldOfView": 100.0,
      "PercentSampling": 100.0,
      "PerformedProcedureStepStartTime": "181956.274000",
      "PhotometricInterpretation": "MONOCHROME2",
      "PixelBandwidth": 3050.0,
      "PixelRepresentation": 0,
      "PixelSpacing": [2.6829268932343, 2.6829268932343],
      "ProtocolName": "func_run-05_task-social_acq-ap-mb8",
      "RepetitionTime": 460.0,
      "Rows": 656,
      "SAR": 0.07738302820502,
      "SamplesPerPixel": 1,
      "ScanOptions": "FS",
      "ScanningSequence": "EP",
      "SequenceName": "epfid2d1_82",
      "SequenceVariant": [
        "SK",
        "SS"
],
      "SeriesDescription": "func_run-05_task-social_acq-ap-mb8",
      "SeriesNumber": 16,
      "SeriesTime": "192826.305000",
      "SliceLocation": -81.901702347254,
      "SliceThickness": 2.7000000476837,
      "SmallestImagePixelValue": 0,
      "SoftwareVersions": "syngo MR E11",
      "SpacingBetweenSlices": 2.6999999733702,
      "SpecificCharacterSet": "ISO_IR 100",
      "StudyID": "1",
      "StudyTime": "181956.226000",
      "TransmitCoilName": "Body",
      "VariableFlipAngleFlag": "N",
      "WindowCenterWidthExplanation": "Algo1"
    },
    "slices": {}
  },
  "time": {
    "samples": {
      "AcquisitionNumber": [1, 2, 3, 4, 5, 6, 7, 8, 9, 10, 11, 12, 13, 14, 15, 16, 17, 18, 19, 20, 21, 22, 23, 24, 25, 26, 27, 28, 29, 30, 31, 32, 33, 34, 35, 36, 37, 38, 39, 40, 41, 42, 43, 44, 45, 46, 47, 48, 49, 50, 51, 52, 53, 54, 55, 56, 57, 58, 59, 60, 61, 62, 63, 64, 65, 66, 67, 68, 69, 70, 71, 72, 73, 74, 75, 76, 77, 78, 79, 80, 81, 82, 83, 84, 85, 86, 87, 88, 89, 90, 91, 92, 93, 94, 95, 96, 97, 98, 99, 100, 101, 102, 103, 104, 105, 106, 107, 108, 109, 110, 111, 112, 113, 114, 115, 116, 117, 118, 119, 120, 121, 122, 123, 124, 125, 126, 127, 128, 129, 130, 131, 132, 133, 134, 135, 136, 137, 138, 139, 140, 141, 142, 143, 144, 145, 146, 147, 148, 149, 150, 151, 152, 153, 154, 155, 156, 157, 158, 159, 160, 161, 162, 163, 164, 165, 166, 167, 168, 169, 170, 171, 172, 173, 174, 175, 176, 177, 178, 179, 180, 181, 182, 183, 184, 185, 186, 187, 188, 189, 190, 191, 192, 193, 194, 195, 196, 197, 198, 199, 200, 201, 202, 203, 204, 205, 206, 207, 208, 209, 210, 211, 212, 213, 214, 215, 216, 217, 218, 219, 220, 221, 222, 223, 224, 225, 226, 227, 228, 229, 230, 231, 232, 233, 234, 235, 236, 237, 238, 239, 240, 241, 242, 243, 244, 245, 246, 247, 248, 249, 250, 251, 252, 253, 254, 255, 256, 257, 258, 259, 260, 261, 262, 263, 264, 265, 266, 267, 268, 269, 270, 271, 272, 273, 274, 275, 276, 277, 278, 279, 280, 281, 282, 283, 284, 285, 286, 287, 288, 289, 290, 291, 292, 293, 294, 295, 296, 297, 298, 299, 300, 301, 302, 303, 304, 305, 306, 307, 308, 309, 310, 311, 312, 313, 314, 315, 316, 317, 318, 319, 320, 321, 322, 323, 324, 325, 326, 327, 328, 329, 330, 331, 332, 333, 334, 335, 336, 337, 338, 339, 340, 341, 342, 343, 344, 345, 346, 347, 348, 349, 350, 351, 352, 353, 354, 355, 356, 357, 358, 359, 360, 361, 362, 363, 364, 365, 366, 367, 368, 369, 370, 371, 372, 373, 374, 375, 376, 377, 378, 379, 380, 381, 382, 383, 384, 385, 386, 387, 388, 389, 390, 391, 392, 393, 394, 395, 396, 397, 398, 399, 400, 401, 402, 403, 404, 405, 406, 407, 408, 409, 410, 411, 412, 413, 414, 415, 416, 417, 418, 419, 420, 421, 422, 423, 424, 425, 426, 427, 428, 429, 430, 431, 432, 433, 434, 435, 436, 437, 438, 439, 440, 441, 442, 443, 444, 445, 446, 447, 448, 449, 450, 451, 452, 453, 454, 455, 456, 457, 458, 459, 460, 461, 462, 463, 464, 465, 466, 467, 468, 469, 470, 471, 472, 473, 474, 475, 476, 477, 478, 479, 480, 481, 482, 483, 484, 485, 486, 487, 488, 489, 490, 491, 492, 493, 494, 495, 496, 497, 498, 499, 500, 501, 502, 503, 504, 505, 506, 507, 508, 509, 510, 511, 512, 513, 514, 515, 516, 517, 518, 519, 520, 521, 522, 523, 524, 525, 526, 527, 528, 529, 530, 531, 532, 533, 534, 535, 536, 537, 538, 539, 540, 541, 542, 543, 544, 545, 546, 547, 548, 549, 550, 551, 552, 553, 554, 555, 556, 557, 558, 559, 560, 561, 562, 563, 564, 565, 566, 567, 568, 569, 570, 571, 572, 573, 574, 575, 576, 577, 578, 579, 580, 581, 582, 583, 584, 585, 586, 587, 588, 589, 590, 591, 592, 593, 594, 595, 596, 597, 598, 599, 600, 601, 602, 603, 604, 605, 606, 607, 608, 609, 610, 611, 612, 613, 614, 615, 616, 617, 618, 619, 620, 621, 622, 623, 624, 625, 626, 627, 628, 629, 630, 631, 632, 633, 634, 635, 636, 637, 638, 639, 640, 641, 642, 643, 644, 645, 646, 647, 648, 649, 650, 651, 652, 653, 654, 655, 656, 657, 658, 659, 660, 661, 662, 663, 664, 665, 666, 667, 668, 669, 670, 671, 672, 673, 674, 675, 676, 677, 678, 679, 680, 681, 682, 683, 684, 685, 686, 687, 688, 689, 690, 691, 692, 693, 694, 695, 696, 697, 698, 699, 700, 701, 702, 703, 704, 705, 706, 707, 708, 709, 710, 711, 712, 713, 714, 715, 716, 717, 718, 719, 720, 721, 722, 723, 724, 725, 726, 727, 728, 729, 730, 731, 732, 733, 734, 735, 736, 737, 738, 739, 740, 741, 742, 743, 744, 745, 746, 747, 748, 749, 750, 751, 752, 753, 754, 755, 756, 757, 758, 759, 760, 761, 762, 763, 764, 765, 766, 767, 768, 769, 770, 771, 772, 773, 774, 775, 776, 777, 778, 779, 780, 781, 782, 783, 784, 785, 786, 787, 788, 789, 790, 791, 792, 793, 794, 795, 796, 797, 798, 799, 800, 801, 802, 803, 804, 805, 806, 807, 808, 809, 810, 811, 812, 813, 814, 815, 816, 817, 818, 819, 820, 821, 822, 823, 824, 825, 826, 827, 828, 829, 830, 831, 832, 833, 834, 835, 836, 837, 838, 839, 840, 841, 842, 843, 844, 845, 846, 847, 848, 849, 850, 851, 852, 853, 854, 855, 856, 857, 858, 859, 860, 861, 862, 863, 864, 865, 866, 867, 868, 869, 870, 871, 872],
      "AcquisitionTime": ["192801.705000", "192802.165000", "192802.625000", "192803.085000", "192803.545000", "192804.005000", "192804.465000", "192804.925000", "192805.385000", "192805.845000", "192806.305000", "192806.765000", "192807.225000", "192807.685000", "192808.145000", "192808.605000", "192809.065000", "192809.525000", "192809.985000", "192810.445000", "192810.905000", "192811.365000", "192811.825000", "192812.285000", "192812.745000", "192813.205000", "192813.665000", "192814.125000", "192814.585000", "192815.045000", "192815.505000", "192815.965000", "192816.425000", "192816.885000", "192817.345000", "192817.805000", "192818.265000", "192818.725000", "192819.185000", "192819.645000", "192820.105000", "192820.565000", "192821.025000", "192821.485000", "192821.945000", "192822.405000", "192822.865000", "192823.325000", "192823.785000", "192824.245000", "192824.705000", "192825.165000", "192825.625000", "192826.085000", "192826.545000", "192827.005000", "192827.465000", "192827.925000", "192828.385000", "192828.845000", "192829.305000", "192829.765000", "192830.225000", "192830.685000", "192831.145000", "192831.605000", "192832.065000", "192832.525000", "192832.985000", "192833.445000", "192833.905000", "192834.365000", "192834.825000", "192835.285000", "192835.745000", "192836.205000", "192836.665000", "192837.125000", "192837.585000", "192838.045000", "192838.505000", "192838.965000", "192839.425000", "192839.885000", "192840.345000", "192840.805000", "192841.265000", "192841.725000", "192842.185000", "192842.645000", "192843.105000", "192843.565000", "192844.025000", "192844.485000", "192844.945000", "192845.405000", "192845.865000", "192846.325000", "192846.785000", "192847.245000", "192847.705000", "192848.165000", "192848.625000", "192849.085000", "192849.545000", "192850.005000", "192850.465000", "192850.925000", "192851.385000", "192851.845000", "192852.305000", "192852.765000", "192853.225000", "192853.685000", "192854.145000", "192854.605000", "192855.065000", "192855.525000", "192855.985000", "192856.445000", "192856.905000", "192857.365000", "192857.825000", "192858.285000", "192858.745000", "192859.205000", "192859.665000", "192900.125000", "192900.585000", "192901.045000", "192901.505000", "192901.965000", "192902.425000", "192902.885000", "192903.345000", "192903.805000", "192904.265000", "192904.725000", "192905.185000", "192905.645000", "192906.105000", "192906.565000", "192907.025000", "192907.485000", "192907.945000", "192908.405000", "192908.865000", "192909.325000", "192909.785000", "192910.245000", "192910.705000", "192911.165000", "192911.625000", "192912.085000", "192912.545000", "192913.005000", "192913.465000", "192913.925000", "192914.385000", "192914.845000", "192915.305000", "192915.765000", "192916.225000", "192916.685000", "192917.145000", "192917.605000", "192918.065000", "192918.525000", "192918.985000", "192919.445000", "192919.905000", "192920.365000", "192920.825000", "192921.285000", "192921.745000", "192922.205000", "192922.665000", "192923.125000", "192923.585000", "192924.045000", "192924.505000", "192924.965000", "192925.425000", "192925.885000", "192926.345000", "192926.805000", "192927.265000", "192927.725000", "192928.185000", "192928.645000", "192929.105000", "192929.565000", "192930.025000", "192930.485000", "192930.945000", "192931.405000", "192931.865000", "192932.325000", "192932.785000", "192933.245000", "192933.705000", "192934.165000", "192934.625000", "192935.085000", "192935.545000", "192936.005000", "192936.465000", "192936.925000", "192937.385000", "192937.845000", "192938.305000", "192938.765000", "192939.225000", "192939.685000", "192940.145000", "192940.605000", "192941.065000", "192941.525000", "192941.985000", "192942.445000", "192942.905000", "192943.365000", "192943.825000", "192944.285000", "192944.745000", "192945.205000", "192945.665000", "192946.125000", "192946.585000", "192947.045000", "192947.505000", "192947.965000", "192948.425000", "192948.885000", "192949.345000", "192949.805000", "192950.265000", "192950.725000", "192951.185000", "192951.645000", "192952.105000", "192952.565000", "192953.025000", "192953.485000", "192953.945000", "192954.405000", "192954.865000", "192955.325000", "192955.785000", "192956.245000", "192956.705000", "192957.165000", "192957.625000", "192958.085000", "192958.545000", "192959.005000", "192959.465000", "192959.925000", "193000.385000", "193000.845000", "193001.305000", "193001.765000", "193002.225000", "193002.685000", "193003.145000", "193003.605000", "193004.065000", "193004.525000", "193004.985000", "193005.445000", "193005.905000", "193006.365000", "193006.825000", "193007.285000", "193007.745000", "193008.205000", "193008.665000", "193009.125000", "193009.585000", "193010.045000", "193010.505000", "193010.965000", "193011.425000", "193011.885000", "193012.345000", "193012.805000", "193013.265000", "193013.725000", "193014.185000", "193014.645000", "193015.105000", "193015.565000", "193016.025000", "193016.485000", "193016.945000", "193017.405000", "193017.865000", "193018.325000", "193018.785000", "193019.245000", "193019.705000", "193020.165000", "193020.625000", "193021.085000", "193021.545000", "193022.005000", "193022.465000", "193022.925000", "193023.385000", "193023.845000", "193024.305000", "193024.765000", "193025.225000", "193025.685000", "193026.145000", "193026.605000", "193027.065000", "193027.525000", "193027.985000", "193028.445000", "193028.905000", "193029.365000", "193029.825000", "193030.285000", "193030.745000", "193031.205000", "193031.665000", "193032.125000", "193032.585000", "193033.045000", "193033.505000", "193033.965000", "193034.425000", "193034.885000", "193035.345000", "193035.805000", "193036.265000", "193036.725000", "193037.185000", "193037.645000", "193038.105000", "193038.565000", "193039.025000", "193039.485000", "193039.945000", "193040.405000", "193040.865000", "193041.325000", "193041.785000", "193042.245000", "193042.705000", "193043.165000", "193043.625000", "193044.085000", "193044.545000", "193045.005000", "193045.465000", "193045.925000", "193046.385000", "193046.845000", "193047.305000", "193047.765000", "193048.225000", "193048.685000", "193049.145000", "193049.605000", "193050.065000", "193050.525000", "193050.985000", "193051.445000", "193051.905000", "193052.365000", "193052.825000", "193053.285000", "193053.745000", "193054.205000", "193054.665000", "193055.125000", "193055.585000", "193056.045000", "193056.505000", "193056.965000", "193057.425000", "193057.885000", "193058.345000", "193058.805000", "193059.265000", "193059.725000", "193100.185000", "193100.645000", "193101.105000", "193101.565000", "193102.025000", "193102.485000", "193102.945000", "193103.405000", "193103.865000", "193104.325000", "193104.785000", "193105.245000", "193105.705000", "193106.165000", "193106.625000", "193107.085000", "193107.545000", "193108.005000", "193108.465000", "193108.925000", "193109.385000", "193109.845000", "193110.305000", "193110.765000", "193111.225000", "193111.685000", "193112.145000", "193112.605000", "193113.065000", "193113.525000", "193113.985000", "193114.445000", "193114.905000", "193115.365000", "193115.825000", "193116.285000", "193116.745000", "193117.205000", "193117.665000", "193118.125000", "193118.585000", "193119.045000", "193119.505000", "193119.965000", "193120.425000", "193120.885000", "193121.345000", "193121.805000", "193122.265000", "193122.725000", "193123.185000", "193123.645000", "193124.105000", "193124.565000", "193125.025000", "193125.485000", "193125.945000", "193126.405000", "193126.865000", "193127.325000", "193127.785000", "193128.245000", "193128.705000", "193129.165000", "193129.625000", "193130.085000", "193130.545000", "193131.005000", "193131.465000", "193131.925000", "193132.385000", "193132.845000", "193133.305000", "193133.765000", "193134.225000", "193134.685000", "193135.145000", "193135.605000", "193136.065000", "193136.525000", "193136.985000", "193137.445000", "193137.905000", "193138.365000", "193138.825000", "193139.285000", "193139.745000", "193140.205000", "193140.665000", "193141.125000", "193141.585000", "193142.045000", "193142.505000", "193142.965000", "193143.425000", "193143.885000", "193144.345000", "193144.805000", "193145.265000", "193145.725000", "193146.185000", "193146.645000", "193147.105000", "193147.565000", "193148.025000", "193148.485000", "193148.945000", "193149.405000", "193149.865000", "193150.325000", "193150.785000", "193151.245000", "193151.705000", "193152.165000", "193152.625000", "193153.085000", "193153.545000", "193154.005000", "193154.465000", "193154.925000", "193155.385000", "193155.845000", "193156.305000", "193156.765000", "193157.225000", "193157.685000", "193158.145000", "193158.605000", "193159.065000", "193159.525000", "193159.985000", "193200.445000", "193200.905000", "193201.365000", "193201.825000", "193202.285000", "193202.745000", "193203.205000", "193203.665000", "193204.125000", "193204.585000", "193205.045000", "193205.505000", "193205.965000", "193206.425000", "193206.885000", "193207.345000", "193207.805000", "193208.265000", "193208.725000", "193209.185000", "193209.645000", "193210.105000", "193210.565000", "193211.025000", "193211.485000", "193211.945000", "193212.405000", "193212.865000", "193213.325000", "193213.785000", "193214.245000", "193214.705000", "193215.165000", "193215.625000", "193216.085000", "193216.545000", "193217.005000", "193217.465000", "193217.925000", "193218.385000", "193218.845000", "193219.305000", "193219.765000", "193220.225000", "193220.685000", "193221.145000", "193221.605000", "193222.065000", "193222.525000", "193222.985000", "193223.445000", "193223.905000", "193224.365000", "193224.825000", "193225.285000", "193225.745000", "193226.205000", "193226.665000", "193227.125000", "193227.585000", "193228.045000", "193228.505000", "193228.965000", "193229.425000", "193229.885000", "193230.345000", "193230.805000", "193231.265000", "193231.725000", "193232.185000", "193232.645000", "193233.105000", "193233.565000", "193234.025000", "193234.485000", "193234.945000", "193235.405000", "193235.865000", "193236.325000", "193236.785000", "193237.245000", "193237.705000", "193238.165000", "193238.625000", "193239.085000", "193239.545000", "193240.005000", "193240.465000", "193240.925000", "193241.385000", "193241.845000", "193242.305000", "193242.765000", "193243.225000", "193243.685000", "193244.145000", "193244.605000", "193245.065000", "193245.525000", "193245.985000", "193246.445000", "193246.905000", "193247.365000", "193247.825000", "193248.285000", "193248.745000", "193249.205000", "193249.665000", "193250.125000", "193250.585000", "193251.045000", "193251.505000", "193251.965000", "193252.425000", "193252.885000", "193253.345000", "193253.805000", "193254.265000", "193254.725000", "193255.185000", "193255.645000", "193256.105000", "193256.565000", "193257.025000", "193257.485000", "193257.945000", "193258.405000", "193258.865000", "193259.325000", "193259.785000", "193300.245000", "193300.705000", "193301.165000", "193301.625000", "193302.085000", "193302.545000", "193303.005000", "193303.465000", "193303.925000", "193304.385000", "193304.845000", "193305.305000", "193305.765000", "193306.225000", "193306.685000", "193307.145000", "193307.605000", "193308.065000", "193308.525000", "193308.985000", "193309.445000", "193309.905000", "193310.365000", "193310.825000", "193311.285000", "193311.745000", "193312.205000", "193312.665000", "193313.125000", "193313.585000", "193314.045000", "193314.505000", "193314.965000", "193315.425000", "193315.885000", "193316.345000", "193316.805000", "193317.265000", "193317.725000", "193318.185000", "193318.645000", "193319.105000", "193319.565000", "193320.025000", "193320.485000", "193320.945000", "193321.405000", "193321.865000", "193322.325000", "193322.785000", "193323.245000", "193323.705000", "193324.165000", "193324.625000", "193325.085000", "193325.545000", "193326.005000", "193326.465000", "193326.925000", "193327.385000", "193327.845000", "193328.305000", "193328.765000", "193329.225000", "193329.685000", "193330.145000", "193330.605000", "193331.065000", "193331.525000", "193331.985000", "193332.445000", "193332.905000", "193333.365000", "193333.825000", "193334.285000", "193334.745000", "193335.205000", "193335.665000", "193336.125000", "193336.585000", "193337.045000", "193337.505000", "193337.965000", "193338.425000", "193338.885000", "193339.345000", "193339.805000", "193340.265000", "193340.725000", "193341.185000", "193341.645000", "193342.105000", "193342.565000", "193343.025000", "193343.485000", "193343.945000", "193344.405000", "193344.865000", "193345.325000", "193345.785000", "193346.245000", "193346.705000", "193347.165000", "193347.625000", "193348.085000", "193348.545000", "193349.005000", "193349.465000", "193349.925000", "193350.385000", "193350.845000", "193351.305000", "193351.765000", "193352.225000", "193352.685000", "193353.145000", "193353.605000", "193354.065000", "193354.525000", "193354.985000", "193355.445000", "193355.905000", "193356.365000", "193356.825000", "193357.285000", "193357.745000", "193358.205000", "193358.665000", "193359.125000", "193359.585000", "193400.045000", "193400.505000", "193400.965000", "193401.425000", "193401.885000", "193402.345000", "193402.805000", "193403.265000", "193403.725000", "193404.185000", "193404.645000", "193405.105000", "193405.565000", "193406.025000", "193406.485000", "193406.945000", "193407.405000", "193407.865000", "193408.325000", "193408.785000", "193409.245000", "193409.705000", "193410.165000", "193410.625000", "193411.085000", "193411.545000", "193412.005000", "193412.465000", "193412.925000", "193413.385000", "193413.845000", "193414.305000", "193414.765000", "193415.225000", "193415.685000", "193416.145000", "193416.605000", "193417.065000", "193417.525000", "193417.985000", "193418.445000", "193418.905000", "193419.365000", "193419.825000", "193420.285000", "193420.745000", "193421.205000", "193421.665000", "193422.125000", "193422.585000", "193423.045000", "193423.505000", "193423.965000", "193424.425000", "193424.885000", "193425.345000", "193425.805000", "193426.265000", "193426.725000", "193427.185000", "193427.645000", "193428.105000", "193428.565000", "193429.025000", "193429.485000", "193429.945000", "193430.405000", "193430.865000", "193431.325000", "193431.785000", "193432.245000", "193432.705000", "193433.165000", "193433.625000", "193434.085000", "193434.545000", "193435.005000", "193435.465000", "193435.925000", "193436.385000", "193436.845000", "193437.305000", "193437.765000", "193438.225000", "193438.685000", "193439.145000", "193439.605000", "193440.065000", "193440.525000", "193440.985000", "193441.445000", "193441.905000", "193442.365000"],
