{
  "AcquisitionMatrixPE": 82,
  "AcquisitionNumber": 1,
  "AcquisitionTime": "20:19:12.117500",
  "BandwidthPerPixelPhaseEncode": 24.888,
  "BaseResolution": 82,
  "BodyPartExamined": "BRAIN",
  "ConsistencyInfo": "N4_VE11E_LATEST_20181129",
  "ConversionSoftware": "dcm2niix",
  "ConversionSoftwareVersion": "v1.0.20201102",
  "DerivedVendorReportedEchoSpacing": 0.00049,
  "DeviceSerialNumber": "66112",
  "DwellTime": 2e-06,
  "EchoTime": 0.0272,
  "EchoTrainLength": 82,
  "EffectiveEchoSpacing": 0.00049,
  "FlipAngle": 44,
  "ImageComments": "Unaliased MB8/PE3",
  "ImageOrientationPatientDICOM": [0.990293, 0.0789699, 0.11438, -0.086117, 0.99454, 0.0589483],
  "ImageType": [
    "ORIGINAL",
    "PRIMARY",
    "M",
    "MB",
    "ND",
    "NORM",
    "MOSAIC"
],
  "ImagingFrequency": 123.259,
  "InPlanePhaseEncodingDirectionDICOM": "COL",
  "InstitutionAddress": "Maynard 3,Hanover,NH,US,03755",
  "InstitutionName": "Dartmouth College - PBS",
  "InstitutionalDepartmentName": "Department",
  "MRAcquisitionType": "2D",
  "MagneticFieldStrength": 3,
  "Manufacturer": "Siemens",
  "ManufacturersModelName": "Prisma",
  "Modality": "MR",
  "MultibandAccelerationFactor": 8,
  "PartialFourier": 1,
  "PatientPosition": "HFS",
  "PercentPhaseFOV": 100,
  "PercentSampling": 100,
  "PhaseEncodingDirection": "j-",
  "PhaseEncodingSteps": 82,
  "PhaseResolution": 1,
  "PixelBandwidth": 3050,
  "ProcedureStepDescription": "Wager_Wager^1076_spacetop",
  "ProtocolName": "func_run-03_task-alignvideo_acq-ap-mb8",
  "PulseSequenceDetails": "%CustomerSeq%\\cmrr_mbep2d_bold",
  "ReceiveCoilActiveElements": "HEA;HEP",
  "ReceiveCoilName": "Head_32",
  "ReconMatrixPE": 82,
  "RepetitionTime": 0.46,
  "SAR": 0.0774703,
  "ScanOptions": "FS",
  "ScanningSequence": "EP",
  "SequenceName": "epfid2d1_82",
  "SequenceVariant": "SK\\SS",
  "SeriesDescription": "func_run-03_task-alignvideo_acq-ap-mb8",
  "SeriesNumber": 32,
  "ShimSetting": [4240, -7798, -7280, 182, -161, -177, -153, 82],
  "SliceThickness": 2.7,
  "SliceTiming": [0, 0.2525, 0.065, 0.315, 0.1275, 0.3775, 0.19, 0, 0.2525, 0.065, 0.315, 0.1275, 0.3775, 0.19, 0, 0.2525, 0.065, 0.315, 0.1275, 0.3775, 0.19, 0, 0.2525, 0.065, 0.315, 0.1275, 0.3775, 0.19, 0, 0.2525, 0.065, 0.315, 0.1275, 0.3775, 0.19, 0, 0.2525, 0.065, 0.315, 0.1275, 0.3775, 0.19, 0, 0.2525, 0.065, 0.315, 0.1275, 0.3775, 0.19, 0, 0.2525, 0.065, 0.315, 0.1275, 0.3775, 0.19],
  "SoftwareVersions": "syngo MR E11",
  "SpacingBetweenSlices": 2.7,
  "StationName": "AWP66112",
  "TaskName": "alignvideo",
  "TotalReadoutTime": 0.03969,
  "TxRefAmp": 227.439,
  "WipMemBlock": "d4b81c16-3564-49a8-ac00-64e4529ba501||Sequence: R016 ve11e/master r/434b28f1; Aug  7 2019 18:53:46 by eja",
  "dcmmeta_affine": [
    [-2.6568849086761475, -0.2310456931591034, 0.2945701777935028, 116.5915756225586],
    [-0.21187032759189606, 2.6682770252227783, 0.18421049416065216, -97.740234375],
    [0.30687254667282104, -0.15815384685993195, 2.67755389213562, -94.690185546875],
    [0.0, 0.0, 0.0, 1.0]
],
  "dcmmeta_reorient_transform": [
    [0.0, -1.0, 0.0, 81.0],
    [1.0, 0.0, 0.0, 0.0],
    [0.0, 0.0, 1.0, 0.0],
    [0.0, 0.0, 0.0, 1.0]
],
  "dcmmeta_shape": [82, 82, 56, 1065],
  "dcmmeta_slice_dim": 2,
  "dcmmeta_version": 0.6,
  "global": {
    "const": {
      "AccessionNumber": "A004622",
      "AcquisitionMatrix": [82, 0, 0, 82],
      "AngioFlag": "N",
      "BitsAllocated": 16,
      "BitsStored": 16,
      "BodyPartExamined": "BRAIN",
      "Columns": 656,
      "EchoNumbers": 1,
      "EchoTime": 27.2,
      "EchoTrainLength": 82,
      "FlipAngle": 44.0,
      "HighBit": 15,
      "ImageOrientationPatient": [0.99029340746574, 0.07896984826578, 0.11437976304737, -0.0861170291697, 0.99453957227827, 0.05894825238749],
      "ImagePositionPatient": [-794.09270530631, -944.99247248157, -240.96321990235],
      "ImageType": [
        "ORIGINAL",
        "PRIMARY",
        "M",
        "MB",
        "ND",
        "NORM",
        "MOSAIC"
],
      "ImagedNucleus": "1H",
      "ImagingFrequency": 123.259151,
      "InPlanePhaseEncodingDirection": "COL",
      "MRAcquisitionType": "2D",
      "MagneticFieldStrength": 3.0,
      "Manufacturer": "SIEMENS",
      "ManufacturerModelName": "Prisma",
      "Modality": "MR",
      "NumberOfAverages": 1.0,
      "NumberOfPhaseEncodingSteps": 82,
      "PercentPhaseFieldOfView": 100.0,
      "PercentSampling": 100.0,
      "PerformedProcedureStepStartTime": "181956.274000",
      "PhotometricInterpretation": "MONOCHROME2",
      "PixelBandwidth": 3050.0,
      "PixelRepresentation": 0,
      "PixelSpacing": [2.6829268932343, 2.6829268932343],
      "ProtocolName": "func_run-03_task-alignvideo_acq-ap-mb8",
      "RepetitionTime": 460.0,
      "Rows": 656,
      "SAR": 0.07747032442513,
      "SamplesPerPixel": 1,
      "ScanOptions": "FS",
      "ScanningSequence": "EP",
      "SequenceName": "epfid2d1_82",
      "SequenceVariant": [
        "SK",
        "SS"
],
      "SeriesDescription": "func_run-03_task-alignvideo_acq-ap-mb8",
      "SeriesNumber": 32,
      "SeriesTime": "201926.465000",
      "SliceLocation": -87.851275604361,
      "SliceThickness": 2.7000000476837,
      "SmallestImagePixelValue": 0,
      "SoftwareVersions": "syngo MR E11",
      "SpacingBetweenSlices": 2.7000000021394,
      "SpecificCharacterSet": "ISO_IR 100",
      "StudyID": "1",
      "StudyTime": "181956.226000",
      "TransmitCoilName": "Body",
      "VariableFlipAngleFlag": "N",
      "WindowCenterWidthExplanation": "Algo1"
    },
    "slices": {}
  },
  "time": {
    "samples": {
      "AcquisitionNumber": [1, 2, 3, 4, 5, 6, 7, 8, 9, 10, 11, 12, 13, 14, 15, 16, 17, 18, 19, 20, 21, 22, 23, 24, 25, 26, 27, 28, 29, 30, 31, 32, 33, 34, 35, 36, 37, 38, 39, 40, 41, 42, 43, 44, 45, 46, 47, 48, 49, 50, 51, 52, 53, 54, 55, 56, 57, 58, 59, 60, 61, 62, 63, 64, 65, 66, 67, 68, 69, 70, 71, 72, 73, 74, 75, 76, 77, 78, 79, 80, 81, 82, 83, 84, 85, 86, 87, 88, 89, 90, 91, 92, 93, 94, 95, 96, 97, 98, 99, 100, 101, 102, 103, 104, 105, 106, 107, 108, 109, 110, 111, 112, 113, 114, 115, 116, 117, 118, 119, 120, 121, 122, 123, 124, 125, 126, 127, 128, 129, 130, 131, 132, 133, 134, 135, 136, 137, 138, 139, 140, 141, 142, 143, 144, 145, 146, 147, 148, 149, 150, 151, 152, 153, 154, 155, 156, 157, 158, 159, 160, 161, 162, 163, 164, 165, 166, 167, 168, 169, 170, 171, 172, 173, 174, 175, 176, 177, 178, 179, 180, 181, 182, 183, 184, 185, 186, 187, 188, 189, 190, 191, 192, 193, 194, 195, 196, 197, 198, 199, 200, 201, 202, 203, 204, 205, 206, 207, 208, 209, 210, 211, 212, 213, 214, 215, 216, 217, 218, 219, 220, 221, 222, 223, 224, 225, 226, 227, 228, 229, 230, 231, 232, 233, 234, 235, 236, 237, 238, 239, 240, 241, 242, 243, 244, 245, 246, 247, 248, 249, 250, 251, 252, 253, 254, 255, 256, 257, 258, 259, 260, 261, 262, 263, 264, 265, 266, 267, 268, 269, 270, 271, 272, 273, 274, 275, 276, 277, 278, 279, 280, 281, 282, 283, 284, 285, 286, 287, 288, 289, 290, 291, 292, 293, 294, 295, 296, 297, 298, 299, 300, 301, 302, 303, 304, 305, 306, 307, 308, 309, 310, 311, 312, 313, 314, 315, 316, 317, 318, 319, 320, 321, 322, 323, 324, 325, 326, 327, 328, 329, 330, 331, 332, 333, 334, 335, 336, 337, 338, 339, 340, 341, 342, 343, 344, 345, 346, 347, 348, 349, 350, 351, 352, 353, 354, 355, 356, 357, 358, 359, 360, 361, 362, 363, 364, 365, 366, 367, 368, 369, 370, 371, 372, 373, 374, 375, 376, 377, 378, 379, 380, 381, 382, 383, 384, 385, 386, 387, 388, 389, 390, 391, 392, 393, 394, 395, 396, 397, 398, 399, 400, 401, 402, 403, 404, 405, 406, 407, 408, 409, 410, 411, 412, 413, 414, 415, 416, 417, 418, 419, 420, 421, 422, 423, 424, 425, 426, 427, 428, 429, 430, 431, 432, 433, 434, 435, 436, 437, 438, 439, 440, 441, 442, 443, 444, 445, 446, 447, 448, 449, 450, 451, 452, 453, 454, 455, 456, 457, 458, 459, 460, 461, 462, 463, 464, 465, 466, 467, 468, 469, 470, 471, 472, 473, 474, 475, 476, 477, 478, 479, 480, 481, 482, 483, 484, 485, 486, 487, 488, 489, 490, 491, 492, 493, 494, 495, 496, 497, 498, 499, 500, 501, 502, 503, 504, 505, 506, 507, 508, 509, 510, 511, 512, 513, 514, 515, 516, 517, 518, 519, 520, 521, 522, 523, 524, 525, 526, 527, 528, 529, 530, 531, 532, 533, 534, 535, 536, 537, 538, 539, 540, 541, 542, 543, 544, 545, 546, 547, 548, 549, 550, 551, 552, 553, 554, 555, 556, 557, 558, 559, 560, 561, 562, 563, 564, 565, 566, 567, 568, 569, 570, 571, 572, 573, 574, 575, 576, 577, 578, 579, 580, 581, 582, 583, 584, 585, 586, 587, 588, 589, 590, 591, 592, 593, 594, 595, 596, 597, 598, 599, 600, 601, 602, 603, 604, 605, 606, 607, 608, 609, 610, 611, 612, 613, 614, 615, 616, 617, 618, 619, 620, 621, 622, 623, 624, 625, 626, 627, 628, 629, 630, 631, 632, 633, 634, 635, 636, 637, 638, 639, 640, 641, 642, 643, 644, 645, 646, 647, 648, 649, 650, 651, 652, 653, 654, 655, 656, 657, 658, 659, 660, 661, 662, 663, 664, 665, 666, 667, 668, 669, 670, 671, 672, 673, 674, 675, 676, 677, 678, 679, 680, 681, 682, 683, 684, 685, 686, 687, 688, 689, 690, 691, 692, 693, 694, 695, 696, 697, 698, 699, 700, 701, 702, 703, 704, 705, 706, 707, 708, 709, 710, 711, 712, 713, 714, 715, 716, 717, 718, 719, 720, 721, 722, 723, 724, 725, 726, 727, 728, 729, 730, 731, 732, 733, 734, 735, 736, 737, 738, 739, 740, 741, 742, 743, 744, 745, 746, 747, 748, 749, 750, 751, 752, 753, 754, 755, 756, 757, 758, 759, 760, 761, 762, 763, 764, 765, 766, 767, 768, 769, 770, 771, 772, 773, 774, 775, 776, 777, 778, 779, 780, 781, 782, 783, 784, 785, 786, 787, 788, 789, 790, 791, 792, 793, 794, 795, 796, 797, 798, 799, 800, 801, 802, 803, 804, 805, 806, 807, 808, 809, 810, 811, 812, 813, 814, 815, 816, 817, 818, 819, 820, 821, 822, 823, 824, 825, 826, 827, 828, 829, 830, 831, 832, 833, 834, 835, 836, 837, 838, 839, 840, 841, 842, 843, 844, 845, 846, 847, 848, 849, 850, 851, 852, 853, 854, 855, 856, 857, 858, 859, 860, 861, 862, 863, 864, 865, 866, 867, 868, 869, 870, 871, 872, 873, 874, 875, 876, 877, 878, 879, 880, 881, 882, 883, 884, 885, 886, 887, 888, 889, 890, 891, 892, 893, 894, 895, 896, 897, 898, 899, 900, 901, 902, 903, 904, 905, 906, 907, 908, 909, 910, 911, 912, 913, 914, 915, 916, 917, 918, 919, 920, 921, 922, 923, 924, 925, 926, 927, 928, 929, 930, 931, 932, 933, 934, 935, 936, 937, 938, 939, 940, 941, 942, 943, 944, 945, 946, 947, 948, 949, 950, 951, 952, 953, 954, 955, 956, 957, 958, 959, 960, 961, 962, 963, 964, 965, 966, 967, 968, 969, 970, 971, 972, 973, 974, 975, 976, 977, 978, 979, 980, 981, 982, 983, 984, 985, 986, 987, 988, 989, 990, 991, 992, 993, 994, 995, 996, 997, 998, 999, 1000, 1001, 1002, 1003, 1004, 1005, 1006, 1007, 1008, 1009, 1010, 1011, 1012, 1013, 1014, 1015, 1016, 1017, 1018, 1019, 1020, 1021, 1022, 1023, 1024, 1025, 1026, 1027, 1028, 1029, 1030, 1031, 1032, 1033, 1034, 1035, 1036, 1037, 1038, 1039, 1040, 1041, 1042, 1043, 1044, 1045, 1046, 1047, 1048, 1049, 1050, 1051, 1052, 1053, 1054, 1055, 1056, 1057, 1058, 1059, 1060, 1061, 1062, 1063, 1064, 1065],
      "AcquisitionTime": ["201912.117500", "201912.577500", "201913.037500", "201913.497500", "201913.957500", "201914.417500", "201914.877500", "201915.337500", "201915.797500", "201916.257500", "201916.717500", "201917.177500", "201917.637500", "201918.097500", "201918.557500", "201919.017500", "201919.477500", "201919.937500", "201920.397500", "201920.857500", "201921.317500", "201921.777500", "201922.237500", "201922.697500", "201923.157500", "201923.617500", "201924.077500", "201924.537500", "201924.997500", "201925.457500", "201925.917500", "201926.377500", "201926.837500", "201927.297500", "201927.757500", "201928.217500", "201928.677500", "201929.137500", "201929.597500", "201930.057500", "201930.517500", "201930.977500", "201931.437500", "201931.897500", "201932.357500", "201932.817500", "201933.277500", "201933.737500", "201934.197500", "201934.657500", "201935.117500", "201935.577500", "201936.037500", "201936.497500", "201936.957500", "201937.417500", "201937.877500", "201938.337500", "201938.797500", "201939.257500", "201939.717500", "201940.177500", "201940.637500", "201941.097500", "201941.557500", "201942.017500", "201942.477500", "201942.937500", "201943.397500", "201943.857500", "201944.317500", "201944.777500", "201945.237500", "201945.697500", "201946.157500", "201946.617500", "201947.077500", "201947.537500", "201947.997500", "201948.457500", "201948.917500", "201949.377500", "201949.837500", "201950.297500", "201950.757500", "201951.217500", "201951.677500", "201952.137500", "201952.597500", "201953.057500", "201953.517500", "201953.977500", "201954.437500", "201954.897500", "201955.357500", "201955.817500", "201956.277500", "201956.737500", "201957.197500", "201957.657500", "201958.117500", "201958.577500", "201959.037500", "201959.497500", "201959.957500", "202000.417500", "202000.877500", "202001.337500", "202001.797500", "202002.257500", "202002.717500", "202003.177500", "202003.637500", "202004.097500", "202004.557500", "202005.017500", "202005.477500", "202005.937500", "202006.397500", "202006.857500", "202007.317500", "202007.777500", "202008.237500", "202008.697500", "202009.157500", "202009.617500", "202010.077500", "202010.537500", "202010.997500", "202011.457500", "202011.917500", "202012.377500", "202012.837500", "202013.297500", "202013.757500", "202014.217500", "202014.677500", "202015.137500", "202015.597500", "202016.057500", "202016.517500", "202016.977500", "202017.437500", "202017.897500", "202018.357500", "202018.817500", "202019.277500", "202019.737500", "202020.197500", "202020.657500", "202021.117500", "202021.577500", "202022.037500", "202022.497500", "202022.957500", "202023.417500", "202023.877500", "202024.337500", "202024.797500", "202025.257500", "202025.717500", "202026.177500", "202026.637500", "202027.097500", "202027.557500", "202028.017500", "202028.477500", "202028.937500", "202029.397500", "202029.857500", "202030.317500", "202030.777500", "202031.237500", "202031.697500", "202032.157500", "202032.617500", "202033.077500", "202033.537500", "202033.997500", "202034.457500", "202034.917500", "202035.377500", "202035.837500", "202036.297500", "202036.757500", "202037.217500", "202037.677500", "202038.137500", "202038.597500", "202039.057500", "202039.517500", "202039.977500", "202040.437500", "202040.897500", "202041.357500", "202041.817500", "202042.277500", "202042.737500", "202043.197500", "202043.657500", "202044.117500", "202044.577500", "202045.037500", "202045.497500", "202045.957500", "202046.417500", "202046.877500", "202047.337500", "202047.797500", "202048.257500", "202048.717500", "202049.177500", "202049.637500", "202050.097500", "202050.557500", "202051.017500", "202051.477500", "202051.937500", "202052.397500", "202052.857500", "202053.317500", "202053.777500", "202054.237500", "202054.697500", "202055.157500", "202055.617500", "202056.077500", "202056.537500", "202056.997500", "202057.457500", "202057.917500", "202058.377500", "202058.837500", "202059.297500", "202059.757500", "202100.217500", "202100.677500", "202101.137500", "202101.597500", "202102.057500", "202102.517500", "202102.977500", "202103.437500", "202103.897500", "202104.357500", "202104.817500", "202105.277500", "202105.737500", "202106.197500", "202106.657500", "202107.117500", "202107.577500", "202108.037500", "202108.497500", "202108.957500", "202109.417500", "202109.877500", "202110.337500", "202110.797500", "202111.257500", "202111.717500", "202112.177500", "202112.637500", "202113.097500", "202113.557500", "202114.017500", "202114.477500", "202114.937500", "202115.397500", "202115.857500", "202116.317500", "202116.777500", "202117.237500", "202117.697500", "202118.157500", "202118.617500", "202119.077500", "202119.537500", "202119.997500", "202120.457500", "202120.917500", "202121.377500", "202121.837500", "202122.297500", "202122.757500", "202123.217500", "202123.677500", "202124.137500", "202124.597500", "202125.057500", "202125.517500", "202125.977500", "202126.437500", "202126.897500", "202127.357500", "202127.817500", "202128.277500", "202128.737500", "202129.197500", "202129.657500", "202130.117500", "202130.577500", "202131.037500", "202131.497500", "202131.957500", "202132.417500", "202132.877500", "202133.337500", "202133.797500", "202134.257500", "202134.717500", "202135.177500", "202135.637500", "202136.097500", "202136.557500", "202137.017500", "202137.477500", "202137.937500", "202138.397500", "202138.857500", "202139.317500", "202139.777500", "202140.237500", "202140.697500", "202141.157500", "202141.617500", "202142.077500", "202142.537500", "202142.997500", "202143.457500", "202143.917500", "202144.377500", "202144.837500", "202145.297500", "202145.757500", "202146.217500", "202146.677500", "202147.137500", "202147.597500", "202148.057500", "202148.517500", "202148.977500", "202149.437500", "202149.897500", "202150.357500", "202150.817500", "202151.277500", "202151.737500", "202152.197500", "202152.657500", "202153.117500", "202153.577500", "202154.037500", "202154.497500", "202154.957500", "202155.417500", "202155.877500", "202156.337500", "202156.797500", "202157.257500", "202157.717500", "202158.177500", "202158.637500", "202159.097500", "202159.557500", "202200.017500", "202200.477500", "202200.937500", "202201.397500", "202201.857500", "202202.317500", "202202.777500", "202203.237500", "202203.697500", "202204.157500", "202204.617500", "202205.077500", "202205.537500", "202205.997500", "202206.457500", "202206.917500", "202207.377500", "202207.837500", "202208.297500", "202208.757500", "202209.217500", "202209.677500", "202210.137500", "202210.597500", "202211.057500", "202211.517500", "202211.977500", "202212.437500", "202212.897500", "202213.357500", "202213.817500", "202214.277500", "202214.737500", "202215.197500", "202215.657500", "202216.117500", "202216.577500", "202217.037500", "202217.497500", "202217.957500", "202218.417500", "202218.877500", "202219.337500", "202219.797500", "202220.257500", "202220.717500", "202221.177500", "202221.637500", "202222.097500", "202222.557500", "202223.017500", "202223.477500", "202223.937500", "202224.397500", "202224.857500", "202225.317500", "202225.777500", "202226.237500", "202226.697500", "202227.157500", "202227.617500", "202228.077500", "202228.537500", "202228.997500", "202229.457500", "202229.917500", "202230.377500", "202230.837500", "202231.297500", "202231.757500", "202232.217500", "202232.677500", "202233.137500", "202233.597500", "202234.057500", "202234.517500", "202234.977500", "202235.437500", "202235.897500", "202236.357500", "202236.817500", "202237.277500", "202237.737500", "202238.197500", "202238.657500", "202239.117500", "202239.577500", "202240.037500", "202240.497500", "202240.957500", "202241.417500", "202241.877500", "202242.337500", "202242.797500", "202243.257500", "202243.717500", "202244.177500", "202244.637500", "202245.097500", "202245.557500", "202246.017500", "202246.477500", "202246.937500", "202247.397500", "202247.857500", "202248.317500", "202248.777500", "202249.237500", "202249.697500", "202250.157500", "202250.617500", "202251.077500", "202251.537500", "202251.997500", "202252.457500", "202252.917500", "202253.377500", "202253.837500", "202254.297500", "202254.757500", "202255.217500", "202255.677500", "202256.137500", "202256.597500", "202257.057500", "202257.517500", "202257.977500", "202258.437500", "202258.897500", "202259.357500", "202259.817500", "202300.277500", "202300.737500", "202301.197500", "202301.657500", "202302.117500", "202302.577500", "202303.037500", "202303.497500", "202303.957500", "202304.417500", "202304.877500", "202305.337500", "202305.797500", "202306.257500", "202306.717500", "202307.177500", "202307.637500", "202308.097500", "202308.557500", "202309.017500", "202309.477500", "202309.937500", "202310.397500", "202310.857500", "202311.317500", "202311.777500", "202312.237500", "202312.697500", "202313.157500", "202313.617500", "202314.077500", "202314.537500", "202314.997500", "202315.457500", "202315.917500", "202316.377500", "202316.837500", "202317.297500", "202317.757500", "202318.217500", "202318.677500", "202319.137500", "202319.597500", "202320.057500", "202320.517500", "202320.977500", "202321.437500", "202321.897500", "202322.357500", "202322.817500", "202323.277500", "202323.737500", "202324.197500", "202324.657500", "202325.117500", "202325.577500", "202326.037500", "202326.497500", "202326.957500", "202327.417500", "202327.877500", "202328.337500", "202328.797500", "202329.257500", "202329.717500", "202330.177500", "202330.637500", "202331.097500", "202331.557500", "202332.017500", "202332.477500", "202332.937500", "202333.397500", "202333.857500", "202334.317500", "202334.777500", "202335.237500", "202335.697500", "202336.157500", "202336.617500", "202337.077500", "202337.537500", "202337.997500", "202338.457500", "202338.917500", "202339.377500", "202339.837500", "202340.297500", "202340.757500", "202341.217500", "202341.677500", "202342.137500", "202342.597500", "202343.057500", "202343.517500", "202343.977500", "202344.437500", "202344.897500", "202345.357500", "202345.817500", "202346.277500", "202346.737500", "202347.197500", "202347.657500", "202348.117500", "202348.577500", "202349.037500", "202349.497500", "202349.957500", "202350.417500", "202350.877500", "202351.337500", "202351.797500", "202352.257500", "202352.717500", "202353.177500", "202353.637500", "202354.097500", "202354.557500", "202355.017500", "202355.477500", "202355.937500", "202356.397500", "202356.857500", "202357.317500", "202357.777500", "202358.237500", "202358.697500", "202359.157500", "202359.617500", "202400.077500", "202400.537500", "202400.997500", "202401.457500", "202401.917500", "202402.377500", "202402.837500", "202403.297500", "202403.757500", "202404.217500", "202404.677500", "202405.137500", "202405.597500", "202406.057500", "202406.517500", "202406.977500", "202407.437500", "202407.897500", "202408.357500", "202408.817500", "202409.277500", "202409.737500", "202410.197500", "202410.657500", "202411.117500", "202411.577500", "202412.037500", "202412.497500", "202412.957500", "202413.417500", "202413.877500", "202414.337500", "202414.797500", "202415.257500", "202415.717500", "202416.177500", "202416.637500", "202417.097500", "202417.557500", "202418.017500", "202418.477500", "202418.937500", "202419.397500", "202419.857500", "202420.317500", "202420.777500", "202421.237500", "202421.697500", "202422.157500", "202422.617500", "202423.077500", "202423.537500", "202423.997500", "202424.457500", "202424.917500", "202425.377500", "202425.837500", "202426.297500", "202426.757500", "202427.217500", "202427.677500", "202428.137500", "202428.597500", "202429.057500", "202429.517500", "202429.977500", "202430.437500", "202430.897500", "202431.357500", "202431.817500", "202432.277500", "202432.737500", "202433.197500", "202433.657500", "202434.117500", "202434.577500", "202435.037500", "202435.497500", "202435.957500", "202436.417500", "202436.877500", "202437.337500", "202437.797500", "202438.257500", "202438.717500", "202439.177500", "202439.637500", "202440.097500", "202440.557500", "202441.017500", "202441.477500", "202441.937500", "202442.397500", "202442.857500", "202443.317500", "202443.777500", "202444.237500", "202444.697500", "202445.157500", "202445.617500", "202446.077500", "202446.537500", "202446.997500", "202447.457500", "202447.917500", "202448.377500", "202448.837500", "202449.297500", "202449.757500", "202450.217500", "202450.677500", "202451.137500", "202451.597500", "202452.057500", "202452.517500", "202452.977500", "202453.437500", "202453.897500", "202454.357500", "202454.817500", "202455.277500", "202455.737500", "202456.197500", "202456.657500", "202457.117500", "202457.577500", "202458.037500", "202458.497500", "202458.957500", "202459.417500", "202459.877500", "202500.337500", "202500.797500", "202501.257500", "202501.717500", "202502.177500", "202502.637500", "202503.097500", "202503.557500", "202504.017500", "202504.477500", "202504.937500", "202505.397500", "202505.857500", "202506.317500", "202506.777500", "202507.237500", "202507.697500", "202508.157500", "202508.617500", "202509.077500", "202509.537500", "202509.997500", "202510.457500", "202510.917500", "202511.377500", "202511.837500", "202512.297500", "202512.757500", "202513.217500", "202513.677500", "202514.137500", "202514.597500", "202515.057500", "202515.517500", "202515.977500", "202516.437500", "202516.897500", "202517.357500", "202517.817500", "202518.277500", "202518.737500", "202519.197500", "202519.657500", "202520.117500", "202520.577500", "202521.037500", "202521.497500", "202521.957500", "202522.417500", "202522.877500", "202523.337500", "202523.797500", "202524.257500", "202524.717500", "202525.177500", "202525.637500", "202526.097500", "202526.557500", "202527.017500", "202527.477500", "202527.937500", "202528.397500", "202528.857500", "202529.317500", "202529.777500", "202530.237500", "202530.697500", "202531.157500", "202531.617500", "202532.077500", "202532.537500", "202532.997500", "202533.457500", "202533.917500", "202534.377500", "202534.837500", "202535.297500", "202535.757500", "202536.217500", "202536.677500", "202537.137500", "202537.597500", "202538.057500", "202538.517500", "202538.977500", "202539.437500", "202539.897500", "202540.357500", "202540.817500", "202541.277500", "202541.737500", "202542.197500", "202542.657500", "202543.117500", "202543.577500", "202544.037500", "202544.497500", "202544.957500", "202545.417500", "202545.877500", "202546.337500", "202546.797500", "202547.257500", "202547.717500", "202548.177500", "202548.637500", "202549.097500", "202549.557500", "202550.017500", "202550.477500", "202550.937500", "202551.397500", "202551.857500", "202552.317500", "202552.777500", "202553.237500", "202553.697500", "202554.157500", "202554.617500", "202555.077500", "202555.537500", "202555.997500", "202556.457500", "202556.917500", "202557.377500", "202557.837500", "202558.297500", "202558.757500", "202559.217500", "202559.677500", "202600.137500", "202600.597500", "202601.057500", "202601.517500", "202601.977500", "202602.437500", "202602.897500", "202603.357500", "202603.817500", "202604.277500", "202604.737500", "202605.197500", "202605.657500", "202606.117500", "202606.577500", "202607.037500", "202607.497500", "202607.957500", "202608.417500", "202608.877500", "202609.337500", "202609.797500", "202610.257500", "202610.717500", "202611.177500", "202611.637500", "202612.097500", "202612.557500", "202613.017500", "202613.477500", "202613.937500", "202614.397500", "202614.857500", "202615.317500", "202615.777500", "202616.237500", "202616.697500", "202617.157500", "202617.617500", "202618.077500", "202618.537500", "202618.997500", "202619.457500", "202619.917500", "202620.377500", "202620.837500", "202621.297500", "202621.757500", "202622.217500", "202622.677500", "202623.137500", "202623.597500", "202624.057500", "202624.517500", "202624.977500", "202625.437500", "202625.897500", "202626.357500", "202626.817500", "202627.277500", "202627.737500", "202628.197500", "202628.657500", "202629.117500", "202629.577500", "202630.037500", "202630.497500", "202630.957500", "202631.417500", "202631.877500", "202632.337500", "202632.797500", "202633.257500", "202633.717500", "202634.177500", "202634.637500", "202635.097500", "202635.557500", "202636.017500", "202636.477500", "202636.937500", "202637.397500", "202637.857500", "202638.317500", "202638.777500", "202639.237500", "202639.697500", "202640.157500", "202640.617500", "202641.077500", "202641.537500", "202641.997500", "202642.457500", "202642.917500", "202643.377500", "202643.837500", "202644.297500", "202644.757500", "202645.217500", "202645.677500", "202646.137500", "202646.597500", "202647.057500", "202647.517500", "202647.977500", "202648.437500", "202648.897500", "202649.357500", "202649.817500", "202650.277500", "202650.737500", "202651.197500", "202651.657500", "202652.117500", "202652.577500", "202653.037500", "202653.497500", "202653.957500", "202654.417500", "202654.877500", "202655.337500", "202655.797500", "202656.257500", "202656.717500", "202657.177500", "202657.637500", "202658.097500", "202658.557500", "202659.017500", "202659.477500", "202659.937500", "202700.397500", "202700.857500", "202701.317500", "202701.777500", "202702.237500", "202702.697500", "202703.157500", "202703.617500", "202704.077500", "202704.537500", "202704.997500", "202705.457500", "202705.917500", "202706.377500", "202706.837500", "202707.297500", "202707.757500", "202708.217500", "202708.677500", "202709.137500", "202709.597500", "202710.057500", "202710.517500", "202710.977500", "202711.437500", "202711.897500", "202712.357500", "202712.817500", "202713.277500", "202713.737500", "202714.197500", "202714.657500", "202715.117500", "202715.577500", "202716.037500", "202716.497500", "202716.957500", "202717.417500", "202717.877500", "202718.337500", "202718.797500", "202719.257500", "202719.717500", "202720.177500", "202720.637500", "202721.097500", "202721.557500"],
