{
  "AcquisitionMatrixPE": 82,
  "AcquisitionNumber": 1,
  "AcquisitionTime": "19:12:19.510000",
  "BandwidthPerPixelPhaseEncode": 24.888,
  "BaseResolution": 82,
  "BodyPartExamined": "BRAIN",
  "ConsistencyInfo": "N4_VE11E_LATEST_20181129",
  "ConversionSoftware": "dcm2niix",
  "ConversionSoftwareVersion": "v1.0.20201102",
  "DerivedVendorReportedEchoSpacing": 0.00049,
  "DeviceSerialNumber": "66112",
  "DwellTime": 2e-06,
  "EchoTime": 0.0272,
  "EchoTrainLength": 82,
  "EffectiveEchoSpacing": 0.00049,
  "FlipAngle": 44,
  "ImageComments": "Unaliased MB8/PE3",
  "ImageOrientationPatientDICOM": [0.990884, 0.0891463, 0.101006, -0.0851229, 0.995422, -0.0434753],
  "ImageType": [
    "ORIGINAL",
    "PRIMARY",
    "M",
    "MB",
    "ND",
    "NORM",
    "MOSAIC"
],
  "ImagingFrequency": 123.259,
  "InPlanePhaseEncodingDirectionDICOM": "COL",
  "InstitutionAddress": "Maynard 3,Hanover,NH,US,03755",
  "InstitutionName": "Dartmouth College - PBS",
  "InstitutionalDepartmentName": "Department",
  "MRAcquisitionType": "2D",
  "MagneticFieldStrength": 3,
  "Manufacturer": "Siemens",
  "ManufacturersModelName": "Prisma",
  "Modality": "MR",
  "MultibandAccelerationFactor": 8,
  "PartialFourier": 1,
  "PatientPosition": "HFS",
  "PercentPhaseFOV": 100,
  "PercentSampling": 100,
  "PhaseEncodingDirection": "j-",
  "PhaseEncodingSteps": 82,
  "PhaseResolution": 1,
  "PixelBandwidth": 3050,
  "ProcedureStepDescription": "Wager_Wager^1076_spacetop",
  "ProtocolName": "func_run-03_task-social_acq-ap-mb8",
  "PulseSequenceDetails": "%CustomerSeq%\\cmrr_mbep2d_bold",
  "ReceiveCoilActiveElements": "HEA;HEP",
  "ReceiveCoilName": "Head_32",
  "ReconMatrixPE": 82,
  "RepetitionTime": 0.46,
  "SAR": 0.077383,
  "ScanOptions": "FS",
  "ScanningSequence": "EP",
  "SequenceName": "epfid2d1_82",
  "SequenceVariant": "SK\\SS",
  "SeriesDescription": "func_run-03_task-social_acq-ap-mb8",
  "SeriesNumber": 12,
  "ShimSetting": [4240, -7797, -7274, 190, -156, -140, -154, 83],
  "SliceThickness": 2.7,
  "SliceTiming": [0, 0.2525, 0.0625, 0.315, 0.125, 0.3775, 0.1875, 0, 0.2525, 0.0625, 0.315, 0.125, 0.3775, 0.1875, 0, 0.2525, 0.0625, 0.315, 0.125, 0.3775, 0.1875, 0, 0.2525, 0.0625, 0.315, 0.125, 0.3775, 0.1875, 0, 0.2525, 0.0625, 0.315, 0.125, 0.3775, 0.1875, 0, 0.2525, 0.0625, 0.315, 0.125, 0.3775, 0.1875, 0, 0.2525, 0.0625, 0.315, 0.125, 0.3775, 0.1875, 0, 0.2525, 0.0625, 0.315, 0.125, 0.3775, 0.1875],
  "SoftwareVersions": "syngo MR E11",
  "SpacingBetweenSlices": 2.7,
  "StationName": "AWP66112",
  "TaskName": "social",
  "TotalReadoutTime": 0.03969,
  "TxRefAmp": 227.439,
  "WipMemBlock": "993aa1dc-dba1-48ff-a829-07bf6cf50bdc||Sequence: R016 ve11e/master r/434b28f1; Aug  7 2019 18:53:46 by eja",
  "dcmmeta_affine": [
    [-2.658468723297119, -0.22837845981121063, 0.2819322943687439, 117.1225357055664],
    [-0.2391730397939682, 2.6706430912017822, -0.09309882670640945, -88.25395965576172],
    [0.27099213004112244, 0.1166410818696022, 2.6836256980895996, -97.76757049560547],
    [0.0, 0.0, 0.0, 1.0]
],
  "dcmmeta_reorient_transform": [
    [0.0, -1.0, 0.0, 81.0],
    [1.0, 0.0, 0.0, 0.0],
    [0.0, 0.0, 1.0, 0.0],
    [0.0, 0.0, 0.0, 1.0]
],
  "dcmmeta_shape": [82, 82, 56, 872],
  "dcmmeta_slice_dim": 2,
  "dcmmeta_version": 0.6,
  "global": {
    "const": {
      "AccessionNumber": "A004622",
      "AcquisitionMatrix": [82, 0, 0, 82],
      "AngioFlag": "N",
      "BitsAllocated": 16,
      "BitsStored": 16,
      "BodyPartExamined": "BRAIN",
      "Columns": 656,
      "EchoNumbers": 1,
      "EchoTime": 27.2,
      "EchoTrainLength": 82,
      "FlipAngle": 44.0,
      "HighBit": 15,
      "ImageOrientationPatient": [0.99088379329064, 0.08914631034714, 0.10100615597801, -0.0851228789284, 0.99542151510353, -0.0434753119821],
      "ImagePositionPatient": [-796.05980437322, -963.18538374279, -132.61839300794],
      "ImageType": [
        "ORIGINAL",
        "PRIMARY",
        "M",
        "MB",
        "ND",
        "NORM",
        "MOSAIC"
],
      "ImagedNucleus": "1H",
      "ImagingFrequency": 123.259117,
      "InPlanePhaseEncodingDirection": "COL",
      "MRAcquisitionType": "2D",
      "MagneticFieldStrength": 3.0,
      "Manufacturer": "SIEMENS",
      "ManufacturerModelName": "Prisma",
      "Modality": "MR",
      "NumberOfAverages": 1.0,
      "NumberOfPhaseEncodingSteps": 82,
      "PercentPhaseFieldOfView": 100.0,
      "PercentSampling": 100.0,
      "PerformedProcedureStepStartTime": "181956.274000",
      "PhotometricInterpretation": "MONOCHROME2",
      "PixelBandwidth": 3050.0,
      "PixelRepresentation": 0,
      "PixelSpacing": [2.6829268932343, 2.6829268932343],
      "ProtocolName": "func_run-03_task-social_acq-ap-mb8",
      "RepetitionTime": 460.0,
      "Rows": 656,
      "SAR": 0.07738302820502,
      "SamplesPerPixel": 1,
      "ScanOptions": "FS",
      "ScanningSequence": "EP",
      "SequenceName": "epfid2d1_82",
      "SequenceVariant": [
        "SK",
        "SS"
],
      "SeriesDescription": "func_run-03_task-social_acq-ap-mb8",
      "SeriesNumber": 12,
      "SeriesTime": "191246.363000",
      "SliceLocation": -81.901702347254,
      "SliceThickness": 2.7000000476837,
      "SmallestImagePixelValue": 0,
      "SoftwareVersions": "syngo MR E11",
      "SpacingBetweenSlices": 2.6999999733702,
      "SpecificCharacterSet": "ISO_IR 100",
      "StudyID": "1",
      "StudyTime": "181956.226000",
      "TransmitCoilName": "Body",
      "VariableFlipAngleFlag": "N",
      "WindowCenterWidthExplanation": "Algo1"
    },
    "slices": {}
  },
  "time": {
    "samples": {
      "AcquisitionNumber": [1, 2, 3, 4, 5, 6, 7, 8, 9, 10, 11, 12, 13, 14, 15, 16, 17, 18, 19, 20, 21, 22, 23, 24, 25, 26, 27, 28, 29, 30, 31, 32, 33, 34, 35, 36, 37, 38, 39, 40, 41, 42, 43, 44, 45, 46, 47, 48, 49, 50, 51, 52, 53, 54, 55, 56, 57, 58, 59, 60, 61, 62, 63, 64, 65, 66, 67, 68, 69, 70, 71, 72, 73, 74, 75, 76, 77, 78, 79, 80, 81, 82, 83, 84, 85, 86, 87, 88, 89, 90, 91, 92, 93, 94, 95, 96, 97, 98, 99, 100, 101, 102, 103, 104, 105, 106, 107, 108, 109, 110, 111, 112, 113, 114, 115, 116, 117, 118, 119, 120, 121, 122, 123, 124, 125, 126, 127, 128, 129, 130, 131, 132, 133, 134, 135, 136, 137, 138, 139, 140, 141, 142, 143, 144, 145, 146, 147, 148, 149, 150, 151, 152, 153, 154, 155, 156, 157, 158, 159, 160, 161, 162, 163, 164, 165, 166, 167, 168, 169, 170, 171, 172, 173, 174, 175, 176, 177, 178, 179, 180, 181, 182, 183, 184, 185, 186, 187, 188, 189, 190, 191, 192, 193, 194, 195, 196, 197, 198, 199, 200, 201, 202, 203, 204, 205, 206, 207, 208, 209, 210, 211, 212, 213, 214, 215, 216, 217, 218, 219, 220, 221, 222, 223, 224, 225, 226, 227, 228, 229, 230, 231, 232, 233, 234, 235, 236, 237, 238, 239, 240, 241, 242, 243, 244, 245, 246, 247, 248, 249, 250, 251, 252, 253, 254, 255, 256, 257, 258, 259, 260, 261, 262, 263, 264, 265, 266, 267, 268, 269, 270, 271, 272, 273, 274, 275, 276, 277, 278, 279, 280, 281, 282, 283, 284, 285, 286, 287, 288, 289, 290, 291, 292, 293, 294, 295, 296, 297, 298, 299, 300, 301, 302, 303, 304, 305, 306, 307, 308, 309, 310, 311, 312, 313, 314, 315, 316, 317, 318, 319, 320, 321, 322, 323, 324, 325, 326, 327, 328, 329, 330, 331, 332, 333, 334, 335, 336, 337, 338, 339, 340, 341, 342, 343, 344, 345, 346, 347, 348, 349, 350, 351, 352, 353, 354, 355, 356, 357, 358, 359, 360, 361, 362, 363, 364, 365, 366, 367, 368, 369, 370, 371, 372, 373, 374, 375, 376, 377, 378, 379, 380, 381, 382, 383, 384, 385, 386, 387, 388, 389, 390, 391, 392, 393, 394, 395, 396, 397, 398, 399, 400, 401, 402, 403, 404, 405, 406, 407, 408, 409, 410, 411, 412, 413, 414, 415, 416, 417, 418, 419, 420, 421, 422, 423, 424, 425, 426, 427, 428, 429, 430, 431, 432, 433, 434, 435, 436, 437, 438, 439, 440, 441, 442, 443, 444, 445, 446, 447, 448, 449, 450, 451, 452, 453, 454, 455, 456, 457, 458, 459, 460, 461, 462, 463, 464, 465, 466, 467, 468, 469, 470, 471, 472, 473, 474, 475, 476, 477, 478, 479, 480, 481, 482, 483, 484, 485, 486, 487, 488, 489, 490, 491, 492, 493, 494, 495, 496, 497, 498, 499, 500, 501, 502, 503, 504, 505, 506, 507, 508, 509, 510, 511, 512, 513, 514, 515, 516, 517, 518, 519, 520, 521, 522, 523, 524, 525, 526, 527, 528, 529, 530, 531, 532, 533, 534, 535, 536, 537, 538, 539, 540, 541, 542, 543, 544, 545, 546, 547, 548, 549, 550, 551, 552, 553, 554, 555, 556, 557, 558, 559, 560, 561, 562, 563, 564, 565, 566, 567, 568, 569, 570, 571, 572, 573, 574, 575, 576, 577, 578, 579, 580, 581, 582, 583, 584, 585, 586, 587, 588, 589, 590, 591, 592, 593, 594, 595, 596, 597, 598, 599, 600, 601, 602, 603, 604, 605, 606, 607, 608, 609, 610, 611, 612, 613, 614, 615, 616, 617, 618, 619, 620, 621, 622, 623, 624, 625, 626, 627, 628, 629, 630, 631, 632, 633, 634, 635, 636, 637, 638, 639, 640, 641, 642, 643, 644, 645, 646, 647, 648, 649, 650, 651, 652, 653, 654, 655, 656, 657, 658, 659, 660, 661, 662, 663, 664, 665, 666, 667, 668, 669, 670, 671, 672, 673, 674, 675, 676, 677, 678, 679, 680, 681, 682, 683, 684, 685, 686, 687, 688, 689, 690, 691, 692, 693, 694, 695, 696, 697, 698, 699, 700, 701, 702, 703, 704, 705, 706, 707, 708, 709, 710, 711, 712, 713, 714, 715, 716, 717, 718, 719, 720, 721, 722, 723, 724, 725, 726, 727, 728, 729, 730, 731, 732, 733, 734, 735, 736, 737, 738, 739, 740, 741, 742, 743, 744, 745, 746, 747, 748, 749, 750, 751, 752, 753, 754, 755, 756, 757, 758, 759, 760, 761, 762, 763, 764, 765, 766, 767, 768, 769, 770, 771, 772, 773, 774, 775, 776, 777, 778, 779, 780, 781, 782, 783, 784, 785, 786, 787, 788, 789, 790, 791, 792, 793, 794, 795, 796, 797, 798, 799, 800, 801, 802, 803, 804, 805, 806, 807, 808, 809, 810, 811, 812, 813, 814, 815, 816, 817, 818, 819, 820, 821, 822, 823, 824, 825, 826, 827, 828, 829, 830, 831, 832, 833, 834, 835, 836, 837, 838, 839, 840, 841, 842, 843, 844, 845, 846, 847, 848, 849, 850, 851, 852, 853, 854, 855, 856, 857, 858, 859, 860, 861, 862, 863, 864, 865, 866, 867, 868, 869, 870, 871, 872],
      "AcquisitionTime": ["191219.510000", "191219.970000", "191220.430000", "191220.890000", "191221.350000", "191221.810000", "191222.270000", "191222.730000", "191223.190000", "191223.650000", "191224.110000", "191224.570000", "191225.030000", "191225.490000", "191225.950000", "191226.410000", "191226.870000", "191227.330000", "191227.790000", "191228.250000", "191228.710000", "191229.170000", "191229.630000", "191230.090000", "191230.550000", "191231.010000", "191231.470000", "191231.930000", "191232.390000", "191232.850000", "191233.310000", "191233.770000", "191234.230000", "191234.690000", "191235.150000", "191235.610000", "191236.070000", "191236.530000", "191236.990000", "191237.450000", "191237.910000", "191238.370000", "191238.830000", "191239.290000", "191239.750000", "191240.210000", "191240.670000", "191241.130000", "191241.590000", "191242.050000", "191242.510000", "191242.970000", "191243.430000", "191243.890000", "191244.350000", "191244.810000", "191245.270000", "191245.730000", "191246.190000", "191246.650000", "191247.110000", "191247.570000", "191248.030000", "191248.490000", "191248.950000", "191249.410000", "191249.870000", "191250.330000", "191250.790000", "191251.250000", "191251.710000", "191252.170000", "191252.630000", "191253.090000", "191253.550000", "191254.010000", "191254.470000", "191254.930000", "191255.390000", "191255.850000", "191256.310000", "191256.770000", "191257.230000", "191257.690000", "191258.150000", "191258.610000", "191259.070000", "191259.530000", "191259.990000", "191300.450000", "191300.910000", "191301.370000", "191301.830000", "191302.290000", "191302.750000", "191303.210000", "191303.670000", "191304.130000", "191304.590000", "191305.050000", "191305.510000", "191305.970000", "191306.430000", "191306.890000", "191307.350000", "191307.810000", "191308.270000", "191308.730000", "191309.190000", "191309.650000", "191310.110000", "191310.570000", "191311.030000", "191311.490000", "191311.950000", "191312.410000", "191312.870000", "191313.330000", "191313.790000", "191314.250000", "191314.710000", "191315.170000", "191315.630000", "191316.090000", "191316.550000", "191317.010000", "191317.470000", "191317.930000", "191318.390000", "191318.850000", "191319.310000", "191319.770000", "191320.230000", "191320.690000", "191321.150000", "191321.610000", "191322.070000", "191322.530000", "191322.990000", "191323.450000", "191323.910000", "191324.370000", "191324.830000", "191325.290000", "191325.750000", "191326.210000", "191326.670000", "191327.130000", "191327.590000", "191328.050000", "191328.510000", "191328.970000", "191329.430000", "191329.890000", "191330.350000", "191330.810000", "191331.270000", "191331.730000", "191332.190000", "191332.650000", "191333.110000", "191333.570000", "191334.030000", "191334.490000", "191334.950000", "191335.410000", "191335.870000", "191336.330000", "191336.790000", "191337.250000", "191337.710000", "191338.170000", "191338.630000", "191339.090000", "191339.550000", "191340.010000", "191340.470000", "191340.930000", "191341.390000", "191341.850000", "191342.310000", "191342.770000", "191343.230000", "191343.690000", "191344.150000", "191344.610000", "191345.070000", "191345.530000", "191345.990000", "191346.450000", "191346.910000", "191347.370000", "191347.830000", "191348.290000", "191348.750000", "191349.210000", "191349.670000", "191350.130000", "191350.590000", "191351.050000", "191351.510000", "191351.970000", "191352.430000", "191352.890000", "191353.350000", "191353.810000", "191354.270000", "191354.730000", "191355.190000", "191355.650000", "191356.110000", "191356.570000", "191357.030000", "191357.490000", "191357.950000", "191358.410000", "191358.870000", "191359.330000", "191359.790000", "191400.250000", "191400.710000", "191401.170000", "191401.630000", "191402.090000", "191402.550000", "191403.010000", "191403.470000", "191403.930000", "191404.390000", "191404.850000", "191405.310000", "191405.770000", "191406.230000", "191406.690000", "191407.150000", "191407.610000", "191408.070000", "191408.530000", "191408.990000", "191409.450000", "191409.910000", "191410.370000", "191410.830000", "191411.290000", "191411.750000", "191412.210000", "191412.670000", "191413.130000", "191413.590000", "191414.050000", "191414.510000", "191414.970000", "191415.430000", "191415.890000", "191416.350000", "191416.810000", "191417.270000", "191417.730000", "191418.190000", "191418.650000", "191419.110000", "191419.570000", "191420.030000", "191420.490000", "191420.950000", "191421.410000", "191421.870000", "191422.330000", "191422.790000", "191423.250000", "191423.710000", "191424.170000", "191424.630000", "191425.090000", "191425.550000", "191426.010000", "191426.470000", "191426.930000", "191427.390000", "191427.850000", "191428.310000", "191428.770000", "191429.230000", "191429.690000", "191430.150000", "191430.610000", "191431.070000", "191431.530000", "191431.990000", "191432.450000", "191432.910000", "191433.370000", "191433.830000", "191434.290000", "191434.750000", "191435.210000", "191435.670000", "191436.130000", "191436.590000", "191437.050000", "191437.510000", "191437.970000", "191438.430000", "191438.890000", "191439.350000", "191439.810000", "191440.270000", "191440.730000", "191441.190000", "191441.650000", "191442.110000", "191442.570000", "191443.030000", "191443.490000", "191443.950000", "191444.410000", "191444.870000", "191445.330000", "191445.790000", "191446.250000", "191446.710000", "191447.170000", "191447.630000", "191448.090000", "191448.550000", "191449.010000", "191449.470000", "191449.930000", "191450.390000", "191450.850000", "191451.310000", "191451.770000", "191452.230000", "191452.690000", "191453.150000", "191453.610000", "191454.070000", "191454.530000", "191454.990000", "191455.450000", "191455.910000", "191456.370000", "191456.830000", "191457.290000", "191457.750000", "191458.210000", "191458.670000", "191459.130000", "191459.590000", "191500.050000", "191500.510000", "191500.970000", "191501.430000", "191501.890000", "191502.350000", "191502.810000", "191503.270000", "191503.730000", "191504.190000", "191504.650000", "191505.110000", "191505.570000", "191506.030000", "191506.490000", "191506.950000", "191507.410000", "191507.870000", "191508.330000", "191508.790000", "191509.250000", "191509.710000", "191510.170000", "191510.630000", "191511.090000", "191511.550000", "191512.010000", "191512.470000", "191512.930000", "191513.390000", "191513.850000", "191514.310000", "191514.770000", "191515.230000", "191515.690000", "191516.150000", "191516.610000", "191517.070000", "191517.530000", "191517.990000", "191518.450000", "191518.910000", "191519.370000", "191519.830000", "191520.290000", "191520.750000", "191521.210000", "191521.670000", "191522.130000", "191522.590000", "191523.050000", "191523.510000", "191523.970000", "191524.430000", "191524.890000", "191525.350000", "191525.810000", "191526.270000", "191526.730000", "191527.190000", "191527.650000", "191528.110000", "191528.570000", "191529.030000", "191529.490000", "191529.950000", "191530.410000", "191530.870000", "191531.330000", "191531.790000", "191532.250000", "191532.710000", "191533.170000", "191533.630000", "191534.090000", "191534.550000", "191535.010000", "191535.470000", "191535.930000", "191536.390000", "191536.850000", "191537.310000", "191537.770000", "191538.230000", "191538.690000", "191539.150000", "191539.610000", "191540.070000", "191540.530000", "191540.990000", "191541.450000", "191541.910000", "191542.370000", "191542.830000", "191543.290000", "191543.750000", "191544.210000", "191544.670000", "191545.130000", "191545.590000", "191546.050000", "191546.510000", "191546.970000", "191547.430000", "191547.890000", "191548.350000", "191548.810000", "191549.270000", "191549.730000", "191550.190000", "191550.650000", "191551.110000", "191551.570000", "191552.030000", "191552.490000", "191552.950000", "191553.410000", "191553.870000", "191554.330000", "191554.790000", "191555.250000", "191555.710000", "191556.170000", "191556.630000", "191557.090000", "191557.550000", "191558.010000", "191558.470000", "191558.930000", "191559.390000", "191559.850000", "191600.310000", "191600.770000", "191601.230000", "191601.690000", "191602.150000", "191602.610000", "191603.070000", "191603.530000", "191603.990000", "191604.450000", "191604.910000", "191605.370000", "191605.830000", "191606.290000", "191606.750000", "191607.210000", "191607.670000", "191608.130000", "191608.590000", "191609.050000", "191609.510000", "191609.970000", "191610.430000", "191610.890000", "191611.350000", "191611.810000", "191612.270000", "191612.730000", "191613.190000", "191613.650000", "191614.110000", "191614.570000", "191615.030000", "191615.490000", "191615.950000", "191616.410000", "191616.870000", "191617.330000", "191617.790000", "191618.250000", "191618.710000", "191619.170000", "191619.630000", "191620.090000", "191620.550000", "191621.010000", "191621.470000", "191621.930000", "191622.390000", "191622.850000", "191623.310000", "191623.770000", "191624.230000", "191624.690000", "191625.150000", "191625.610000", "191626.070000", "191626.530000", "191626.990000", "191627.450000", "191627.910000", "191628.370000", "191628.830000", "191629.290000", "191629.750000", "191630.210000", "191630.670000", "191631.130000", "191631.590000", "191632.050000", "191632.510000", "191632.970000", "191633.430000", "191633.890000", "191634.350000", "191634.810000", "191635.270000", "191635.730000", "191636.190000", "191636.650000", "191637.110000", "191637.570000", "191638.030000", "191638.490000", "191638.950000", "191639.410000", "191639.870000", "191640.330000", "191640.790000", "191641.250000", "191641.710000", "191642.170000", "191642.630000", "191643.090000", "191643.550000", "191644.010000", "191644.470000", "191644.930000", "191645.390000", "191645.850000", "191646.310000", "191646.770000", "191647.230000", "191647.690000", "191648.150000", "191648.610000", "191649.070000", "191649.530000", "191649.990000", "191650.450000", "191650.910000", "191651.370000", "191651.830000", "191652.290000", "191652.750000", "191653.210000", "191653.670000", "191654.130000", "191654.590000", "191655.050000", "191655.510000", "191655.970000", "191656.430000", "191656.890000", "191657.350000", "191657.810000", "191658.270000", "191658.730000", "191659.190000", "191659.650000", "191700.110000", "191700.570000", "191701.030000", "191701.490000", "191701.950000", "191702.410000", "191702.870000", "191703.330000", "191703.790000", "191704.250000", "191704.710000", "191705.170000", "191705.630000", "191706.090000", "191706.550000", "191707.010000", "191707.470000", "191707.930000", "191708.390000", "191708.850000", "191709.310000", "191709.770000", "191710.230000", "191710.690000", "191711.150000", "191711.610000", "191712.070000", "191712.530000", "191712.990000", "191713.450000", "191713.910000", "191714.370000", "191714.830000", "191715.290000", "191715.750000", "191716.210000", "191716.670000", "191717.130000", "191717.590000", "191718.050000", "191718.510000", "191718.970000", "191719.430000", "191719.890000", "191720.350000", "191720.810000", "191721.270000", "191721.730000", "191722.190000", "191722.650000", "191723.110000", "191723.570000", "191724.030000", "191724.490000", "191724.950000", "191725.410000", "191725.870000", "191726.330000", "191726.790000", "191727.250000", "191727.710000", "191728.170000", "191728.630000", "191729.090000", "191729.550000", "191730.010000", "191730.470000", "191730.930000", "191731.390000", "191731.850000", "191732.310000", "191732.770000", "191733.230000", "191733.690000", "191734.150000", "191734.610000", "191735.070000", "191735.530000", "191735.990000", "191736.450000", "191736.910000", "191737.370000", "191737.830000", "191738.290000", "191738.750000", "191739.210000", "191739.670000", "191740.130000", "191740.590000", "191741.050000", "191741.510000", "191741.970000", "191742.430000", "191742.890000", "191743.350000", "191743.810000", "191744.270000", "191744.730000", "191745.190000", "191745.650000", "191746.110000", "191746.570000", "191747.030000", "191747.490000", "191747.950000", "191748.410000", "191748.870000", "191749.330000", "191749.790000", "191750.250000", "191750.710000", "191751.170000", "191751.630000", "191752.090000", "191752.550000", "191753.010000", "191753.470000", "191753.930000", "191754.390000", "191754.850000", "191755.310000", "191755.770000", "191756.230000", "191756.690000", "191757.150000", "191757.610000", "191758.070000", "191758.530000", "191758.990000", "191759.450000", "191759.910000", "191800.370000", "191800.830000", "191801.290000", "191801.750000", "191802.210000", "191802.670000", "191803.130000", "191803.590000", "191804.050000", "191804.510000", "191804.970000", "191805.430000", "191805.890000", "191806.350000", "191806.810000", "191807.270000", "191807.730000", "191808.190000", "191808.650000", "191809.110000", "191809.570000", "191810.030000", "191810.490000", "191810.950000", "191811.410000", "191811.870000", "191812.330000", "191812.790000", "191813.250000", "191813.710000", "191814.170000", "191814.630000", "191815.090000", "191815.550000", "191816.010000", "191816.470000", "191816.930000", "191817.390000", "191817.850000", "191818.310000", "191818.770000", "191819.230000", "191819.690000", "191820.150000", "191820.610000", "191821.070000", "191821.530000", "191821.990000", "191822.450000", "191822.910000", "191823.370000", "191823.830000", "191824.290000", "191824.750000", "191825.210000", "191825.670000", "191826.130000", "191826.590000", "191827.050000", "191827.510000", "191827.970000", "191828.430000", "191828.890000", "191829.350000", "191829.810000", "191830.270000", "191830.730000", "191831.190000", "191831.650000", "191832.110000", "191832.570000", "191833.030000", "191833.490000", "191833.950000", "191834.410000", "191834.870000", "191835.330000", "191835.790000", "191836.250000", "191836.710000", "191837.170000", "191837.630000", "191838.090000", "191838.550000", "191839.010000", "191839.470000", "191839.930000", "191840.390000", "191840.850000", "191841.310000", "191841.770000", "191842.230000", "191842.690000", "191843.150000", "191843.610000", "191844.070000", "191844.530000", "191844.990000", "191845.450000", "191845.910000", "191846.370000", "191846.830000", "191847.290000", "191847.750000", "191848.210000", "191848.670000", "191849.130000", "191849.590000", "191850.050000", "191850.510000", "191850.970000", "191851.430000", "191851.890000", "191852.350000", "191852.810000", "191853.270000", "191853.730000", "191854.190000", "191854.650000", "191855.110000", "191855.570000", "191856.030000", "191856.490000", "191856.950000", "191857.410000", "191857.870000", "191858.330000", "191858.790000", "191859.250000", "191859.710000", "191900.170000"],
