{
  "AcquisitionMatrixPE": 82,
  "AcquisitionNumber": 1,
  "AcquisitionTime": "19:05:19.460000",
  "BandwidthPerPixelPhaseEncode": 24.888,
  "BaseResolution": 82,
  "BodyPartExamined": "BRAIN",
  "ConsistencyInfo": "N4_VE11E_LATEST_20181129",
  "ConversionSoftware": "dcm2niix",
  "ConversionSoftwareVersion": "v1.0.20201102",
  "DerivedVendorReportedEchoSpacing": 0.00049,
  "DeviceSerialNumber": "66112",
  "DwellTime": 2e-06,
  "EchoTime": 0.0272,
  "EchoTrainLength": 82,
  "EffectiveEchoSpacing": 0.00049,
  "FlipAngle": 44,
  "ImageComments": "Unaliased MB8/PE3",
  "ImageOrientationPatientDICOM": [0.990884, 0.0891463, 0.101006, -0.0851229, 0.995422, -0.0434753],
  "ImageType": [
    "ORIGINAL",
    "PRIMARY",
    "M",
    "MB",
    "ND",
    "NORM",
    "MOSAIC"
],
  "ImagingFrequency": 123.259,
  "InPlanePhaseEncodingDirectionDICOM": "COL",
  "InstitutionAddress": "Maynard 3,Hanover,NH,US,03755",
  "InstitutionName": "Dartmouth College - PBS",
  "InstitutionalDepartmentName": "Department",
  "MRAcquisitionType": "2D",
  "MagneticFieldStrength": 3,
  "Manufacturer": "Siemens",
  "ManufacturersModelName": "Prisma",
  "Modality": "MR",
  "MultibandAccelerationFactor": 8,
  "PartialFourier": 1,
  "PatientPosition": "HFS",
  "PercentPhaseFOV": 100,
  "PercentSampling": 100,
  "PhaseEncodingDirection": "j-",
  "PhaseEncodingSteps": 82,
  "PhaseResolution": 1,
  "PixelBandwidth": 3050,
  "ProcedureStepDescription": "Wager_Wager^1076_spacetop",
  "ProtocolName": "func_run-02_task-social_acq-ap-mb8",
  "PulseSequenceDetails": "%CustomerSeq%\\cmrr_mbep2d_bold",
  "ReceiveCoilActiveElements": "HEA;HEP",
  "ReceiveCoilName": "Head_32",
  "ReconMatrixPE": 82,
  "RepetitionTime": 0.46,
  "SAR": 0.077383,
  "ScanOptions": "FS",
  "ScanningSequence": "EP",
  "SequenceName": "epfid2d1_82",
  "SequenceVariant": "SK\\SS",
  "SeriesDescription": "func_run-02_task-social_acq-ap-mb8",
  "SeriesNumber": 10,
  "ShimSetting": [4240, -7797, -7274, 190, -156, -140, -154, 83],
  "SliceThickness": 2.7,
  "SliceTiming": [0, 0.2525, 0.0625, 0.315, 0.125, 0.3775, 0.1875, 0, 0.2525, 0.0625, 0.315, 0.125, 0.3775, 0.1875, 0, 0.2525, 0.0625, 0.315, 0.125, 0.3775, 0.1875, 0, 0.2525, 0.0625, 0.315, 0.125, 0.3775, 0.1875, 0, 0.2525, 0.0625, 0.315, 0.125, 0.3775, 0.1875, 0, 0.2525, 0.0625, 0.315, 0.125, 0.3775, 0.1875, 0, 0.2525, 0.0625, 0.315, 0.125, 0.3775, 0.1875, 0, 0.2525, 0.0625, 0.315, 0.125, 0.3775, 0.1875],
  "SoftwareVersions": "syngo MR E11",
  "SpacingBetweenSlices": 2.7,
  "StationName": "AWP66112",
  "TaskName": "social",
  "TotalReadoutTime": 0.03969,
  "TxRefAmp": 227.439,
  "WipMemBlock": "ca516408-f37c-46c9-af29-61348276d617||Sequence: R016 ve11e/master r/434b28f1; Aug  7 2019 18:53:46 by eja",
  "dcmmeta_affine": [
    [-2.658468723297119, -0.22837845981121063, 0.2819322943687439, 117.1225357055664],
    [-0.2391730397939682, 2.6706430912017822, -0.09309882670640945, -88.25395965576172],
    [0.27099213004112244, 0.1166410818696022, 2.6836256980895996, -97.76757049560547],
    [0.0, 0.0, 0.0, 1.0]
],
  "dcmmeta_reorient_transform": [
    [0.0, -1.0, 0.0, 81.0],
    [1.0, 0.0, 0.0, 0.0],
    [0.0, 0.0, 1.0, 0.0],
    [0.0, 0.0, 0.0, 1.0]
],
  "dcmmeta_shape": [82, 82, 56, 872],
  "dcmmeta_slice_dim": 2,
  "dcmmeta_version": 0.6,
  "global": {
    "const": {
      "AccessionNumber": "A004622",
      "AcquisitionMatrix": [82, 0, 0, 82],
      "AngioFlag": "N",
      "BitsAllocated": 16,
      "BitsStored": 16,
      "BodyPartExamined": "BRAIN",
      "Columns": 656,
      "EchoNumbers": 1,
      "EchoTime": 27.2,
      "EchoTrainLength": 82,
      "FlipAngle": 44.0,
      "HighBit": 15,
      "ImageOrientationPatient": [0.99088379329064, 0.08914631034714, 0.10100615597801, -0.0851228789284, 0.99542151510353, -0.0434753119821],
      "ImagePositionPatient": [-796.05980437322, -963.18538374279, -132.61839300794],
      "ImageType": [
        "ORIGINAL",
        "PRIMARY",
        "M",
        "MB",
        "ND",
        "NORM",
        "MOSAIC"
],
      "ImagedNucleus": "1H",
      "ImagingFrequency": 123.259111,
      "InPlanePhaseEncodingDirection": "COL",
      "MRAcquisitionType": "2D",
      "MagneticFieldStrength": 3.0,
      "Manufacturer": "SIEMENS",
      "ManufacturerModelName": "Prisma",
      "Modality": "MR",
      "NumberOfAverages": 1.0,
      "NumberOfPhaseEncodingSteps": 82,
      "PercentPhaseFieldOfView": 100.0,
      "PercentSampling": 100.0,
      "PerformedProcedureStepStartTime": "181956.274000",
      "PhotometricInterpretation": "MONOCHROME2",
      "PixelBandwidth": 3050.0,
      "PixelRepresentation": 0,
      "PixelSpacing": [2.6829268932343, 2.6829268932343],
      "ProtocolName": "func_run-02_task-social_acq-ap-mb8",
      "RepetitionTime": 460.0,
      "Rows": 656,
      "SAR": 0.07738302820502,
      "SamplesPerPixel": 1,
      "ScanOptions": "FS",
      "ScanningSequence": "EP",
      "SequenceName": "epfid2d1_82",
      "SequenceVariant": [
        "SK",
        "SS"
],
      "SeriesDescription": "func_run-02_task-social_acq-ap-mb8",
      "SeriesNumber": 10,
      "SeriesTime": "190546.276000",
      "SliceLocation": -81.901702347254,
      "SliceThickness": 2.7000000476837,
      "SmallestImagePixelValue": 0,
      "SoftwareVersions": "syngo MR E11",
      "SpacingBetweenSlices": 2.6999999733702,
      "SpecificCharacterSet": "ISO_IR 100",
      "StudyID": "1",
      "StudyTime": "181956.226000",
      "TransmitCoilName": "Body",
      "VariableFlipAngleFlag": "N",
      "WindowCenterWidthExplanation": "Algo1"
    },
    "slices": {}
  },
  "time": {
    "samples": {
      "AcquisitionNumber": [1, 2, 3, 4, 5, 6, 7, 8, 9, 10, 11, 12, 13, 14, 15, 16, 17, 18, 19, 20, 21, 22, 23, 24, 25, 26, 27, 28, 29, 30, 31, 32, 33, 34, 35, 36, 37, 38, 39, 40, 41, 42, 43, 44, 45, 46, 47, 48, 49, 50, 51, 52, 53, 54, 55, 56, 57, 58, 59, 60, 61, 62, 63, 64, 65, 66, 67, 68, 69, 70, 71, 72, 73, 74, 75, 76, 77, 78, 79, 80, 81, 82, 83, 84, 85, 86, 87, 88, 89, 90, 91, 92, 93, 94, 95, 96, 97, 98, 99, 100, 101, 102, 103, 104, 105, 106, 107, 108, 109, 110, 111, 112, 113, 114, 115, 116, 117, 118, 119, 120, 121, 122, 123, 124, 125, 126, 127, 128, 129, 130, 131, 132, 133, 134, 135, 136, 137, 138, 139, 140, 141, 142, 143, 144, 145, 146, 147, 148, 149, 150, 151, 152, 153, 154, 155, 156, 157, 158, 159, 160, 161, 162, 163, 164, 165, 166, 167, 168, 169, 170, 171, 172, 173, 174, 175, 176, 177, 178, 179, 180, 181, 182, 183, 184, 185, 186, 187, 188, 189, 190, 191, 192, 193, 194, 195, 196, 197, 198, 199, 200, 201, 202, 203, 204, 205, 206, 207, 208, 209, 210, 211, 212, 213, 214, 215, 216, 217, 218, 219, 220, 221, 222, 223, 224, 225, 226, 227, 228, 229, 230, 231, 232, 233, 234, 235, 236, 237, 238, 239, 240, 241, 242, 243, 244, 245, 246, 247, 248, 249, 250, 251, 252, 253, 254, 255, 256, 257, 258, 259, 260, 261, 262, 263, 264, 265, 266, 267, 268, 269, 270, 271, 272, 273, 274, 275, 276, 277, 278, 279, 280, 281, 282, 283, 284, 285, 286, 287, 288, 289, 290, 291, 292, 293, 294, 295, 296, 297, 298, 299, 300, 301, 302, 303, 304, 305, 306, 307, 308, 309, 310, 311, 312, 313, 314, 315, 316, 317, 318, 319, 320, 321, 322, 323, 324, 325, 326, 327, 328, 329, 330, 331, 332, 333, 334, 335, 336, 337, 338, 339, 340, 341, 342, 343, 344, 345, 346, 347, 348, 349, 350, 351, 352, 353, 354, 355, 356, 357, 358, 359, 360, 361, 362, 363, 364, 365, 366, 367, 368, 369, 370, 371, 372, 373, 374, 375, 376, 377, 378, 379, 380, 381, 382, 383, 384, 385, 386, 387, 388, 389, 390, 391, 392, 393, 394, 395, 396, 397, 398, 399, 400, 401, 402, 403, 404, 405, 406, 407, 408, 409, 410, 411, 412, 413, 414, 415, 416, 417, 418, 419, 420, 421, 422, 423, 424, 425, 426, 427, 428, 429, 430, 431, 432, 433, 434, 435, 436, 437, 438, 439, 440, 441, 442, 443, 444, 445, 446, 447, 448, 449, 450, 451, 452, 453, 454, 455, 456, 457, 458, 459, 460, 461, 462, 463, 464, 465, 466, 467, 468, 469, 470, 471, 472, 473, 474, 475, 476, 477, 478, 479, 480, 481, 482, 483, 484, 485, 486, 487, 488, 489, 490, 491, 492, 493, 494, 495, 496, 497, 498, 499, 500, 501, 502, 503, 504, 505, 506, 507, 508, 509, 510, 511, 512, 513, 514, 515, 516, 517, 518, 519, 520, 521, 522, 523, 524, 525, 526, 527, 528, 529, 530, 531, 532, 533, 534, 535, 536, 537, 538, 539, 540, 541, 542, 543, 544, 545, 546, 547, 548, 549, 550, 551, 552, 553, 554, 555, 556, 557, 558, 559, 560, 561, 562, 563, 564, 565, 566, 567, 568, 569, 570, 571, 572, 573, 574, 575, 576, 577, 578, 579, 580, 581, 582, 583, 584, 585, 586, 587, 588, 589, 590, 591, 592, 593, 594, 595, 596, 597, 598, 599, 600, 601, 602, 603, 604, 605, 606, 607, 608, 609, 610, 611, 612, 613, 614, 615, 616, 617, 618, 619, 620, 621, 622, 623, 624, 625, 626, 627, 628, 629, 630, 631, 632, 633, 634, 635, 636, 637, 638, 639, 640, 641, 642, 643, 644, 645, 646, 647, 648, 649, 650, 651, 652, 653, 654, 655, 656, 657, 658, 659, 660, 661, 662, 663, 664, 665, 666, 667, 668, 669, 670, 671, 672, 673, 674, 675, 676, 677, 678, 679, 680, 681, 682, 683, 684, 685, 686, 687, 688, 689, 690, 691, 692, 693, 694, 695, 696, 697, 698, 699, 700, 701, 702, 703, 704, 705, 706, 707, 708, 709, 710, 711, 712, 713, 714, 715, 716, 717, 718, 719, 720, 721, 722, 723, 724, 725, 726, 727, 728, 729, 730, 731, 732, 733, 734, 735, 736, 737, 738, 739, 740, 741, 742, 743, 744, 745, 746, 747, 748, 749, 750, 751, 752, 753, 754, 755, 756, 757, 758, 759, 760, 761, 762, 763, 764, 765, 766, 767, 768, 769, 770, 771, 772, 773, 774, 775, 776, 777, 778, 779, 780, 781, 782, 783, 784, 785, 786, 787, 788, 789, 790, 791, 792, 793, 794, 795, 796, 797, 798, 799, 800, 801, 802, 803, 804, 805, 806, 807, 808, 809, 810, 811, 812, 813, 814, 815, 816, 817, 818, 819, 820, 821, 822, 823, 824, 825, 826, 827, 828, 829, 830, 831, 832, 833, 834, 835, 836, 837, 838, 839, 840, 841, 842, 843, 844, 845, 846, 847, 848, 849, 850, 851, 852, 853, 854, 855, 856, 857, 858, 859, 860, 861, 862, 863, 864, 865, 866, 867, 868, 869, 870, 871, 872],
      "AcquisitionTime": ["190519.460000", "190519.920000", "190520.380000", "190520.840000", "190521.300000", "190521.760000", "190522.220000", "190522.680000", "190523.140000", "190523.600000", "190524.060000", "190524.520000", "190524.980000", "190525.440000", "190525.900000", "190526.360000", "190526.820000", "190527.280000", "190527.740000", "190528.200000", "190528.660000", "190529.120000", "190529.580000", "190530.040000", "190530.500000", "190530.960000", "190531.420000", "190531.880000", "190532.340000", "190532.800000", "190533.260000", "190533.720000", "190534.180000", "190534.640000", "190535.100000", "190535.560000", "190536.020000", "190536.480000", "190536.940000", "190537.400000", "190537.860000", "190538.320000", "190538.780000", "190539.240000", "190539.700000", "190540.160000", "190540.620000", "190541.080000", "190541.540000", "190542.000000", "190542.460000", "190542.920000", "190543.380000", "190543.840000", "190544.300000", "190544.760000", "190545.220000", "190545.680000", "190546.140000", "190546.600000", "190547.060000", "190547.520000", "190547.980000", "190548.440000", "190548.900000", "190549.360000", "190549.820000", "190550.280000", "190550.740000", "190551.200000", "190551.660000", "190552.120000", "190552.580000", "190553.040000", "190553.500000", "190553.960000", "190554.420000", "190554.880000", "190555.340000", "190555.800000", "190556.260000", "190556.720000", "190557.180000", "190557.640000", "190558.100000", "190558.560000", "190559.020000", "190559.480000", "190559.940000", "190600.400000", "190600.860000", "190601.320000", "190601.780000", "190602.240000", "190602.700000", "190603.160000", "190603.620000", "190604.080000", "190604.540000", "190605.000000", "190605.460000", "190605.920000", "190606.380000", "190606.840000", "190607.300000", "190607.760000", "190608.220000", "190608.680000", "190609.140000", "190609.600000", "190610.060000", "190610.520000", "190610.980000", "190611.440000", "190611.900000", "190612.360000", "190612.820000", "190613.280000", "190613.740000", "190614.200000", "190614.660000", "190615.120000", "190615.580000", "190616.040000", "190616.500000", "190616.960000", "190617.420000", "190617.880000", "190618.340000", "190618.800000", "190619.260000", "190619.720000", "190620.180000", "190620.640000", "190621.100000", "190621.560000", "190622.020000", "190622.480000", "190622.940000", "190623.400000", "190623.860000", "190624.320000", "190624.780000", "190625.240000", "190625.700000", "190626.160000", "190626.620000", "190627.080000", "190627.540000", "190628.000000", "190628.460000", "190628.920000", "190629.380000", "190629.840000", "190630.300000", "190630.760000", "190631.220000", "190631.680000", "190632.140000", "190632.600000", "190633.060000", "190633.520000", "190633.980000", "190634.440000", "190634.900000", "190635.360000", "190635.820000", "190636.280000", "190636.740000", "190637.200000", "190637.660000", "190638.120000", "190638.580000", "190639.040000", "190639.500000", "190639.960000", "190640.420000", "190640.880000", "190641.340000", "190641.800000", "190642.260000", "190642.720000", "190643.180000", "190643.640000", "190644.100000", "190644.560000", "190645.020000", "190645.480000", "190645.940000", "190646.400000", "190646.860000", "190647.320000", "190647.780000", "190648.240000", "190648.700000", "190649.160000", "190649.620000", "190650.080000", "190650.540000", "190651.000000", "190651.460000", "190651.920000", "190652.380000", "190652.840000", "190653.300000", "190653.760000", "190654.220000", "190654.680000", "190655.140000", "190655.600000", "190656.060000", "190656.520000", "190656.980000", "190657.440000", "190657.900000", "190658.360000", "190658.820000", "190659.280000", "190659.740000", "190700.200000", "190700.660000", "190701.120000", "190701.580000", "190702.040000", "190702.500000", "190702.960000", "190703.420000", "190703.880000", "190704.340000", "190704.800000", "190705.260000", "190705.720000", "190706.180000", "190706.640000", "190707.100000", "190707.560000", "190708.020000", "190708.480000", "190708.940000", "190709.400000", "190709.860000", "190710.320000", "190710.780000", "190711.240000", "190711.700000", "190712.160000", "190712.620000", "190713.080000", "190713.540000", "190714.000000", "190714.460000", "190714.920000", "190715.380000", "190715.840000", "190716.300000", "190716.760000", "190717.220000", "190717.680000", "190718.140000", "190718.600000", "190719.060000", "190719.520000", "190719.980000", "190720.440000", "190720.900000", "190721.360000", "190721.820000", "190722.280000", "190722.740000", "190723.200000", "190723.660000", "190724.120000", "190724.580000", "190725.040000", "190725.500000", "190725.960000", "190726.420000", "190726.880000", "190727.340000", "190727.800000", "190728.260000", "190728.720000", "190729.180000", "190729.640000", "190730.100000", "190730.560000", "190731.020000", "190731.480000", "190731.940000", "190732.400000", "190732.860000", "190733.320000", "190733.780000", "190734.240000", "190734.700000", "190735.160000", "190735.620000", "190736.080000", "190736.540000", "190737.000000", "190737.460000", "190737.920000", "190738.380000", "190738.840000", "190739.300000", "190739.760000", "190740.220000", "190740.680000", "190741.140000", "190741.600000", "190742.060000", "190742.520000", "190742.980000", "190743.440000", "190743.900000", "190744.360000", "190744.820000", "190745.280000", "190745.740000", "190746.200000", "190746.660000", "190747.120000", "190747.580000", "190748.040000", "190748.500000", "190748.960000", "190749.420000", "190749.880000", "190750.340000", "190750.800000", "190751.260000", "190751.720000", "190752.180000", "190752.640000", "190753.100000", "190753.560000", "190754.020000", "190754.480000", "190754.940000", "190755.400000", "190755.860000", "190756.320000", "190756.780000", "190757.240000", "190757.700000", "190758.160000", "190758.620000", "190759.080000", "190759.540000", "190800.000000", "190800.460000", "190800.920000", "190801.380000", "190801.840000", "190802.300000", "190802.760000", "190803.220000", "190803.680000", "190804.140000", "190804.600000", "190805.060000", "190805.520000", "190805.980000", "190806.440000", "190806.900000", "190807.360000", "190807.820000", "190808.280000", "190808.740000", "190809.200000", "190809.660000", "190810.120000", "190810.580000", "190811.040000", "190811.500000", "190811.960000", "190812.420000", "190812.880000", "190813.340000", "190813.800000", "190814.260000", "190814.720000", "190815.180000", "190815.640000", "190816.100000", "190816.560000", "190817.020000", "190817.480000", "190817.940000", "190818.400000", "190818.860000", "190819.320000", "190819.780000", "190820.240000", "190820.700000", "190821.160000", "190821.620000", "190822.080000", "190822.540000", "190823.000000", "190823.460000", "190823.920000", "190824.380000", "190824.840000", "190825.300000", "190825.760000", "190826.220000", "190826.680000", "190827.140000", "190827.600000", "190828.060000", "190828.520000", "190828.980000", "190829.440000", "190829.900000", "190830.360000", "190830.820000", "190831.280000", "190831.740000", "190832.200000", "190832.660000", "190833.120000", "190833.580000", "190834.040000", "190834.500000", "190834.960000", "190835.420000", "190835.880000", "190836.340000", "190836.800000", "190837.260000", "190837.720000", "190838.180000", "190838.640000", "190839.100000", "190839.560000", "190840.020000", "190840.480000", "190840.940000", "190841.400000", "190841.860000", "190842.320000", "190842.780000", "190843.240000", "190843.700000", "190844.160000", "190844.620000", "190845.080000", "190845.540000", "190846.000000", "190846.460000", "190846.920000", "190847.380000", "190847.840000", "190848.300000", "190848.760000", "190849.220000", "190849.680000", "190850.140000", "190850.600000", "190851.060000", "190851.520000", "190851.980000", "190852.440000", "190852.900000", "190853.360000", "190853.820000", "190854.280000", "190854.740000", "190855.200000", "190855.660000", "190856.120000", "190856.580000", "190857.040000", "190857.500000", "190857.960000", "190858.420000", "190858.880000", "190859.340000", "190859.800000", "190900.260000", "190900.720000", "190901.180000", "190901.640000", "190902.100000", "190902.560000", "190903.020000", "190903.480000", "190903.940000", "190904.400000", "190904.860000", "190905.320000", "190905.780000", "190906.240000", "190906.700000", "190907.160000", "190907.620000", "190908.080000", "190908.540000", "190909.000000", "190909.460000", "190909.920000", "190910.380000", "190910.840000", "190911.300000", "190911.760000", "190912.220000", "190912.680000", "190913.140000", "190913.600000", "190914.060000", "190914.520000", "190914.980000", "190915.440000", "190915.900000", "190916.360000", "190916.820000", "190917.280000", "190917.740000", "190918.200000", "190918.660000", "190919.120000", "190919.580000", "190920.040000", "190920.500000", "190920.960000", "190921.420000", "190921.880000", "190922.340000", "190922.800000", "190923.260000", "190923.720000", "190924.180000", "190924.640000", "190925.100000", "190925.560000", "190926.020000", "190926.480000", "190926.940000", "190927.400000", "190927.860000", "190928.320000", "190928.780000", "190929.240000", "190929.700000", "190930.160000", "190930.620000", "190931.080000", "190931.540000", "190932.000000", "190932.460000", "190932.920000", "190933.380000", "190933.840000", "190934.300000", "190934.760000", "190935.220000", "190935.680000", "190936.140000", "190936.600000", "190937.060000", "190937.520000", "190937.980000", "190938.440000", "190938.900000", "190939.360000", "190939.820000", "190940.280000", "190940.740000", "190941.200000", "190941.660000", "190942.120000", "190942.580000", "190943.040000", "190943.500000", "190943.960000", "190944.420000", "190944.880000", "190945.340000", "190945.800000", "190946.260000", "190946.720000", "190947.180000", "190947.640000", "190948.100000", "190948.560000", "190949.020000", "190949.480000", "190949.940000", "190950.400000", "190950.860000", "190951.320000", "190951.780000", "190952.240000", "190952.700000", "190953.160000", "190953.620000", "190954.080000", "190954.540000", "190955.000000", "190955.460000", "190955.920000", "190956.380000", "190956.840000", "190957.300000", "190957.760000", "190958.220000", "190958.680000", "190959.140000", "190959.600000", "191000.060000", "191000.520000", "191000.980000", "191001.440000", "191001.900000", "191002.360000", "191002.820000", "191003.280000", "191003.740000", "191004.200000", "191004.660000", "191005.120000", "191005.580000", "191006.040000", "191006.500000", "191006.960000", "191007.420000", "191007.880000", "191008.340000", "191008.800000", "191009.260000", "191009.720000", "191010.180000", "191010.640000", "191011.100000", "191011.560000", "191012.020000", "191012.480000", "191012.940000", "191013.400000", "191013.860000", "191014.320000", "191014.780000", "191015.240000", "191015.700000", "191016.160000", "191016.620000", "191017.080000", "191017.540000", "191018.000000", "191018.460000", "191018.920000", "191019.380000", "191019.840000", "191020.300000", "191020.760000", "191021.220000", "191021.680000", "191022.140000", "191022.600000", "191023.060000", "191023.520000", "191023.980000", "191024.440000", "191024.900000", "191025.360000", "191025.820000", "191026.280000", "191026.740000", "191027.200000", "191027.660000", "191028.120000", "191028.580000", "191029.040000", "191029.500000", "191029.960000", "191030.420000", "191030.880000", "191031.340000", "191031.800000", "191032.260000", "191032.720000", "191033.180000", "191033.640000", "191034.100000", "191034.560000", "191035.020000", "191035.480000", "191035.940000", "191036.400000", "191036.860000", "191037.320000", "191037.780000", "191038.240000", "191038.700000", "191039.160000", "191039.620000", "191040.080000", "191040.540000", "191041.000000", "191041.460000", "191041.920000", "191042.380000", "191042.840000", "191043.300000", "191043.760000", "191044.220000", "191044.680000", "191045.140000", "191045.600000", "191046.060000", "191046.520000", "191046.980000", "191047.440000", "191047.900000", "191048.360000", "191048.820000", "191049.280000", "191049.740000", "191050.200000", "191050.660000", "191051.120000", "191051.580000", "191052.040000", "191052.500000", "191052.960000", "191053.420000", "191053.880000", "191054.340000", "191054.800000", "191055.260000", "191055.720000", "191056.180000", "191056.640000", "191057.100000", "191057.560000", "191058.020000", "191058.480000", "191058.940000", "191059.400000", "191059.860000", "191100.320000", "191100.780000", "191101.240000", "191101.700000", "191102.160000", "191102.620000", "191103.080000", "191103.540000", "191104.000000", "191104.460000", "191104.920000", "191105.380000", "191105.840000", "191106.300000", "191106.760000", "191107.220000", "191107.680000", "191108.140000", "191108.600000", "191109.060000", "191109.520000", "191109.980000", "191110.440000", "191110.900000", "191111.360000", "191111.820000", "191112.280000", "191112.740000", "191113.200000", "191113.660000", "191114.120000", "191114.580000", "191115.040000", "191115.500000", "191115.960000", "191116.420000", "191116.880000", "191117.340000", "191117.800000", "191118.260000", "191118.720000", "191119.180000", "191119.640000", "191120.100000", "191120.560000", "191121.020000", "191121.480000", "191121.940000", "191122.400000", "191122.860000", "191123.320000", "191123.780000", "191124.240000", "191124.700000", "191125.160000", "191125.620000", "191126.080000", "191126.540000", "191127.000000", "191127.460000", "191127.920000", "191128.380000", "191128.840000", "191129.300000", "191129.760000", "191130.220000", "191130.680000", "191131.140000", "191131.600000", "191132.060000", "191132.520000", "191132.980000", "191133.440000", "191133.900000", "191134.360000", "191134.820000", "191135.280000", "191135.740000", "191136.200000", "191136.660000", "191137.120000", "191137.580000", "191138.040000", "191138.500000", "191138.960000", "191139.420000", "191139.880000", "191140.340000", "191140.800000", "191141.260000", "191141.720000", "191142.180000", "191142.640000", "191143.100000", "191143.560000", "191144.020000", "191144.480000", "191144.940000", "191145.400000", "191145.860000", "191146.320000", "191146.780000", "191147.240000", "191147.700000", "191148.160000", "191148.620000", "191149.080000", "191149.540000", "191150.000000", "191150.460000", "191150.920000", "191151.380000", "191151.840000", "191152.300000", "191152.760000", "191153.220000", "191153.680000", "191154.140000", "191154.600000", "191155.060000", "191155.520000", "191155.980000", "191156.440000", "191156.900000", "191157.360000", "191157.820000", "191158.280000", "191158.740000", "191159.200000", "191159.660000", "191200.120000"],
