{
  "AcquisitionMatrixPE": 82,
  "AcquisitionNumber": 1,
  "AcquisitionTime": "18:58:21.482500",
  "BandwidthPerPixelPhaseEncode": 24.888,
  "BaseResolution": 82,
  "BodyPartExamined": "BRAIN",
  "ConsistencyInfo": "N4_VE11E_LATEST_20181129",
  "ConversionSoftware": "dcm2niix",
  "ConversionSoftwareVersion": "v1.0.20201102",
  "DerivedVendorReportedEchoSpacing": 0.00049,
  "DeviceSerialNumber": "66112",
  "DwellTime": 2e-06,
  "EchoTime": 0.0272,
  "EchoTrainLength": 82,
  "EffectiveEchoSpacing": 0.00049,
  "FlipAngle": 44,
  "ImageComments": "Unaliased MB8/PE3",
  "ImageOrientationPatientDICOM": [0.990884, 0.0891463, 0.101006, -0.0851229, 0.995422, -0.0434753],
  "ImageType": [
    "ORIGINAL",
    "PRIMARY",
    "M",
    "MB",
    "ND",
    "NORM",
    "MOSAIC"
],
  "ImagingFrequency": 123.259,
  "InPlanePhaseEncodingDirectionDICOM": "COL",
  "InstitutionAddress": "Maynard 3,Hanover,NH,US,03755",
  "InstitutionName": "Dartmouth College - PBS",
  "InstitutionalDepartmentName": "Department",
  "MRAcquisitionType": "2D",
  "MagneticFieldStrength": 3,
  "Manufacturer": "Siemens",
  "ManufacturersModelName": "Prisma",
  "Modality": "MR",
  "MultibandAccelerationFactor": 8,
  "PartialFourier": 1,
  "PatientPosition": "HFS",
  "PercentPhaseFOV": 100,
  "PercentSampling": 100,
  "PhaseEncodingDirection": "j-",
  "PhaseEncodingSteps": 82,
  "PhaseResolution": 1,
  "PixelBandwidth": 3050,
  "ProcedureStepDescription": "Wager_Wager^1076_spacetop",
  "ProtocolName": "func_run-01_task-social_acq-ap-mb8",
  "PulseSequenceDetails": "%CustomerSeq%\\cmrr_mbep2d_bold",
  "ReceiveCoilActiveElements": "HEA;HEP",
  "ReceiveCoilName": "Head_32",
  "ReconMatrixPE": 82,
  "RepetitionTime": 0.46,
  "SAR": 0.077383,
  "ScanOptions": "FS",
  "ScanningSequence": "EP",
  "SequenceName": "epfid2d1_82",
  "SequenceVariant": "SK\\SS",
  "SeriesDescription": "func_run-01_task-social_acq-ap-mb8",
  "SeriesNumber": 8,
  "ShimSetting": [4240, -7797, -7274, 190, -156, -140, -154, 83],
  "SliceThickness": 2.7,
  "SliceTiming": [0, 0.2525, 0.0625, 0.315, 0.125, 0.3775, 0.19, 0, 0.2525, 0.0625, 0.315, 0.125, 0.3775, 0.19, 0, 0.2525, 0.0625, 0.315, 0.125, 0.3775, 0.19, 0, 0.2525, 0.0625, 0.315, 0.125, 0.3775, 0.19, 0, 0.2525, 0.0625, 0.315, 0.125, 0.3775, 0.19, 0, 0.2525, 0.0625, 0.315, 0.125, 0.3775, 0.19, 0, 0.2525, 0.0625, 0.315, 0.125, 0.3775, 0.19, 0, 0.2525, 0.0625, 0.315, 0.125, 0.3775, 0.19],
  "SoftwareVersions": "syngo MR E11",
  "SpacingBetweenSlices": 2.7,
  "StationName": "AWP66112",
  "TaskName": "social",
  "TotalReadoutTime": 0.03969,
  "TxRefAmp": 227.439,
  "WipMemBlock": "f71978b8-c9d0-494a-98d7-84030c7fd1c8||Sequence: R016 ve11e/master r/434b28f1; Aug  7 2019 18:53:46 by eja",
  "dcmmeta_affine": [
    [-2.658468723297119, -0.22837845981121063, 0.2819322943687439, 117.1225357055664],
    [-0.2391730397939682, 2.6706430912017822, -0.09309882670640945, -88.25395965576172],
    [0.27099213004112244, 0.1166410818696022, 2.6836256980895996, -97.76757049560547],
    [0.0, 0.0, 0.0, 1.0]
],
  "dcmmeta_reorient_transform": [
    [0.0, -1.0, 0.0, 81.0],
    [1.0, 0.0, 0.0, 0.0],
    [0.0, 0.0, 1.0, 0.0],
    [0.0, 0.0, 0.0, 1.0]
],
  "dcmmeta_shape": [82, 82, 56, 872],
  "dcmmeta_slice_dim": 2,
  "dcmmeta_version": 0.6,
  "global": {
    "const": {
      "AccessionNumber": "A004622",
      "AcquisitionMatrix": [82, 0, 0, 82],
      "AngioFlag": "N",
      "BitsAllocated": 16,
      "BitsStored": 16,
      "BodyPartExamined": "BRAIN",
      "Columns": 656,
      "EchoNumbers": 1,
      "EchoTime": 27.2,
      "EchoTrainLength": 82,
      "FlipAngle": 44.0,
      "HighBit": 15,
      "ImageOrientationPatient": [0.99088379329064, 0.08914631034714, 0.10100615597801, -0.0851228789284, 0.99542151510353, -0.0434753119821],
      "ImagePositionPatient": [-796.05980437322, -963.18538374279, -132.61839300794],
      "ImageType": [
        "ORIGINAL",
        "PRIMARY",
        "M",
        "MB",
        "ND",
        "NORM",
        "MOSAIC"
],
      "ImagedNucleus": "1H",
      "ImagingFrequency": 123.259109,
      "InPlanePhaseEncodingDirection": "COL",
      "MRAcquisitionType": "2D",
      "MagneticFieldStrength": 3.0,
      "Manufacturer": "SIEMENS",
      "ManufacturerModelName": "Prisma",
      "Modality": "MR",
      "NumberOfAverages": 1.0,
      "NumberOfPhaseEncodingSteps": 82,
      "PercentPhaseFieldOfView": 100.0,
      "PercentSampling": 100.0,
      "PerformedProcedureStepStartTime": "181956.274000",
      "PhotometricInterpretation": "MONOCHROME2",
      "PixelBandwidth": 3050.0,
      "PixelRepresentation": 0,
      "PixelSpacing": [2.6829268932343, 2.6829268932343],
      "ProtocolName": "func_run-01_task-social_acq-ap-mb8",
      "RepetitionTime": 460.0,
      "Rows": 656,
      "SAR": 0.07738302820502,
      "SamplesPerPixel": 1,
      "ScanOptions": "FS",
      "ScanningSequence": "EP",
      "SequenceName": "epfid2d1_82",
      "SequenceVariant": [
        "SK",
        "SS"
],
      "SeriesDescription": "func_run-01_task-social_acq-ap-mb8",
      "SeriesNumber": 8,
      "SeriesTime": "185846.452000",
      "SliceLocation": -81.901702347254,
      "SliceThickness": 2.7000000476837,
      "SmallestImagePixelValue": 0,
      "SoftwareVersions": "syngo MR E11",
      "SpacingBetweenSlices": 2.6999999733702,
      "SpecificCharacterSet": "ISO_IR 100",
      "StudyID": "1",
      "StudyTime": "181956.226000",
      "TransmitCoilName": "Body",
      "VariableFlipAngleFlag": "N",
      "WindowCenterWidthExplanation": "Algo1"
    },
    "slices": {}
  },
  "time": {
    "samples": {
      "AcquisitionNumber": [1, 2, 3, 4, 5, 6, 7, 8, 9, 10, 11, 12, 13, 14, 15, 16, 17, 18, 19, 20, 21, 22, 23, 24, 25, 26, 27, 28, 29, 30, 31, 32, 33, 34, 35, 36, 37, 38, 39, 40, 41, 42, 43, 44, 45, 46, 47, 48, 49, 50, 51, 52, 53, 54, 55, 56, 57, 58, 59, 60, 61, 62, 63, 64, 65, 66, 67, 68, 69, 70, 71, 72, 73, 74, 75, 76, 77, 78, 79, 80, 81, 82, 83, 84, 85, 86, 87, 88, 89, 90, 91, 92, 93, 94, 95, 96, 97, 98, 99, 100, 101, 102, 103, 104, 105, 106, 107, 108, 109, 110, 111, 112, 113, 114, 115, 116, 117, 118, 119, 120, 121, 122, 123, 124, 125, 126, 127, 128, 129, 130, 131, 132, 133, 134, 135, 136, 137, 138, 139, 140, 141, 142, 143, 144, 145, 146, 147, 148, 149, 150, 151, 152, 153, 154, 155, 156, 157, 158, 159, 160, 161, 162, 163, 164, 165, 166, 167, 168, 169, 170, 171, 172, 173, 174, 175, 176, 177, 178, 179, 180, 181, 182, 183, 184, 185, 186, 187, 188, 189, 190, 191, 192, 193, 194, 195, 196, 197, 198, 199, 200, 201, 202, 203, 204, 205, 206, 207, 208, 209, 210, 211, 212, 213, 214, 215, 216, 217, 218, 219, 220, 221, 222, 223, 224, 225, 226, 227, 228, 229, 230, 231, 232, 233, 234, 235, 236, 237, 238, 239, 240, 241, 242, 243, 244, 245, 246, 247, 248, 249, 250, 251, 252, 253, 254, 255, 256, 257, 258, 259, 260, 261, 262, 263, 264, 265, 266, 267, 268, 269, 270, 271, 272, 273, 274, 275, 276, 277, 278, 279, 280, 281, 282, 283, 284, 285, 286, 287, 288, 289, 290, 291, 292, 293, 294, 295, 296, 297, 298, 299, 300, 301, 302, 303, 304, 305, 306, 307, 308, 309, 310, 311, 312, 313, 314, 315, 316, 317, 318, 319, 320, 321, 322, 323, 324, 325, 326, 327, 328, 329, 330, 331, 332, 333, 334, 335, 336, 337, 338, 339, 340, 341, 342, 343, 344, 345, 346, 347, 348, 349, 350, 351, 352, 353, 354, 355, 356, 357, 358, 359, 360, 361, 362, 363, 364, 365, 366, 367, 368, 369, 370, 371, 372, 373, 374, 375, 376, 377, 378, 379, 380, 381, 382, 383, 384, 385, 386, 387, 388, 389, 390, 391, 392, 393, 394, 395, 396, 397, 398, 399, 400, 401, 402, 403, 404, 405, 406, 407, 408, 409, 410, 411, 412, 413, 414, 415, 416, 417, 418, 419, 420, 421, 422, 423, 424, 425, 426, 427, 428, 429, 430, 431, 432, 433, 434, 435, 436, 437, 438, 439, 440, 441, 442, 443, 444, 445, 446, 447, 448, 449, 450, 451, 452, 453, 454, 455, 456, 457, 458, 459, 460, 461, 462, 463, 464, 465, 466, 467, 468, 469, 470, 471, 472, 473, 474, 475, 476, 477, 478, 479, 480, 481, 482, 483, 484, 485, 486, 487, 488, 489, 490, 491, 492, 493, 494, 495, 496, 497, 498, 499, 500, 501, 502, 503, 504, 505, 506, 507, 508, 509, 510, 511, 512, 513, 514, 515, 516, 517, 518, 519, 520, 521, 522, 523, 524, 525, 526, 527, 528, 529, 530, 531, 532, 533, 534, 535, 536, 537, 538, 539, 540, 541, 542, 543, 544, 545, 546, 547, 548, 549, 550, 551, 552, 553, 554, 555, 556, 557, 558, 559, 560, 561, 562, 563, 564, 565, 566, 567, 568, 569, 570, 571, 572, 573, 574, 575, 576, 577, 578, 579, 580, 581, 582, 583, 584, 585, 586, 587, 588, 589, 590, 591, 592, 593, 594, 595, 596, 597, 598, 599, 600, 601, 602, 603, 604, 605, 606, 607, 608, 609, 610, 611, 612, 613, 614, 615, 616, 617, 618, 619, 620, 621, 622, 623, 624, 625, 626, 627, 628, 629, 630, 631, 632, 633, 634, 635, 636, 637, 638, 639, 640, 641, 642, 643, 644, 645, 646, 647, 648, 649, 650, 651, 652, 653, 654, 655, 656, 657, 658, 659, 660, 661, 662, 663, 664, 665, 666, 667, 668, 669, 670, 671, 672, 673, 674, 675, 676, 677, 678, 679, 680, 681, 682, 683, 684, 685, 686, 687, 688, 689, 690, 691, 692, 693, 694, 695, 696, 697, 698, 699, 700, 701, 702, 703, 704, 705, 706, 707, 708, 709, 710, 711, 712, 713, 714, 715, 716, 717, 718, 719, 720, 721, 722, 723, 724, 725, 726, 727, 728, 729, 730, 731, 732, 733, 734, 735, 736, 737, 738, 739, 740, 741, 742, 743, 744, 745, 746, 747, 748, 749, 750, 751, 752, 753, 754, 755, 756, 757, 758, 759, 760, 761, 762, 763, 764, 765, 766, 767, 768, 769, 770, 771, 772, 773, 774, 775, 776, 777, 778, 779, 780, 781, 782, 783, 784, 785, 786, 787, 788, 789, 790, 791, 792, 793, 794, 795, 796, 797, 798, 799, 800, 801, 802, 803, 804, 805, 806, 807, 808, 809, 810, 811, 812, 813, 814, 815, 816, 817, 818, 819, 820, 821, 822, 823, 824, 825, 826, 827, 828, 829, 830, 831, 832, 833, 834, 835, 836, 837, 838, 839, 840, 841, 842, 843, 844, 845, 846, 847, 848, 849, 850, 851, 852, 853, 854, 855, 856, 857, 858, 859, 860, 861, 862, 863, 864, 865, 866, 867, 868, 869, 870, 871, 872],
      "AcquisitionTime": ["185821.482500", "185821.942500", "185822.402500", "185822.862500", "185823.322500", "185823.782500", "185824.242500", "185824.702500", "185825.162500", "185825.622500", "185826.082500", "185826.542500", "185827.002500", "185827.462500", "185827.922500", "185828.382500", "185828.842500", "185829.302500", "185829.762500", "185830.222500", "185830.682500", "185831.142500", "185831.602500", "185832.062500", "185832.522500", "185832.982500", "185833.442500", "185833.902500", "185834.362500", "185834.822500", "185835.282500", "185835.742500", "185836.202500", "185836.662500", "185837.122500", "185837.582500", "185838.042500", "185838.502500", "185838.962500", "185839.422500", "185839.882500", "185840.342500", "185840.802500", "185841.262500", "185841.722500", "185842.182500", "185842.642500", "185843.102500", "185843.562500", "185844.022500", "185844.482500", "185844.942500", "185845.402500", "185845.862500", "185846.322500", "185846.782500", "185847.242500", "185847.702500", "185848.162500", "185848.622500", "185849.082500", "185849.542500", "185850.002500", "185850.462500", "185850.922500", "185851.382500", "185851.842500", "185852.302500", "185852.762500", "185853.222500", "185853.682500", "185854.142500", "185854.602500", "185855.062500", "185855.522500", "185855.982500", "185856.442500", "185856.902500", "185857.362500", "185857.822500", "185858.282500", "185858.742500", "185859.202500", "185859.662500", "185900.122500", "185900.582500", "185901.042500", "185901.502500", "185901.962500", "185902.422500", "185902.882500", "185903.342500", "185903.802500", "185904.262500", "185904.722500", "185905.182500", "185905.642500", "185906.102500", "185906.562500", "185907.022500", "185907.482500", "185907.942500", "185908.402500", "185908.862500", "185909.322500", "185909.782500", "185910.242500", "185910.702500", "185911.162500", "185911.622500", "185912.082500", "185912.542500", "185913.002500", "185913.462500", "185913.922500", "185914.382500", "185914.842500", "185915.302500", "185915.762500", "185916.222500", "185916.682500", "185917.142500", "185917.602500", "185918.062500", "185918.522500", "185918.982500", "185919.442500", "185919.902500", "185920.362500", "185920.822500", "185921.282500", "185921.742500", "185922.202500", "185922.662500", "185923.122500", "185923.582500", "185924.042500", "185924.502500", "185924.962500", "185925.422500", "185925.882500", "185926.342500", "185926.802500", "185927.262500", "185927.722500", "185928.182500", "185928.642500", "185929.102500", "185929.562500", "185930.022500", "185930.482500", "185930.942500", "185931.402500", "185931.862500", "185932.322500", "185932.782500", "185933.242500", "185933.702500", "185934.162500", "185934.622500", "185935.082500", "185935.542500", "185936.002500", "185936.462500", "185936.922500", "185937.382500", "185937.842500", "185938.302500", "185938.762500", "185939.222500", "185939.682500", "185940.142500", "185940.602500", "185941.062500", "185941.522500", "185941.982500", "185942.442500", "185942.902500", "185943.362500", "185943.822500", "185944.282500", "185944.742500", "185945.202500", "185945.662500", "185946.122500", "185946.582500", "185947.042500", "185947.502500", "185947.962500", "185948.422500", "185948.882500", "185949.342500", "185949.802500", "185950.262500", "185950.722500", "185951.182500", "185951.642500", "185952.102500", "185952.562500", "185953.022500", "185953.482500", "185953.942500", "185954.402500", "185954.862500", "185955.322500", "185955.782500", "185956.242500", "185956.702500", "185957.162500", "185957.622500", "185958.082500", "185958.542500", "185959.002500", "185959.462500", "185959.922500", "190000.382500", "190000.842500", "190001.302500", "190001.762500", "190002.222500", "190002.682500", "190003.142500", "190003.602500", "190004.062500", "190004.522500", "190004.982500", "190005.442500", "190005.902500", "190006.362500", "190006.822500", "190007.282500", "190007.742500", "190008.202500", "190008.662500", "190009.122500", "190009.582500", "190010.042500", "190010.502500", "190010.962500", "190011.422500", "190011.882500", "190012.342500", "190012.802500", "190013.262500", "190013.722500", "190014.182500", "190014.642500", "190015.102500", "190015.562500", "190016.022500", "190016.482500", "190016.942500", "190017.402500", "190017.862500", "190018.322500", "190018.782500", "190019.242500", "190019.702500", "190020.162500", "190020.622500", "190021.082500", "190021.542500", "190022.002500", "190022.462500", "190022.922500", "190023.382500", "190023.842500", "190024.302500", "190024.762500", "190025.222500", "190025.682500", "190026.142500", "190026.602500", "190027.062500", "190027.522500", "190027.982500", "190028.442500", "190028.902500", "190029.362500", "190029.822500", "190030.282500", "190030.742500", "190031.202500", "190031.662500", "190032.122500", "190032.582500", "190033.042500", "190033.502500", "190033.962500", "190034.422500", "190034.882500", "190035.342500", "190035.802500", "190036.262500", "190036.722500", "190037.182500", "190037.642500", "190038.102500", "190038.562500", "190039.022500", "190039.482500", "190039.942500", "190040.402500", "190040.862500", "190041.322500", "190041.782500", "190042.242500", "190042.702500", "190043.162500", "190043.622500", "190044.082500", "190044.542500", "190045.002500", "190045.462500", "190045.922500", "190046.382500", "190046.842500", "190047.302500", "190047.762500", "190048.222500", "190048.682500", "190049.142500", "190049.602500", "190050.062500", "190050.522500", "190050.982500", "190051.442500", "190051.902500", "190052.362500", "190052.822500", "190053.282500", "190053.742500", "190054.202500", "190054.662500", "190055.122500", "190055.582500", "190056.042500", "190056.502500", "190056.962500", "190057.422500", "190057.882500", "190058.342500", "190058.802500", "190059.262500", "190059.722500", "190100.182500", "190100.642500", "190101.102500", "190101.562500", "190102.022500", "190102.482500", "190102.942500", "190103.402500", "190103.862500", "190104.322500", "190104.782500", "190105.242500", "190105.702500", "190106.162500", "190106.622500", "190107.082500", "190107.542500", "190108.002500", "190108.462500", "190108.922500", "190109.382500", "190109.842500", "190110.302500", "190110.762500", "190111.222500", "190111.682500", "190112.142500", "190112.602500", "190113.062500", "190113.522500", "190113.982500", "190114.442500", "190114.902500", "190115.362500", "190115.822500", "190116.282500", "190116.742500", "190117.202500", "190117.662500", "190118.122500", "190118.582500", "190119.042500", "190119.502500", "190119.962500", "190120.422500", "190120.882500", "190121.342500", "190121.802500", "190122.262500", "190122.722500", "190123.182500", "190123.642500", "190124.102500", "190124.562500", "190125.022500", "190125.482500", "190125.942500", "190126.402500", "190126.862500", "190127.322500", "190127.782500", "190128.242500", "190128.702500", "190129.162500", "190129.622500", "190130.082500", "190130.542500", "190131.002500", "190131.462500", "190131.922500", "190132.382500", "190132.842500", "190133.302500", "190133.762500", "190134.222500", "190134.682500", "190135.142500", "190135.602500", "190136.062500", "190136.522500", "190136.982500", "190137.442500", "190137.902500", "190138.362500", "190138.822500", "190139.282500", "190139.742500", "190140.202500", "190140.662500", "190141.122500", "190141.582500", "190142.042500", "190142.502500", "190142.962500", "190143.422500", "190143.882500", "190144.342500", "190144.802500", "190145.262500", "190145.722500", "190146.182500", "190146.642500", "190147.102500", "190147.562500", "190148.022500", "190148.482500", "190148.942500", "190149.402500", "190149.862500", "190150.322500", "190150.782500", "190151.242500", "190151.702500", "190152.162500", "190152.622500", "190153.082500", "190153.542500", "190154.002500", "190154.462500", "190154.922500", "190155.382500", "190155.842500", "190156.302500", "190156.762500", "190157.222500", "190157.682500", "190158.142500", "190158.602500", "190159.062500", "190159.522500", "190159.982500", "190200.442500", "190200.902500", "190201.362500", "190201.822500", "190202.282500", "190202.742500", "190203.202500", "190203.662500", "190204.122500", "190204.582500", "190205.042500", "190205.502500", "190205.962500", "190206.422500", "190206.882500", "190207.342500", "190207.802500", "190208.262500", "190208.722500", "190209.182500", "190209.642500", "190210.102500", "190210.562500", "190211.022500", "190211.482500", "190211.942500", "190212.402500", "190212.862500", "190213.322500", "190213.782500", "190214.242500", "190214.702500", "190215.162500", "190215.622500", "190216.082500", "190216.542500", "190217.002500", "190217.462500", "190217.922500", "190218.382500", "190218.842500", "190219.302500", "190219.762500", "190220.222500", "190220.682500", "190221.142500", "190221.602500", "190222.062500", "190222.522500", "190222.982500", "190223.442500", "190223.902500", "190224.362500", "190224.822500", "190225.282500", "190225.742500", "190226.202500", "190226.662500", "190227.122500", "190227.582500", "190228.042500", "190228.502500", "190228.962500", "190229.422500", "190229.882500", "190230.342500", "190230.802500", "190231.262500", "190231.722500", "190232.182500", "190232.642500", "190233.102500", "190233.562500", "190234.022500", "190234.482500", "190234.942500", "190235.402500", "190235.862500", "190236.322500", "190236.782500", "190237.242500", "190237.702500", "190238.162500", "190238.622500", "190239.082500", "190239.542500", "190240.002500", "190240.462500", "190240.922500", "190241.382500", "190241.842500", "190242.302500", "190242.762500", "190243.222500", "190243.682500", "190244.142500", "190244.602500", "190245.062500", "190245.522500", "190245.982500", "190246.442500", "190246.902500", "190247.362500", "190247.822500", "190248.282500", "190248.742500", "190249.202500", "190249.662500", "190250.122500", "190250.582500", "190251.042500", "190251.502500", "190251.962500", "190252.422500", "190252.882500", "190253.342500", "190253.802500", "190254.262500", "190254.722500", "190255.182500", "190255.642500", "190256.102500", "190256.562500", "190257.022500", "190257.482500", "190257.942500", "190258.402500", "190258.862500", "190259.322500", "190259.782500", "190300.242500", "190300.702500", "190301.162500", "190301.622500", "190302.082500", "190302.542500", "190303.002500", "190303.462500", "190303.922500", "190304.382500", "190304.842500", "190305.302500", "190305.762500", "190306.222500", "190306.682500", "190307.142500", "190307.602500", "190308.062500", "190308.522500", "190308.982500", "190309.442500", "190309.902500", "190310.362500", "190310.822500", "190311.282500", "190311.742500", "190312.202500", "190312.662500", "190313.122500", "190313.582500", "190314.042500", "190314.502500", "190314.962500", "190315.422500", "190315.882500", "190316.342500", "190316.802500", "190317.262500", "190317.722500", "190318.182500", "190318.642500", "190319.102500", "190319.562500", "190320.022500", "190320.482500", "190320.942500", "190321.402500", "190321.862500", "190322.322500", "190322.782500", "190323.242500", "190323.702500", "190324.162500", "190324.622500", "190325.082500", "190325.542500", "190326.002500", "190326.462500", "190326.922500", "190327.382500", "190327.842500", "190328.302500", "190328.762500", "190329.222500", "190329.682500", "190330.142500", "190330.602500", "190331.062500", "190331.522500", "190331.982500", "190332.442500", "190332.902500", "190333.362500", "190333.822500", "190334.282500", "190334.742500", "190335.202500", "190335.662500", "190336.122500", "190336.582500", "190337.042500", "190337.502500", "190337.962500", "190338.422500", "190338.882500", "190339.342500", "190339.802500", "190340.262500", "190340.722500", "190341.182500", "190341.642500", "190342.102500", "190342.562500", "190343.022500", "190343.482500", "190343.942500", "190344.402500", "190344.862500", "190345.322500", "190345.782500", "190346.242500", "190346.702500", "190347.162500", "190347.622500", "190348.082500", "190348.542500", "190349.002500", "190349.462500", "190349.922500", "190350.382500", "190350.842500", "190351.302500", "190351.762500", "190352.222500", "190352.682500", "190353.142500", "190353.602500", "190354.062500", "190354.522500", "190354.982500", "190355.442500", "190355.902500", "190356.362500", "190356.822500", "190357.282500", "190357.742500", "190358.202500", "190358.662500", "190359.122500", "190359.582500", "190400.042500", "190400.502500", "190400.962500", "190401.422500", "190401.882500", "190402.342500", "190402.802500", "190403.262500", "190403.722500", "190404.182500", "190404.642500", "190405.102500", "190405.562500", "190406.022500", "190406.482500", "190406.942500", "190407.402500", "190407.862500", "190408.322500", "190408.782500", "190409.242500", "190409.702500", "190410.162500", "190410.622500", "190411.082500", "190411.542500", "190412.002500", "190412.462500", "190412.922500", "190413.382500", "190413.842500", "190414.302500", "190414.762500", "190415.222500", "190415.682500", "190416.142500", "190416.602500", "190417.062500", "190417.522500", "190417.982500", "190418.442500", "190418.902500", "190419.362500", "190419.822500", "190420.282500", "190420.742500", "190421.202500", "190421.662500", "190422.122500", "190422.582500", "190423.042500", "190423.502500", "190423.962500", "190424.422500", "190424.882500", "190425.342500", "190425.802500", "190426.262500", "190426.722500", "190427.182500", "190427.642500", "190428.102500", "190428.562500", "190429.022500", "190429.482500", "190429.942500", "190430.402500", "190430.862500", "190431.322500", "190431.782500", "190432.242500", "190432.702500", "190433.162500", "190433.622500", "190434.082500", "190434.542500", "190435.002500", "190435.462500", "190435.922500", "190436.382500", "190436.842500", "190437.302500", "190437.762500", "190438.222500", "190438.682500", "190439.142500", "190439.602500", "190440.062500", "190440.522500", "190440.982500", "190441.442500", "190441.902500", "190442.362500", "190442.822500", "190443.282500", "190443.742500", "190444.202500", "190444.662500", "190445.122500", "190445.582500", "190446.042500", "190446.502500", "190446.962500", "190447.422500", "190447.882500", "190448.342500", "190448.802500", "190449.262500", "190449.722500", "190450.182500", "190450.642500", "190451.102500", "190451.562500", "190452.022500", "190452.482500", "190452.942500", "190453.402500", "190453.862500", "190454.322500", "190454.782500", "190455.242500", "190455.702500", "190456.162500", "190456.622500", "190457.082500", "190457.542500", "190458.002500", "190458.462500", "190458.922500", "190459.382500", "190459.842500", "190500.302500", "190500.762500", "190501.222500", "190501.682500", "190502.142500"],
