{
  "AcquisitionMatrixPE": 82,
  "AcquisitionNumber": 1,
  "AcquisitionTime": "19:19:21.437500",
  "BandwidthPerPixelPhaseEncode": 24.888,
  "BaseResolution": 82,
  "BodyPartExamined": "BRAIN",
  "ConsistencyInfo": "N4_VE11E_LATEST_20181129",
  "ConversionSoftware": "dcm2niix",
  "ConversionSoftwareVersion": "v1.0.20201102",
  "DerivedVendorReportedEchoSpacing": 0.00049,
  "DeviceSerialNumber": "66112",
  "DwellTime": 2e-06,
  "EchoTime": 0.0272,
  "EchoTrainLength": 82,
  "EffectiveEchoSpacing": 0.00049,
  "FlipAngle": 44,
  "ImageComments": "Unaliased MB8/PE3",
  "ImageOrientationPatientDICOM": [0.990884, 0.0891463, 0.101006, -0.0851229, 0.995422, -0.0434753],
  "ImageType": [
    "ORIGINAL",
    "PRIMARY",
    "M",
    "MB",
    "ND",
    "NORM",
    "MOSAIC"
],
  "ImagingFrequency": 123.259,
  "InPlanePhaseEncodingDirectionDICOM": "COL",
  "InstitutionAddress": "Maynard 3,Hanover,NH,US,03755",
  "InstitutionName": "Dartmouth College - PBS",
  "InstitutionalDepartmentName": "Department",
  "MRAcquisitionType": "2D",
  "MagneticFieldStrength": 3,
  "Manufacturer": "Siemens",
  "ManufacturersModelName": "Prisma",
  "Modality": "MR",
  "MultibandAccelerationFactor": 8,
  "PartialFourier": 1,
  "PatientPosition": "HFS",
  "PercentPhaseFOV": 100,
  "PercentSampling": 100,
  "PhaseEncodingDirection": "j-",
  "PhaseEncodingSteps": 82,
  "PhaseResolution": 1,
  "PixelBandwidth": 3050,
  "ProcedureStepDescription": "Wager_Wager^1076_spacetop",
  "ProtocolName": "func_run-04_task-social_acq-ap-mb8",
  "PulseSequenceDetails": "%CustomerSeq%\\cmrr_mbep2d_bold",
  "ReceiveCoilActiveElements": "HEA;HEP",
  "ReceiveCoilName": "Head_32",
  "ReconMatrixPE": 82,
  "RepetitionTime": 0.46,
  "SAR": 0.077383,
  "ScanOptions": "FS",
  "ScanningSequence": "EP",
  "SequenceName": "epfid2d1_82",
  "SequenceVariant": "SK\\SS",
  "SeriesDescription": "func_run-04_task-social_acq-ap-mb8",
  "SeriesNumber": 14,
  "ShimSetting": [4240, -7797, -7274, 190, -156, -140, -154, 83],
  "SliceThickness": 2.7,
  "SliceTiming": [0, 0.25, 0.0625, 0.315, 0.125, 0.3775, 0.1875, 0, 0.25, 0.0625, 0.315, 0.125, 0.3775, 0.1875, 0, 0.25, 0.0625, 0.315, 0.125, 0.3775, 0.1875, 0, 0.25, 0.0625, 0.315, 0.125, 0.3775, 0.1875, 0, 0.25, 0.0625, 0.315, 0.125, 0.3775, 0.1875, 0, 0.25, 0.0625, 0.315, 0.125, 0.3775, 0.1875, 0, 0.25, 0.0625, 0.315, 0.125, 0.3775, 0.1875, 0, 0.25, 0.0625, 0.315, 0.125, 0.3775, 0.1875],
  "SoftwareVersions": "syngo MR E11",
  "SpacingBetweenSlices": 2.7,
  "StationName": "AWP66112",
  "TaskName": "social",
  "TotalReadoutTime": 0.03969,
  "TxRefAmp": 227.439,
  "WipMemBlock": "37ae9d87-49de-4db9-a224-fe421fbac45f||Sequence: R016 ve11e/master r/434b28f1; Aug  7 2019 18:53:46 by eja",
  "dcmmeta_affine": [
    [-2.658468723297119, -0.22837845981121063, 0.2819322943687439, 117.1225357055664],
    [-0.2391730397939682, 2.6706430912017822, -0.09309882670640945, -88.25395965576172],
    [0.27099213004112244, 0.1166410818696022, 2.6836256980895996, -97.76757049560547],
    [0.0, 0.0, 0.0, 1.0]
],
  "dcmmeta_reorient_transform": [
    [0.0, -1.0, 0.0, 81.0],
    [1.0, 0.0, 0.0, 0.0],
    [0.0, 0.0, 1.0, 0.0],
    [0.0, 0.0, 0.0, 1.0]
],
  "dcmmeta_shape": [82, 82, 56, 872],
  "dcmmeta_slice_dim": 2,
  "dcmmeta_version": 0.6,
  "global": {
    "const": {
      "AccessionNumber": "A004622",
      "AcquisitionMatrix": [82, 0, 0, 82],
      "AngioFlag": "N",
      "BitsAllocated": 16,
      "BitsStored": 16,
      "BodyPartExamined": "BRAIN",
      "Columns": 656,
      "EchoNumbers": 1,
      "EchoTime": 27.2,
      "EchoTrainLength": 82,
      "FlipAngle": 44.0,
      "HighBit": 15,
      "ImageOrientationPatient": [0.99088379329064, 0.08914631034714, 0.10100615597801, -0.0851228789284, 0.99542151510353, -0.0434753119821],
      "ImagePositionPatient": [-796.05980437322, -963.18538374279, -132.61839300794],
      "ImageType": [
        "ORIGINAL",
        "PRIMARY",
        "M",
        "MB",
        "ND",
        "NORM",
        "MOSAIC"
],
      "ImagedNucleus": "1H",
      "ImagingFrequency": 123.259128,
      "InPlanePhaseEncodingDirection": "COL",
      "MRAcquisitionType": "2D",
      "MagneticFieldStrength": 3.0,
      "Manufacturer": "SIEMENS",
      "ManufacturerModelName": "Prisma",
      "Modality": "MR",
      "NumberOfAverages": 1.0,
      "NumberOfPhaseEncodingSteps": 82,
      "PercentPhaseFieldOfView": 100.0,
      "PercentSampling": 100.0,
      "PerformedProcedureStepStartTime": "181956.274000",
      "PhotometricInterpretation": "MONOCHROME2",
      "PixelBandwidth": 3050.0,
      "PixelRepresentation": 0,
      "PixelSpacing": [2.6829268932343, 2.6829268932343],
      "ProtocolName": "func_run-04_task-social_acq-ap-mb8",
      "RepetitionTime": 460.0,
      "Rows": 656,
      "SAR": 0.07738302820502,
      "SamplesPerPixel": 1,
      "ScanOptions": "FS",
      "ScanningSequence": "EP",
      "SequenceName": "epfid2d1_82",
      "SequenceVariant": [
        "SK",
        "SS"
],
      "SeriesDescription": "func_run-04_task-social_acq-ap-mb8",
      "SeriesNumber": 14,
      "SeriesTime": "191946.460000",
      "SliceLocation": -81.901702347254,
      "SliceThickness": 2.7000000476837,
      "SmallestImagePixelValue": 0,
      "SoftwareVersions": "syngo MR E11",
      "SpacingBetweenSlices": 2.6999999733702,
      "SpecificCharacterSet": "ISO_IR 100",
      "StudyID": "1",
      "StudyTime": "181956.226000",
      "TransmitCoilName": "Body",
      "VariableFlipAngleFlag": "N",
      "WindowCenterWidthExplanation": "Algo1"
    },
    "slices": {}
  },
  "time": {
    "samples": {
      "AcquisitionNumber": [1, 2, 3, 4, 5, 6, 7, 8, 9, 10, 11, 12, 13, 14, 15, 16, 17, 18, 19, 20, 21, 22, 23, 24, 25, 26, 27, 28, 29, 30, 31, 32, 33, 34, 35, 36, 37, 38, 39, 40, 41, 42, 43, 44, 45, 46, 47, 48, 49, 50, 51, 52, 53, 54, 55, 56, 57, 58, 59, 60, 61, 62, 63, 64, 65, 66, 67, 68, 69, 70, 71, 72, 73, 74, 75, 76, 77, 78, 79, 80, 81, 82, 83, 84, 85, 86, 87, 88, 89, 90, 91, 92, 93, 94, 95, 96, 97, 98, 99, 100, 101, 102, 103, 104, 105, 106, 107, 108, 109, 110, 111, 112, 113, 114, 115, 116, 117, 118, 119, 120, 121, 122, 123, 124, 125, 126, 127, 128, 129, 130, 131, 132, 133, 134, 135, 136, 137, 138, 139, 140, 141, 142, 143, 144, 145, 146, 147, 148, 149, 150, 151, 152, 153, 154, 155, 156, 157, 158, 159, 160, 161, 162, 163, 164, 165, 166, 167, 168, 169, 170, 171, 172, 173, 174, 175, 176, 177, 178, 179, 180, 181, 182, 183, 184, 185, 186, 187, 188, 189, 190, 191, 192, 193, 194, 195, 196, 197, 198, 199, 200, 201, 202, 203, 204, 205, 206, 207, 208, 209, 210, 211, 212, 213, 214, 215, 216, 217, 218, 219, 220, 221, 222, 223, 224, 225, 226, 227, 228, 229, 230, 231, 232, 233, 234, 235, 236, 237, 238, 239, 240, 241, 242, 243, 244, 245, 246, 247, 248, 249, 250, 251, 252, 253, 254, 255, 256, 257, 258, 259, 260, 261, 262, 263, 264, 265, 266, 267, 268, 269, 270, 271, 272, 273, 274, 275, 276, 277, 278, 279, 280, 281, 282, 283, 284, 285, 286, 287, 288, 289, 290, 291, 292, 293, 294, 295, 296, 297, 298, 299, 300, 301, 302, 303, 304, 305, 306, 307, 308, 309, 310, 311, 312, 313, 314, 315, 316, 317, 318, 319, 320, 321, 322, 323, 324, 325, 326, 327, 328, 329, 330, 331, 332, 333, 334, 335, 336, 337, 338, 339, 340, 341, 342, 343, 344, 345, 346, 347, 348, 349, 350, 351, 352, 353, 354, 355, 356, 357, 358, 359, 360, 361, 362, 363, 364, 365, 366, 367, 368, 369, 370, 371, 372, 373, 374, 375, 376, 377, 378, 379, 380, 381, 382, 383, 384, 385, 386, 387, 388, 389, 390, 391, 392, 393, 394, 395, 396, 397, 398, 399, 400, 401, 402, 403, 404, 405, 406, 407, 408, 409, 410, 411, 412, 413, 414, 415, 416, 417, 418, 419, 420, 421, 422, 423, 424, 425, 426, 427, 428, 429, 430, 431, 432, 433, 434, 435, 436, 437, 438, 439, 440, 441, 442, 443, 444, 445, 446, 447, 448, 449, 450, 451, 452, 453, 454, 455, 456, 457, 458, 459, 460, 461, 462, 463, 464, 465, 466, 467, 468, 469, 470, 471, 472, 473, 474, 475, 476, 477, 478, 479, 480, 481, 482, 483, 484, 485, 486, 487, 488, 489, 490, 491, 492, 493, 494, 495, 496, 497, 498, 499, 500, 501, 502, 503, 504, 505, 506, 507, 508, 509, 510, 511, 512, 513, 514, 515, 516, 517, 518, 519, 520, 521, 522, 523, 524, 525, 526, 527, 528, 529, 530, 531, 532, 533, 534, 535, 536, 537, 538, 539, 540, 541, 542, 543, 544, 545, 546, 547, 548, 549, 550, 551, 552, 553, 554, 555, 556, 557, 558, 559, 560, 561, 562, 563, 564, 565, 566, 567, 568, 569, 570, 571, 572, 573, 574, 575, 576, 577, 578, 579, 580, 581, 582, 583, 584, 585, 586, 587, 588, 589, 590, 591, 592, 593, 594, 595, 596, 597, 598, 599, 600, 601, 602, 603, 604, 605, 606, 607, 608, 609, 610, 611, 612, 613, 614, 615, 616, 617, 618, 619, 620, 621, 622, 623, 624, 625, 626, 627, 628, 629, 630, 631, 632, 633, 634, 635, 636, 637, 638, 639, 640, 641, 642, 643, 644, 645, 646, 647, 648, 649, 650, 651, 652, 653, 654, 655, 656, 657, 658, 659, 660, 661, 662, 663, 664, 665, 666, 667, 668, 669, 670, 671, 672, 673, 674, 675, 676, 677, 678, 679, 680, 681, 682, 683, 684, 685, 686, 687, 688, 689, 690, 691, 692, 693, 694, 695, 696, 697, 698, 699, 700, 701, 702, 703, 704, 705, 706, 707, 708, 709, 710, 711, 712, 713, 714, 715, 716, 717, 718, 719, 720, 721, 722, 723, 724, 725, 726, 727, 728, 729, 730, 731, 732, 733, 734, 735, 736, 737, 738, 739, 740, 741, 742, 743, 744, 745, 746, 747, 748, 749, 750, 751, 752, 753, 754, 755, 756, 757, 758, 759, 760, 761, 762, 763, 764, 765, 766, 767, 768, 769, 770, 771, 772, 773, 774, 775, 776, 777, 778, 779, 780, 781, 782, 783, 784, 785, 786, 787, 788, 789, 790, 791, 792, 793, 794, 795, 796, 797, 798, 799, 800, 801, 802, 803, 804, 805, 806, 807, 808, 809, 810, 811, 812, 813, 814, 815, 816, 817, 818, 819, 820, 821, 822, 823, 824, 825, 826, 827, 828, 829, 830, 831, 832, 833, 834, 835, 836, 837, 838, 839, 840, 841, 842, 843, 844, 845, 846, 847, 848, 849, 850, 851, 852, 853, 854, 855, 856, 857, 858, 859, 860, 861, 862, 863, 864, 865, 866, 867, 868, 869, 870, 871, 872],
      "AcquisitionTime": ["191921.437500", "191921.897500", "191922.357500", "191922.817500", "191923.277500", "191923.737500", "191924.197500", "191924.657500", "191925.117500", "191925.577500", "191926.037500", "191926.497500", "191926.957500", "191927.417500", "191927.877500", "191928.337500", "191928.797500", "191929.257500", "191929.717500", "191930.177500", "191930.637500", "191931.097500", "191931.557500", "191932.017500", "191932.477500", "191932.937500", "191933.397500", "191933.857500", "191934.317500", "191934.777500", "191935.237500", "191935.697500", "191936.157500", "191936.617500", "191937.077500", "191937.537500", "191937.997500", "191938.457500", "191938.917500", "191939.377500", "191939.837500", "191940.297500", "191940.757500", "191941.217500", "191941.677500", "191942.137500", "191942.597500", "191943.057500", "191943.517500", "191943.977500", "191944.437500", "191944.897500", "191945.357500", "191945.817500", "191946.277500", "191946.737500", "191947.197500", "191947.657500", "191948.117500", "191948.577500", "191949.037500", "191949.497500", "191949.957500", "191950.417500", "191950.877500", "191951.337500", "191951.797500", "191952.257500", "191952.717500", "191953.177500", "191953.637500", "191954.097500", "191954.557500", "191955.017500", "191955.477500", "191955.937500", "191956.397500", "191956.857500", "191957.317500", "191957.777500", "191958.237500", "191958.697500", "191959.157500", "191959.617500", "192000.077500", "192000.537500", "192000.997500", "192001.457500", "192001.917500", "192002.377500", "192002.837500", "192003.297500", "192003.757500", "192004.217500", "192004.677500", "192005.137500", "192005.597500", "192006.057500", "192006.517500", "192006.977500", "192007.437500", "192007.897500", "192008.357500", "192008.817500", "192009.277500", "192009.737500", "192010.197500", "192010.657500", "192011.117500", "192011.577500", "192012.037500", "192012.497500", "192012.957500", "192013.417500", "192013.877500", "192014.337500", "192014.797500", "192015.257500", "192015.717500", "192016.177500", "192016.637500", "192017.097500", "192017.557500", "192018.017500", "192018.477500", "192018.937500", "192019.397500", "192019.857500", "192020.317500", "192020.777500", "192021.237500", "192021.697500", "192022.157500", "192022.617500", "192023.077500", "192023.537500", "192023.997500", "192024.457500", "192024.917500", "192025.377500", "192025.837500", "192026.297500", "192026.757500", "192027.217500", "192027.677500", "192028.137500", "192028.597500", "192029.057500", "192029.517500", "192029.977500", "192030.437500", "192030.897500", "192031.357500", "192031.817500", "192032.277500", "192032.737500", "192033.197500", "192033.657500", "192034.117500", "192034.577500", "192035.037500", "192035.497500", "192035.957500", "192036.417500", "192036.877500", "192037.337500", "192037.797500", "192038.257500", "192038.717500", "192039.177500", "192039.637500", "192040.097500", "192040.557500", "192041.017500", "192041.477500", "192041.937500", "192042.397500", "192042.857500", "192043.317500", "192043.777500", "192044.237500", "192044.697500", "192045.157500", "192045.617500", "192046.077500", "192046.537500", "192046.997500", "192047.457500", "192047.917500", "192048.377500", "192048.837500", "192049.297500", "192049.757500", "192050.217500", "192050.677500", "192051.137500", "192051.597500", "192052.057500", "192052.517500", "192052.977500", "192053.437500", "192053.897500", "192054.357500", "192054.817500", "192055.277500", "192055.737500", "192056.197500", "192056.657500", "192057.117500", "192057.577500", "192058.037500", "192058.497500", "192058.957500", "192059.417500", "192059.877500", "192100.337500", "192100.797500", "192101.257500", "192101.717500", "192102.177500", "192102.637500", "192103.097500", "192103.557500", "192104.017500", "192104.477500", "192104.937500", "192105.397500", "192105.857500", "192106.317500", "192106.777500", "192107.237500", "192107.697500", "192108.157500", "192108.617500", "192109.077500", "192109.537500", "192109.997500", "192110.457500", "192110.917500", "192111.377500", "192111.837500", "192112.297500", "192112.757500", "192113.217500", "192113.677500", "192114.137500", "192114.597500", "192115.057500", "192115.517500", "192115.977500", "192116.437500", "192116.897500", "192117.357500", "192117.817500", "192118.277500", "192118.737500", "192119.197500", "192119.657500", "192120.117500", "192120.577500", "192121.037500", "192121.497500", "192121.957500", "192122.417500", "192122.877500", "192123.337500", "192123.797500", "192124.257500", "192124.717500", "192125.177500", "192125.637500", "192126.097500", "192126.557500", "192127.017500", "192127.477500", "192127.937500", "192128.397500", "192128.857500", "192129.317500", "192129.777500", "192130.237500", "192130.697500", "192131.157500", "192131.617500", "192132.077500", "192132.537500", "192132.997500", "192133.457500", "192133.917500", "192134.377500", "192134.837500", "192135.297500", "192135.757500", "192136.217500", "192136.677500", "192137.137500", "192137.597500", "192138.057500", "192138.517500", "192138.977500", "192139.437500", "192139.897500", "192140.357500", "192140.817500", "192141.277500", "192141.737500", "192142.197500", "192142.657500", "192143.117500", "192143.577500", "192144.037500", "192144.497500", "192144.957500", "192145.417500", "192145.877500", "192146.337500", "192146.797500", "192147.257500", "192147.717500", "192148.177500", "192148.637500", "192149.097500", "192149.557500", "192150.017500", "192150.477500", "192150.937500", "192151.397500", "192151.857500", "192152.317500", "192152.777500", "192153.237500", "192153.697500", "192154.157500", "192154.617500", "192155.077500", "192155.537500", "192155.997500", "192156.457500", "192156.917500", "192157.377500", "192157.837500", "192158.297500", "192158.757500", "192159.217500", "192159.677500", "192200.137500", "192200.597500", "192201.057500", "192201.517500", "192201.977500", "192202.437500", "192202.897500", "192203.357500", "192203.817500", "192204.277500", "192204.737500", "192205.197500", "192205.657500", "192206.117500", "192206.577500", "192207.037500", "192207.497500", "192207.957500", "192208.417500", "192208.877500", "192209.337500", "192209.797500", "192210.257500", "192210.717500", "192211.177500", "192211.637500", "192212.097500", "192212.557500", "192213.017500", "192213.477500", "192213.937500", "192214.397500", "192214.857500", "192215.317500", "192215.777500", "192216.237500", "192216.697500", "192217.157500", "192217.617500", "192218.077500", "192218.537500", "192218.997500", "192219.457500", "192219.917500", "192220.377500", "192220.837500", "192221.297500", "192221.757500", "192222.217500", "192222.677500", "192223.137500", "192223.597500", "192224.057500", "192224.517500", "192224.977500", "192225.437500", "192225.897500", "192226.357500", "192226.817500", "192227.277500", "192227.737500", "192228.197500", "192228.657500", "192229.117500", "192229.577500", "192230.037500", "192230.497500", "192230.957500", "192231.417500", "192231.877500", "192232.337500", "192232.797500", "192233.257500", "192233.717500", "192234.177500", "192234.637500", "192235.097500", "192235.557500", "192236.017500", "192236.477500", "192236.937500", "192237.397500", "192237.857500", "192238.317500", "192238.777500", "192239.237500", "192239.697500", "192240.157500", "192240.617500", "192241.077500", "192241.537500", "192241.997500", "192242.457500", "192242.917500", "192243.377500", "192243.837500", "192244.297500", "192244.757500", "192245.217500", "192245.677500", "192246.137500", "192246.597500", "192247.057500", "192247.517500", "192247.977500", "192248.437500", "192248.897500", "192249.357500", "192249.817500", "192250.277500", "192250.737500", "192251.197500", "192251.657500", "192252.117500", "192252.577500", "192253.037500", "192253.497500", "192253.957500", "192254.417500", "192254.877500", "192255.337500", "192255.797500", "192256.257500", "192256.717500", "192257.177500", "192257.637500", "192258.097500", "192258.557500", "192259.017500", "192259.477500", "192259.937500", "192300.397500", "192300.857500", "192301.317500", "192301.777500", "192302.237500", "192302.697500", "192303.157500", "192303.617500", "192304.077500", "192304.537500", "192304.997500", "192305.457500", "192305.917500", "192306.377500", "192306.837500", "192307.297500", "192307.757500", "192308.217500", "192308.677500", "192309.137500", "192309.597500", "192310.057500", "192310.517500", "192310.977500", "192311.437500", "192311.897500", "192312.357500", "192312.817500", "192313.277500", "192313.737500", "192314.197500", "192314.657500", "192315.117500", "192315.577500", "192316.037500", "192316.497500", "192316.957500", "192317.417500", "192317.877500", "192318.337500", "192318.797500", "192319.257500", "192319.717500", "192320.177500", "192320.637500", "192321.097500", "192321.557500", "192322.017500", "192322.477500", "192322.937500", "192323.397500", "192323.857500", "192324.317500", "192324.777500", "192325.237500", "192325.697500", "192326.157500", "192326.617500", "192327.077500", "192327.537500", "192327.997500", "192328.457500", "192328.917500", "192329.377500", "192329.837500", "192330.297500", "192330.757500", "192331.217500", "192331.677500", "192332.137500", "192332.597500", "192333.057500", "192333.517500", "192333.977500", "192334.437500", "192334.897500", "192335.357500", "192335.817500", "192336.277500", "192336.737500", "192337.197500", "192337.657500", "192338.117500", "192338.577500", "192339.037500", "192339.497500", "192339.957500", "192340.417500", "192340.877500", "192341.337500", "192341.797500", "192342.257500", "192342.717500", "192343.177500", "192343.637500", "192344.097500", "192344.557500", "192345.017500", "192345.477500", "192345.937500", "192346.397500", "192346.857500", "192347.317500", "192347.777500", "192348.237500", "192348.697500", "192349.157500", "192349.617500", "192350.077500", "192350.537500", "192350.997500", "192351.457500", "192351.917500", "192352.377500", "192352.837500", "192353.297500", "192353.757500", "192354.217500", "192354.677500", "192355.137500", "192355.597500", "192356.057500", "192356.517500", "192356.977500", "192357.437500", "192357.897500", "192358.357500", "192358.817500", "192359.277500", "192359.737500", "192400.197500", "192400.657500", "192401.117500", "192401.577500", "192402.037500", "192402.497500", "192402.957500", "192403.417500", "192403.877500", "192404.337500", "192404.797500", "192405.257500", "192405.717500", "192406.177500", "192406.637500", "192407.097500", "192407.557500", "192408.017500", "192408.477500", "192408.937500", "192409.397500", "192409.857500", "192410.317500", "192410.777500", "192411.237500", "192411.697500", "192412.157500", "192412.617500", "192413.077500", "192413.537500", "192413.997500", "192414.457500", "192414.917500", "192415.377500", "192415.837500", "192416.297500", "192416.757500", "192417.217500", "192417.677500", "192418.137500", "192418.597500", "192419.057500", "192419.517500", "192419.977500", "192420.437500", "192420.897500", "192421.357500", "192421.817500", "192422.277500", "192422.737500", "192423.197500", "192423.657500", "192424.117500", "192424.577500", "192425.037500", "192425.497500", "192425.957500", "192426.417500", "192426.877500", "192427.337500", "192427.797500", "192428.257500", "192428.717500", "192429.177500", "192429.637500", "192430.097500", "192430.557500", "192431.017500", "192431.477500", "192431.937500", "192432.397500", "192432.857500", "192433.317500", "192433.777500", "192434.237500", "192434.697500", "192435.157500", "192435.617500", "192436.077500", "192436.537500", "192436.997500", "192437.457500", "192437.917500", "192438.377500", "192438.837500", "192439.297500", "192439.757500", "192440.217500", "192440.677500", "192441.137500", "192441.597500", "192442.057500", "192442.517500", "192442.977500", "192443.437500", "192443.897500", "192444.357500", "192444.817500", "192445.277500", "192445.737500", "192446.197500", "192446.657500", "192447.117500", "192447.577500", "192448.037500", "192448.497500", "192448.957500", "192449.417500", "192449.877500", "192450.337500", "192450.797500", "192451.257500", "192451.717500", "192452.177500", "192452.637500", "192453.097500", "192453.557500", "192454.017500", "192454.477500", "192454.937500", "192455.397500", "192455.857500", "192456.317500", "192456.777500", "192457.237500", "192457.697500", "192458.157500", "192458.617500", "192459.077500", "192459.537500", "192459.997500", "192500.457500", "192500.917500", "192501.377500", "192501.837500", "192502.297500", "192502.757500", "192503.217500", "192503.677500", "192504.137500", "192504.597500", "192505.057500", "192505.517500", "192505.977500", "192506.437500", "192506.897500", "192507.357500", "192507.817500", "192508.277500", "192508.737500", "192509.197500", "192509.657500", "192510.117500", "192510.577500", "192511.037500", "192511.497500", "192511.957500", "192512.417500", "192512.877500", "192513.337500", "192513.797500", "192514.257500", "192514.717500", "192515.177500", "192515.637500", "192516.097500", "192516.557500", "192517.017500", "192517.477500", "192517.937500", "192518.397500", "192518.857500", "192519.317500", "192519.777500", "192520.237500", "192520.697500", "192521.157500", "192521.617500", "192522.077500", "192522.537500", "192522.997500", "192523.457500", "192523.917500", "192524.377500", "192524.837500", "192525.297500", "192525.757500", "192526.217500", "192526.677500", "192527.137500", "192527.597500", "192528.057500", "192528.517500", "192528.977500", "192529.437500", "192529.897500", "192530.357500", "192530.817500", "192531.277500", "192531.737500", "192532.197500", "192532.657500", "192533.117500", "192533.577500", "192534.037500", "192534.497500", "192534.957500", "192535.417500", "192535.877500", "192536.337500", "192536.797500", "192537.257500", "192537.717500", "192538.177500", "192538.637500", "192539.097500", "192539.557500", "192540.017500", "192540.477500", "192540.937500", "192541.397500", "192541.857500", "192542.317500", "192542.777500", "192543.237500", "192543.697500", "192544.157500", "192544.617500", "192545.077500", "192545.537500", "192545.997500", "192546.457500", "192546.917500", "192547.377500", "192547.837500", "192548.297500", "192548.757500", "192549.217500", "192549.677500", "192550.137500", "192550.597500", "192551.057500", "192551.517500", "192551.977500", "192552.437500", "192552.897500", "192553.357500", "192553.817500", "192554.277500", "192554.737500", "192555.197500", "192555.657500", "192556.117500", "192556.577500", "192557.037500", "192557.497500", "192557.957500", "192558.417500", "192558.877500", "192559.337500", "192559.797500", "192600.257500", "192600.717500", "192601.177500", "192601.637500", "192602.097500"],
