{
  "AcquisitionMatrixPE": 82,
  "AcquisitionNumber": 1,
  "AcquisitionTime": "19:31:53.335000",
  "BandwidthPerPixelPhaseEncode": 24.888,
  "BaseResolution": 82,
  "BodyPartExamined": "BRAIN",
  "ConsistencyInfo": "N4_VE11E_LATEST_20181129",
  "ConversionSoftware": "dcm2niix",
  "ConversionSoftwareVersion": "v1.0.20201102",
  "DerivedVendorReportedEchoSpacing": 0.00049,
  "DeviceSerialNumber": "66112",
  "DwellTime": 2e-06,
  "EchoTime": 0.0272,
  "EchoTrainLength": 82,
  "EffectiveEchoSpacing": 0.00049,
  "FlipAngle": 44,
  "ImageComments": "Unaliased MB8/PE3",
  "ImageOrientationPatientDICOM": [0.998446, 0.0428515, -0.0356304, -0.042371, 0.999002, 0.0141341],
  "ImageType": [
    "ORIGINAL",
    "PRIMARY",
    "M",
    "MB",
    "ND",
    "NORM",
    "MOSAIC"
],
  "ImagingFrequency": 123.259,
  "InPlanePhaseEncodingDirectionDICOM": "COL",
  "InstitutionAddress": "Maynard 3,Hanover,NH,US,03755",
  "InstitutionName": "Dartmouth College - PBS",
  "InstitutionalDepartmentName": "Department",
  "MRAcquisitionType": "2D",
  "MagneticFieldStrength": 3,
  "Manufacturer": "Siemens",
  "ManufacturersModelName": "Prisma",
  "Modality": "MR",
  "MultibandAccelerationFactor": 8,
  "PartialFourier": 1,
  "PatientPosition": "HFS",
  "PercentPhaseFOV": 100,
  "PercentSampling": 100,
  "PhaseEncodingDirection": "j-",
  "PhaseEncodingSteps": 82,
  "PhaseResolution": 1,
  "PixelBandwidth": 3050,
  "ProcedureStepDescription": "Wager_Wager^1076_spacetop",
  "ProtocolName": "func_run-02_task-social_acq-ap-mb8",
  "PulseSequenceDetails": "%CustomerSeq%\\cmrr_mbep2d_bold",
  "ReceiveCoilActiveElements": "HEA;HEP",
  "ReceiveCoilName": "Head_32",
  "ReconMatrixPE": 82,
  "RepetitionTime": 0.46,
  "SAR": 0.105059,
  "ScanOptions": "FS",
  "ScanningSequence": "EP",
  "SequenceName": "epfid2d1_82",
  "SequenceVariant": "SK\\SS",
  "SeriesDescription": "func_run-02_task-social_acq-ap-mb8",
  "SeriesNumber": 14,
  "ShimSetting": [4212, -7792, -7226, 203, -129, -84, 24, 86],
  "SliceThickness": 2.7,
  "SliceTiming": [0, 0.25, 0.0625, 0.3125, 0.125, 0.375, 0.1875, 0, 0.25, 0.0625, 0.3125, 0.125, 0.375, 0.1875, 0, 0.25, 0.0625, 0.3125, 0.125, 0.375, 0.1875, 0, 0.25, 0.0625, 0.3125, 0.125, 0.375, 0.1875, 0, 0.25, 0.0625, 0.3125, 0.125, 0.375, 0.1875, 0, 0.25, 0.0625, 0.3125, 0.125, 0.375, 0.1875, 0, 0.25, 0.0625, 0.3125, 0.125, 0.375, 0.1875, 0, 0.25, 0.0625, 0.3125, 0.125, 0.375, 0.1875],
  "SoftwareVersions": "syngo MR E11",
  "SpacingBetweenSlices": 2.7,
  "StationName": "AWP66112",
  "TaskName": "social",
  "TotalReadoutTime": 0.03969,
  "TxRefAmp": 277.601,
  "WipMemBlock": "8263bb80-9694-419c-a6e7-adf1cd8b8165||Sequence: R016 ve11e/master r/434b28f1; Aug  7 2019 18:53:46 by eja",
  "dcmmeta_affine": [
    [-2.678757429122925, -0.1136782318353653, -0.09774124622344971, 119.00777435302734],
    [-0.11496744304895401, 2.6802492141723633, 0.034026723355054855, -90.63561248779297],
    [-0.0955936387181282, -0.037920888513326645, 2.6980156898498535, -57.229801177978516],
    [0.0, 0.0, 0.0, 1.0]
],
  "dcmmeta_reorient_transform": [
    [0.0, -1.0, 0.0, 81.0],
    [1.0, 0.0, 0.0, 0.0],
    [0.0, 0.0, 1.0, 0.0],
    [0.0, 0.0, 0.0, 1.0]
],
  "dcmmeta_shape": [82, 82, 56, 872],
  "dcmmeta_slice_dim": 2,
  "dcmmeta_version": 0.6,
  "global": {
    "const": {
      "AccessionNumber": "A004921",
      "AcquisitionMatrix": [82, 0, 0, 82],
      "AngioFlag": "N",
      "BitsAllocated": 16,
      "BitsStored": 16,
      "BodyPartExamined": "BRAIN",
      "Columns": 656,
      "EchoNumbers": 1,
      "EchoTime": 27.2,
      "EchoTrainLength": 82,
      "FlipAngle": 44.0,
      "HighBit": 15,
      "ImageOrientationPatient": [0.99844590582208, 0.04285149949772, -0.0356303541651, -0.0423709759611, 0.99900196507879, 0.01413414888912],
      "ImagePositionPatient": [-845.97754918011, -928.69175984949, -43.749316384156],
      "ImageType": [
        "ORIGINAL",
        "PRIMARY",
        "M",
        "MB",
        "ND",
        "NORM",
        "MOSAIC"
],
      "ImagedNucleus": "1H",
      "ImagingFrequency": 123.258988,
      "InPlanePhaseEncodingDirection": "COL",
      "MRAcquisitionType": "2D",
      "MagneticFieldStrength": 3.0,
      "Manufacturer": "SIEMENS",
      "ManufacturerModelName": "Prisma",
      "Modality": "MR",
      "NumberOfAverages": 1.0,
      "NumberOfPhaseEncodingSteps": 82,
      "PercentPhaseFieldOfView": 100.0,
      "PercentSampling": 100.0,
      "PerformedProcedureStepStartTime": "181835.929000",
      "PhotometricInterpretation": "MONOCHROME2",
      "PixelBandwidth": 3050.0,
      "PixelRepresentation": 0,
      "PixelSpacing": [2.6829268932343, 2.6829268932343],
      "ProtocolName": "func_run-02_task-social_acq-ap-mb8",
      "RepetitionTime": 460.0,
      "Rows": 656,
      "SAR": 0.10505890391649,
      "SamplesPerPixel": 1,
      "ScanOptions": "FS",
      "ScanningSequence": "EP",
      "SequenceName": "epfid2d1_82",
      "SequenceVariant": [
        "SK",
        "SS"
],
      "SeriesDescription": "func_run-02_task-social_acq-ap-mb8",
      "SeriesNumber": 14,
      "SeriesTime": "193219.714000",
      "SliceLocation": -62.638114625696,
      "SliceThickness": 2.7000000476837,
      "SmallestImagePixelValue": 0,
      "SoftwareVersions": "syngo MR E11",
      "SpacingBetweenSlices": 2.6999999429513,
      "SpecificCharacterSet": "ISO_IR 100",
      "StudyID": "1",
      "StudyTime": "181835.850000",
      "TransmitCoilName": "Body",
      "VariableFlipAngleFlag": "N",
      "WindowCenterWidthExplanation": "Algo1"
    },
    "slices": {}
  },
  "time": {
    "samples": {
      "AcquisitionNumber": [1, 2, 3, 4, 5, 6, 7, 8, 9, 10, 11, 12, 13, 14, 15, 16, 17, 18, 19, 20, 21, 22, 23, 24, 25, 26, 27, 28, 29, 30, 31, 32, 33, 34, 35, 36, 37, 38, 39, 40, 41, 42, 43, 44, 45, 46, 47, 48, 49, 50, 51, 52, 53, 54, 55, 56, 57, 58, 59, 60, 61, 62, 63, 64, 65, 66, 67, 68, 69, 70, 71, 72, 73, 74, 75, 76, 77, 78, 79, 80, 81, 82, 83, 84, 85, 86, 87, 88, 89, 90, 91, 92, 93, 94, 95, 96, 97, 98, 99, 100, 101, 102, 103, 104, 105, 106, 107, 108, 109, 110, 111, 112, 113, 114, 115, 116, 117, 118, 119, 120, 121, 122, 123, 124, 125, 126, 127, 128, 129, 130, 131, 132, 133, 134, 135, 136, 137, 138, 139, 140, 141, 142, 143, 144, 145, 146, 147, 148, 149, 150, 151, 152, 153, 154, 155, 156, 157, 158, 159, 160, 161, 162, 163, 164, 165, 166, 167, 168, 169, 170, 171, 172, 173, 174, 175, 176, 177, 178, 179, 180, 181, 182, 183, 184, 185, 186, 187, 188, 189, 190, 191, 192, 193, 194, 195, 196, 197, 198, 199, 200, 201, 202, 203, 204, 205, 206, 207, 208, 209, 210, 211, 212, 213, 214, 215, 216, 217, 218, 219, 220, 221, 222, 223, 224, 225, 226, 227, 228, 229, 230, 231, 232, 233, 234, 235, 236, 237, 238, 239, 240, 241, 242, 243, 244, 245, 246, 247, 248, 249, 250, 251, 252, 253, 254, 255, 256, 257, 258, 259, 260, 261, 262, 263, 264, 265, 266, 267, 268, 269, 270, 271, 272, 273, 274, 275, 276, 277, 278, 279, 280, 281, 282, 283, 284, 285, 286, 287, 288, 289, 290, 291, 292, 293, 294, 295, 296, 297, 298, 299, 300, 301, 302, 303, 304, 305, 306, 307, 308, 309, 310, 311, 312, 313, 314, 315, 316, 317, 318, 319, 320, 321, 322, 323, 324, 325, 326, 327, 328, 329, 330, 331, 332, 333, 334, 335, 336, 337, 338, 339, 340, 341, 342, 343, 344, 345, 346, 347, 348, 349, 350, 351, 352, 353, 354, 355, 356, 357, 358, 359, 360, 361, 362, 363, 364, 365, 366, 367, 368, 369, 370, 371, 372, 373, 374, 375, 376, 377, 378, 379, 380, 381, 382, 383, 384, 385, 386, 387, 388, 389, 390, 391, 392, 393, 394, 395, 396, 397, 398, 399, 400, 401, 402, 403, 404, 405, 406, 407, 408, 409, 410, 411, 412, 413, 414, 415, 416, 417, 418, 419, 420, 421, 422, 423, 424, 425, 426, 427, 428, 429, 430, 431, 432, 433, 434, 435, 436, 437, 438, 439, 440, 441, 442, 443, 444, 445, 446, 447, 448, 449, 450, 451, 452, 453, 454, 455, 456, 457, 458, 459, 460, 461, 462, 463, 464, 465, 466, 467, 468, 469, 470, 471, 472, 473, 474, 475, 476, 477, 478, 479, 480, 481, 482, 483, 484, 485, 486, 487, 488, 489, 490, 491, 492, 493, 494, 495, 496, 497, 498, 499, 500, 501, 502, 503, 504, 505, 506, 507, 508, 509, 510, 511, 512, 513, 514, 515, 516, 517, 518, 519, 520, 521, 522, 523, 524, 525, 526, 527, 528, 529, 530, 531, 532, 533, 534, 535, 536, 537, 538, 539, 540, 541, 542, 543, 544, 545, 546, 547, 548, 549, 550, 551, 552, 553, 554, 555, 556, 557, 558, 559, 560, 561, 562, 563, 564, 565, 566, 567, 568, 569, 570, 571, 572, 573, 574, 575, 576, 577, 578, 579, 580, 581, 582, 583, 584, 585, 586, 587, 588, 589, 590, 591, 592, 593, 594, 595, 596, 597, 598, 599, 600, 601, 602, 603, 604, 605, 606, 607, 608, 609, 610, 611, 612, 613, 614, 615, 616, 617, 618, 619, 620, 621, 622, 623, 624, 625, 626, 627, 628, 629, 630, 631, 632, 633, 634, 635, 636, 637, 638, 639, 640, 641, 642, 643, 644, 645, 646, 647, 648, 649, 650, 651, 652, 653, 654, 655, 656, 657, 658, 659, 660, 661, 662, 663, 664, 665, 666, 667, 668, 669, 670, 671, 672, 673, 674, 675, 676, 677, 678, 679, 680, 681, 682, 683, 684, 685, 686, 687, 688, 689, 690, 691, 692, 693, 694, 695, 696, 697, 698, 699, 700, 701, 702, 703, 704, 705, 706, 707, 708, 709, 710, 711, 712, 713, 714, 715, 716, 717, 718, 719, 720, 721, 722, 723, 724, 725, 726, 727, 728, 729, 730, 731, 732, 733, 734, 735, 736, 737, 738, 739, 740, 741, 742, 743, 744, 745, 746, 747, 748, 749, 750, 751, 752, 753, 754, 755, 756, 757, 758, 759, 760, 761, 762, 763, 764, 765, 766, 767, 768, 769, 770, 771, 772, 773, 774, 775, 776, 777, 778, 779, 780, 781, 782, 783, 784, 785, 786, 787, 788, 789, 790, 791, 792, 793, 794, 795, 796, 797, 798, 799, 800, 801, 802, 803, 804, 805, 806, 807, 808, 809, 810, 811, 812, 813, 814, 815, 816, 817, 818, 819, 820, 821, 822, 823, 824, 825, 826, 827, 828, 829, 830, 831, 832, 833, 834, 835, 836, 837, 838, 839, 840, 841, 842, 843, 844, 845, 846, 847, 848, 849, 850, 851, 852, 853, 854, 855, 856, 857, 858, 859, 860, 861, 862, 863, 864, 865, 866, 867, 868, 869, 870, 871, 872],
      "AcquisitionTime": ["193153.335000", "193153.795000", "193154.255000", "193154.715000", "193155.175000", "193155.635000", "193156.095000", "193156.555000", "193157.015000", "193157.475000", "193157.935000", "193158.395000", "193158.855000", "193159.315000", "193159.775000", "193200.235000", "193200.695000", "193201.155000", "193201.615000", "193202.075000", "193202.535000", "193202.995000", "193203.455000", "193203.915000", "193204.375000", "193204.835000", "193205.295000", "193205.755000", "193206.215000", "193206.675000", "193207.135000", "193207.595000", "193208.055000", "193208.515000", "193208.975000", "193209.435000", "193209.895000", "193210.355000", "193210.815000", "193211.275000", "193211.735000", "193212.195000", "193212.655000", "193213.115000", "193213.575000", "193214.035000", "193214.495000", "193214.955000", "193215.415000", "193215.875000", "193216.335000", "193216.795000", "193217.255000", "193217.715000", "193218.175000", "193218.635000", "193219.095000", "193219.555000", "193220.015000", "193220.475000", "193220.935000", "193221.395000", "193221.855000", "193222.315000", "193222.775000", "193223.235000", "193223.695000", "193224.155000", "193224.615000", "193225.075000", "193225.535000", "193225.995000", "193226.455000", "193226.915000", "193227.375000", "193227.835000", "193228.295000", "193228.755000", "193229.215000", "193229.675000", "193230.135000", "193230.595000", "193231.055000", "193231.515000", "193231.975000", "193232.435000", "193232.895000", "193233.355000", "193233.815000", "193234.275000", "193234.735000", "193235.195000", "193235.655000", "193236.115000", "193236.575000", "193237.035000", "193237.495000", "193237.955000", "193238.415000", "193238.875000", "193239.335000", "193239.795000", "193240.255000", "193240.715000", "193241.175000", "193241.635000", "193242.095000", "193242.555000", "193243.015000", "193243.475000", "193243.935000", "193244.395000", "193244.855000", "193245.315000", "193245.775000", "193246.235000", "193246.695000", "193247.155000", "193247.615000", "193248.075000", "193248.535000", "193248.995000", "193249.455000", "193249.915000", "193250.375000", "193250.835000", "193251.295000", "193251.755000", "193252.215000", "193252.675000", "193253.135000", "193253.595000", "193254.055000", "193254.515000", "193254.975000", "193255.435000", "193255.895000", "193256.355000", "193256.815000", "193257.275000", "193257.735000", "193258.195000", "193258.655000", "193259.115000", "193259.575000", "193300.035000", "193300.495000", "193300.955000", "193301.415000", "193301.875000", "193302.335000", "193302.795000", "193303.255000", "193303.715000", "193304.175000", "193304.635000", "193305.095000", "193305.555000", "193306.015000", "193306.475000", "193306.935000", "193307.395000", "193307.855000", "193308.315000", "193308.775000", "193309.235000", "193309.695000", "193310.155000", "193310.615000", "193311.075000", "193311.535000", "193311.995000", "193312.455000", "193312.915000", "193313.375000", "193313.835000", "193314.295000", "193314.755000", "193315.215000", "193315.675000", "193316.135000", "193316.595000", "193317.055000", "193317.515000", "193317.975000", "193318.435000", "193318.895000", "193319.355000", "193319.815000", "193320.275000", "193320.735000", "193321.195000", "193321.655000", "193322.115000", "193322.575000", "193323.035000", "193323.495000", "193323.955000", "193324.415000", "193324.875000", "193325.335000", "193325.795000", "193326.255000", "193326.715000", "193327.175000", "193327.635000", "193328.095000", "193328.555000", "193329.015000", "193329.475000", "193329.935000", "193330.395000", "193330.855000", "193331.315000", "193331.775000", "193332.235000", "193332.695000", "193333.155000", "193333.615000", "193334.075000", "193334.535000", "193334.995000", "193335.455000", "193335.915000", "193336.375000", "193336.835000", "193337.295000", "193337.755000", "193338.215000", "193338.675000", "193339.135000", "193339.595000", "193340.055000", "193340.515000", "193340.975000", "193341.435000", "193341.895000", "193342.355000", "193342.815000", "193343.275000", "193343.735000", "193344.195000", "193344.655000", "193345.115000", "193345.575000", "193346.035000", "193346.495000", "193346.955000", "193347.415000", "193347.875000", "193348.335000", "193348.795000", "193349.255000", "193349.715000", "193350.175000", "193350.635000", "193351.095000", "193351.555000", "193352.015000", "193352.475000", "193352.935000", "193353.395000", "193353.855000", "193354.315000", "193354.775000", "193355.235000", "193355.695000", "193356.155000", "193356.615000", "193357.075000", "193357.535000", "193357.995000", "193358.455000", "193358.915000", "193359.375000", "193359.835000", "193400.295000", "193400.755000", "193401.215000", "193401.675000", "193402.135000", "193402.595000", "193403.055000", "193403.515000", "193403.975000", "193404.435000", "193404.895000", "193405.355000", "193405.815000", "193406.275000", "193406.735000", "193407.195000", "193407.655000", "193408.115000", "193408.575000", "193409.035000", "193409.495000", "193409.955000", "193410.415000", "193410.875000", "193411.335000", "193411.795000", "193412.255000", "193412.715000", "193413.175000", "193413.635000", "193414.095000", "193414.555000", "193415.015000", "193415.475000", "193415.935000", "193416.395000", "193416.855000", "193417.315000", "193417.775000", "193418.235000", "193418.695000", "193419.155000", "193419.615000", "193420.075000", "193420.535000", "193420.995000", "193421.455000", "193421.915000", "193422.375000", "193422.835000", "193423.295000", "193423.755000", "193424.215000", "193424.675000", "193425.135000", "193425.595000", "193426.055000", "193426.515000", "193426.975000", "193427.435000", "193427.895000", "193428.355000", "193428.815000", "193429.275000", "193429.735000", "193430.195000", "193430.655000", "193431.115000", "193431.575000", "193432.035000", "193432.495000", "193432.955000", "193433.415000", "193433.875000", "193434.335000", "193434.795000", "193435.255000", "193435.715000", "193436.175000", "193436.635000", "193437.095000", "193437.555000", "193438.015000", "193438.475000", "193438.935000", "193439.395000", "193439.855000", "193440.315000", "193440.775000", "193441.235000", "193441.695000", "193442.155000", "193442.615000", "193443.075000", "193443.535000", "193443.995000", "193444.455000", "193444.915000", "193445.375000", "193445.835000", "193446.295000", "193446.755000", "193447.215000", "193447.675000", "193448.135000", "193448.595000", "193449.055000", "193449.515000", "193449.975000", "193450.435000", "193450.895000", "193451.355000", "193451.815000", "193452.275000", "193452.735000", "193453.195000", "193453.655000", "193454.115000", "193454.575000", "193455.035000", "193455.495000", "193455.955000", "193456.415000", "193456.875000", "193457.335000", "193457.795000", "193458.255000", "193458.715000", "193459.175000", "193459.635000", "193500.095000", "193500.555000", "193501.015000", "193501.475000", "193501.935000", "193502.395000", "193502.855000", "193503.315000", "193503.775000", "193504.235000", "193504.695000", "193505.155000", "193505.615000", "193506.075000", "193506.535000", "193506.995000", "193507.455000", "193507.915000", "193508.375000", "193508.835000", "193509.295000", "193509.755000", "193510.215000", "193510.675000", "193511.135000", "193511.595000", "193512.055000", "193512.515000", "193512.975000", "193513.435000", "193513.895000", "193514.355000", "193514.815000", "193515.275000", "193515.735000", "193516.195000", "193516.655000", "193517.115000", "193517.575000", "193518.035000", "193518.495000", "193518.955000", "193519.415000", "193519.875000", "193520.335000", "193520.795000", "193521.255000", "193521.715000", "193522.175000", "193522.635000", "193523.095000", "193523.555000", "193524.015000", "193524.475000", "193524.935000", "193525.395000", "193525.855000", "193526.315000", "193526.775000", "193527.235000", "193527.695000", "193528.155000", "193528.615000", "193529.075000", "193529.535000", "193529.995000", "193530.455000", "193530.915000", "193531.375000", "193531.835000", "193532.295000", "193532.755000", "193533.215000", "193533.675000", "193534.135000", "193534.595000", "193535.055000", "193535.515000", "193535.975000", "193536.435000", "193536.895000", "193537.355000", "193537.815000", "193538.275000", "193538.735000", "193539.195000", "193539.655000", "193540.115000", "193540.575000", "193541.035000", "193541.495000", "193541.955000", "193542.415000", "193542.875000", "193543.335000", "193543.795000", "193544.255000", "193544.715000", "193545.175000", "193545.635000", "193546.095000", "193546.555000", "193547.015000", "193547.475000", "193547.935000", "193548.395000", "193548.855000", "193549.315000", "193549.775000", "193550.235000", "193550.695000", "193551.155000", "193551.615000", "193552.075000", "193552.535000", "193552.995000", "193553.455000", "193553.915000", "193554.375000", "193554.835000", "193555.295000", "193555.755000", "193556.215000", "193556.675000", "193557.135000", "193557.595000", "193558.055000", "193558.515000", "193558.975000", "193559.435000", "193559.895000", "193600.355000", "193600.815000", "193601.275000", "193601.735000", "193602.195000", "193602.655000", "193603.115000", "193603.575000", "193604.035000", "193604.495000", "193604.955000", "193605.415000", "193605.875000", "193606.335000", "193606.795000", "193607.255000", "193607.715000", "193608.175000", "193608.635000", "193609.095000", "193609.555000", "193610.015000", "193610.475000", "193610.935000", "193611.395000", "193611.855000", "193612.315000", "193612.775000", "193613.235000", "193613.695000", "193614.155000", "193614.615000", "193615.075000", "193615.535000", "193615.995000", "193616.455000", "193616.915000", "193617.375000", "193617.835000", "193618.295000", "193618.755000", "193619.215000", "193619.675000", "193620.135000", "193620.595000", "193621.055000", "193621.515000", "193621.975000", "193622.435000", "193622.895000", "193623.355000", "193623.815000", "193624.275000", "193624.735000", "193625.195000", "193625.655000", "193626.115000", "193626.575000", "193627.035000", "193627.495000", "193627.955000", "193628.415000", "193628.875000", "193629.335000", "193629.795000", "193630.255000", "193630.715000", "193631.175000", "193631.635000", "193632.095000", "193632.555000", "193633.015000", "193633.475000", "193633.935000", "193634.395000", "193634.855000", "193635.315000", "193635.775000", "193636.235000", "193636.695000", "193637.155000", "193637.615000", "193638.075000", "193638.535000", "193638.995000", "193639.455000", "193639.915000", "193640.375000", "193640.835000", "193641.295000", "193641.755000", "193642.215000", "193642.675000", "193643.135000", "193643.595000", "193644.055000", "193644.515000", "193644.975000", "193645.435000", "193645.895000", "193646.355000", "193646.815000", "193647.275000", "193647.735000", "193648.195000", "193648.655000", "193649.115000", "193649.575000", "193650.035000", "193650.495000", "193650.955000", "193651.415000", "193651.875000", "193652.335000", "193652.795000", "193653.255000", "193653.715000", "193654.175000", "193654.635000", "193655.095000", "193655.555000", "193656.015000", "193656.475000", "193656.935000", "193657.395000", "193657.855000", "193658.315000", "193658.775000", "193659.235000", "193659.695000", "193700.155000", "193700.615000", "193701.075000", "193701.535000", "193701.995000", "193702.455000", "193702.915000", "193703.375000", "193703.835000", "193704.295000", "193704.755000", "193705.215000", "193705.675000", "193706.135000", "193706.595000", "193707.055000", "193707.515000", "193707.975000", "193708.435000", "193708.895000", "193709.355000", "193709.815000", "193710.275000", "193710.735000", "193711.195000", "193711.655000", "193712.115000", "193712.575000", "193713.035000", "193713.495000", "193713.955000", "193714.415000", "193714.875000", "193715.335000", "193715.795000", "193716.255000", "193716.715000", "193717.175000", "193717.635000", "193718.095000", "193718.555000", "193719.015000", "193719.475000", "193719.935000", "193720.395000", "193720.855000", "193721.315000", "193721.775000", "193722.235000", "193722.695000", "193723.155000", "193723.615000", "193724.075000", "193724.535000", "193724.995000", "193725.455000", "193725.915000", "193726.375000", "193726.835000", "193727.295000", "193727.755000", "193728.215000", "193728.675000", "193729.135000", "193729.595000", "193730.055000", "193730.515000", "193730.975000", "193731.435000", "193731.895000", "193732.355000", "193732.815000", "193733.275000", "193733.735000", "193734.195000", "193734.655000", "193735.115000", "193735.575000", "193736.035000", "193736.495000", "193736.955000", "193737.415000", "193737.875000", "193738.335000", "193738.795000", "193739.255000", "193739.715000", "193740.175000", "193740.635000", "193741.095000", "193741.555000", "193742.015000", "193742.475000", "193742.935000", "193743.395000", "193743.855000", "193744.315000", "193744.775000", "193745.235000", "193745.695000", "193746.155000", "193746.615000", "193747.075000", "193747.535000", "193747.995000", "193748.455000", "193748.915000", "193749.375000", "193749.835000", "193750.295000", "193750.755000", "193751.215000", "193751.675000", "193752.135000", "193752.595000", "193753.055000", "193753.515000", "193753.975000", "193754.435000", "193754.895000", "193755.355000", "193755.815000", "193756.275000", "193756.735000", "193757.195000", "193757.655000", "193758.115000", "193758.575000", "193759.035000", "193759.495000", "193759.955000", "193800.415000", "193800.875000", "193801.335000", "193801.795000", "193802.255000", "193802.715000", "193803.175000", "193803.635000", "193804.095000", "193804.555000", "193805.015000", "193805.475000", "193805.935000", "193806.395000", "193806.855000", "193807.315000", "193807.775000", "193808.235000", "193808.695000", "193809.155000", "193809.615000", "193810.075000", "193810.535000", "193810.995000", "193811.455000", "193811.915000", "193812.375000", "193812.835000", "193813.295000", "193813.755000", "193814.215000", "193814.675000", "193815.135000", "193815.595000", "193816.055000", "193816.515000", "193816.975000", "193817.435000", "193817.895000", "193818.355000", "193818.815000", "193819.275000", "193819.735000", "193820.195000", "193820.655000", "193821.115000", "193821.575000", "193822.035000", "193822.495000", "193822.955000", "193823.415000", "193823.875000", "193824.335000", "193824.795000", "193825.255000", "193825.715000", "193826.175000", "193826.635000", "193827.095000", "193827.555000", "193828.015000", "193828.475000", "193828.935000", "193829.395000", "193829.855000", "193830.315000", "193830.775000", "193831.235000", "193831.695000", "193832.155000", "193832.615000", "193833.075000", "193833.535000", "193833.995000"],
