{
  "AcquisitionMatrixPE": 82,
  "AcquisitionNumber": 1,
  "AcquisitionTime": "20:32:28.752500",
  "BandwidthPerPixelPhaseEncode": 24.888,
  "BaseResolution": 82,
  "BodyPartExamined": "BRAIN",
  "ConsistencyInfo": "N4_VE11E_LATEST_20181129",
  "ConversionSoftware": "dcm2niix",
  "ConversionSoftwareVersion": "v1.0.20201102",
  "DerivedVendorReportedEchoSpacing": 0.00049,
  "DeviceSerialNumber": "66112",
  "DwellTime": 2e-06,
  "EchoTime": 0.0272,
  "EchoTrainLength": 82,
  "EffectiveEchoSpacing": 0.00049,
  "FlipAngle": 44,
  "ImageComments": "Unaliased MB8/PE3",
  "ImageOrientationPatientDICOM": [0.998282, 0.0476926, -0.0340218, -0.0463794, 0.998186, 0.0383978],
  "ImageType": [
    "ORIGINAL",
    "PRIMARY",
    "M",
    "MB",
    "ND",
    "NORM",
    "MOSAIC"
],
  "ImagingFrequency": 123.259,
  "InPlanePhaseEncodingDirectionDICOM": "COL",
  "InstitutionAddress": "Maynard 3,Hanover,NH,US,03755",
  "InstitutionName": "Dartmouth College - PBS",
  "InstitutionalDepartmentName": "Department",
  "MRAcquisitionType": "2D",
  "MagneticFieldStrength": 3,
  "Manufacturer": "Siemens",
  "ManufacturersModelName": "Prisma",
  "Modality": "MR",
  "MultibandAccelerationFactor": 8,
  "PartialFourier": 1,
  "PatientPosition": "HFS",
  "PercentPhaseFOV": 100,
  "PercentSampling": 100,
  "PhaseEncodingDirection": "j-",
  "PhaseEncodingSteps": 82,
  "PhaseResolution": 1,
  "PixelBandwidth": 3050,
  "ProcedureStepDescription": "Wager_Wager^1076_spacetop",
  "ProtocolName": "func_run-03_task-alignvideo_acq-ap-mb8",
  "PulseSequenceDetails": "%CustomerSeq%\\cmrr_mbep2d_bold",
  "ReceiveCoilActiveElements": "HEA;HEP",
  "ReceiveCoilName": "Head_32",
  "ReconMatrixPE": 82,
  "RepetitionTime": 0.46,
  "SAR": 0.105152,
  "ScanOptions": "FS",
  "ScanningSequence": "EP",
  "SequenceName": "epfid2d1_82",
  "SequenceVariant": "SK\\SS",
  "SeriesDescription": "func_run-03_task-alignvideo_acq-ap-mb8",
  "SeriesNumber": 34,
  "ShimSetting": [4211, -7793, -7228, 193, -129, -85, 27, 85],
  "SliceThickness": 2.7,
  "SliceTiming": [0, 0.2525, 0.0625, 0.315, 0.1275, 0.3775, 0.19, 0, 0.2525, 0.0625, 0.315, 0.1275, 0.3775, 0.19, 0, 0.2525, 0.0625, 0.315, 0.1275, 0.3775, 0.19, 0, 0.2525, 0.0625, 0.315, 0.1275, 0.3775, 0.19, 0, 0.2525, 0.0625, 0.315, 0.1275, 0.3775, 0.19, 0, 0.2525, 0.0625, 0.315, 0.1275, 0.3775, 0.19, 0, 0.2525, 0.0625, 0.315, 0.1275, 0.3775, 0.19, 0, 0.2525, 0.0625, 0.315, 0.1275, 0.3775, 0.19],
  "SoftwareVersions": "syngo MR E11",
  "SpacingBetweenSlices": 2.7,
  "StationName": "AWP66112",
  "TaskName": "alignvideo",
  "TotalReadoutTime": 0.03969,
  "TxRefAmp": 277.601,
  "WipMemBlock": "5382242d-63c8-4dee-813c-dd91acc8053d||Sequence: R016 ve11e/master r/434b28f1; Aug  7 2019 18:53:46 by eja",
  "dcmmeta_affine": [
    [-2.678318977355957, -0.1244325116276741, -0.09663679450750351, 118.8194580078125],
    [-0.1279558390378952, 2.6780591011047363, 0.09923573583364487, -92.0689697265625],
    [-0.09127810597419739, -0.10301858931779861, 2.6964447498321533, -56.64446258544922],
    [0.0, 0.0, 0.0, 1.0]
],
  "dcmmeta_reorient_transform": [
    [0.0, -1.0, 0.0, 81.0],
    [1.0, 0.0, 0.0, 0.0],
    [0.0, 0.0, 1.0, 0.0],
    [0.0, 0.0, 0.0, 1.0]
],
  "dcmmeta_shape": [82, 82, 56, 1016],
  "dcmmeta_slice_dim": 2,
  "dcmmeta_version": 0.6,
  "global": {
    "const": {
      "AccessionNumber": "A004921",
      "AcquisitionMatrix": [82, 0, 0, 82],
      "AngioFlag": "N",
      "BitsAllocated": 16,
      "BitsStored": 16,
      "BodyPartExamined": "BRAIN",
      "Columns": 656,
      "EchoNumbers": 1,
      "EchoTime": 27.2,
      "EchoTrainLength": 82,
      "FlipAngle": 44.0,
      "HighBit": 15,
      "ImageOrientationPatient": [0.99828248897047, 0.04769262831064, -0.0340218373953, -0.0463793885789, 0.99818563329666, 0.03839783581399],
      "ImagePositionPatient": [-841.705832377, -930.18009354332, -68.358485206608],
      "ImageType": [
        "ORIGINAL",
        "PRIMARY",
        "M",
        "MB",
        "ND",
        "NORM",
        "MOSAIC"
],
      "ImagedNucleus": "1H",
      "ImagingFrequency": 123.259012,
      "InPlanePhaseEncodingDirection": "COL",
      "MRAcquisitionType": "2D",
      "MagneticFieldStrength": 3.0,
      "Manufacturer": "SIEMENS",
      "ManufacturerModelName": "Prisma",
      "Modality": "MR",
      "NumberOfAverages": 1.0,
      "NumberOfPhaseEncodingSteps": 82,
      "PercentPhaseFieldOfView": 100.0,
      "PercentSampling": 100.0,
      "PerformedProcedureStepStartTime": "181835.929000",
      "PhotometricInterpretation": "MONOCHROME2",
      "PixelBandwidth": 3050.0,
      "PixelRepresentation": 0,
      "PixelSpacing": [2.6829268932343, 2.6829268932343],
      "ProtocolName": "func_run-03_task-alignvideo_acq-ap-mb8",
      "RepetitionTime": 460.0,
      "Rows": 656,
      "SAR": 0.10515153427615,
      "SamplesPerPixel": 1,
      "ScanOptions": "FS",
      "ScanningSequence": "EP",
      "SequenceName": "epfid2d1_82",
      "SequenceVariant": [
        "SK",
        "SS"
],
      "SeriesDescription": "func_run-03_task-alignvideo_acq-ap-mb8",
      "SeriesNumber": 34,
      "SeriesTime": "203239.842000",
      "SliceLocation": -64.206486983307,
      "SliceThickness": 2.7000000476837,
      "SmallestImagePixelValue": 0,
      "SoftwareVersions": "syngo MR E11",
      "SpacingBetweenSlices": 2.7000000795566,
      "SpecificCharacterSet": "ISO_IR 100",
      "StudyID": "1",
      "StudyTime": "181835.850000",
      "TransmitCoilName": "Body",
      "VariableFlipAngleFlag": "N",
      "WindowCenterWidthExplanation": "Algo1"
    },
    "slices": {}
  },
  "time": {
    "samples": {
      "AcquisitionNumber": [1, 2, 3, 4, 5, 6, 7, 8, 9, 10, 11, 12, 13, 14, 15, 16, 17, 18, 19, 20, 21, 22, 23, 24, 25, 26, 27, 28, 29, 30, 31, 32, 33, 34, 35, 36, 37, 38, 39, 40, 41, 42, 43, 44, 45, 46, 47, 48, 49, 50, 51, 52, 53, 54, 55, 56, 57, 58, 59, 60, 61, 62, 63, 64, 65, 66, 67, 68, 69, 70, 71, 72, 73, 74, 75, 76, 77, 78, 79, 80, 81, 82, 83, 84, 85, 86, 87, 88, 89, 90, 91, 92, 93, 94, 95, 96, 97, 98, 99, 100, 101, 102, 103, 104, 105, 106, 107, 108, 109, 110, 111, 112, 113, 114, 115, 116, 117, 118, 119, 120, 121, 122, 123, 124, 125, 126, 127, 128, 129, 130, 131, 132, 133, 134, 135, 136, 137, 138, 139, 140, 141, 142, 143, 144, 145, 146, 147, 148, 149, 150, 151, 152, 153, 154, 155, 156, 157, 158, 159, 160, 161, 162, 163, 164, 165, 166, 167, 168, 169, 170, 171, 172, 173, 174, 175, 176, 177, 178, 179, 180, 181, 182, 183, 184, 185, 186, 187, 188, 189, 190, 191, 192, 193, 194, 195, 196, 197, 198, 199, 200, 201, 202, 203, 204, 205, 206, 207, 208, 209, 210, 211, 212, 213, 214, 215, 216, 217, 218, 219, 220, 221, 222, 223, 224, 225, 226, 227, 228, 229, 230, 231, 232, 233, 234, 235, 236, 237, 238, 239, 240, 241, 242, 243, 244, 245, 246, 247, 248, 249, 250, 251, 252, 253, 254, 255, 256, 257, 258, 259, 260, 261, 262, 263, 264, 265, 266, 267, 268, 269, 270, 271, 272, 273, 274, 275, 276, 277, 278, 279, 280, 281, 282, 283, 284, 285, 286, 287, 288, 289, 290, 291, 292, 293, 294, 295, 296, 297, 298, 299, 300, 301, 302, 303, 304, 305, 306, 307, 308, 309, 310, 311, 312, 313, 314, 315, 316, 317, 318, 319, 320, 321, 322, 323, 324, 325, 326, 327, 328, 329, 330, 331, 332, 333, 334, 335, 336, 337, 338, 339, 340, 341, 342, 343, 344, 345, 346, 347, 348, 349, 350, 351, 352, 353, 354, 355, 356, 357, 358, 359, 360, 361, 362, 363, 364, 365, 366, 367, 368, 369, 370, 371, 372, 373, 374, 375, 376, 377, 378, 379, 380, 381, 382, 383, 384, 385, 386, 387, 388, 389, 390, 391, 392, 393, 394, 395, 396, 397, 398, 399, 400, 401, 402, 403, 404, 405, 406, 407, 408, 409, 410, 411, 412, 413, 414, 415, 416, 417, 418, 419, 420, 421, 422, 423, 424, 425, 426, 427, 428, 429, 430, 431, 432, 433, 434, 435, 436, 437, 438, 439, 440, 441, 442, 443, 444, 445, 446, 447, 448, 449, 450, 451, 452, 453, 454, 455, 456, 457, 458, 459, 460, 461, 462, 463, 464, 465, 466, 467, 468, 469, 470, 471, 472, 473, 474, 475, 476, 477, 478, 479, 480, 481, 482, 483, 484, 485, 486, 487, 488, 489, 490, 491, 492, 493, 494, 495, 496, 497, 498, 499, 500, 501, 502, 503, 504, 505, 506, 507, 508, 509, 510, 511, 512, 513, 514, 515, 516, 517, 518, 519, 520, 521, 522, 523, 524, 525, 526, 527, 528, 529, 530, 531, 532, 533, 534, 535, 536, 537, 538, 539, 540, 541, 542, 543, 544, 545, 546, 547, 548, 549, 550, 551, 552, 553, 554, 555, 556, 557, 558, 559, 560, 561, 562, 563, 564, 565, 566, 567, 568, 569, 570, 571, 572, 573, 574, 575, 576, 577, 578, 579, 580, 581, 582, 583, 584, 585, 586, 587, 588, 589, 590, 591, 592, 593, 594, 595, 596, 597, 598, 599, 600, 601, 602, 603, 604, 605, 606, 607, 608, 609, 610, 611, 612, 613, 614, 615, 616, 617, 618, 619, 620, 621, 622, 623, 624, 625, 626, 627, 628, 629, 630, 631, 632, 633, 634, 635, 636, 637, 638, 639, 640, 641, 642, 643, 644, 645, 646, 647, 648, 649, 650, 651, 652, 653, 654, 655, 656, 657, 658, 659, 660, 661, 662, 663, 664, 665, 666, 667, 668, 669, 670, 671, 672, 673, 674, 675, 676, 677, 678, 679, 680, 681, 682, 683, 684, 685, 686, 687, 688, 689, 690, 691, 692, 693, 694, 695, 696, 697, 698, 699, 700, 701, 702, 703, 704, 705, 706, 707, 708, 709, 710, 711, 712, 713, 714, 715, 716, 717, 718, 719, 720, 721, 722, 723, 724, 725, 726, 727, 728, 729, 730, 731, 732, 733, 734, 735, 736, 737, 738, 739, 740, 741, 742, 743, 744, 745, 746, 747, 748, 749, 750, 751, 752, 753, 754, 755, 756, 757, 758, 759, 760, 761, 762, 763, 764, 765, 766, 767, 768, 769, 770, 771, 772, 773, 774, 775, 776, 777, 778, 779, 780, 781, 782, 783, 784, 785, 786, 787, 788, 789, 790, 791, 792, 793, 794, 795, 796, 797, 798, 799, 800, 801, 802, 803, 804, 805, 806, 807, 808, 809, 810, 811, 812, 813, 814, 815, 816, 817, 818, 819, 820, 821, 822, 823, 824, 825, 826, 827, 828, 829, 830, 831, 832, 833, 834, 835, 836, 837, 838, 839, 840, 841, 842, 843, 844, 845, 846, 847, 848, 849, 850, 851, 852, 853, 854, 855, 856, 857, 858, 859, 860, 861, 862, 863, 864, 865, 866, 867, 868, 869, 870, 871, 872, 873, 874, 875, 876, 877, 878, 879, 880, 881, 882, 883, 884, 885, 886, 887, 888, 889, 890, 891, 892, 893, 894, 895, 896, 897, 898, 899, 900, 901, 902, 903, 904, 905, 906, 907, 908, 909, 910, 911, 912, 913, 914, 915, 916, 917, 918, 919, 920, 921, 922, 923, 924, 925, 926, 927, 928, 929, 930, 931, 932, 933, 934, 935, 936, 937, 938, 939, 940, 941, 942, 943, 944, 945, 946, 947, 948, 949, 950, 951, 952, 953, 954, 955, 956, 957, 958, 959, 960, 961, 962, 963, 964, 965, 966, 967, 968, 969, 970, 971, 972, 973, 974, 975, 976, 977, 978, 979, 980, 981, 982, 983, 984, 985, 986, 987, 988, 989, 990, 991, 992, 993, 994, 995, 996, 997, 998, 999, 1000, 1001, 1002, 1003, 1004, 1005, 1006, 1007, 1008, 1009, 1010, 1011, 1012, 1013, 1014, 1015, 1016],
      "AcquisitionTime": ["203228.752500", "203229.212500", "203229.672500", "203230.132500", "203230.592500", "203231.052500", "203231.512500", "203231.972500", "203232.432500", "203232.892500", "203233.352500", "203233.812500", "203234.272500", "203234.732500", "203235.192500", "203235.652500", "203236.112500", "203236.572500", "203237.032500", "203237.492500", "203237.952500", "203238.412500", "203238.872500", "203239.332500", "203239.792500", "203240.252500", "203240.712500", "203241.172500", "203241.632500", "203242.092500", "203242.552500", "203243.012500", "203243.472500", "203243.932500", "203244.392500", "203244.852500", "203245.312500", "203245.772500", "203246.232500", "203246.692500", "203247.152500", "203247.612500", "203248.072500", "203248.532500", "203248.992500", "203249.452500", "203249.912500", "203250.372500", "203250.832500", "203251.292500", "203251.752500", "203252.212500", "203252.672500", "203253.132500", "203253.592500", "203254.052500", "203254.512500", "203254.972500", "203255.432500", "203255.892500", "203256.352500", "203256.812500", "203257.272500", "203257.732500", "203258.192500", "203258.652500", "203259.112500", "203259.572500", "203300.032500", "203300.492500", "203300.952500", "203301.412500", "203301.872500", "203302.332500", "203302.792500", "203303.252500", "203303.712500", "203304.172500", "203304.632500", "203305.092500", "203305.552500", "203306.012500", "203306.472500", "203306.932500", "203307.392500", "203307.852500", "203308.312500", "203308.772500", "203309.232500", "203309.692500", "203310.152500", "203310.612500", "203311.072500", "203311.532500", "203311.992500", "203312.452500", "203312.912500", "203313.372500", "203313.832500", "203314.292500", "203314.752500", "203315.212500", "203315.672500", "203316.132500", "203316.592500", "203317.052500", "203317.512500", "203317.972500", "203318.432500", "203318.892500", "203319.352500", "203319.812500", "203320.272500", "203320.732500", "203321.192500", "203321.652500", "203322.112500", "203322.572500", "203323.032500", "203323.492500", "203323.952500", "203324.412500", "203324.872500", "203325.332500", "203325.792500", "203326.252500", "203326.712500", "203327.172500", "203327.632500", "203328.092500", "203328.552500", "203329.012500", "203329.472500", "203329.932500", "203330.392500", "203330.852500", "203331.312500", "203331.772500", "203332.232500", "203332.692500", "203333.152500", "203333.612500", "203334.072500", "203334.532500", "203334.992500", "203335.452500", "203335.912500", "203336.372500", "203336.832500", "203337.292500", "203337.752500", "203338.212500", "203338.672500", "203339.132500", "203339.592500", "203340.052500", "203340.512500", "203340.972500", "203341.432500", "203341.892500", "203342.352500", "203342.812500", "203343.272500", "203343.732500", "203344.192500", "203344.652500", "203345.112500", "203345.572500", "203346.032500", "203346.492500", "203346.952500", "203347.412500", "203347.872500", "203348.332500", "203348.792500", "203349.252500", "203349.712500", "203350.172500", "203350.632500", "203351.092500", "203351.552500", "203352.012500", "203352.472500", "203352.932500", "203353.392500", "203353.852500", "203354.312500", "203354.772500", "203355.232500", "203355.692500", "203356.152500", "203356.612500", "203357.072500", "203357.532500", "203357.992500", "203358.452500", "203358.912500", "203359.372500", "203359.832500", "203400.292500", "203400.752500", "203401.212500", "203401.672500", "203402.132500", "203402.592500", "203403.052500", "203403.512500", "203403.972500", "203404.432500", "203404.892500", "203405.352500", "203405.812500", "203406.272500", "203406.732500", "203407.192500", "203407.652500", "203408.112500", "203408.572500", "203409.032500", "203409.492500", "203409.952500", "203410.412500", "203410.872500", "203411.332500", "203411.792500", "203412.252500", "203412.712500", "203413.172500", "203413.632500", "203414.092500", "203414.552500", "203415.012500", "203415.472500", "203415.932500", "203416.392500", "203416.852500", "203417.312500", "203417.772500", "203418.232500", "203418.692500", "203419.152500", "203419.612500", "203420.072500", "203420.532500", "203420.992500", "203421.452500", "203421.912500", "203422.372500", "203422.832500", "203423.292500", "203423.752500", "203424.212500", "203424.672500", "203425.132500", "203425.592500", "203426.052500", "203426.512500", "203426.972500", "203427.432500", "203427.892500", "203428.352500", "203428.812500", "203429.272500", "203429.732500", "203430.192500", "203430.652500", "203431.112500", "203431.572500", "203432.032500", "203432.492500", "203432.952500", "203433.412500", "203433.872500", "203434.332500", "203434.792500", "203435.252500", "203435.712500", "203436.172500", "203436.632500", "203437.092500", "203437.552500", "203438.012500", "203438.472500", "203438.932500", "203439.392500", "203439.852500", "203440.312500", "203440.772500", "203441.232500", "203441.692500", "203442.152500", "203442.612500", "203443.072500", "203443.532500", "203443.992500", "203444.452500", "203444.912500", "203445.372500", "203445.832500", "203446.292500", "203446.752500", "203447.212500", "203447.672500", "203448.132500", "203448.592500", "203449.052500", "203449.512500", "203449.972500", "203450.432500", "203450.892500", "203451.352500", "203451.812500", "203452.272500", "203452.732500", "203453.192500", "203453.652500", "203454.112500", "203454.572500", "203455.032500", "203455.492500", "203455.952500", "203456.412500", "203456.872500", "203457.332500", "203457.792500", "203458.252500", "203458.712500", "203459.172500", "203459.632500", "203500.092500", "203500.552500", "203501.012500", "203501.472500", "203501.932500", "203502.392500", "203502.852500", "203503.312500", "203503.772500", "203504.232500", "203504.692500", "203505.152500", "203505.612500", "203506.072500", "203506.532500", "203506.992500", "203507.452500", "203507.912500", "203508.372500", "203508.832500", "203509.292500", "203509.752500", "203510.212500", "203510.672500", "203511.132500", "203511.592500", "203512.052500", "203512.512500", "203512.972500", "203513.432500", "203513.892500", "203514.352500", "203514.812500", "203515.272500", "203515.732500", "203516.192500", "203516.652500", "203517.112500", "203517.572500", "203518.032500", "203518.492500", "203518.952500", "203519.412500", "203519.872500", "203520.332500", "203520.792500", "203521.252500", "203521.712500", "203522.172500", "203522.632500", "203523.092500", "203523.552500", "203524.012500", "203524.472500", "203524.932500", "203525.392500", "203525.852500", "203526.312500", "203526.772500", "203527.232500", "203527.692500", "203528.152500", "203528.612500", "203529.072500", "203529.532500", "203529.992500", "203530.452500", "203530.912500", "203531.372500", "203531.832500", "203532.292500", "203532.752500", "203533.212500", "203533.672500", "203534.132500", "203534.592500", "203535.052500", "203535.512500", "203535.972500", "203536.432500", "203536.892500", "203537.352500", "203537.812500", "203538.272500", "203538.732500", "203539.192500", "203539.652500", "203540.112500", "203540.572500", "203541.032500", "203541.492500", "203541.952500", "203542.412500", "203542.872500", "203543.332500", "203543.792500", "203544.252500", "203544.712500", "203545.172500", "203545.632500", "203546.092500", "203546.552500", "203547.012500", "203547.472500", "203547.932500", "203548.392500", "203548.852500", "203549.312500", "203549.772500", "203550.232500", "203550.692500", "203551.152500", "203551.612500", "203552.072500", "203552.532500", "203552.992500", "203553.452500", "203553.912500", "203554.372500", "203554.832500", "203555.292500", "203555.752500", "203556.212500", "203556.672500", "203557.132500", "203557.592500", "203558.052500", "203558.512500", "203558.972500", "203559.432500", "203559.892500", "203600.352500", "203600.812500", "203601.272500", "203601.732500", "203602.192500", "203602.652500", "203603.112500", "203603.572500", "203604.032500", "203604.492500", "203604.952500", "203605.412500", "203605.872500", "203606.332500", "203606.792500", "203607.252500", "203607.712500", "203608.172500", "203608.632500", "203609.092500", "203609.552500", "203610.012500", "203610.472500", "203610.932500", "203611.392500", "203611.852500", "203612.312500", "203612.772500", "203613.232500", "203613.692500", "203614.152500", "203614.612500", "203615.072500", "203615.532500", "203615.992500", "203616.452500", "203616.912500", "203617.372500", "203617.832500", "203618.292500", "203618.752500", "203619.212500", "203619.672500", "203620.132500", "203620.592500", "203621.052500", "203621.512500", "203621.972500", "203622.432500", "203622.892500", "203623.352500", "203623.812500", "203624.272500", "203624.732500", "203625.192500", "203625.652500", "203626.112500", "203626.572500", "203627.032500", "203627.492500", "203627.952500", "203628.412500", "203628.872500", "203629.332500", "203629.792500", "203630.252500", "203630.712500", "203631.172500", "203631.632500", "203632.092500", "203632.552500", "203633.012500", "203633.472500", "203633.932500", "203634.392500", "203634.852500", "203635.312500", "203635.772500", "203636.232500", "203636.692500", "203637.152500", "203637.612500", "203638.072500", "203638.532500", "203638.992500", "203639.452500", "203639.912500", "203640.372500", "203640.832500", "203641.292500", "203641.752500", "203642.212500", "203642.672500", "203643.132500", "203643.592500", "203644.052500", "203644.512500", "203644.972500", "203645.432500", "203645.892500", "203646.352500", "203646.812500", "203647.272500", "203647.732500", "203648.192500", "203648.652500", "203649.112500", "203649.572500", "203650.032500", "203650.492500", "203650.952500", "203651.412500", "203651.872500", "203652.332500", "203652.792500", "203653.252500", "203653.712500", "203654.172500", "203654.632500", "203655.092500", "203655.552500", "203656.012500", "203656.472500", "203656.932500", "203657.392500", "203657.852500", "203658.312500", "203658.772500", "203659.232500", "203659.692500", "203700.152500", "203700.612500", "203701.072500", "203701.532500", "203701.992500", "203702.452500", "203702.912500", "203703.372500", "203703.832500", "203704.292500", "203704.752500", "203705.212500", "203705.672500", "203706.132500", "203706.592500", "203707.052500", "203707.512500", "203707.972500", "203708.432500", "203708.892500", "203709.352500", "203709.812500", "203710.272500", "203710.732500", "203711.192500", "203711.652500", "203712.112500", "203712.572500", "203713.032500", "203713.492500", "203713.952500", "203714.412500", "203714.872500", "203715.332500", "203715.792500", "203716.252500", "203716.712500", "203717.172500", "203717.632500", "203718.092500", "203718.552500", "203719.012500", "203719.472500", "203719.932500", "203720.392500", "203720.852500", "203721.312500", "203721.772500", "203722.232500", "203722.692500", "203723.152500", "203723.612500", "203724.072500", "203724.532500", "203724.992500", "203725.452500", "203725.912500", "203726.372500", "203726.832500", "203727.292500", "203727.752500", "203728.212500", "203728.672500", "203729.132500", "203729.592500", "203730.052500", "203730.512500", "203730.972500", "203731.432500", "203731.892500", "203732.352500", "203732.812500", "203733.272500", "203733.732500", "203734.192500", "203734.652500", "203735.112500", "203735.572500", "203736.032500", "203736.492500", "203736.952500", "203737.412500", "203737.872500", "203738.332500", "203738.792500", "203739.252500", "203739.712500", "203740.172500", "203740.632500", "203741.092500", "203741.552500", "203742.012500", "203742.472500", "203742.932500", "203743.392500", "203743.852500", "203744.312500", "203744.772500", "203745.232500", "203745.692500", "203746.152500", "203746.612500", "203747.072500", "203747.532500", "203747.992500", "203748.452500", "203748.912500", "203749.372500", "203749.832500", "203750.292500", "203750.752500", "203751.212500", "203751.672500", "203752.132500", "203752.592500", "203753.052500", "203753.512500", "203753.972500", "203754.432500", "203754.892500", "203755.352500", "203755.812500", "203756.272500", "203756.732500", "203757.192500", "203757.652500", "203758.112500", "203758.572500", "203759.032500", "203759.492500", "203759.952500", "203800.412500", "203800.872500", "203801.332500", "203801.792500", "203802.252500", "203802.712500", "203803.172500", "203803.632500", "203804.092500", "203804.552500", "203805.012500", "203805.472500", "203805.932500", "203806.392500", "203806.852500", "203807.312500", "203807.772500", "203808.232500", "203808.692500", "203809.152500", "203809.612500", "203810.072500", "203810.532500", "203810.992500", "203811.452500", "203811.912500", "203812.372500", "203812.832500", "203813.292500", "203813.752500", "203814.212500", "203814.672500", "203815.132500", "203815.592500", "203816.052500", "203816.512500", "203816.972500", "203817.432500", "203817.892500", "203818.352500", "203818.812500", "203819.272500", "203819.732500", "203820.192500", "203820.652500", "203821.112500", "203821.572500", "203822.032500", "203822.492500", "203822.952500", "203823.412500", "203823.872500", "203824.332500", "203824.792500", "203825.252500", "203825.712500", "203826.172500", "203826.632500", "203827.092500", "203827.552500", "203828.012500", "203828.472500", "203828.932500", "203829.392500", "203829.852500", "203830.312500", "203830.772500", "203831.232500", "203831.692500", "203832.152500", "203832.612500", "203833.072500", "203833.532500", "203833.992500", "203834.452500", "203834.912500", "203835.372500", "203835.832500", "203836.292500", "203836.752500", "203837.212500", "203837.672500", "203838.132500", "203838.592500", "203839.052500", "203839.512500", "203839.972500", "203840.432500", "203840.892500", "203841.352500", "203841.812500", "203842.272500", "203842.732500", "203843.192500", "203843.652500", "203844.112500", "203844.572500", "203845.032500", "203845.492500", "203845.952500", "203846.412500", "203846.872500", "203847.332500", "203847.792500", "203848.252500", "203848.712500", "203849.172500", "203849.632500", "203850.092500", "203850.552500", "203851.012500", "203851.472500", "203851.932500", "203852.392500", "203852.852500", "203853.312500", "203853.772500", "203854.232500", "203854.692500", "203855.152500", "203855.612500", "203856.072500", "203856.532500", "203856.992500", "203857.452500", "203857.912500", "203858.372500", "203858.832500", "203859.292500", "203859.752500", "203900.212500", "203900.672500", "203901.132500", "203901.592500", "203902.052500", "203902.512500", "203902.972500", "203903.432500", "203903.892500", "203904.352500", "203904.812500", "203905.272500", "203905.732500", "203906.192500", "203906.652500", "203907.112500", "203907.572500", "203908.032500", "203908.492500", "203908.952500", "203909.412500", "203909.872500", "203910.332500", "203910.792500", "203911.252500", "203911.712500", "203912.172500", "203912.632500", "203913.092500", "203913.552500", "203914.012500", "203914.472500", "203914.932500", "203915.392500", "203915.852500", "203916.312500", "203916.772500", "203917.232500", "203917.692500", "203918.152500", "203918.612500", "203919.072500", "203919.532500", "203919.992500", "203920.452500", "203920.912500", "203921.372500", "203921.832500", "203922.292500", "203922.752500", "203923.212500", "203923.672500", "203924.132500", "203924.592500", "203925.052500", "203925.512500", "203925.972500", "203926.432500", "203926.892500", "203927.352500", "203927.812500", "203928.272500", "203928.732500", "203929.192500", "203929.652500", "203930.112500", "203930.572500", "203931.032500", "203931.492500", "203931.952500", "203932.412500", "203932.872500", "203933.332500", "203933.792500", "203934.252500", "203934.712500", "203935.172500", "203935.632500", "203936.092500", "203936.552500", "203937.012500", "203937.472500", "203937.932500", "203938.392500", "203938.852500", "203939.312500", "203939.772500", "203940.232500", "203940.692500", "203941.152500", "203941.612500", "203942.072500", "203942.532500", "203942.992500", "203943.452500", "203943.912500", "203944.372500", "203944.832500", "203945.292500", "203945.752500", "203946.212500", "203946.672500", "203947.132500", "203947.592500", "203948.052500", "203948.512500", "203948.972500", "203949.432500", "203949.892500", "203950.352500", "203950.812500", "203951.272500", "203951.732500", "203952.192500", "203952.652500", "203953.112500", "203953.572500", "203954.032500", "203954.492500", "203954.952500", "203955.412500", "203955.872500", "203956.332500", "203956.792500", "203957.252500", "203957.712500", "203958.172500", "203958.632500", "203959.092500", "203959.552500", "204000.012500", "204000.472500", "204000.932500", "204001.392500", "204001.852500", "204002.312500", "204002.772500", "204003.232500", "204003.692500", "204004.152500", "204004.612500", "204005.072500", "204005.532500", "204005.992500", "204006.452500", "204006.912500", "204007.372500", "204007.832500", "204008.292500", "204008.752500", "204009.212500", "204009.672500", "204010.132500", "204010.592500", "204011.052500", "204011.512500", "204011.972500", "204012.432500", "204012.892500", "204013.352500", "204013.812500", "204014.272500", "204014.732500", "204015.192500", "204015.652500"],
