{
  "AcquisitionMatrixPE": 82,
  "AcquisitionNumber": 1,
  "AcquisitionTime": "19:55:11.922500",
  "BandwidthPerPixelPhaseEncode": 24.888,
  "BaseResolution": 82,
  "BodyPartExamined": "BRAIN",
  "ConsistencyInfo": "N4_VE11E_LATEST_20181129",
  "ConversionSoftware": "dcm2niix",
  "ConversionSoftwareVersion": "v1.0.20201102",
  "DerivedVendorReportedEchoSpacing": 0.00049,
  "DeviceSerialNumber": "66112",
  "DwellTime": 2e-06,
  "EchoTime": 0.0272,
  "EchoTrainLength": 82,
  "EffectiveEchoSpacing": 0.00049,
  "FlipAngle": 44,
  "ImageComments": "Unaliased MB8/PE3",
  "ImageOrientationPatientDICOM": [0.998446, 0.0428515, -0.0356304, -0.042371, 0.999002, 0.0141341],
  "ImageType": [
    "ORIGINAL",
    "PRIMARY",
    "M",
    "MB",
    "ND",
    "NORM",
    "MOSAIC"
],
  "ImagingFrequency": 123.259,
  "InPlanePhaseEncodingDirectionDICOM": "COL",
  "InstitutionAddress": "Maynard 3,Hanover,NH,US,03755",
  "InstitutionName": "Dartmouth College - PBS",
  "InstitutionalDepartmentName": "Department",
  "MRAcquisitionType": "2D",
  "MagneticFieldStrength": 3,
  "Manufacturer": "Siemens",
  "ManufacturersModelName": "Prisma",
  "Modality": "MR",
  "MultibandAccelerationFactor": 8,
  "PartialFourier": 1,
  "PatientPosition": "HFS",
  "PercentPhaseFOV": 100,
  "PercentSampling": 100,
  "PhaseEncodingDirection": "j-",
  "PhaseEncodingSteps": 82,
  "PhaseResolution": 1,
  "PixelBandwidth": 3050,
  "ProcedureStepDescription": "Wager_Wager^1076_spacetop",
  "ProtocolName": "func_run-05_task-social_acq-ap-mb8",
  "PulseSequenceDetails": "%CustomerSeq%\\cmrr_mbep2d_bold",
  "ReceiveCoilActiveElements": "HEA;HEP",
  "ReceiveCoilName": "Head_32",
  "ReconMatrixPE": 82,
  "RepetitionTime": 0.46,
  "SAR": 0.105059,
  "ScanOptions": "FS",
  "ScanningSequence": "EP",
  "SequenceName": "epfid2d1_82",
  "SequenceVariant": "SK\\SS",
  "SeriesDescription": "func_run-05_task-social_acq-ap-mb8",
  "SeriesNumber": 20,
  "ShimSetting": [4212, -7792, -7226, 203, -129, -84, 24, 86],
  "SliceThickness": 2.7,
  "SliceTiming": [0, 0.2525, 0.0625, 0.315, 0.125, 0.3775, 0.19, 0, 0.2525, 0.0625, 0.315, 0.125, 0.3775, 0.19, 0, 0.2525, 0.0625, 0.315, 0.125, 0.3775, 0.19, 0, 0.2525, 0.0625, 0.315, 0.125, 0.3775, 0.19, 0, 0.2525, 0.0625, 0.315, 0.125, 0.3775, 0.19, 0, 0.2525, 0.0625, 0.315, 0.125, 0.3775, 0.19, 0, 0.2525, 0.0625, 0.315, 0.125, 0.3775, 0.19, 0, 0.2525, 0.0625, 0.315, 0.125, 0.3775, 0.19],
  "SoftwareVersions": "syngo MR E11",
  "SpacingBetweenSlices": 2.7,
  "StationName": "AWP66112",
  "TaskName": "social",
  "TotalReadoutTime": 0.03969,
  "TxRefAmp": 277.601,
  "WipMemBlock": "60a6a207-b351-4e71-8c6f-cf67bde4c387||Sequence: R016 ve11e/master r/434b28f1; Aug  7 2019 18:53:46 by eja",
  "dcmmeta_affine": [
    [-2.678757429122925, -0.1136782318353653, -0.09774124622344971, 119.00777435302734],
    [-0.11496744304895401, 2.6802492141723633, 0.034026723355054855, -90.63561248779297],
    [-0.0955936387181282, -0.037920888513326645, 2.6980156898498535, -57.229801177978516],
    [0.0, 0.0, 0.0, 1.0]
],
  "dcmmeta_reorient_transform": [
    [0.0, -1.0, 0.0, 81.0],
    [1.0, 0.0, 0.0, 0.0],
    [0.0, 0.0, 1.0, 0.0],
    [0.0, 0.0, 0.0, 1.0]
],
  "dcmmeta_shape": [82, 82, 56, 872],
  "dcmmeta_slice_dim": 2,
  "dcmmeta_version": 0.6,
  "global": {
    "const": {
      "AccessionNumber": "A004921",
      "AcquisitionMatrix": [82, 0, 0, 82],
      "AngioFlag": "N",
      "BitsAllocated": 16,
      "BitsStored": 16,
      "BodyPartExamined": "BRAIN",
      "Columns": 656,
      "EchoNumbers": 1,
      "EchoTime": 27.2,
      "EchoTrainLength": 82,
      "FlipAngle": 44.0,
      "HighBit": 15,
      "ImageOrientationPatient": [0.99844590582208, 0.04285149949772, -0.0356303541651, -0.0423709759611, 0.99900196507879, 0.01413414888912],
      "ImagePositionPatient": [-845.97754918011, -928.69175984949, -43.749316384156],
      "ImageType": [
        "ORIGINAL",
        "PRIMARY",
        "M",
        "MB",
        "ND",
        "NORM",
        "MOSAIC"
],
      "ImagedNucleus": "1H",
      "ImagingFrequency": 123.259002,
      "InPlanePhaseEncodingDirection": "COL",
      "MRAcquisitionType": "2D",
      "MagneticFieldStrength": 3.0,
      "Manufacturer": "SIEMENS",
      "ManufacturerModelName": "Prisma",
      "Modality": "MR",
      "NumberOfAverages": 1.0,
      "NumberOfPhaseEncodingSteps": 82,
      "PercentPhaseFieldOfView": 100.0,
      "PercentSampling": 100.0,
      "PerformedProcedureStepStartTime": "181835.929000",
      "PhotometricInterpretation": "MONOCHROME2",
      "PixelBandwidth": 3050.0,
      "PixelRepresentation": 0,
      "PixelSpacing": [2.6829268932343, 2.6829268932343],
      "ProtocolName": "func_run-05_task-social_acq-ap-mb8",
      "RepetitionTime": 460.0,
      "Rows": 656,
      "SAR": 0.10505890391649,
      "SamplesPerPixel": 1,
      "ScanOptions": "FS",
      "ScanningSequence": "EP",
      "SequenceName": "epfid2d1_82",
      "SequenceVariant": [
        "SK",
        "SS"
],
      "SeriesDescription": "func_run-05_task-social_acq-ap-mb8",
      "SeriesNumber": 20,
      "SeriesTime": "195539.714000",
      "SliceLocation": -62.638114625696,
      "SliceThickness": 2.7000000476837,
      "SmallestImagePixelValue": 0,
      "SoftwareVersions": "syngo MR E11",
      "SpacingBetweenSlices": 2.6999999429513,
      "SpecificCharacterSet": "ISO_IR 100",
      "StudyID": "1",
      "StudyTime": "181835.850000",
      "TransmitCoilName": "Body",
      "VariableFlipAngleFlag": "N",
      "WindowCenterWidthExplanation": "Algo1"
    },
    "slices": {}
  },
  "time": {
    "samples": {
      "AcquisitionNumber": [1, 2, 3, 4, 5, 6, 7, 8, 9, 10, 11, 12, 13, 14, 15, 16, 17, 18, 19, 20, 21, 22, 23, 24, 25, 26, 27, 28, 29, 30, 31, 32, 33, 34, 35, 36, 37, 38, 39, 40, 41, 42, 43, 44, 45, 46, 47, 48, 49, 50, 51, 52, 53, 54, 55, 56, 57, 58, 59, 60, 61, 62, 63, 64, 65, 66, 67, 68, 69, 70, 71, 72, 73, 74, 75, 76, 77, 78, 79, 80, 81, 82, 83, 84, 85, 86, 87, 88, 89, 90, 91, 92, 93, 94, 95, 96, 97, 98, 99, 100, 101, 102, 103, 104, 105, 106, 107, 108, 109, 110, 111, 112, 113, 114, 115, 116, 117, 118, 119, 120, 121, 122, 123, 124, 125, 126, 127, 128, 129, 130, 131, 132, 133, 134, 135, 136, 137, 138, 139, 140, 141, 142, 143, 144, 145, 146, 147, 148, 149, 150, 151, 152, 153, 154, 155, 156, 157, 158, 159, 160, 161, 162, 163, 164, 165, 166, 167, 168, 169, 170, 171, 172, 173, 174, 175, 176, 177, 178, 179, 180, 181, 182, 183, 184, 185, 186, 187, 188, 189, 190, 191, 192, 193, 194, 195, 196, 197, 198, 199, 200, 201, 202, 203, 204, 205, 206, 207, 208, 209, 210, 211, 212, 213, 214, 215, 216, 217, 218, 219, 220, 221, 222, 223, 224, 225, 226, 227, 228, 229, 230, 231, 232, 233, 234, 235, 236, 237, 238, 239, 240, 241, 242, 243, 244, 245, 246, 247, 248, 249, 250, 251, 252, 253, 254, 255, 256, 257, 258, 259, 260, 261, 262, 263, 264, 265, 266, 267, 268, 269, 270, 271, 272, 273, 274, 275, 276, 277, 278, 279, 280, 281, 282, 283, 284, 285, 286, 287, 288, 289, 290, 291, 292, 293, 294, 295, 296, 297, 298, 299, 300, 301, 302, 303, 304, 305, 306, 307, 308, 309, 310, 311, 312, 313, 314, 315, 316, 317, 318, 319, 320, 321, 322, 323, 324, 325, 326, 327, 328, 329, 330, 331, 332, 333, 334, 335, 336, 337, 338, 339, 340, 341, 342, 343, 344, 345, 346, 347, 348, 349, 350, 351, 352, 353, 354, 355, 356, 357, 358, 359, 360, 361, 362, 363, 364, 365, 366, 367, 368, 369, 370, 371, 372, 373, 374, 375, 376, 377, 378, 379, 380, 381, 382, 383, 384, 385, 386, 387, 388, 389, 390, 391, 392, 393, 394, 395, 396, 397, 398, 399, 400, 401, 402, 403, 404, 405, 406, 407, 408, 409, 410, 411, 412, 413, 414, 415, 416, 417, 418, 419, 420, 421, 422, 423, 424, 425, 426, 427, 428, 429, 430, 431, 432, 433, 434, 435, 436, 437, 438, 439, 440, 441, 442, 443, 444, 445, 446, 447, 448, 449, 450, 451, 452, 453, 454, 455, 456, 457, 458, 459, 460, 461, 462, 463, 464, 465, 466, 467, 468, 469, 470, 471, 472, 473, 474, 475, 476, 477, 478, 479, 480, 481, 482, 483, 484, 485, 486, 487, 488, 489, 490, 491, 492, 493, 494, 495, 496, 497, 498, 499, 500, 501, 502, 503, 504, 505, 506, 507, 508, 509, 510, 511, 512, 513, 514, 515, 516, 517, 518, 519, 520, 521, 522, 523, 524, 525, 526, 527, 528, 529, 530, 531, 532, 533, 534, 535, 536, 537, 538, 539, 540, 541, 542, 543, 544, 545, 546, 547, 548, 549, 550, 551, 552, 553, 554, 555, 556, 557, 558, 559, 560, 561, 562, 563, 564, 565, 566, 567, 568, 569, 570, 571, 572, 573, 574, 575, 576, 577, 578, 579, 580, 581, 582, 583, 584, 585, 586, 587, 588, 589, 590, 591, 592, 593, 594, 595, 596, 597, 598, 599, 600, 601, 602, 603, 604, 605, 606, 607, 608, 609, 610, 611, 612, 613, 614, 615, 616, 617, 618, 619, 620, 621, 622, 623, 624, 625, 626, 627, 628, 629, 630, 631, 632, 633, 634, 635, 636, 637, 638, 639, 640, 641, 642, 643, 644, 645, 646, 647, 648, 649, 650, 651, 652, 653, 654, 655, 656, 657, 658, 659, 660, 661, 662, 663, 664, 665, 666, 667, 668, 669, 670, 671, 672, 673, 674, 675, 676, 677, 678, 679, 680, 681, 682, 683, 684, 685, 686, 687, 688, 689, 690, 691, 692, 693, 694, 695, 696, 697, 698, 699, 700, 701, 702, 703, 704, 705, 706, 707, 708, 709, 710, 711, 712, 713, 714, 715, 716, 717, 718, 719, 720, 721, 722, 723, 724, 725, 726, 727, 728, 729, 730, 731, 732, 733, 734, 735, 736, 737, 738, 739, 740, 741, 742, 743, 744, 745, 746, 747, 748, 749, 750, 751, 752, 753, 754, 755, 756, 757, 758, 759, 760, 761, 762, 763, 764, 765, 766, 767, 768, 769, 770, 771, 772, 773, 774, 775, 776, 777, 778, 779, 780, 781, 782, 783, 784, 785, 786, 787, 788, 789, 790, 791, 792, 793, 794, 795, 796, 797, 798, 799, 800, 801, 802, 803, 804, 805, 806, 807, 808, 809, 810, 811, 812, 813, 814, 815, 816, 817, 818, 819, 820, 821, 822, 823, 824, 825, 826, 827, 828, 829, 830, 831, 832, 833, 834, 835, 836, 837, 838, 839, 840, 841, 842, 843, 844, 845, 846, 847, 848, 849, 850, 851, 852, 853, 854, 855, 856, 857, 858, 859, 860, 861, 862, 863, 864, 865, 866, 867, 868, 869, 870, 871, 872],
      "AcquisitionTime": ["195511.922500", "195512.382500", "195512.842500", "195513.302500", "195513.762500", "195514.222500", "195514.682500", "195515.142500", "195515.602500", "195516.062500", "195516.522500", "195516.982500", "195517.442500", "195517.902500", "195518.362500", "195518.822500", "195519.282500", "195519.742500", "195520.202500", "195520.662500", "195521.122500", "195521.582500", "195522.042500", "195522.502500", "195522.962500", "195523.422500", "195523.882500", "195524.342500", "195524.802500", "195525.262500", "195525.722500", "195526.182500", "195526.642500", "195527.102500", "195527.562500", "195528.022500", "195528.482500", "195528.942500", "195529.402500", "195529.862500", "195530.322500", "195530.782500", "195531.242500", "195531.702500", "195532.162500", "195532.622500", "195533.082500", "195533.542500", "195534.002500", "195534.462500", "195534.922500", "195535.382500", "195535.842500", "195536.302500", "195536.762500", "195537.222500", "195537.682500", "195538.142500", "195538.602500", "195539.062500", "195539.522500", "195539.982500", "195540.442500", "195540.902500", "195541.362500", "195541.822500", "195542.282500", "195542.742500", "195543.202500", "195543.662500", "195544.122500", "195544.582500", "195545.042500", "195545.502500", "195545.962500", "195546.422500", "195546.882500", "195547.342500", "195547.802500", "195548.262500", "195548.722500", "195549.182500", "195549.642500", "195550.102500", "195550.562500", "195551.022500", "195551.482500", "195551.942500", "195552.402500", "195552.862500", "195553.322500", "195553.782500", "195554.242500", "195554.702500", "195555.162500", "195555.622500", "195556.082500", "195556.542500", "195557.002500", "195557.462500", "195557.922500", "195558.382500", "195558.842500", "195559.302500", "195559.762500", "195600.222500", "195600.682500", "195601.142500", "195601.602500", "195602.062500", "195602.522500", "195602.982500", "195603.442500", "195603.902500", "195604.362500", "195604.822500", "195605.282500", "195605.742500", "195606.202500", "195606.662500", "195607.122500", "195607.582500", "195608.042500", "195608.502500", "195608.962500", "195609.422500", "195609.882500", "195610.342500", "195610.802500", "195611.262500", "195611.722500", "195612.182500", "195612.642500", "195613.102500", "195613.562500", "195614.022500", "195614.482500", "195614.942500", "195615.402500", "195615.862500", "195616.322500", "195616.782500", "195617.242500", "195617.702500", "195618.162500", "195618.622500", "195619.082500", "195619.542500", "195620.002500", "195620.462500", "195620.922500", "195621.382500", "195621.842500", "195622.302500", "195622.762500", "195623.222500", "195623.682500", "195624.142500", "195624.602500", "195625.062500", "195625.522500", "195625.982500", "195626.442500", "195626.902500", "195627.362500", "195627.822500", "195628.282500", "195628.742500", "195629.202500", "195629.662500", "195630.122500", "195630.582500", "195631.042500", "195631.502500", "195631.962500", "195632.422500", "195632.882500", "195633.342500", "195633.802500", "195634.262500", "195634.722500", "195635.182500", "195635.642500", "195636.102500", "195636.562500", "195637.022500", "195637.482500", "195637.942500", "195638.402500", "195638.862500", "195639.322500", "195639.782500", "195640.242500", "195640.702500", "195641.162500", "195641.622500", "195642.082500", "195642.542500", "195643.002500", "195643.462500", "195643.922500", "195644.382500", "195644.842500", "195645.302500", "195645.762500", "195646.222500", "195646.682500", "195647.142500", "195647.602500", "195648.062500", "195648.522500", "195648.982500", "195649.442500", "195649.902500", "195650.362500", "195650.822500", "195651.282500", "195651.742500", "195652.202500", "195652.662500", "195653.122500", "195653.582500", "195654.042500", "195654.502500", "195654.962500", "195655.422500", "195655.882500", "195656.342500", "195656.802500", "195657.262500", "195657.722500", "195658.182500", "195658.642500", "195659.102500", "195659.562500", "195700.022500", "195700.482500", "195700.942500", "195701.402500", "195701.862500", "195702.322500", "195702.782500", "195703.242500", "195703.702500", "195704.162500", "195704.622500", "195705.082500", "195705.542500", "195706.002500", "195706.462500", "195706.922500", "195707.382500", "195707.842500", "195708.302500", "195708.762500", "195709.222500", "195709.682500", "195710.142500", "195710.602500", "195711.062500", "195711.522500", "195711.982500", "195712.442500", "195712.902500", "195713.362500", "195713.822500", "195714.282500", "195714.742500", "195715.202500", "195715.662500", "195716.122500", "195716.582500", "195717.042500", "195717.502500", "195717.962500", "195718.422500", "195718.882500", "195719.342500", "195719.802500", "195720.262500", "195720.722500", "195721.182500", "195721.642500", "195722.102500", "195722.562500", "195723.022500", "195723.482500", "195723.942500", "195724.402500", "195724.862500", "195725.322500", "195725.782500", "195726.242500", "195726.702500", "195727.162500", "195727.622500", "195728.082500", "195728.542500", "195729.002500", "195729.462500", "195729.922500", "195730.382500", "195730.842500", "195731.302500", "195731.762500", "195732.222500", "195732.682500", "195733.142500", "195733.602500", "195734.062500", "195734.522500", "195734.982500", "195735.442500", "195735.902500", "195736.362500", "195736.822500", "195737.282500", "195737.742500", "195738.202500", "195738.662500", "195739.122500", "195739.582500", "195740.042500", "195740.502500", "195740.962500", "195741.422500", "195741.882500", "195742.342500", "195742.802500", "195743.262500", "195743.722500", "195744.182500", "195744.642500", "195745.102500", "195745.562500", "195746.022500", "195746.482500", "195746.942500", "195747.402500", "195747.862500", "195748.322500", "195748.782500", "195749.242500", "195749.702500", "195750.162500", "195750.622500", "195751.082500", "195751.542500", "195752.002500", "195752.462500", "195752.922500", "195753.382500", "195753.842500", "195754.302500", "195754.762500", "195755.222500", "195755.682500", "195756.142500", "195756.602500", "195757.062500", "195757.522500", "195757.982500", "195758.442500", "195758.902500", "195759.362500", "195759.822500", "195800.282500", "195800.742500", "195801.202500", "195801.662500", "195802.122500", "195802.582500", "195803.042500", "195803.502500", "195803.962500", "195804.422500", "195804.882500", "195805.342500", "195805.802500", "195806.262500", "195806.722500", "195807.182500", "195807.642500", "195808.102500", "195808.562500", "195809.022500", "195809.482500", "195809.942500", "195810.402500", "195810.862500", "195811.322500", "195811.782500", "195812.242500", "195812.702500", "195813.162500", "195813.622500", "195814.082500", "195814.542500", "195815.002500", "195815.462500", "195815.922500", "195816.382500", "195816.842500", "195817.302500", "195817.762500", "195818.222500", "195818.682500", "195819.142500", "195819.602500", "195820.062500", "195820.522500", "195820.982500", "195821.442500", "195821.902500", "195822.362500", "195822.822500", "195823.282500", "195823.742500", "195824.202500", "195824.662500", "195825.122500", "195825.582500", "195826.042500", "195826.502500", "195826.962500", "195827.422500", "195827.882500", "195828.342500", "195828.802500", "195829.262500", "195829.722500", "195830.182500", "195830.642500", "195831.102500", "195831.562500", "195832.022500", "195832.482500", "195832.942500", "195833.402500", "195833.862500", "195834.322500", "195834.782500", "195835.242500", "195835.702500", "195836.162500", "195836.622500", "195837.082500", "195837.542500", "195838.002500", "195838.462500", "195838.922500", "195839.382500", "195839.842500", "195840.302500", "195840.762500", "195841.222500", "195841.682500", "195842.142500", "195842.602500", "195843.062500", "195843.522500", "195843.982500", "195844.442500", "195844.902500", "195845.362500", "195845.822500", "195846.282500", "195846.742500", "195847.202500", "195847.662500", "195848.122500", "195848.582500", "195849.042500", "195849.502500", "195849.962500", "195850.422500", "195850.882500", "195851.342500", "195851.802500", "195852.262500", "195852.722500", "195853.182500", "195853.642500", "195854.102500", "195854.562500", "195855.022500", "195855.482500", "195855.942500", "195856.402500", "195856.862500", "195857.322500", "195857.782500", "195858.242500", "195858.702500", "195859.162500", "195859.622500", "195900.082500", "195900.542500", "195901.002500", "195901.462500", "195901.922500", "195902.382500", "195902.842500", "195903.302500", "195903.762500", "195904.222500", "195904.682500", "195905.142500", "195905.602500", "195906.062500", "195906.522500", "195906.982500", "195907.442500", "195907.902500", "195908.362500", "195908.822500", "195909.282500", "195909.742500", "195910.202500", "195910.662500", "195911.122500", "195911.582500", "195912.042500", "195912.502500", "195912.962500", "195913.422500", "195913.882500", "195914.342500", "195914.802500", "195915.262500", "195915.722500", "195916.182500", "195916.642500", "195917.102500", "195917.562500", "195918.022500", "195918.482500", "195918.942500", "195919.402500", "195919.862500", "195920.322500", "195920.782500", "195921.242500", "195921.702500", "195922.162500", "195922.622500", "195923.082500", "195923.542500", "195924.002500", "195924.462500", "195924.922500", "195925.382500", "195925.842500", "195926.302500", "195926.762500", "195927.222500", "195927.682500", "195928.142500", "195928.602500", "195929.062500", "195929.522500", "195929.982500", "195930.442500", "195930.902500", "195931.362500", "195931.822500", "195932.282500", "195932.742500", "195933.202500", "195933.662500", "195934.122500", "195934.582500", "195935.042500", "195935.502500", "195935.962500", "195936.422500", "195936.882500", "195937.342500", "195937.802500", "195938.262500", "195938.722500", "195939.182500", "195939.642500", "195940.102500", "195940.562500", "195941.022500", "195941.482500", "195941.942500", "195942.402500", "195942.862500", "195943.322500", "195943.782500", "195944.242500", "195944.702500", "195945.162500", "195945.622500", "195946.082500", "195946.542500", "195947.002500", "195947.462500", "195947.922500", "195948.382500", "195948.842500", "195949.302500", "195949.762500", "195950.222500", "195950.682500", "195951.142500", "195951.602500", "195952.062500", "195952.522500", "195952.982500", "195953.442500", "195953.902500", "195954.362500", "195954.822500", "195955.282500", "195955.742500", "195956.202500", "195956.662500", "195957.122500", "195957.582500", "195958.042500", "195958.502500", "195958.962500", "195959.422500", "195959.882500", "200000.342500", "200000.802500", "200001.262500", "200001.722500", "200002.182500", "200002.642500", "200003.102500", "200003.562500", "200004.022500", "200004.482500", "200004.942500", "200005.402500", "200005.862500", "200006.322500", "200006.782500", "200007.242500", "200007.702500", "200008.162500", "200008.622500", "200009.082500", "200009.542500", "200010.002500", "200010.462500", "200010.922500", "200011.382500", "200011.842500", "200012.302500", "200012.762500", "200013.222500", "200013.682500", "200014.142500", "200014.602500", "200015.062500", "200015.522500", "200015.982500", "200016.442500", "200016.902500", "200017.362500", "200017.822500", "200018.282500", "200018.742500", "200019.202500", "200019.662500", "200020.122500", "200020.582500", "200021.042500", "200021.502500", "200021.962500", "200022.422500", "200022.882500", "200023.342500", "200023.802500", "200024.262500", "200024.722500", "200025.182500", "200025.642500", "200026.102500", "200026.562500", "200027.022500", "200027.482500", "200027.942500", "200028.402500", "200028.862500", "200029.322500", "200029.782500", "200030.242500", "200030.702500", "200031.162500", "200031.622500", "200032.082500", "200032.542500", "200033.002500", "200033.462500", "200033.922500", "200034.382500", "200034.842500", "200035.302500", "200035.762500", "200036.222500", "200036.682500", "200037.142500", "200037.602500", "200038.062500", "200038.522500", "200038.982500", "200039.442500", "200039.902500", "200040.362500", "200040.822500", "200041.282500", "200041.742500", "200042.202500", "200042.662500", "200043.122500", "200043.582500", "200044.042500", "200044.502500", "200044.962500", "200045.422500", "200045.882500", "200046.342500", "200046.802500", "200047.262500", "200047.722500", "200048.182500", "200048.642500", "200049.102500", "200049.562500", "200050.022500", "200050.482500", "200050.942500", "200051.402500", "200051.862500", "200052.322500", "200052.782500", "200053.242500", "200053.702500", "200054.162500", "200054.622500", "200055.082500", "200055.542500", "200056.002500", "200056.462500", "200056.922500", "200057.382500", "200057.842500", "200058.302500", "200058.762500", "200059.222500", "200059.682500", "200100.142500", "200100.602500", "200101.062500", "200101.522500", "200101.982500", "200102.442500", "200102.902500", "200103.362500", "200103.822500", "200104.282500", "200104.742500", "200105.202500", "200105.662500", "200106.122500", "200106.582500", "200107.042500", "200107.502500", "200107.962500", "200108.422500", "200108.882500", "200109.342500", "200109.802500", "200110.262500", "200110.722500", "200111.182500", "200111.642500", "200112.102500", "200112.562500", "200113.022500", "200113.482500", "200113.942500", "200114.402500", "200114.862500", "200115.322500", "200115.782500", "200116.242500", "200116.702500", "200117.162500", "200117.622500", "200118.082500", "200118.542500", "200119.002500", "200119.462500", "200119.922500", "200120.382500", "200120.842500", "200121.302500", "200121.762500", "200122.222500", "200122.682500", "200123.142500", "200123.602500", "200124.062500", "200124.522500", "200124.982500", "200125.442500", "200125.902500", "200126.362500", "200126.822500", "200127.282500", "200127.742500", "200128.202500", "200128.662500", "200129.122500", "200129.582500", "200130.042500", "200130.502500", "200130.962500", "200131.422500", "200131.882500", "200132.342500", "200132.802500", "200133.262500", "200133.722500", "200134.182500", "200134.642500", "200135.102500", "200135.562500", "200136.022500", "200136.482500", "200136.942500", "200137.402500", "200137.862500", "200138.322500", "200138.782500", "200139.242500", "200139.702500", "200140.162500", "200140.622500", "200141.082500", "200141.542500", "200142.002500", "200142.462500", "200142.922500", "200143.382500", "200143.842500", "200144.302500", "200144.762500", "200145.222500", "200145.682500", "200146.142500", "200146.602500", "200147.062500", "200147.522500", "200147.982500", "200148.442500", "200148.902500", "200149.362500", "200149.822500", "200150.282500", "200150.742500", "200151.202500", "200151.662500", "200152.122500", "200152.582500"],
