{
  "AcquisitionMatrixPE": 82,
  "AcquisitionNumber": 1,
  "AcquisitionTime": "19:48:17.142500",
  "BandwidthPerPixelPhaseEncode": 24.888,
  "BaseResolution": 82,
  "BodyPartExamined": "BRAIN",
  "ConsistencyInfo": "N4_VE11E_LATEST_20181129",
  "ConversionSoftware": "dcm2niix",
  "ConversionSoftwareVersion": "v1.0.20201102",
  "DerivedVendorReportedEchoSpacing": 0.00049,
  "DeviceSerialNumber": "66112",
  "DwellTime": 2e-06,
  "EchoTime": 0.0272,
  "EchoTrainLength": 82,
  "EffectiveEchoSpacing": 0.00049,
  "FlipAngle": 44,
  "ImageComments": "Unaliased MB8/PE3",
  "ImageOrientationPatientDICOM": [0.998446, 0.0428515, -0.0356304, -0.042371, 0.999002, 0.0141341],
  "ImageType": [
    "ORIGINAL",
    "PRIMARY",
    "M",
    "MB",
    "ND",
    "NORM",
    "MOSAIC"
],
  "ImagingFrequency": 123.259,
  "InPlanePhaseEncodingDirectionDICOM": "COL",
  "InstitutionAddress": "Maynard 3,Hanover,NH,US,03755",
  "InstitutionName": "Dartmouth College - PBS",
  "InstitutionalDepartmentName": "Department",
  "MRAcquisitionType": "2D",
  "MagneticFieldStrength": 3,
  "Manufacturer": "Siemens",
  "ManufacturersModelName": "Prisma",
  "Modality": "MR",
  "MultibandAccelerationFactor": 8,
  "PartialFourier": 1,
  "PatientPosition": "HFS",
  "PercentPhaseFOV": 100,
  "PercentSampling": 100,
  "PhaseEncodingDirection": "j-",
  "PhaseEncodingSteps": 82,
  "PhaseResolution": 1,
  "PixelBandwidth": 3050,
  "ProcedureStepDescription": "Wager_Wager^1076_spacetop",
  "ProtocolName": "func_run-04_task-social_acq-ap-mb8",
  "PulseSequenceDetails": "%CustomerSeq%\\cmrr_mbep2d_bold",
  "ReceiveCoilActiveElements": "HEA;HEP",
  "ReceiveCoilName": "Head_32",
  "ReconMatrixPE": 82,
  "RepetitionTime": 0.46,
  "SAR": 0.105059,
  "ScanOptions": "FS",
  "ScanningSequence": "EP",
  "SequenceName": "epfid2d1_82",
  "SequenceVariant": "SK\\SS",
  "SeriesDescription": "func_run-04_task-social_acq-ap-mb8",
  "SeriesNumber": 18,
  "ShimSetting": [4212, -7792, -7226, 203, -129, -84, 24, 86],
  "SliceThickness": 2.7,
  "SliceTiming": [0, 0.2525, 0.0625, 0.315, 0.125, 0.3775, 0.19, 0, 0.2525, 0.0625, 0.315, 0.125, 0.3775, 0.19, 0, 0.2525, 0.0625, 0.315, 0.125, 0.3775, 0.19, 0, 0.2525, 0.0625, 0.315, 0.125, 0.3775, 0.19, 0, 0.2525, 0.0625, 0.315, 0.125, 0.3775, 0.19, 0, 0.2525, 0.0625, 0.315, 0.125, 0.3775, 0.19, 0, 0.2525, 0.0625, 0.315, 0.125, 0.3775, 0.19, 0, 0.2525, 0.0625, 0.315, 0.125, 0.3775, 0.19],
  "SoftwareVersions": "syngo MR E11",
  "SpacingBetweenSlices": 2.7,
  "StationName": "AWP66112",
  "TaskName": "social",
  "TotalReadoutTime": 0.03969,
  "TxRefAmp": 277.601,
  "WipMemBlock": "4d7d57c9-58db-4823-8296-236c534b15e2||Sequence: R016 ve11e/master r/434b28f1; Aug  7 2019 18:53:46 by eja",
  "dcmmeta_affine": [
    [-2.678757429122925, -0.1136782318353653, -0.09774124622344971, 119.00777435302734],
    [-0.11496744304895401, 2.6802492141723633, 0.034026723355054855, -90.63561248779297],
    [-0.0955936387181282, -0.037920888513326645, 2.6980156898498535, -57.229801177978516],
    [0.0, 0.0, 0.0, 1.0]
],
  "dcmmeta_reorient_transform": [
    [0.0, -1.0, 0.0, 81.0],
    [1.0, 0.0, 0.0, 0.0],
    [0.0, 0.0, 1.0, 0.0],
    [0.0, 0.0, 0.0, 1.0]
],
  "dcmmeta_shape": [82, 82, 56, 872],
  "dcmmeta_slice_dim": 2,
  "dcmmeta_version": 0.6,
  "global": {
    "const": {
      "AccessionNumber": "A004921",
      "AcquisitionMatrix": [82, 0, 0, 82],
      "AngioFlag": "N",
      "BitsAllocated": 16,
      "BitsStored": 16,
      "BodyPartExamined": "BRAIN",
      "Columns": 656,
      "EchoNumbers": 1,
      "EchoTime": 27.2,
      "EchoTrainLength": 82,
      "FlipAngle": 44.0,
      "HighBit": 15,
      "ImageOrientationPatient": [0.99844590582208, 0.04285149949772, -0.0356303541651, -0.0423709759611, 0.99900196507879, 0.01413414888912],
      "ImagePositionPatient": [-845.97754918011, -928.69175984949, -43.749316384156],
      "ImageType": [
        "ORIGINAL",
        "PRIMARY",
        "M",
        "MB",
        "ND",
        "NORM",
        "MOSAIC"
],
      "ImagedNucleus": "1H",
      "ImagingFrequency": 123.258998,
      "InPlanePhaseEncodingDirection": "COL",
      "MRAcquisitionType": "2D",
      "MagneticFieldStrength": 3.0,
      "Manufacturer": "SIEMENS",
      "ManufacturerModelName": "Prisma",
      "Modality": "MR",
      "NumberOfAverages": 1.0,
      "NumberOfPhaseEncodingSteps": 82,
      "PercentPhaseFieldOfView": 100.0,
      "PercentSampling": 100.0,
      "PerformedProcedureStepStartTime": "181835.929000",
      "PhotometricInterpretation": "MONOCHROME2",
      "PixelBandwidth": 3050.0,
      "PixelRepresentation": 0,
      "PixelSpacing": [2.6829268932343, 2.6829268932343],
      "ProtocolName": "func_run-04_task-social_acq-ap-mb8",
      "RepetitionTime": 460.0,
      "Rows": 656,
      "SAR": 0.10505890391649,
      "SamplesPerPixel": 1,
      "ScanOptions": "FS",
      "ScanningSequence": "EP",
      "SequenceName": "epfid2d1_82",
      "SequenceVariant": [
        "SK",
        "SS"
],
      "SeriesDescription": "func_run-04_task-social_acq-ap-mb8",
      "SeriesNumber": 18,
      "SeriesTime": "194839.627000",
      "SliceLocation": -62.638114625696,
      "SliceThickness": 2.7000000476837,
      "SmallestImagePixelValue": 0,
      "SoftwareVersions": "syngo MR E11",
      "SpacingBetweenSlices": 2.6999999429513,
      "SpecificCharacterSet": "ISO_IR 100",
      "StudyID": "1",
      "StudyTime": "181835.850000",
      "TransmitCoilName": "Body",
      "VariableFlipAngleFlag": "N",
      "WindowCenterWidthExplanation": "Algo1"
    },
    "slices": {}
  },
  "time": {
    "samples": {
      "AcquisitionNumber": [1, 2, 3, 4, 5, 6, 7, 8, 9, 10, 11, 12, 13, 14, 15, 16, 17, 18, 19, 20, 21, 22, 23, 24, 25, 26, 27, 28, 29, 30, 31, 32, 33, 34, 35, 36, 37, 38, 39, 40, 41, 42, 43, 44, 45, 46, 47, 48, 49, 50, 51, 52, 53, 54, 55, 56, 57, 58, 59, 60, 61, 62, 63, 64, 65, 66, 67, 68, 69, 70, 71, 72, 73, 74, 75, 76, 77, 78, 79, 80, 81, 82, 83, 84, 85, 86, 87, 88, 89, 90, 91, 92, 93, 94, 95, 96, 97, 98, 99, 100, 101, 102, 103, 104, 105, 106, 107, 108, 109, 110, 111, 112, 113, 114, 115, 116, 117, 118, 119, 120, 121, 122, 123, 124, 125, 126, 127, 128, 129, 130, 131, 132, 133, 134, 135, 136, 137, 138, 139, 140, 141, 142, 143, 144, 145, 146, 147, 148, 149, 150, 151, 152, 153, 154, 155, 156, 157, 158, 159, 160, 161, 162, 163, 164, 165, 166, 167, 168, 169, 170, 171, 172, 173, 174, 175, 176, 177, 178, 179, 180, 181, 182, 183, 184, 185, 186, 187, 188, 189, 190, 191, 192, 193, 194, 195, 196, 197, 198, 199, 200, 201, 202, 203, 204, 205, 206, 207, 208, 209, 210, 211, 212, 213, 214, 215, 216, 217, 218, 219, 220, 221, 222, 223, 224, 225, 226, 227, 228, 229, 230, 231, 232, 233, 234, 235, 236, 237, 238, 239, 240, 241, 242, 243, 244, 245, 246, 247, 248, 249, 250, 251, 252, 253, 254, 255, 256, 257, 258, 259, 260, 261, 262, 263, 264, 265, 266, 267, 268, 269, 270, 271, 272, 273, 274, 275, 276, 277, 278, 279, 280, 281, 282, 283, 284, 285, 286, 287, 288, 289, 290, 291, 292, 293, 294, 295, 296, 297, 298, 299, 300, 301, 302, 303, 304, 305, 306, 307, 308, 309, 310, 311, 312, 313, 314, 315, 316, 317, 318, 319, 320, 321, 322, 323, 324, 325, 326, 327, 328, 329, 330, 331, 332, 333, 334, 335, 336, 337, 338, 339, 340, 341, 342, 343, 344, 345, 346, 347, 348, 349, 350, 351, 352, 353, 354, 355, 356, 357, 358, 359, 360, 361, 362, 363, 364, 365, 366, 367, 368, 369, 370, 371, 372, 373, 374, 375, 376, 377, 378, 379, 380, 381, 382, 383, 384, 385, 386, 387, 388, 389, 390, 391, 392, 393, 394, 395, 396, 397, 398, 399, 400, 401, 402, 403, 404, 405, 406, 407, 408, 409, 410, 411, 412, 413, 414, 415, 416, 417, 418, 419, 420, 421, 422, 423, 424, 425, 426, 427, 428, 429, 430, 431, 432, 433, 434, 435, 436, 437, 438, 439, 440, 441, 442, 443, 444, 445, 446, 447, 448, 449, 450, 451, 452, 453, 454, 455, 456, 457, 458, 459, 460, 461, 462, 463, 464, 465, 466, 467, 468, 469, 470, 471, 472, 473, 474, 475, 476, 477, 478, 479, 480, 481, 482, 483, 484, 485, 486, 487, 488, 489, 490, 491, 492, 493, 494, 495, 496, 497, 498, 499, 500, 501, 502, 503, 504, 505, 506, 507, 508, 509, 510, 511, 512, 513, 514, 515, 516, 517, 518, 519, 520, 521, 522, 523, 524, 525, 526, 527, 528, 529, 530, 531, 532, 533, 534, 535, 536, 537, 538, 539, 540, 541, 542, 543, 544, 545, 546, 547, 548, 549, 550, 551, 552, 553, 554, 555, 556, 557, 558, 559, 560, 561, 562, 563, 564, 565, 566, 567, 568, 569, 570, 571, 572, 573, 574, 575, 576, 577, 578, 579, 580, 581, 582, 583, 584, 585, 586, 587, 588, 589, 590, 591, 592, 593, 594, 595, 596, 597, 598, 599, 600, 601, 602, 603, 604, 605, 606, 607, 608, 609, 610, 611, 612, 613, 614, 615, 616, 617, 618, 619, 620, 621, 622, 623, 624, 625, 626, 627, 628, 629, 630, 631, 632, 633, 634, 635, 636, 637, 638, 639, 640, 641, 642, 643, 644, 645, 646, 647, 648, 649, 650, 651, 652, 653, 654, 655, 656, 657, 658, 659, 660, 661, 662, 663, 664, 665, 666, 667, 668, 669, 670, 671, 672, 673, 674, 675, 676, 677, 678, 679, 680, 681, 682, 683, 684, 685, 686, 687, 688, 689, 690, 691, 692, 693, 694, 695, 696, 697, 698, 699, 700, 701, 702, 703, 704, 705, 706, 707, 708, 709, 710, 711, 712, 713, 714, 715, 716, 717, 718, 719, 720, 721, 722, 723, 724, 725, 726, 727, 728, 729, 730, 731, 732, 733, 734, 735, 736, 737, 738, 739, 740, 741, 742, 743, 744, 745, 746, 747, 748, 749, 750, 751, 752, 753, 754, 755, 756, 757, 758, 759, 760, 761, 762, 763, 764, 765, 766, 767, 768, 769, 770, 771, 772, 773, 774, 775, 776, 777, 778, 779, 780, 781, 782, 783, 784, 785, 786, 787, 788, 789, 790, 791, 792, 793, 794, 795, 796, 797, 798, 799, 800, 801, 802, 803, 804, 805, 806, 807, 808, 809, 810, 811, 812, 813, 814, 815, 816, 817, 818, 819, 820, 821, 822, 823, 824, 825, 826, 827, 828, 829, 830, 831, 832, 833, 834, 835, 836, 837, 838, 839, 840, 841, 842, 843, 844, 845, 846, 847, 848, 849, 850, 851, 852, 853, 854, 855, 856, 857, 858, 859, 860, 861, 862, 863, 864, 865, 866, 867, 868, 869, 870, 871, 872],
      "AcquisitionTime": ["194817.142500", "194817.602500", "194818.062500", "194818.522500", "194818.982500", "194819.442500", "194819.902500", "194820.362500", "194820.822500", "194821.282500", "194821.742500", "194822.202500", "194822.662500", "194823.122500", "194823.582500", "194824.042500", "194824.502500", "194824.962500", "194825.422500", "194825.882500", "194826.342500", "194826.802500", "194827.262500", "194827.722500", "194828.182500", "194828.642500", "194829.102500", "194829.562500", "194830.022500", "194830.482500", "194830.942500", "194831.402500", "194831.862500", "194832.322500", "194832.782500", "194833.242500", "194833.702500", "194834.162500", "194834.622500", "194835.082500", "194835.542500", "194836.002500", "194836.462500", "194836.922500", "194837.382500", "194837.842500", "194838.302500", "194838.762500", "194839.222500", "194839.682500", "194840.142500", "194840.602500", "194841.062500", "194841.522500", "194841.982500", "194842.442500", "194842.902500", "194843.362500", "194843.822500", "194844.282500", "194844.742500", "194845.202500", "194845.662500", "194846.122500", "194846.582500", "194847.042500", "194847.502500", "194847.962500", "194848.422500", "194848.882500", "194849.342500", "194849.802500", "194850.262500", "194850.722500", "194851.182500", "194851.642500", "194852.102500", "194852.562500", "194853.022500", "194853.482500", "194853.942500", "194854.402500", "194854.862500", "194855.322500", "194855.782500", "194856.242500", "194856.702500", "194857.162500", "194857.622500", "194858.082500", "194858.542500", "194859.002500", "194859.462500", "194859.922500", "194900.382500", "194900.842500", "194901.302500", "194901.762500", "194902.222500", "194902.682500", "194903.142500", "194903.602500", "194904.062500", "194904.522500", "194904.982500", "194905.442500", "194905.902500", "194906.362500", "194906.822500", "194907.282500", "194907.742500", "194908.202500", "194908.662500", "194909.122500", "194909.582500", "194910.042500", "194910.502500", "194910.962500", "194911.422500", "194911.882500", "194912.342500", "194912.802500", "194913.262500", "194913.722500", "194914.182500", "194914.642500", "194915.102500", "194915.562500", "194916.022500", "194916.482500", "194916.942500", "194917.402500", "194917.862500", "194918.322500", "194918.782500", "194919.242500", "194919.702500", "194920.162500", "194920.622500", "194921.082500", "194921.542500", "194922.002500", "194922.462500", "194922.922500", "194923.382500", "194923.842500", "194924.302500", "194924.762500", "194925.222500", "194925.682500", "194926.142500", "194926.602500", "194927.062500", "194927.522500", "194927.982500", "194928.442500", "194928.902500", "194929.362500", "194929.822500", "194930.282500", "194930.742500", "194931.202500", "194931.662500", "194932.122500", "194932.582500", "194933.042500", "194933.502500", "194933.962500", "194934.422500", "194934.882500", "194935.342500", "194935.802500", "194936.262500", "194936.722500", "194937.182500", "194937.642500", "194938.102500", "194938.562500", "194939.022500", "194939.482500", "194939.942500", "194940.402500", "194940.862500", "194941.322500", "194941.782500", "194942.242500", "194942.702500", "194943.162500", "194943.622500", "194944.082500", "194944.542500", "194945.002500", "194945.462500", "194945.922500", "194946.382500", "194946.842500", "194947.302500", "194947.762500", "194948.222500", "194948.682500", "194949.142500", "194949.602500", "194950.062500", "194950.522500", "194950.982500", "194951.442500", "194951.902500", "194952.362500", "194952.822500", "194953.282500", "194953.742500", "194954.202500", "194954.662500", "194955.122500", "194955.582500", "194956.042500", "194956.502500", "194956.962500", "194957.422500", "194957.882500", "194958.342500", "194958.802500", "194959.262500", "194959.722500", "195000.182500", "195000.642500", "195001.102500", "195001.562500", "195002.022500", "195002.482500", "195002.942500", "195003.402500", "195003.862500", "195004.322500", "195004.782500", "195005.242500", "195005.702500", "195006.162500", "195006.622500", "195007.082500", "195007.542500", "195008.002500", "195008.462500", "195008.922500", "195009.382500", "195009.842500", "195010.302500", "195010.762500", "195011.222500", "195011.682500", "195012.142500", "195012.602500", "195013.062500", "195013.522500", "195013.982500", "195014.442500", "195014.902500", "195015.362500", "195015.822500", "195016.282500", "195016.742500", "195017.202500", "195017.662500", "195018.122500", "195018.582500", "195019.042500", "195019.502500", "195019.962500", "195020.422500", "195020.882500", "195021.342500", "195021.802500", "195022.262500", "195022.722500", "195023.182500", "195023.642500", "195024.102500", "195024.562500", "195025.022500", "195025.482500", "195025.942500", "195026.402500", "195026.862500", "195027.322500", "195027.782500", "195028.242500", "195028.702500", "195029.162500", "195029.622500", "195030.082500", "195030.542500", "195031.002500", "195031.462500", "195031.922500", "195032.382500", "195032.842500", "195033.302500", "195033.762500", "195034.222500", "195034.682500", "195035.142500", "195035.602500", "195036.062500", "195036.522500", "195036.982500", "195037.442500", "195037.902500", "195038.362500", "195038.822500", "195039.282500", "195039.742500", "195040.202500", "195040.662500", "195041.122500", "195041.582500", "195042.042500", "195042.502500", "195042.962500", "195043.422500", "195043.882500", "195044.342500", "195044.802500", "195045.262500", "195045.722500", "195046.182500", "195046.642500", "195047.102500", "195047.562500", "195048.022500", "195048.482500", "195048.942500", "195049.402500", "195049.862500", "195050.322500", "195050.782500", "195051.242500", "195051.702500", "195052.162500", "195052.622500", "195053.082500", "195053.542500", "195054.002500", "195054.462500", "195054.922500", "195055.382500", "195055.842500", "195056.302500", "195056.762500", "195057.222500", "195057.682500", "195058.142500", "195058.602500", "195059.062500", "195059.522500", "195059.982500", "195100.442500", "195100.902500", "195101.362500", "195101.822500", "195102.282500", "195102.742500", "195103.202500", "195103.662500", "195104.122500", "195104.582500", "195105.042500", "195105.502500", "195105.962500", "195106.422500", "195106.882500", "195107.342500", "195107.802500", "195108.262500", "195108.722500", "195109.182500", "195109.642500", "195110.102500", "195110.562500", "195111.022500", "195111.482500", "195111.942500", "195112.402500", "195112.862500", "195113.322500", "195113.782500", "195114.242500", "195114.702500", "195115.162500", "195115.622500", "195116.082500", "195116.542500", "195117.002500", "195117.462500", "195117.922500", "195118.382500", "195118.842500", "195119.302500", "195119.762500", "195120.222500", "195120.682500", "195121.142500", "195121.602500", "195122.062500", "195122.522500", "195122.982500", "195123.442500", "195123.902500", "195124.362500", "195124.822500", "195125.282500", "195125.742500", "195126.202500", "195126.662500", "195127.122500", "195127.582500", "195128.042500", "195128.502500", "195128.962500", "195129.422500", "195129.882500", "195130.342500", "195130.802500", "195131.262500", "195131.722500", "195132.182500", "195132.642500", "195133.102500", "195133.562500", "195134.022500", "195134.482500", "195134.942500", "195135.402500", "195135.862500", "195136.322500", "195136.782500", "195137.242500", "195137.702500", "195138.162500", "195138.622500", "195139.082500", "195139.542500", "195140.002500", "195140.462500", "195140.922500", "195141.382500", "195141.842500", "195142.302500", "195142.762500", "195143.222500", "195143.682500", "195144.142500", "195144.602500", "195145.062500", "195145.522500", "195145.982500", "195146.442500", "195146.902500", "195147.362500", "195147.822500", "195148.282500", "195148.742500", "195149.202500", "195149.662500", "195150.122500", "195150.582500", "195151.042500", "195151.502500", "195151.962500", "195152.422500", "195152.882500", "195153.342500", "195153.802500", "195154.262500", "195154.722500", "195155.182500", "195155.642500", "195156.102500", "195156.562500", "195157.022500", "195157.482500", "195157.942500", "195158.402500", "195158.862500", "195159.322500", "195159.782500", "195200.242500", "195200.702500", "195201.162500", "195201.622500", "195202.082500", "195202.542500", "195203.002500", "195203.462500", "195203.922500", "195204.382500", "195204.842500", "195205.302500", "195205.762500", "195206.222500", "195206.682500", "195207.142500", "195207.602500", "195208.062500", "195208.522500", "195208.982500", "195209.442500", "195209.902500", "195210.362500", "195210.822500", "195211.282500", "195211.742500", "195212.202500", "195212.662500", "195213.122500", "195213.582500", "195214.042500", "195214.502500", "195214.962500", "195215.422500", "195215.882500", "195216.342500", "195216.802500", "195217.262500", "195217.722500", "195218.182500", "195218.642500", "195219.102500", "195219.562500", "195220.022500", "195220.482500", "195220.942500", "195221.402500", "195221.862500", "195222.322500", "195222.782500", "195223.242500", "195223.702500", "195224.162500", "195224.622500", "195225.082500", "195225.542500", "195226.002500", "195226.462500", "195226.922500", "195227.382500", "195227.842500", "195228.302500", "195228.762500", "195229.222500", "195229.682500", "195230.142500", "195230.602500", "195231.062500", "195231.522500", "195231.982500", "195232.442500", "195232.902500", "195233.362500", "195233.822500", "195234.282500", "195234.742500", "195235.202500", "195235.662500", "195236.122500", "195236.582500", "195237.042500", "195237.502500", "195237.962500", "195238.422500", "195238.882500", "195239.342500", "195239.802500", "195240.262500", "195240.722500", "195241.182500", "195241.642500", "195242.102500", "195242.562500", "195243.022500", "195243.482500", "195243.942500", "195244.402500", "195244.862500", "195245.322500", "195245.782500", "195246.242500", "195246.702500", "195247.162500", "195247.622500", "195248.082500", "195248.542500", "195249.002500", "195249.462500", "195249.922500", "195250.382500", "195250.842500", "195251.302500", "195251.762500", "195252.222500", "195252.682500", "195253.142500", "195253.602500", "195254.062500", "195254.522500", "195254.982500", "195255.442500", "195255.902500", "195256.362500", "195256.822500", "195257.282500", "195257.742500", "195258.202500", "195258.662500", "195259.122500", "195259.582500", "195300.042500", "195300.502500", "195300.962500", "195301.422500", "195301.882500", "195302.342500", "195302.802500", "195303.262500", "195303.722500", "195304.182500", "195304.642500", "195305.102500", "195305.562500", "195306.022500", "195306.482500", "195306.942500", "195307.402500", "195307.862500", "195308.322500", "195308.782500", "195309.242500", "195309.702500", "195310.162500", "195310.622500", "195311.082500", "195311.542500", "195312.002500", "195312.462500", "195312.922500", "195313.382500", "195313.842500", "195314.302500", "195314.762500", "195315.222500", "195315.682500", "195316.142500", "195316.602500", "195317.062500", "195317.522500", "195317.982500", "195318.442500", "195318.902500", "195319.362500", "195319.822500", "195320.282500", "195320.742500", "195321.202500", "195321.662500", "195322.122500", "195322.582500", "195323.042500", "195323.502500", "195323.962500", "195324.422500", "195324.882500", "195325.342500", "195325.802500", "195326.262500", "195326.722500", "195327.182500", "195327.642500", "195328.102500", "195328.562500", "195329.022500", "195329.482500", "195329.942500", "195330.402500", "195330.862500", "195331.322500", "195331.782500", "195332.242500", "195332.702500", "195333.162500", "195333.622500", "195334.082500", "195334.542500", "195335.002500", "195335.462500", "195335.922500", "195336.382500", "195336.842500", "195337.302500", "195337.762500", "195338.222500", "195338.682500", "195339.142500", "195339.602500", "195340.062500", "195340.522500", "195340.982500", "195341.442500", "195341.902500", "195342.362500", "195342.822500", "195343.282500", "195343.742500", "195344.202500", "195344.662500", "195345.122500", "195345.582500", "195346.042500", "195346.502500", "195346.962500", "195347.422500", "195347.882500", "195348.342500", "195348.802500", "195349.262500", "195349.722500", "195350.182500", "195350.642500", "195351.102500", "195351.562500", "195352.022500", "195352.482500", "195352.942500", "195353.402500", "195353.862500", "195354.322500", "195354.782500", "195355.242500", "195355.702500", "195356.162500", "195356.622500", "195357.082500", "195357.542500", "195358.002500", "195358.462500", "195358.922500", "195359.382500", "195359.842500", "195400.302500", "195400.762500", "195401.222500", "195401.682500", "195402.142500", "195402.602500", "195403.062500", "195403.522500", "195403.982500", "195404.442500", "195404.902500", "195405.362500", "195405.822500", "195406.282500", "195406.742500", "195407.202500", "195407.662500", "195408.122500", "195408.582500", "195409.042500", "195409.502500", "195409.962500", "195410.422500", "195410.882500", "195411.342500", "195411.802500", "195412.262500", "195412.722500", "195413.182500", "195413.642500", "195414.102500", "195414.562500", "195415.022500", "195415.482500", "195415.942500", "195416.402500", "195416.862500", "195417.322500", "195417.782500", "195418.242500", "195418.702500", "195419.162500", "195419.622500", "195420.082500", "195420.542500", "195421.002500", "195421.462500", "195421.922500", "195422.382500", "195422.842500", "195423.302500", "195423.762500", "195424.222500", "195424.682500", "195425.142500", "195425.602500", "195426.062500", "195426.522500", "195426.982500", "195427.442500", "195427.902500", "195428.362500", "195428.822500", "195429.282500", "195429.742500", "195430.202500", "195430.662500", "195431.122500", "195431.582500", "195432.042500", "195432.502500", "195432.962500", "195433.422500", "195433.882500", "195434.342500", "195434.802500", "195435.262500", "195435.722500", "195436.182500", "195436.642500", "195437.102500", "195437.562500", "195438.022500", "195438.482500", "195438.942500", "195439.402500", "195439.862500", "195440.322500", "195440.782500", "195441.242500", "195441.702500", "195442.162500", "195442.622500", "195443.082500", "195443.542500", "195444.002500", "195444.462500", "195444.922500", "195445.382500", "195445.842500", "195446.302500", "195446.762500", "195447.222500", "195447.682500", "195448.142500", "195448.602500", "195449.062500", "195449.522500", "195449.982500", "195450.442500", "195450.902500", "195451.362500", "195451.822500", "195452.282500", "195452.742500", "195453.202500", "195453.662500", "195454.122500", "195454.582500", "195455.042500", "195455.502500", "195455.962500", "195456.422500", "195456.882500", "195457.342500", "195457.802500"],
