{
  "AcquisitionMatrixPE": 82,
  "AcquisitionNumber": 1,
  "AcquisitionTime": "20:03:16.155000",
  "BandwidthPerPixelPhaseEncode": 24.888,
  "BaseResolution": 82,
  "BodyPartExamined": "BRAIN",
  "ConsistencyInfo": "N4_VE11E_LATEST_20181129",
  "ConversionSoftware": "dcm2niix",
  "ConversionSoftwareVersion": "v1.0.20201102",
  "DerivedVendorReportedEchoSpacing": 0.00049,
  "DeviceSerialNumber": "66112",
  "DwellTime": 2e-06,
  "EchoTime": 0.0272,
  "EchoTrainLength": 82,
  "EffectiveEchoSpacing": 0.00049,
  "FlipAngle": 44,
  "ImageComments": "Unaliased MB8/PE3",
  "ImageOrientationPatientDICOM": [0.998446, 0.0428515, -0.0356304, -0.042371, 0.999002, 0.0141341],
  "ImageType": [
    "ORIGINAL",
    "PRIMARY",
    "M",
    "MB",
    "ND",
    "NORM",
    "MOSAIC"
],
  "ImagingFrequency": 123.259,
  "InPlanePhaseEncodingDirectionDICOM": "COL",
  "InstitutionAddress": "Maynard 3,Hanover,NH,US,03755",
  "InstitutionName": "Dartmouth College - PBS",
  "InstitutionalDepartmentName": "Department",
  "MRAcquisitionType": "2D",
  "MagneticFieldStrength": 3,
  "Manufacturer": "Siemens",
  "ManufacturersModelName": "Prisma",
  "Modality": "MR",
  "MultibandAccelerationFactor": 8,
  "PartialFourier": 1,
  "PatientPosition": "HFS",
  "PercentPhaseFOV": 100,
  "PercentSampling": 100,
  "PhaseEncodingDirection": "j-",
  "PhaseEncodingSteps": 82,
  "PhaseResolution": 1,
  "PixelBandwidth": 3050,
  "ProcedureStepDescription": "Wager_Wager^1076_spacetop",
  "ProtocolName": "func_run-06_task-social_acq-ap-mb8",
  "PulseSequenceDetails": "%CustomerSeq%\\cmrr_mbep2d_bold",
  "ReceiveCoilActiveElements": "HEA;HEP",
  "ReceiveCoilName": "Head_32",
  "ReconMatrixPE": 82,
  "RepetitionTime": 0.46,
  "SAR": 0.105059,
  "ScanOptions": "FS",
  "ScanningSequence": "EP",
  "SequenceName": "epfid2d1_82",
  "SequenceVariant": "SK\\SS",
  "SeriesDescription": "func_run-06_task-social_acq-ap-mb8",
  "SeriesNumber": 22,
  "ShimSetting": [4212, -7792, -7226, 203, -129, -84, 24, 86],
  "SliceThickness": 2.7,
  "SliceTiming": [0, 0.2525, 0.0625, 0.315, 0.125, 0.3775, 0.19, 0, 0.2525, 0.0625, 0.315, 0.125, 0.3775, 0.19, 0, 0.2525, 0.0625, 0.315, 0.125, 0.3775, 0.19, 0, 0.2525, 0.0625, 0.315, 0.125, 0.3775, 0.19, 0, 0.2525, 0.0625, 0.315, 0.125, 0.3775, 0.19, 0, 0.2525, 0.0625, 0.315, 0.125, 0.3775, 0.19, 0, 0.2525, 0.0625, 0.315, 0.125, 0.3775, 0.19, 0, 0.2525, 0.0625, 0.315, 0.125, 0.3775, 0.19],
  "SoftwareVersions": "syngo MR E11",
  "SpacingBetweenSlices": 2.7,
  "StationName": "AWP66112",
  "TaskName": "social",
  "TotalReadoutTime": 0.03969,
  "TxRefAmp": 277.601,
  "WipMemBlock": "34e970c7-12c5-435b-8a5f-87f520e7d3ec||Sequence: R016 ve11e/master r/434b28f1; Aug  7 2019 18:53:46 by eja",
  "dcmmeta_affine": [
    [-2.678757429122925, -0.1136782318353653, -0.09774124622344971, 119.00777435302734],
    [-0.11496744304895401, 2.6802492141723633, 0.034026723355054855, -90.63561248779297],
    [-0.0955936387181282, -0.037920888513326645, 2.6980156898498535, -57.229801177978516],
    [0.0, 0.0, 0.0, 1.0]
],
  "dcmmeta_reorient_transform": [
    [0.0, -1.0, 0.0, 81.0],
    [1.0, 0.0, 0.0, 0.0],
    [0.0, 0.0, 1.0, 0.0],
    [0.0, 0.0, 0.0, 1.0]
],
  "dcmmeta_shape": [82, 82, 56, 872],
  "dcmmeta_slice_dim": 2,
  "dcmmeta_version": 0.6,
  "global": {
    "const": {
      "AccessionNumber": "A004921",
      "AcquisitionMatrix": [82, 0, 0, 82],
      "AngioFlag": "N",
      "BitsAllocated": 16,
      "BitsStored": 16,
      "BodyPartExamined": "BRAIN",
      "Columns": 656,
      "EchoNumbers": 1,
      "EchoTime": 27.2,
      "EchoTrainLength": 82,
      "FlipAngle": 44.0,
      "HighBit": 15,
      "ImageOrientationPatient": [0.99844590582208, 0.04285149949772, -0.0356303541651, -0.0423709759611, 0.99900196507879, 0.01413414888912],
      "ImagePositionPatient": [-845.97754918011, -928.69175984949, -43.749316384156],
      "ImageType": [
        "ORIGINAL",
        "PRIMARY",
        "M",
        "MB",
        "ND",
        "NORM",
        "MOSAIC"
],
      "ImagedNucleus": "1H",
      "ImagingFrequency": 123.259004,
      "InPlanePhaseEncodingDirection": "COL",
      "MRAcquisitionType": "2D",
      "MagneticFieldStrength": 3.0,
      "Manufacturer": "SIEMENS",
      "ManufacturerModelName": "Prisma",
      "Modality": "MR",
      "NumberOfAverages": 1.0,
      "NumberOfPhaseEncodingSteps": 82,
      "PercentPhaseFieldOfView": 100.0,
      "PercentSampling": 100.0,
      "PerformedProcedureStepStartTime": "181835.929000",
      "PhotometricInterpretation": "MONOCHROME2",
      "PixelBandwidth": 3050.0,
      "PixelRepresentation": 0,
      "PixelSpacing": [2.6829268932343, 2.6829268932343],
      "ProtocolName": "func_run-06_task-social_acq-ap-mb8",
      "RepetitionTime": 460.0,
      "Rows": 656,
      "SAR": 0.10505890391649,
      "SamplesPerPixel": 1,
      "ScanOptions": "FS",
      "ScanningSequence": "EP",
      "SequenceName": "epfid2d1_82",
      "SequenceVariant": [
        "SK",
        "SS"
],
      "SeriesDescription": "func_run-06_task-social_acq-ap-mb8",
      "SeriesNumber": 22,
      "SeriesTime": "200339.814000",
      "SliceLocation": -62.638114625696,
      "SliceThickness": 2.7000000476837,
      "SmallestImagePixelValue": 0,
      "SoftwareVersions": "syngo MR E11",
      "SpacingBetweenSlices": 2.6999999429513,
      "SpecificCharacterSet": "ISO_IR 100",
      "StudyID": "1",
      "StudyTime": "181835.850000",
      "TransmitCoilName": "Body",
      "VariableFlipAngleFlag": "N",
      "WindowCenterWidthExplanation": "Algo1"
    },
    "slices": {}
  },
  "time": {
    "samples": {
      "AcquisitionNumber": [1, 2, 3, 4, 5, 6, 7, 8, 9, 10, 11, 12, 13, 14, 15, 16, 17, 18, 19, 20, 21, 22, 23, 24, 25, 26, 27, 28, 29, 30, 31, 32, 33, 34, 35, 36, 37, 38, 39, 40, 41, 42, 43, 44, 45, 46, 47, 48, 49, 50, 51, 52, 53, 54, 55, 56, 57, 58, 59, 60, 61, 62, 63, 64, 65, 66, 67, 68, 69, 70, 71, 72, 73, 74, 75, 76, 77, 78, 79, 80, 81, 82, 83, 84, 85, 86, 87, 88, 89, 90, 91, 92, 93, 94, 95, 96, 97, 98, 99, 100, 101, 102, 103, 104, 105, 106, 107, 108, 109, 110, 111, 112, 113, 114, 115, 116, 117, 118, 119, 120, 121, 122, 123, 124, 125, 126, 127, 128, 129, 130, 131, 132, 133, 134, 135, 136, 137, 138, 139, 140, 141, 142, 143, 144, 145, 146, 147, 148, 149, 150, 151, 152, 153, 154, 155, 156, 157, 158, 159, 160, 161, 162, 163, 164, 165, 166, 167, 168, 169, 170, 171, 172, 173, 174, 175, 176, 177, 178, 179, 180, 181, 182, 183, 184, 185, 186, 187, 188, 189, 190, 191, 192, 193, 194, 195, 196, 197, 198, 199, 200, 201, 202, 203, 204, 205, 206, 207, 208, 209, 210, 211, 212, 213, 214, 215, 216, 217, 218, 219, 220, 221, 222, 223, 224, 225, 226, 227, 228, 229, 230, 231, 232, 233, 234, 235, 236, 237, 238, 239, 240, 241, 242, 243, 244, 245, 246, 247, 248, 249, 250, 251, 252, 253, 254, 255, 256, 257, 258, 259, 260, 261, 262, 263, 264, 265, 266, 267, 268, 269, 270, 271, 272, 273, 274, 275, 276, 277, 278, 279, 280, 281, 282, 283, 284, 285, 286, 287, 288, 289, 290, 291, 292, 293, 294, 295, 296, 297, 298, 299, 300, 301, 302, 303, 304, 305, 306, 307, 308, 309, 310, 311, 312, 313, 314, 315, 316, 317, 318, 319, 320, 321, 322, 323, 324, 325, 326, 327, 328, 329, 330, 331, 332, 333, 334, 335, 336, 337, 338, 339, 340, 341, 342, 343, 344, 345, 346, 347, 348, 349, 350, 351, 352, 353, 354, 355, 356, 357, 358, 359, 360, 361, 362, 363, 364, 365, 366, 367, 368, 369, 370, 371, 372, 373, 374, 375, 376, 377, 378, 379, 380, 381, 382, 383, 384, 385, 386, 387, 388, 389, 390, 391, 392, 393, 394, 395, 396, 397, 398, 399, 400, 401, 402, 403, 404, 405, 406, 407, 408, 409, 410, 411, 412, 413, 414, 415, 416, 417, 418, 419, 420, 421, 422, 423, 424, 425, 426, 427, 428, 429, 430, 431, 432, 433, 434, 435, 436, 437, 438, 439, 440, 441, 442, 443, 444, 445, 446, 447, 448, 449, 450, 451, 452, 453, 454, 455, 456, 457, 458, 459, 460, 461, 462, 463, 464, 465, 466, 467, 468, 469, 470, 471, 472, 473, 474, 475, 476, 477, 478, 479, 480, 481, 482, 483, 484, 485, 486, 487, 488, 489, 490, 491, 492, 493, 494, 495, 496, 497, 498, 499, 500, 501, 502, 503, 504, 505, 506, 507, 508, 509, 510, 511, 512, 513, 514, 515, 516, 517, 518, 519, 520, 521, 522, 523, 524, 525, 526, 527, 528, 529, 530, 531, 532, 533, 534, 535, 536, 537, 538, 539, 540, 541, 542, 543, 544, 545, 546, 547, 548, 549, 550, 551, 552, 553, 554, 555, 556, 557, 558, 559, 560, 561, 562, 563, 564, 565, 566, 567, 568, 569, 570, 571, 572, 573, 574, 575, 576, 577, 578, 579, 580, 581, 582, 583, 584, 585, 586, 587, 588, 589, 590, 591, 592, 593, 594, 595, 596, 597, 598, 599, 600, 601, 602, 603, 604, 605, 606, 607, 608, 609, 610, 611, 612, 613, 614, 615, 616, 617, 618, 619, 620, 621, 622, 623, 624, 625, 626, 627, 628, 629, 630, 631, 632, 633, 634, 635, 636, 637, 638, 639, 640, 641, 642, 643, 644, 645, 646, 647, 648, 649, 650, 651, 652, 653, 654, 655, 656, 657, 658, 659, 660, 661, 662, 663, 664, 665, 666, 667, 668, 669, 670, 671, 672, 673, 674, 675, 676, 677, 678, 679, 680, 681, 682, 683, 684, 685, 686, 687, 688, 689, 690, 691, 692, 693, 694, 695, 696, 697, 698, 699, 700, 701, 702, 703, 704, 705, 706, 707, 708, 709, 710, 711, 712, 713, 714, 715, 716, 717, 718, 719, 720, 721, 722, 723, 724, 725, 726, 727, 728, 729, 730, 731, 732, 733, 734, 735, 736, 737, 738, 739, 740, 741, 742, 743, 744, 745, 746, 747, 748, 749, 750, 751, 752, 753, 754, 755, 756, 757, 758, 759, 760, 761, 762, 763, 764, 765, 766, 767, 768, 769, 770, 771, 772, 773, 774, 775, 776, 777, 778, 779, 780, 781, 782, 783, 784, 785, 786, 787, 788, 789, 790, 791, 792, 793, 794, 795, 796, 797, 798, 799, 800, 801, 802, 803, 804, 805, 806, 807, 808, 809, 810, 811, 812, 813, 814, 815, 816, 817, 818, 819, 820, 821, 822, 823, 824, 825, 826, 827, 828, 829, 830, 831, 832, 833, 834, 835, 836, 837, 838, 839, 840, 841, 842, 843, 844, 845, 846, 847, 848, 849, 850, 851, 852, 853, 854, 855, 856, 857, 858, 859, 860, 861, 862, 863, 864, 865, 866, 867, 868, 869, 870, 871, 872],
      "AcquisitionTime": ["200316.155000", "200316.615000", "200317.075000", "200317.535000", "200317.995000", "200318.455000", "200318.915000", "200319.375000", "200319.835000", "200320.295000", "200320.755000", "200321.215000", "200321.675000", "200322.135000", "200322.595000", "200323.055000", "200323.515000", "200323.975000", "200324.435000", "200324.895000", "200325.355000", "200325.815000", "200326.275000", "200326.735000", "200327.195000", "200327.655000", "200328.115000", "200328.575000", "200329.035000", "200329.495000", "200329.955000", "200330.415000", "200330.875000", "200331.335000", "200331.795000", "200332.255000", "200332.715000", "200333.175000", "200333.635000", "200334.095000", "200334.555000", "200335.015000", "200335.475000", "200335.935000", "200336.395000", "200336.855000", "200337.315000", "200337.775000", "200338.235000", "200338.695000", "200339.155000", "200339.615000", "200340.075000", "200340.535000", "200340.995000", "200341.455000", "200341.915000", "200342.375000", "200342.835000", "200343.295000", "200343.755000", "200344.215000", "200344.675000", "200345.135000", "200345.595000", "200346.055000", "200346.515000", "200346.975000", "200347.435000", "200347.895000", "200348.355000", "200348.815000", "200349.275000", "200349.735000", "200350.195000", "200350.655000", "200351.115000", "200351.575000", "200352.035000", "200352.495000", "200352.955000", "200353.415000", "200353.875000", "200354.335000", "200354.795000", "200355.255000", "200355.715000", "200356.175000", "200356.635000", "200357.095000", "200357.555000", "200358.015000", "200358.475000", "200358.935000", "200359.395000", "200359.855000", "200400.315000", "200400.775000", "200401.235000", "200401.695000", "200402.155000", "200402.615000", "200403.075000", "200403.535000", "200403.995000", "200404.455000", "200404.915000", "200405.375000", "200405.835000", "200406.295000", "200406.755000", "200407.215000", "200407.675000", "200408.135000", "200408.595000", "200409.055000", "200409.515000", "200409.975000", "200410.435000", "200410.895000", "200411.355000", "200411.815000", "200412.275000", "200412.735000", "200413.195000", "200413.655000", "200414.115000", "200414.575000", "200415.035000", "200415.495000", "200415.955000", "200416.415000", "200416.875000", "200417.335000", "200417.795000", "200418.255000", "200418.715000", "200419.175000", "200419.635000", "200420.095000", "200420.555000", "200421.015000", "200421.475000", "200421.935000", "200422.395000", "200422.855000", "200423.315000", "200423.775000", "200424.235000", "200424.695000", "200425.155000", "200425.615000", "200426.075000", "200426.535000", "200426.995000", "200427.455000", "200427.915000", "200428.375000", "200428.835000", "200429.295000", "200429.755000", "200430.215000", "200430.675000", "200431.135000", "200431.595000", "200432.055000", "200432.515000", "200432.975000", "200433.435000", "200433.895000", "200434.355000", "200434.815000", "200435.275000", "200435.735000", "200436.195000", "200436.655000", "200437.115000", "200437.575000", "200438.035000", "200438.495000", "200438.955000", "200439.415000", "200439.875000", "200440.335000", "200440.795000", "200441.255000", "200441.715000", "200442.175000", "200442.635000", "200443.095000", "200443.555000", "200444.015000", "200444.475000", "200444.935000", "200445.395000", "200445.855000", "200446.315000", "200446.775000", "200447.235000", "200447.695000", "200448.155000", "200448.615000", "200449.075000", "200449.535000", "200449.995000", "200450.455000", "200450.915000", "200451.375000", "200451.835000", "200452.295000", "200452.755000", "200453.215000", "200453.675000", "200454.135000", "200454.595000", "200455.055000", "200455.515000", "200455.975000", "200456.435000", "200456.895000", "200457.355000", "200457.815000", "200458.275000", "200458.735000", "200459.195000", "200459.655000", "200500.115000", "200500.575000", "200501.035000", "200501.495000", "200501.955000", "200502.415000", "200502.875000", "200503.335000", "200503.795000", "200504.255000", "200504.715000", "200505.175000", "200505.635000", "200506.095000", "200506.555000", "200507.015000", "200507.475000", "200507.935000", "200508.395000", "200508.855000", "200509.315000", "200509.775000", "200510.235000", "200510.695000", "200511.155000", "200511.615000", "200512.075000", "200512.535000", "200512.995000", "200513.455000", "200513.915000", "200514.375000", "200514.835000", "200515.295000", "200515.755000", "200516.215000", "200516.675000", "200517.135000", "200517.595000", "200518.055000", "200518.515000", "200518.975000", "200519.435000", "200519.895000", "200520.355000", "200520.815000", "200521.275000", "200521.735000", "200522.195000", "200522.655000", "200523.115000", "200523.575000", "200524.035000", "200524.495000", "200524.955000", "200525.415000", "200525.875000", "200526.335000", "200526.795000", "200527.255000", "200527.715000", "200528.175000", "200528.635000", "200529.095000", "200529.555000", "200530.015000", "200530.475000", "200530.935000", "200531.395000", "200531.855000", "200532.315000", "200532.775000", "200533.235000", "200533.695000", "200534.155000", "200534.615000", "200535.075000", "200535.535000", "200535.995000", "200536.455000", "200536.915000", "200537.375000", "200537.835000", "200538.295000", "200538.755000", "200539.215000", "200539.675000", "200540.135000", "200540.595000", "200541.055000", "200541.515000", "200541.975000", "200542.435000", "200542.895000", "200543.355000", "200543.815000", "200544.275000", "200544.735000", "200545.195000", "200545.655000", "200546.115000", "200546.575000", "200547.035000", "200547.495000", "200547.955000", "200548.415000", "200548.875000", "200549.335000", "200549.795000", "200550.255000", "200550.715000", "200551.175000", "200551.635000", "200552.095000", "200552.555000", "200553.015000", "200553.475000", "200553.935000", "200554.395000", "200554.855000", "200555.315000", "200555.775000", "200556.235000", "200556.695000", "200557.155000", "200557.615000", "200558.075000", "200558.535000", "200558.995000", "200559.455000", "200559.915000", "200600.375000", "200600.835000", "200601.295000", "200601.755000", "200602.215000", "200602.675000", "200603.135000", "200603.595000", "200604.055000", "200604.515000", "200604.975000", "200605.435000", "200605.895000", "200606.355000", "200606.815000", "200607.275000", "200607.735000", "200608.195000", "200608.655000", "200609.115000", "200609.575000", "200610.035000", "200610.495000", "200610.955000", "200611.415000", "200611.875000", "200612.335000", "200612.795000", "200613.255000", "200613.715000", "200614.175000", "200614.635000", "200615.095000", "200615.555000", "200616.015000", "200616.475000", "200616.935000", "200617.395000", "200617.855000", "200618.315000", "200618.775000", "200619.235000", "200619.695000", "200620.155000", "200620.615000", "200621.075000", "200621.535000", "200621.995000", "200622.455000", "200622.915000", "200623.375000", "200623.835000", "200624.295000", "200624.755000", "200625.215000", "200625.675000", "200626.135000", "200626.595000", "200627.055000", "200627.515000", "200627.975000", "200628.435000", "200628.895000", "200629.355000", "200629.815000", "200630.275000", "200630.735000", "200631.195000", "200631.655000", "200632.115000", "200632.575000", "200633.035000", "200633.495000", "200633.955000", "200634.415000", "200634.875000", "200635.335000", "200635.795000", "200636.255000", "200636.715000", "200637.175000", "200637.635000", "200638.095000", "200638.555000", "200639.015000", "200639.475000", "200639.935000", "200640.395000", "200640.855000", "200641.315000", "200641.775000", "200642.235000", "200642.695000", "200643.155000", "200643.615000", "200644.075000", "200644.535000", "200644.995000", "200645.455000", "200645.915000", "200646.375000", "200646.835000", "200647.295000", "200647.755000", "200648.215000", "200648.675000", "200649.135000", "200649.595000", "200650.055000", "200650.515000", "200650.975000", "200651.435000", "200651.895000", "200652.355000", "200652.815000", "200653.275000", "200653.735000", "200654.195000", "200654.655000", "200655.115000", "200655.575000", "200656.035000", "200656.495000", "200656.955000", "200657.415000", "200657.875000", "200658.335000", "200658.795000", "200659.255000", "200659.715000", "200700.175000", "200700.635000", "200701.095000", "200701.555000", "200702.015000", "200702.475000", "200702.935000", "200703.395000", "200703.855000", "200704.315000", "200704.775000", "200705.235000", "200705.695000", "200706.155000", "200706.615000", "200707.075000", "200707.535000", "200707.995000", "200708.455000", "200708.915000", "200709.375000", "200709.835000", "200710.295000", "200710.755000", "200711.215000", "200711.675000", "200712.135000", "200712.595000", "200713.055000", "200713.515000", "200713.975000", "200714.435000", "200714.895000", "200715.355000", "200715.815000", "200716.275000", "200716.735000", "200717.195000", "200717.655000", "200718.115000", "200718.575000", "200719.035000", "200719.495000", "200719.955000", "200720.415000", "200720.875000", "200721.335000", "200721.795000", "200722.255000", "200722.715000", "200723.175000", "200723.635000", "200724.095000", "200724.555000", "200725.015000", "200725.475000", "200725.935000", "200726.395000", "200726.855000", "200727.315000", "200727.775000", "200728.235000", "200728.695000", "200729.155000", "200729.615000", "200730.075000", "200730.535000", "200730.995000", "200731.455000", "200731.915000", "200732.375000", "200732.835000", "200733.295000", "200733.755000", "200734.215000", "200734.675000", "200735.135000", "200735.595000", "200736.055000", "200736.515000", "200736.975000", "200737.435000", "200737.895000", "200738.355000", "200738.815000", "200739.275000", "200739.735000", "200740.195000", "200740.655000", "200741.115000", "200741.575000", "200742.035000", "200742.495000", "200742.955000", "200743.415000", "200743.875000", "200744.335000", "200744.795000", "200745.255000", "200745.715000", "200746.175000", "200746.635000", "200747.095000", "200747.555000", "200748.015000", "200748.475000", "200748.935000", "200749.395000", "200749.855000", "200750.315000", "200750.775000", "200751.235000", "200751.695000", "200752.155000", "200752.615000", "200753.075000", "200753.535000", "200753.995000", "200754.455000", "200754.915000", "200755.375000", "200755.835000", "200756.295000", "200756.755000", "200757.215000", "200757.675000", "200758.135000", "200758.595000", "200759.055000", "200759.515000", "200759.975000", "200800.435000", "200800.895000", "200801.355000", "200801.815000", "200802.275000", "200802.735000", "200803.195000", "200803.655000", "200804.115000", "200804.575000", "200805.035000", "200805.495000", "200805.955000", "200806.415000", "200806.875000", "200807.335000", "200807.795000", "200808.255000", "200808.715000", "200809.175000", "200809.635000", "200810.095000", "200810.555000", "200811.015000", "200811.475000", "200811.935000", "200812.395000", "200812.855000", "200813.315000", "200813.775000", "200814.235000", "200814.695000", "200815.155000", "200815.615000", "200816.075000", "200816.535000", "200816.995000", "200817.455000", "200817.915000", "200818.375000", "200818.835000", "200819.295000", "200819.755000", "200820.215000", "200820.675000", "200821.135000", "200821.595000", "200822.055000", "200822.515000", "200822.975000", "200823.435000", "200823.895000", "200824.355000", "200824.815000", "200825.275000", "200825.735000", "200826.195000", "200826.655000", "200827.115000", "200827.575000", "200828.035000", "200828.495000", "200828.955000", "200829.415000", "200829.875000", "200830.335000", "200830.795000", "200831.255000", "200831.715000", "200832.175000", "200832.635000", "200833.095000", "200833.555000", "200834.015000", "200834.475000", "200834.935000", "200835.395000", "200835.855000", "200836.315000", "200836.775000", "200837.235000", "200837.695000", "200838.155000", "200838.615000", "200839.075000", "200839.535000", "200839.995000", "200840.455000", "200840.915000", "200841.375000", "200841.835000", "200842.295000", "200842.755000", "200843.215000", "200843.675000", "200844.135000", "200844.595000", "200845.055000", "200845.515000", "200845.975000", "200846.435000", "200846.895000", "200847.355000", "200847.815000", "200848.275000", "200848.735000", "200849.195000", "200849.655000", "200850.115000", "200850.575000", "200851.035000", "200851.495000", "200851.955000", "200852.415000", "200852.875000", "200853.335000", "200853.795000", "200854.255000", "200854.715000", "200855.175000", "200855.635000", "200856.095000", "200856.555000", "200857.015000", "200857.475000", "200857.935000", "200858.395000", "200858.855000", "200859.315000", "200859.775000", "200900.235000", "200900.695000", "200901.155000", "200901.615000", "200902.075000", "200902.535000", "200902.995000", "200903.455000", "200903.915000", "200904.375000", "200904.835000", "200905.295000", "200905.755000", "200906.215000", "200906.675000", "200907.135000", "200907.595000", "200908.055000", "200908.515000", "200908.975000", "200909.435000", "200909.895000", "200910.355000", "200910.815000", "200911.275000", "200911.735000", "200912.195000", "200912.655000", "200913.115000", "200913.575000", "200914.035000", "200914.495000", "200914.955000", "200915.415000", "200915.875000", "200916.335000", "200916.795000", "200917.255000", "200917.715000", "200918.175000", "200918.635000", "200919.095000", "200919.555000", "200920.015000", "200920.475000", "200920.935000", "200921.395000", "200921.855000", "200922.315000", "200922.775000", "200923.235000", "200923.695000", "200924.155000", "200924.615000", "200925.075000", "200925.535000", "200925.995000", "200926.455000", "200926.915000", "200927.375000", "200927.835000", "200928.295000", "200928.755000", "200929.215000", "200929.675000", "200930.135000", "200930.595000", "200931.055000", "200931.515000", "200931.975000", "200932.435000", "200932.895000", "200933.355000", "200933.815000", "200934.275000", "200934.735000", "200935.195000", "200935.655000", "200936.115000", "200936.575000", "200937.035000", "200937.495000", "200937.955000", "200938.415000", "200938.875000", "200939.335000", "200939.795000", "200940.255000", "200940.715000", "200941.175000", "200941.635000", "200942.095000", "200942.555000", "200943.015000", "200943.475000", "200943.935000", "200944.395000", "200944.855000", "200945.315000", "200945.775000", "200946.235000", "200946.695000", "200947.155000", "200947.615000", "200948.075000", "200948.535000", "200948.995000", "200949.455000", "200949.915000", "200950.375000", "200950.835000", "200951.295000", "200951.755000", "200952.215000", "200952.675000", "200953.135000", "200953.595000", "200954.055000", "200954.515000", "200954.975000", "200955.435000", "200955.895000", "200956.355000", "200956.815000"],
