{
  "AcquisitionMatrixPE": 82,
  "AcquisitionNumber": 1,
  "AcquisitionTime": "15:43:28.282500",
  "BandwidthPerPixelPhaseEncode": 24.888,
  "BaseResolution": 82,
  "BodyPartExamined": "BRAIN",
  "ConsistencyInfo": "N4_VE11C_LATEST_20160120",
  "ConversionSoftware": "dcm2niix",
  "ConversionSoftwareVersion": "v1.0.20201102",
  "DerivedVendorReportedEchoSpacing": 0.00049,
  "DeviceSerialNumber": "66112",
  "DwellTime": 2e-06,
  "EchoTime": 0.0272,
  "EchoTrainLength": 82,
  "EffectiveEchoSpacing": 0.00049,
  "FlipAngle": 44,
  "ImageComments": "Unaliased MB8/PE3",
  "ImageOrientationPatientDICOM": [0.997216, -0.00529037, 0.0743751, 0.0116617, 0.99627, -0.085494],
  "ImageType": [
    "ORIGINAL",
    "PRIMARY",
    "M",
    "MB",
    "ND",
    "NORM",
    "MOSAIC"
],
  "ImagingFrequency": 123.252,
  "InPlanePhaseEncodingDirectionDICOM": "COL",
  "InstitutionAddress": "Maynard 3,Hanover,NH,US,03755",
  "InstitutionName": "Dartmouth College - PBS",
  "InstitutionalDepartmentName": "Department",
  "MRAcquisitionType": "2D",
  "MagneticFieldStrength": 3,
  "Manufacturer": "Siemens",
  "ManufacturersModelName": "Prisma",
  "Modality": "MR",
  "MultibandAccelerationFactor": 8,
  "PartialFourier": 1,
  "PatientPosition": "HFS",
  "PercentPhaseFOV": 100,
  "PercentSampling": 100,
  "PhaseEncodingDirection": "j-",
  "PhaseEncodingSteps": 82,
  "PhaseResolution": 1,
  "PixelBandwidth": 3050,
  "ProcedureStepDescription": "Wager_Wager^1076_spacetop",
  "ProtocolName": "func_run-05_task-social_acq-ap-mb8",
  "PulseSequenceDetails": "%CustomerSeq%\\cmrr_mbep2d_bold",
  "ReceiveCoilActiveElements": "HEA;HEP",
  "ReceiveCoilName": "Head_32",
  "ReconMatrixPE": 82,
  "RepetitionTime": 0.46,
  "SAR": 0.0757198,
  "ScanOptions": "FS",
  "ScanningSequence": "EP",
  "SequenceName": "epfid2d1_82",
  "SequenceVariant": "SK\\SS",
  "SeriesDescription": "func_run-05_task-social_acq-ap-mb8",
  "SeriesNumber": 16,
  "ShimSetting": [4167, -7742, -7242, 569, -33, -138, 8, 73],
  "SliceThickness": 2.7,
  "SliceTiming": [0, 0.25, 0.0625, 0.3125, 0.125, 0.3775, 0.1875, 0, 0.25, 0.0625, 0.3125, 0.125, 0.3775, 0.1875, 0, 0.25, 0.0625, 0.3125, 0.125, 0.3775, 0.1875, 0, 0.25, 0.0625, 0.3125, 0.125, 0.3775, 0.1875, 0, 0.25, 0.0625, 0.3125, 0.125, 0.3775, 0.1875, 0, 0.25, 0.0625, 0.3125, 0.125, 0.3775, 0.1875, 0, 0.25, 0.0625, 0.3125, 0.125, 0.3775, 0.1875, 0, 0.25, 0.0625, 0.3125, 0.125, 0.3775, 0.1875],
  "SoftwareVersions": "syngo MR E11",
  "SpacingBetweenSlices": 2.7,
  "StationName": "AWP66112",
  "TaskName": "social",
  "TotalReadoutTime": 0.03969,
  "TxRefAmp": 216.956,
  "WipMemBlock": "27090316-9279-44ec-aef8-903d077ee10b||Sequence: R016 ve11c/master r/e634e98; Dec 19 2017 11:00:25 by eja",
  "dcmmeta_affine": [
    [-2.6754584312438965, 0.03128756210207939, 0.19884254038333893, 106.42980194091797],
    [0.01419367827475071, 2.6729207038879395, -0.23253318667411804, -79.37171173095703],
    [0.19954286515712738, 0.22937428951263428, 2.6826088428497314, -74.253173828125],
    [0.0, 0.0, 0.0, 1.0]
],
  "dcmmeta_reorient_transform": [
    [0.0, -1.0, 0.0, 81.0],
    [1.0, 0.0, 0.0, 0.0],
    [0.0, 0.0, 1.0, 0.0],
    [0.0, 0.0, 0.0, 1.0]
],
  "dcmmeta_shape": [82, 82, 56, 872],
  "dcmmeta_slice_dim": 2,
  "dcmmeta_version": 0.6,
  "global": {
    "const": {
      "AccessionNumber": "A003527",
      "AcquisitionMatrix": [82, 0, 0, 82],
      "AngioFlag": "N",
      "BitsAllocated": 16,
      "BitsStored": 16,
      "BodyPartExamined": "BRAIN",
      "Columns": 656,
      "EchoNumbers": 1,
      "EchoTime": 27.2,
      "EchoTrainLength": 82,
      "FlipAngle": 44.0,
      "HighBit": 15,
      "ImageOrientationPatient": [0.99721630637992, -0.0052903707633, 0.0743750648214, 0.01166172807699, 0.99627043099687, -0.0854940490302],
      "ImagePositionPatient": [-885.80019597146, -900.18953564101, -47.112239616332],
      "ImageType": [
        "ORIGINAL",
        "PRIMARY",
        "M",
        "MB",
        "ND",
        "NORM",
        "MOSAIC"
],
      "ImagedNucleus": "1H",
      "ImagingFrequency": 123.252156,
      "InPlanePhaseEncodingDirection": "COL",
      "MRAcquisitionType": "2D",
      "MagneticFieldStrength": 3.0,
      "Manufacturer": "SIEMENS",
      "ManufacturerModelName": "Prisma",
      "Modality": "MR",
      "NumberOfAverages": 1.0,
      "NumberOfPhaseEncodingSteps": 82,
      "PercentPhaseFieldOfView": 100.0,
      "PercentSampling": 100.0,
      "PerformedProcedureStepStartTime": "144547.833000",
      "PhotometricInterpretation": "MONOCHROME2",
      "PixelBandwidth": 3050.0,
      "PixelRepresentation": 0,
      "PixelSpacing": [2.6829268932343, 2.6829268932343],
      "ProtocolName": "func_run-05_task-social_acq-ap-mb8",
      "RepetitionTime": 460.0,
      "Rows": 656,
      "SAR": 0.0757198220322,
      "SamplesPerPixel": 1,
      "ScanOptions": "FS",
      "ScanningSequence": "EP",
      "SequenceName": "epfid2d1_82",
      "SequenceVariant": [
        "SK",
        "SS"
],
      "SeriesDescription": "func_run-05_task-social_acq-ap-mb8",
      "SeriesNumber": 16,
      "SeriesTime": "154343.523000",
      "SliceLocation": -59.101071398909,
      "SliceThickness": 2.7000000476837,
      "SmallestImagePixelValue": 0,
      "SoftwareVersions": "syngo MR E11",
      "SpacingBetweenSlices": 2.6999999969183,
      "SpecificCharacterSet": "ISO_IR 100",
      "StudyID": "3",
      "StudyTime": "144547.787000",
      "TransmitCoilName": "Body",
      "VariableFlipAngleFlag": "N",
      "WindowCenterWidthExplanation": "Algo1",
      "dBdt": 0.0},
    "slices": {}
  },
  "time": {
    "samples": {
      "AcquisitionNumber": [1, 2, 3, 4, 5, 6, 7, 8, 9, 10, 11, 12, 13, 14, 15, 16, 17, 18, 19, 20, 21, 22, 23, 24, 25, 26, 27, 28, 29, 30, 31, 32, 33, 34, 35, 36, 37, 38, 39, 40, 41, 42, 43, 44, 45, 46, 47, 48, 49, 50, 51, 52, 53, 54, 55, 56, 57, 58, 59, 60, 61, 62, 63, 64, 65, 66, 67, 68, 69, 70, 71, 72, 73, 74, 75, 76, 77, 78, 79, 80, 81, 82, 83, 84, 85, 86, 87, 88, 89, 90, 91, 92, 93, 94, 95, 96, 97, 98, 99, 100, 101, 102, 103, 104, 105, 106, 107, 108, 109, 110, 111, 112, 113, 114, 115, 116, 117, 118, 119, 120, 121, 122, 123, 124, 125, 126, 127, 128, 129, 130, 131, 132, 133, 134, 135, 136, 137, 138, 139, 140, 141, 142, 143, 144, 145, 146, 147, 148, 149, 150, 151, 152, 153, 154, 155, 156, 157, 158, 159, 160, 161, 162, 163, 164, 165, 166, 167, 168, 169, 170, 171, 172, 173, 174, 175, 176, 177, 178, 179, 180, 181, 182, 183, 184, 185, 186, 187, 188, 189, 190, 191, 192, 193, 194, 195, 196, 197, 198, 199, 200, 201, 202, 203, 204, 205, 206, 207, 208, 209, 210, 211, 212, 213, 214, 215, 216, 217, 218, 219, 220, 221, 222, 223, 224, 225, 226, 227, 228, 229, 230, 231, 232, 233, 234, 235, 236, 237, 238, 239, 240, 241, 242, 243, 244, 245, 246, 247, 248, 249, 250, 251, 252, 253, 254, 255, 256, 257, 258, 259, 260, 261, 262, 263, 264, 265, 266, 267, 268, 269, 270, 271, 272, 273, 274, 275, 276, 277, 278, 279, 280, 281, 282, 283, 284, 285, 286, 287, 288, 289, 290, 291, 292, 293, 294, 295, 296, 297, 298, 299, 300, 301, 302, 303, 304, 305, 306, 307, 308, 309, 310, 311, 312, 313, 314, 315, 316, 317, 318, 319, 320, 321, 322, 323, 324, 325, 326, 327, 328, 329, 330, 331, 332, 333, 334, 335, 336, 337, 338, 339, 340, 341, 342, 343, 344, 345, 346, 347, 348, 349, 350, 351, 352, 353, 354, 355, 356, 357, 358, 359, 360, 361, 362, 363, 364, 365, 366, 367, 368, 369, 370, 371, 372, 373, 374, 375, 376, 377, 378, 379, 380, 381, 382, 383, 384, 385, 386, 387, 388, 389, 390, 391, 392, 393, 394, 395, 396, 397, 398, 399, 400, 401, 402, 403, 404, 405, 406, 407, 408, 409, 410, 411, 412, 413, 414, 415, 416, 417, 418, 419, 420, 421, 422, 423, 424, 425, 426, 427, 428, 429, 430, 431, 432, 433, 434, 435, 436, 437, 438, 439, 440, 441, 442, 443, 444, 445, 446, 447, 448, 449, 450, 451, 452, 453, 454, 455, 456, 457, 458, 459, 460, 461, 462, 463, 464, 465, 466, 467, 468, 469, 470, 471, 472, 473, 474, 475, 476, 477, 478, 479, 480, 481, 482, 483, 484, 485, 486, 487, 488, 489, 490, 491, 492, 493, 494, 495, 496, 497, 498, 499, 500, 501, 502, 503, 504, 505, 506, 507, 508, 509, 510, 511, 512, 513, 514, 515, 516, 517, 518, 519, 520, 521, 522, 523, 524, 525, 526, 527, 528, 529, 530, 531, 532, 533, 534, 535, 536, 537, 538, 539, 540, 541, 542, 543, 544, 545, 546, 547, 548, 549, 550, 551, 552, 553, 554, 555, 556, 557, 558, 559, 560, 561, 562, 563, 564, 565, 566, 567, 568, 569, 570, 571, 572, 573, 574, 575, 576, 577, 578, 579, 580, 581, 582, 583, 584, 585, 586, 587, 588, 589, 590, 591, 592, 593, 594, 595, 596, 597, 598, 599, 600, 601, 602, 603, 604, 605, 606, 607, 608, 609, 610, 611, 612, 613, 614, 615, 616, 617, 618, 619, 620, 621, 622, 623, 624, 625, 626, 627, 628, 629, 630, 631, 632, 633, 634, 635, 636, 637, 638, 639, 640, 641, 642, 643, 644, 645, 646, 647, 648, 649, 650, 651, 652, 653, 654, 655, 656, 657, 658, 659, 660, 661, 662, 663, 664, 665, 666, 667, 668, 669, 670, 671, 672, 673, 674, 675, 676, 677, 678, 679, 680, 681, 682, 683, 684, 685, 686, 687, 688, 689, 690, 691, 692, 693, 694, 695, 696, 697, 698, 699, 700, 701, 702, 703, 704, 705, 706, 707, 708, 709, 710, 711, 712, 713, 714, 715, 716, 717, 718, 719, 720, 721, 722, 723, 724, 725, 726, 727, 728, 729, 730, 731, 732, 733, 734, 735, 736, 737, 738, 739, 740, 741, 742, 743, 744, 745, 746, 747, 748, 749, 750, 751, 752, 753, 754, 755, 756, 757, 758, 759, 760, 761, 762, 763, 764, 765, 766, 767, 768, 769, 770, 771, 772, 773, 774, 775, 776, 777, 778, 779, 780, 781, 782, 783, 784, 785, 786, 787, 788, 789, 790, 791, 792, 793, 794, 795, 796, 797, 798, 799, 800, 801, 802, 803, 804, 805, 806, 807, 808, 809, 810, 811, 812, 813, 814, 815, 816, 817, 818, 819, 820, 821, 822, 823, 824, 825, 826, 827, 828, 829, 830, 831, 832, 833, 834, 835, 836, 837, 838, 839, 840, 841, 842, 843, 844, 845, 846, 847, 848, 849, 850, 851, 852, 853, 854, 855, 856, 857, 858, 859, 860, 861, 862, 863, 864, 865, 866, 867, 868, 869, 870, 871, 872],
      "AcquisitionTime": ["154328.282500", "154328.742500", "154329.202500", "154329.662500", "154330.122500", "154330.582500", "154331.042500", "154331.502500", "154331.962500", "154332.422500", "154332.882500", "154333.342500", "154333.802500", "154334.262500", "154334.722500", "154335.182500", "154335.642500", "154336.102500", "154336.562500", "154337.022500", "154337.482500", "154337.942500", "154338.402500", "154338.862500", "154339.322500", "154339.782500", "154340.242500", "154340.702500", "154341.162500", "154341.622500", "154342.082500", "154342.542500", "154343.002500", "154343.462500", "154343.922500", "154344.382500", "154344.842500", "154345.302500", "154345.762500", "154346.222500", "154346.682500", "154347.142500", "154347.602500", "154348.062500", "154348.522500", "154348.982500", "154349.442500", "154349.902500", "154350.362500", "154350.822500", "154351.282500", "154351.742500", "154352.202500", "154352.662500", "154353.122500", "154353.582500", "154354.042500", "154354.502500", "154354.962500", "154355.422500", "154355.882500", "154356.342500", "154356.802500", "154357.262500", "154357.722500", "154358.182500", "154358.642500", "154359.102500", "154359.562500", "154400.022500", "154400.482500", "154400.942500", "154401.402500", "154401.862500", "154402.322500", "154402.782500", "154403.242500", "154403.702500", "154404.162500", "154404.622500", "154405.082500", "154405.542500", "154406.002500", "154406.462500", "154406.922500", "154407.382500", "154407.842500", "154408.302500", "154408.762500", "154409.222500", "154409.682500", "154410.142500", "154410.602500", "154411.062500", "154411.522500", "154411.982500", "154412.442500", "154412.902500", "154413.362500", "154413.822500", "154414.282500", "154414.742500", "154415.202500", "154415.662500", "154416.122500", "154416.582500", "154417.042500", "154417.502500", "154417.962500", "154418.422500", "154418.882500", "154419.342500", "154419.802500", "154420.262500", "154420.722500", "154421.182500", "154421.642500", "154422.102500", "154422.562500", "154423.022500", "154423.482500", "154423.942500", "154424.402500", "154424.862500", "154425.322500", "154425.782500", "154426.242500", "154426.702500", "154427.162500", "154427.622500", "154428.082500", "154428.542500", "154429.002500", "154429.462500", "154429.922500", "154430.382500", "154430.842500", "154431.302500", "154431.762500", "154432.222500", "154432.682500", "154433.142500", "154433.602500", "154434.062500", "154434.522500", "154434.982500", "154435.442500", "154435.902500", "154436.362500", "154436.822500", "154437.282500", "154437.742500", "154438.202500", "154438.662500", "154439.122500", "154439.582500", "154440.042500", "154440.502500", "154440.962500", "154441.422500", "154441.882500", "154442.342500", "154442.802500", "154443.262500", "154443.722500", "154444.182500", "154444.642500", "154445.102500", "154445.562500", "154446.022500", "154446.482500", "154446.942500", "154447.402500", "154447.862500", "154448.322500", "154448.782500", "154449.242500", "154449.702500", "154450.162500", "154450.622500", "154451.082500", "154451.542500", "154452.002500", "154452.462500", "154452.922500", "154453.382500", "154453.842500", "154454.302500", "154454.762500", "154455.222500", "154455.682500", "154456.142500", "154456.602500", "154457.062500", "154457.522500", "154457.982500", "154458.442500", "154458.902500", "154459.362500", "154459.822500", "154500.282500", "154500.742500", "154501.202500", "154501.662500", "154502.122500", "154502.582500", "154503.042500", "154503.502500", "154503.962500", "154504.422500", "154504.882500", "154505.342500", "154505.802500", "154506.262500", "154506.722500", "154507.182500", "154507.642500", "154508.102500", "154508.562500", "154509.022500", "154509.482500", "154509.942500", "154510.402500", "154510.862500", "154511.322500", "154511.782500", "154512.242500", "154512.702500", "154513.162500", "154513.622500", "154514.082500", "154514.542500", "154515.002500", "154515.462500", "154515.922500", "154516.382500", "154516.842500", "154517.302500", "154517.762500", "154518.222500", "154518.682500", "154519.142500", "154519.602500", "154520.062500", "154520.522500", "154520.982500", "154521.442500", "154521.902500", "154522.362500", "154522.822500", "154523.282500", "154523.742500", "154524.202500", "154524.662500", "154525.122500", "154525.582500", "154526.042500", "154526.502500", "154526.962500", "154527.422500", "154527.882500", "154528.342500", "154528.802500", "154529.262500", "154529.722500", "154530.182500", "154530.642500", "154531.102500", "154531.562500", "154532.022500", "154532.482500", "154532.942500", "154533.402500", "154533.862500", "154534.322500", "154534.782500", "154535.242500", "154535.702500", "154536.162500", "154536.622500", "154537.082500", "154537.542500", "154538.002500", "154538.462500", "154538.922500", "154539.382500", "154539.842500", "154540.302500", "154540.762500", "154541.222500", "154541.682500", "154542.142500", "154542.602500", "154543.062500", "154543.522500", "154543.982500", "154544.442500", "154544.902500", "154545.362500", "154545.822500", "154546.282500", "154546.742500", "154547.202500", "154547.662500", "154548.122500", "154548.582500", "154549.042500", "154549.502500", "154549.962500", "154550.422500", "154550.882500", "154551.342500", "154551.802500", "154552.262500", "154552.722500", "154553.182500", "154553.642500", "154554.102500", "154554.562500", "154555.022500", "154555.482500", "154555.942500", "154556.402500", "154556.862500", "154557.322500", "154557.782500", "154558.242500", "154558.702500", "154559.162500", "154559.622500", "154600.082500", "154600.542500", "154601.002500", "154601.462500", "154601.922500", "154602.382500", "154602.842500", "154603.302500", "154603.762500", "154604.222500", "154604.682500", "154605.142500", "154605.602500", "154606.062500", "154606.522500", "154606.982500", "154607.442500", "154607.902500", "154608.362500", "154608.822500", "154609.282500", "154609.742500", "154610.202500", "154610.662500", "154611.122500", "154611.582500", "154612.042500", "154612.502500", "154612.962500", "154613.422500", "154613.882500", "154614.342500", "154614.802500", "154615.262500", "154615.722500", "154616.182500", "154616.642500", "154617.102500", "154617.562500", "154618.022500", "154618.482500", "154618.942500", "154619.402500", "154619.862500", "154620.322500", "154620.782500", "154621.242500", "154621.702500", "154622.162500", "154622.622500", "154623.082500", "154623.542500", "154624.002500", "154624.462500", "154624.922500", "154625.382500", "154625.842500", "154626.302500", "154626.762500", "154627.222500", "154627.682500", "154628.142500", "154628.602500", "154629.062500", "154629.522500", "154629.982500", "154630.442500", "154630.902500", "154631.362500", "154631.822500", "154632.282500", "154632.742500", "154633.202500", "154633.662500", "154634.122500", "154634.582500", "154635.042500", "154635.502500", "154635.962500", "154636.422500", "154636.882500", "154637.342500", "154637.802500", "154638.262500", "154638.722500", "154639.182500", "154639.642500", "154640.102500", "154640.562500", "154641.022500", "154641.482500", "154641.942500", "154642.402500", "154642.862500", "154643.322500", "154643.782500", "154644.242500", "154644.702500", "154645.162500", "154645.622500", "154646.082500", "154646.542500", "154647.002500", "154647.462500", "154647.922500", "154648.382500", "154648.842500", "154649.302500", "154649.762500", "154650.222500", "154650.682500", "154651.142500", "154651.602500", "154652.062500", "154652.522500", "154652.982500", "154653.442500", "154653.902500", "154654.362500", "154654.822500", "154655.282500", "154655.742500", "154656.202500", "154656.662500", "154657.122500", "154657.582500", "154658.042500", "154658.502500", "154658.962500", "154659.422500", "154659.882500", "154700.342500", "154700.802500", "154701.262500", "154701.722500", "154702.182500", "154702.642500", "154703.102500", "154703.562500", "154704.022500", "154704.482500", "154704.942500", "154705.402500", "154705.862500", "154706.322500", "154706.782500", "154707.242500", "154707.702500", "154708.162500", "154708.622500", "154709.082500", "154709.542500", "154710.002500", "154710.462500", "154710.922500", "154711.382500", "154711.842500", "154712.302500", "154712.762500", "154713.222500", "154713.682500", "154714.142500", "154714.602500", "154715.062500", "154715.522500", "154715.982500", "154716.442500", "154716.902500", "154717.362500", "154717.822500", "154718.282500", "154718.742500", "154719.202500", "154719.662500", "154720.122500", "154720.582500", "154721.042500", "154721.502500", "154721.962500", "154722.422500", "154722.882500", "154723.342500", "154723.802500", "154724.262500", "154724.722500", "154725.182500", "154725.642500", "154726.102500", "154726.562500", "154727.022500", "154727.482500", "154727.942500", "154728.402500", "154728.862500", "154729.322500", "154729.782500", "154730.242500", "154730.702500", "154731.162500", "154731.622500", "154732.082500", "154732.542500", "154733.002500", "154733.462500", "154733.922500", "154734.382500", "154734.842500", "154735.302500", "154735.762500", "154736.222500", "154736.682500", "154737.142500", "154737.602500", "154738.062500", "154738.522500", "154738.982500", "154739.442500", "154739.902500", "154740.362500", "154740.822500", "154741.282500", "154741.742500", "154742.202500", "154742.662500", "154743.122500", "154743.582500", "154744.042500", "154744.502500", "154744.962500", "154745.422500", "154745.882500", "154746.342500", "154746.802500", "154747.262500", "154747.722500", "154748.182500", "154748.642500", "154749.102500", "154749.562500", "154750.022500", "154750.482500", "154750.942500", "154751.402500", "154751.862500", "154752.322500", "154752.782500", "154753.242500", "154753.702500", "154754.162500", "154754.622500", "154755.082500", "154755.542500", "154756.002500", "154756.462500", "154756.922500", "154757.382500", "154757.842500", "154758.302500", "154758.762500", "154759.222500", "154759.682500", "154800.142500", "154800.602500", "154801.062500", "154801.522500", "154801.982500", "154802.442500", "154802.902500", "154803.362500", "154803.822500", "154804.282500", "154804.742500", "154805.202500", "154805.662500", "154806.122500", "154806.582500", "154807.042500", "154807.502500", "154807.962500", "154808.422500", "154808.882500", "154809.342500", "154809.802500", "154810.262500", "154810.722500", "154811.182500", "154811.642500", "154812.102500", "154812.562500", "154813.022500", "154813.482500", "154813.942500", "154814.402500", "154814.862500", "154815.322500", "154815.782500", "154816.242500", "154816.702500", "154817.162500", "154817.622500", "154818.082500", "154818.542500", "154819.002500", "154819.462500", "154819.922500", "154820.382500", "154820.842500", "154821.302500", "154821.762500", "154822.222500", "154822.682500", "154823.142500", "154823.602500", "154824.062500", "154824.522500", "154824.982500", "154825.442500", "154825.902500", "154826.362500", "154826.822500", "154827.282500", "154827.742500", "154828.202500", "154828.662500", "154829.122500", "154829.582500", "154830.042500", "154830.502500", "154830.962500", "154831.422500", "154831.882500", "154832.342500", "154832.802500", "154833.262500", "154833.722500", "154834.182500", "154834.642500", "154835.102500", "154835.562500", "154836.022500", "154836.482500", "154836.942500", "154837.402500", "154837.862500", "154838.322500", "154838.782500", "154839.242500", "154839.702500", "154840.162500", "154840.622500", "154841.082500", "154841.542500", "154842.002500", "154842.462500", "154842.922500", "154843.382500", "154843.842500", "154844.302500", "154844.762500", "154845.222500", "154845.682500", "154846.142500", "154846.602500", "154847.062500", "154847.522500", "154847.982500", "154848.442500", "154848.902500", "154849.362500", "154849.822500", "154850.282500", "154850.742500", "154851.202500", "154851.662500", "154852.122500", "154852.582500", "154853.042500", "154853.502500", "154853.962500", "154854.422500", "154854.882500", "154855.342500", "154855.802500", "154856.262500", "154856.722500", "154857.182500", "154857.642500", "154858.102500", "154858.562500", "154859.022500", "154859.482500", "154859.942500", "154900.402500", "154900.862500", "154901.322500", "154901.782500", "154902.242500", "154902.702500", "154903.162500", "154903.622500", "154904.082500", "154904.542500", "154905.002500", "154905.462500", "154905.922500", "154906.382500", "154906.842500", "154907.302500", "154907.762500", "154908.222500", "154908.682500", "154909.142500", "154909.602500", "154910.062500", "154910.522500", "154910.982500", "154911.442500", "154911.902500", "154912.362500", "154912.822500", "154913.282500", "154913.742500", "154914.202500", "154914.662500", "154915.122500", "154915.582500", "154916.042500", "154916.502500", "154916.962500", "154917.422500", "154917.882500", "154918.342500", "154918.802500", "154919.262500", "154919.722500", "154920.182500", "154920.642500", "154921.102500", "154921.562500", "154922.022500", "154922.482500", "154922.942500", "154923.402500", "154923.862500", "154924.322500", "154924.782500", "154925.242500", "154925.702500", "154926.162500", "154926.622500", "154927.082500", "154927.542500", "154928.002500", "154928.462500", "154928.922500", "154929.382500", "154929.842500", "154930.302500", "154930.762500", "154931.222500", "154931.682500", "154932.142500", "154932.602500", "154933.062500", "154933.522500", "154933.982500", "154934.442500", "154934.902500", "154935.362500", "154935.822500", "154936.282500", "154936.742500", "154937.202500", "154937.662500", "154938.122500", "154938.582500", "154939.042500", "154939.502500", "154939.962500", "154940.422500", "154940.882500", "154941.342500", "154941.802500", "154942.262500", "154942.722500", "154943.182500", "154943.642500", "154944.102500", "154944.562500", "154945.022500", "154945.482500", "154945.942500", "154946.402500", "154946.862500", "154947.322500", "154947.782500", "154948.242500", "154948.702500", "154949.162500", "154949.622500", "154950.082500", "154950.542500", "154951.002500", "154951.462500", "154951.922500", "154952.382500", "154952.842500", "154953.302500", "154953.762500", "154954.222500", "154954.682500", "154955.142500", "154955.602500", "154956.062500", "154956.522500", "154956.982500", "154957.442500", "154957.902500", "154958.362500", "154958.822500", "154959.282500", "154959.742500", "155000.202500", "155000.662500", "155001.122500", "155001.582500", "155002.042500", "155002.502500", "155002.962500", "155003.422500", "155003.882500", "155004.342500", "155004.802500", "155005.262500", "155005.722500", "155006.182500", "155006.642500", "155007.102500", "155007.562500", "155008.022500", "155008.482500", "155008.942500"],
