{
  "AcquisitionMatrixPE": 82,
  "AcquisitionNumber": 1,
  "AcquisitionTime": "16:37:57.017500",
  "BandwidthPerPixelPhaseEncode": 24.888,
  "BaseResolution": 82,
  "BodyPartExamined": "BRAIN",
  "ConsistencyInfo": "N4_VE11C_LATEST_20160120",
  "ConversionSoftware": "dcm2niix",
  "ConversionSoftwareVersion": "v1.0.20201102",
  "DerivedVendorReportedEchoSpacing": 0.00049,
  "DeviceSerialNumber": "66112",
  "DwellTime": 2e-06,
  "EchoTime": 0.0272,
  "EchoTrainLength": 82,
  "EffectiveEchoSpacing": 0.00049,
  "FlipAngle": 44,
  "ImageComments": "Unaliased MB8/PE3",
  "ImageOrientationPatientDICOM": [0.999253, -0.00506796, 0.0383053, 0.00872033, 0.995363, -0.0957924],
  "ImageType": [
    "ORIGINAL",
    "PRIMARY",
    "M",
    "MB",
    "ND",
    "NORM",
    "MOSAIC"
],
  "ImagingFrequency": 123.252,
  "InPlanePhaseEncodingDirectionDICOM": "COL",
  "InstitutionAddress": "Maynard 3,Hanover,NH,US,03755",
  "InstitutionName": "Dartmouth College - PBS",
  "InstitutionalDepartmentName": "Department",
  "MRAcquisitionType": "2D",
  "MagneticFieldStrength": 3,
  "Manufacturer": "Siemens",
  "ManufacturersModelName": "Prisma",
  "Modality": "MR",
  "MultibandAccelerationFactor": 8,
  "PartialFourier": 1,
  "PatientPosition": "HFS",
  "PercentPhaseFOV": 100,
  "PercentSampling": 100,
  "PhaseEncodingDirection": "j-",
  "PhaseEncodingSteps": 82,
  "PhaseResolution": 1,
  "PixelBandwidth": 3050,
  "ProcedureStepDescription": "Wager_Wager^1076_spacetop",
  "ProtocolName": "func_run-03_task-alignvideo_acq-ap-mb8",
  "PulseSequenceDetails": "%CustomerSeq%\\cmrr_mbep2d_bold",
  "ReceiveCoilActiveElements": "HEA;HEP",
  "ReceiveCoilName": "Head_32",
  "ReconMatrixPE": 82,
  "RepetitionTime": 0.46,
  "SAR": 0.0758052,
  "ScanOptions": "FS",
  "ScanningSequence": "EP",
  "SequenceName": "epfid2d1_82",
  "SequenceVariant": "SK\\SS",
  "SeriesDescription": "func_run-03_task-alignvideo_acq-ap-mb8",
  "SeriesNumber": 32,
  "ShimSetting": [4168, -7739, -7239, 566, -39, -123, 8, 71],
  "SliceThickness": 2.7,
  "SliceTiming": [0, 0.2525, 0.065, 0.315, 0.1275, 0.3775, 0.19, 0, 0.2525, 0.065, 0.315, 0.1275, 0.3775, 0.19, 0, 0.2525, 0.065, 0.315, 0.1275, 0.3775, 0.19, 0, 0.2525, 0.065, 0.315, 0.1275, 0.3775, 0.19, 0, 0.2525, 0.065, 0.315, 0.1275, 0.3775, 0.19, 0, 0.2525, 0.065, 0.315, 0.1275, 0.3775, 0.19, 0, 0.2525, 0.065, 0.315, 0.1275, 0.3775, 0.19, 0, 0.2525, 0.065, 0.315, 0.1275, 0.3775, 0.19],
  "SoftwareVersions": "syngo MR E11",
  "SpacingBetweenSlices": 2.7,
  "StationName": "AWP66112",
  "TaskName": "alignvideo",
  "TotalReadoutTime": 0.03969,
  "TxRefAmp": 216.956,
  "WipMemBlock": "1769bfc8-768b-4597-bf8e-a2be4e40cbd6||Sequence: R016 ve11c/master r/e634e98; Dec 19 2017 11:00:25 by eja",
  "dcmmeta_affine": [
    [-2.6809234619140625, 0.023396000266075134, 0.10163387656211853, 109.1491928100586],
    [0.013596970587968826, 2.6704864501953125, -0.25934821367263794, -87.98818969726562],
    [0.10277022421360016, 0.2570039927959442, 2.6855928897857666, -69.30348205566406],
    [0.0, 0.0, 0.0, 1.0]
],
  "dcmmeta_reorient_transform": [
    [0.0, -1.0, 0.0, 81.0],
    [1.0, 0.0, 0.0, 0.0],
    [0.0, 0.0, 1.0, 0.0],
    [0.0, 0.0, 0.0, 1.0]
],
  "dcmmeta_shape": [82, 82, 56, 1065],
  "dcmmeta_slice_dim": 2,
  "dcmmeta_version": 0.6,
  "global": {
    "const": {
      "AccessionNumber": "A003527",
      "AcquisitionMatrix": [82, 0, 0, 82],
      "AngioFlag": "N",
      "BitsAllocated": 16,
      "BitsStored": 16,
      "BodyPartExamined": "BRAIN",
      "Columns": 656,
      "EchoNumbers": 1,
      "EchoTime": 27.2,
      "EchoTrainLength": 82,
      "FlipAngle": 44.0,
      "HighBit": 15,
      "ImageOrientationPatient": [0.99925323245623, -0.0050679616147, 0.03830526322653, 0.00872032714466, 0.99536313618706, -0.095792395389],
      "ImagePositionPatient": [-887.18393181051, -890.84852256982, -4.221068279506],
      "ImageType": [
        "ORIGINAL",
        "PRIMARY",
        "M",
        "MB",
        "ND",
        "NORM",
        "MOSAIC"
],
      "ImagedNucleus": "1H",
      "ImagingFrequency": 123.252163,
      "InPlanePhaseEncodingDirection": "COL",
      "MRAcquisitionType": "2D",
      "MagneticFieldStrength": 3.0,
      "Manufacturer": "SIEMENS",
      "ManufacturerModelName": "Prisma",
      "Modality": "MR",
      "NumberOfAverages": 1.0,
      "NumberOfPhaseEncodingSteps": 82,
      "PercentPhaseFieldOfView": 100.0,
      "PercentSampling": 100.0,
      "PerformedProcedureStepStartTime": "144547.833000",
      "PhotometricInterpretation": "MONOCHROME2",
      "PixelBandwidth": 3050.0,
      "PixelRepresentation": 0,
      "PixelSpacing": [2.6829268932343, 2.6829268932343],
      "ProtocolName": "func_run-03_task-alignvideo_acq-ap-mb8",
      "RepetitionTime": 460.0,
      "Rows": 656,
      "SAR": 0.07580523493897,
      "SamplesPerPixel": 1,
      "ScanOptions": "FS",
      "ScanningSequence": "EP",
      "SequenceName": "epfid2d1_82",
      "SequenceVariant": [
        "SK",
        "SS"
],
      "SeriesDescription": "func_run-03_task-alignvideo_acq-ap-mb8",
      "SeriesNumber": 32,
      "SeriesTime": "163823.449000",
      "SliceLocation": -56.373373608599,
      "SliceThickness": 2.7000000476837,
      "SmallestImagePixelValue": 0,
      "SoftwareVersions": "syngo MR E11",
      "SpacingBetweenSlices": 2.7000000603101,
      "SpecificCharacterSet": "ISO_IR 100",
      "StudyID": "3",
      "StudyTime": "144547.787000",
      "TransmitCoilName": "Body",
      "VariableFlipAngleFlag": "N",
      "WindowCenterWidthExplanation": "Algo1",
      "dBdt": 0.0},
    "slices": {}
  },
  "time": {
    "samples": {
      "AcquisitionNumber": [1, 2, 3, 4, 5, 6, 7, 8, 9, 10, 11, 12, 13, 14, 15, 16, 17, 18, 19, 20, 21, 22, 23, 24, 25, 26, 27, 28, 29, 30, 31, 32, 33, 34, 35, 36, 37, 38, 39, 40, 41, 42, 43, 44, 45, 46, 47, 48, 49, 50, 51, 52, 53, 54, 55, 56, 57, 58, 59, 60, 61, 62, 63, 64, 65, 66, 67, 68, 69, 70, 71, 72, 73, 74, 75, 76, 77, 78, 79, 80, 81, 82, 83, 84, 85, 86, 87, 88, 89, 90, 91, 92, 93, 94, 95, 96, 97, 98, 99, 100, 101, 102, 103, 104, 105, 106, 107, 108, 109, 110, 111, 112, 113, 114, 115, 116, 117, 118, 119, 120, 121, 122, 123, 124, 125, 126, 127, 128, 129, 130, 131, 132, 133, 134, 135, 136, 137, 138, 139, 140, 141, 142, 143, 144, 145, 146, 147, 148, 149, 150, 151, 152, 153, 154, 155, 156, 157, 158, 159, 160, 161, 162, 163, 164, 165, 166, 167, 168, 169, 170, 171, 172, 173, 174, 175, 176, 177, 178, 179, 180, 181, 182, 183, 184, 185, 186, 187, 188, 189, 190, 191, 192, 193, 194, 195, 196, 197, 198, 199, 200, 201, 202, 203, 204, 205, 206, 207, 208, 209, 210, 211, 212, 213, 214, 215, 216, 217, 218, 219, 220, 221, 222, 223, 224, 225, 226, 227, 228, 229, 230, 231, 232, 233, 234, 235, 236, 237, 238, 239, 240, 241, 242, 243, 244, 245, 246, 247, 248, 249, 250, 251, 252, 253, 254, 255, 256, 257, 258, 259, 260, 261, 262, 263, 264, 265, 266, 267, 268, 269, 270, 271, 272, 273, 274, 275, 276, 277, 278, 279, 280, 281, 282, 283, 284, 285, 286, 287, 288, 289, 290, 291, 292, 293, 294, 295, 296, 297, 298, 299, 300, 301, 302, 303, 304, 305, 306, 307, 308, 309, 310, 311, 312, 313, 314, 315, 316, 317, 318, 319, 320, 321, 322, 323, 324, 325, 326, 327, 328, 329, 330, 331, 332, 333, 334, 335, 336, 337, 338, 339, 340, 341, 342, 343, 344, 345, 346, 347, 348, 349, 350, 351, 352, 353, 354, 355, 356, 357, 358, 359, 360, 361, 362, 363, 364, 365, 366, 367, 368, 369, 370, 371, 372, 373, 374, 375, 376, 377, 378, 379, 380, 381, 382, 383, 384, 385, 386, 387, 388, 389, 390, 391, 392, 393, 394, 395, 396, 397, 398, 399, 400, 401, 402, 403, 404, 405, 406, 407, 408, 409, 410, 411, 412, 413, 414, 415, 416, 417, 418, 419, 420, 421, 422, 423, 424, 425, 426, 427, 428, 429, 430, 431, 432, 433, 434, 435, 436, 437, 438, 439, 440, 441, 442, 443, 444, 445, 446, 447, 448, 449, 450, 451, 452, 453, 454, 455, 456, 457, 458, 459, 460, 461, 462, 463, 464, 465, 466, 467, 468, 469, 470, 471, 472, 473, 474, 475, 476, 477, 478, 479, 480, 481, 482, 483, 484, 485, 486, 487, 488, 489, 490, 491, 492, 493, 494, 495, 496, 497, 498, 499, 500, 501, 502, 503, 504, 505, 506, 507, 508, 509, 510, 511, 512, 513, 514, 515, 516, 517, 518, 519, 520, 521, 522, 523, 524, 525, 526, 527, 528, 529, 530, 531, 532, 533, 534, 535, 536, 537, 538, 539, 540, 541, 542, 543, 544, 545, 546, 547, 548, 549, 550, 551, 552, 553, 554, 555, 556, 557, 558, 559, 560, 561, 562, 563, 564, 565, 566, 567, 568, 569, 570, 571, 572, 573, 574, 575, 576, 577, 578, 579, 580, 581, 582, 583, 584, 585, 586, 587, 588, 589, 590, 591, 592, 593, 594, 595, 596, 597, 598, 599, 600, 601, 602, 603, 604, 605, 606, 607, 608, 609, 610, 611, 612, 613, 614, 615, 616, 617, 618, 619, 620, 621, 622, 623, 624, 625, 626, 627, 628, 629, 630, 631, 632, 633, 634, 635, 636, 637, 638, 639, 640, 641, 642, 643, 644, 645, 646, 647, 648, 649, 650, 651, 652, 653, 654, 655, 656, 657, 658, 659, 660, 661, 662, 663, 664, 665, 666, 667, 668, 669, 670, 671, 672, 673, 674, 675, 676, 677, 678, 679, 680, 681, 682, 683, 684, 685, 686, 687, 688, 689, 690, 691, 692, 693, 694, 695, 696, 697, 698, 699, 700, 701, 702, 703, 704, 705, 706, 707, 708, 709, 710, 711, 712, 713, 714, 715, 716, 717, 718, 719, 720, 721, 722, 723, 724, 725, 726, 727, 728, 729, 730, 731, 732, 733, 734, 735, 736, 737, 738, 739, 740, 741, 742, 743, 744, 745, 746, 747, 748, 749, 750, 751, 752, 753, 754, 755, 756, 757, 758, 759, 760, 761, 762, 763, 764, 765, 766, 767, 768, 769, 770, 771, 772, 773, 774, 775, 776, 777, 778, 779, 780, 781, 782, 783, 784, 785, 786, 787, 788, 789, 790, 791, 792, 793, 794, 795, 796, 797, 798, 799, 800, 801, 802, 803, 804, 805, 806, 807, 808, 809, 810, 811, 812, 813, 814, 815, 816, 817, 818, 819, 820, 821, 822, 823, 824, 825, 826, 827, 828, 829, 830, 831, 832, 833, 834, 835, 836, 837, 838, 839, 840, 841, 842, 843, 844, 845, 846, 847, 848, 849, 850, 851, 852, 853, 854, 855, 856, 857, 858, 859, 860, 861, 862, 863, 864, 865, 866, 867, 868, 869, 870, 871, 872, 873, 874, 875, 876, 877, 878, 879, 880, 881, 882, 883, 884, 885, 886, 887, 888, 889, 890, 891, 892, 893, 894, 895, 896, 897, 898, 899, 900, 901, 902, 903, 904, 905, 906, 907, 908, 909, 910, 911, 912, 913, 914, 915, 916, 917, 918, 919, 920, 921, 922, 923, 924, 925, 926, 927, 928, 929, 930, 931, 932, 933, 934, 935, 936, 937, 938, 939, 940, 941, 942, 943, 944, 945, 946, 947, 948, 949, 950, 951, 952, 953, 954, 955, 956, 957, 958, 959, 960, 961, 962, 963, 964, 965, 966, 967, 968, 969, 970, 971, 972, 973, 974, 975, 976, 977, 978, 979, 980, 981, 982, 983, 984, 985, 986, 987, 988, 989, 990, 991, 992, 993, 994, 995, 996, 997, 998, 999, 1000, 1001, 1002, 1003, 1004, 1005, 1006, 1007, 1008, 1009, 1010, 1011, 1012, 1013, 1014, 1015, 1016, 1017, 1018, 1019, 1020, 1021, 1022, 1023, 1024, 1025, 1026, 1027, 1028, 1029, 1030, 1031, 1032, 1033, 1034, 1035, 1036, 1037, 1038, 1039, 1040, 1041, 1042, 1043, 1044, 1045, 1046, 1047, 1048, 1049, 1050, 1051, 1052, 1053, 1054, 1055, 1056, 1057, 1058, 1059, 1060, 1061, 1062, 1063, 1064, 1065],
      "AcquisitionTime": ["163757.017500", "163757.477500", "163757.937500", "163758.397500", "163758.857500", "163759.317500", "163759.777500", "163800.237500", "163800.697500", "163801.157500", "163801.617500", "163802.077500", "163802.537500", "163802.997500", "163803.457500", "163803.917500", "163804.377500", "163804.837500", "163805.297500", "163805.757500", "163806.217500", "163806.677500", "163807.137500", "163807.597500", "163808.057500", "163808.517500", "163808.977500", "163809.437500", "163809.897500", "163810.357500", "163810.817500", "163811.277500", "163811.737500", "163812.197500", "163812.657500", "163813.117500", "163813.577500", "163814.037500", "163814.497500", "163814.957500", "163815.417500", "163815.877500", "163816.337500", "163816.797500", "163817.257500", "163817.717500", "163818.177500", "163818.637500", "163819.097500", "163819.557500", "163820.017500", "163820.477500", "163820.937500", "163821.397500", "163821.857500", "163822.317500", "163822.777500", "163823.237500", "163823.697500", "163824.157500", "163824.617500", "163825.077500", "163825.537500", "163825.997500", "163826.457500", "163826.917500", "163827.377500", "163827.837500", "163828.297500", "163828.757500", "163829.217500", "163829.677500", "163830.137500", "163830.597500", "163831.057500", "163831.517500", "163831.977500", "163832.437500", "163832.897500", "163833.357500", "163833.817500", "163834.277500", "163834.737500", "163835.197500", "163835.657500", "163836.117500", "163836.577500", "163837.037500", "163837.497500", "163837.957500", "163838.417500", "163838.877500", "163839.337500", "163839.797500", "163840.257500", "163840.717500", "163841.177500", "163841.637500", "163842.097500", "163842.557500", "163843.017500", "163843.477500", "163843.937500", "163844.397500", "163844.857500", "163845.317500", "163845.777500", "163846.237500", "163846.697500", "163847.157500", "163847.617500", "163848.077500", "163848.537500", "163848.997500", "163849.457500", "163849.917500", "163850.377500", "163850.837500", "163851.297500", "163851.757500", "163852.217500", "163852.677500", "163853.137500", "163853.597500", "163854.057500", "163854.517500", "163854.977500", "163855.437500", "163855.897500", "163856.357500", "163856.817500", "163857.277500", "163857.737500", "163858.197500", "163858.657500", "163859.117500", "163859.577500", "163900.037500", "163900.497500", "163900.957500", "163901.417500", "163901.877500", "163902.337500", "163902.797500", "163903.257500", "163903.717500", "163904.177500", "163904.637500", "163905.097500", "163905.557500", "163906.017500", "163906.477500", "163906.937500", "163907.397500", "163907.857500", "163908.317500", "163908.777500", "163909.237500", "163909.697500", "163910.157500", "163910.617500", "163911.077500", "163911.537500", "163911.997500", "163912.457500", "163912.917500", "163913.377500", "163913.837500", "163914.297500", "163914.757500", "163915.217500", "163915.677500", "163916.137500", "163916.597500", "163917.057500", "163917.517500", "163917.977500", "163918.437500", "163918.897500", "163919.357500", "163919.817500", "163920.277500", "163920.737500", "163921.197500", "163921.657500", "163922.117500", "163922.577500", "163923.037500", "163923.497500", "163923.957500", "163924.417500", "163924.877500", "163925.337500", "163925.797500", "163926.257500", "163926.717500", "163927.177500", "163927.637500", "163928.097500", "163928.557500", "163929.017500", "163929.477500", "163929.937500", "163930.397500", "163930.857500", "163931.317500", "163931.777500", "163932.237500", "163932.697500", "163933.157500", "163933.617500", "163934.077500", "163934.537500", "163934.997500", "163935.457500", "163935.917500", "163936.377500", "163936.837500", "163937.297500", "163937.757500", "163938.217500", "163938.677500", "163939.137500", "163939.597500", "163940.057500", "163940.517500", "163940.977500", "163941.437500", "163941.897500", "163942.357500", "163942.817500", "163943.277500", "163943.737500", "163944.197500", "163944.657500", "163945.117500", "163945.577500", "163946.037500", "163946.497500", "163946.957500", "163947.417500", "163947.877500", "163948.337500", "163948.797500", "163949.257500", "163949.717500", "163950.177500", "163950.637500", "163951.097500", "163951.557500", "163952.017500", "163952.477500", "163952.937500", "163953.397500", "163953.857500", "163954.317500", "163954.777500", "163955.237500", "163955.697500", "163956.157500", "163956.617500", "163957.077500", "163957.537500", "163957.997500", "163958.457500", "163958.917500", "163959.377500", "163959.837500", "164000.297500", "164000.757500", "164001.217500", "164001.677500", "164002.137500", "164002.597500", "164003.057500", "164003.517500", "164003.977500", "164004.437500", "164004.897500", "164005.357500", "164005.817500", "164006.277500", "164006.737500", "164007.197500", "164007.657500", "164008.117500", "164008.577500", "164009.037500", "164009.497500", "164009.957500", "164010.417500", "164010.877500", "164011.337500", "164011.797500", "164012.257500", "164012.717500", "164013.177500", "164013.637500", "164014.097500", "164014.557500", "164015.017500", "164015.477500", "164015.937500", "164016.397500", "164016.857500", "164017.317500", "164017.777500", "164018.237500", "164018.697500", "164019.157500", "164019.617500", "164020.077500", "164020.537500", "164020.997500", "164021.457500", "164021.917500", "164022.377500", "164022.837500", "164023.297500", "164023.757500", "164024.217500", "164024.677500", "164025.137500", "164025.597500", "164026.057500", "164026.517500", "164026.977500", "164027.437500", "164027.897500", "164028.357500", "164028.817500", "164029.277500", "164029.737500", "164030.197500", "164030.657500", "164031.117500", "164031.577500", "164032.037500", "164032.497500", "164032.957500", "164033.417500", "164033.877500", "164034.337500", "164034.797500", "164035.257500", "164035.717500", "164036.177500", "164036.637500", "164037.097500", "164037.557500", "164038.017500", "164038.477500", "164038.937500", "164039.397500", "164039.857500", "164040.317500", "164040.777500", "164041.237500", "164041.697500", "164042.157500", "164042.617500", "164043.077500", "164043.537500", "164043.997500", "164044.457500", "164044.917500", "164045.377500", "164045.837500", "164046.297500", "164046.757500", "164047.217500", "164047.677500", "164048.137500", "164048.597500", "164049.057500", "164049.517500", "164049.977500", "164050.437500", "164050.897500", "164051.357500", "164051.817500", "164052.277500", "164052.737500", "164053.197500", "164053.657500", "164054.117500", "164054.577500", "164055.037500", "164055.497500", "164055.957500", "164056.417500", "164056.877500", "164057.337500", "164057.797500", "164058.257500", "164058.717500", "164059.177500", "164059.637500", "164100.097500", "164100.557500", "164101.017500", "164101.477500", "164101.937500", "164102.397500", "164102.857500", "164103.317500", "164103.777500", "164104.237500", "164104.697500", "164105.157500", "164105.617500", "164106.077500", "164106.537500", "164106.997500", "164107.457500", "164107.917500", "164108.377500", "164108.837500", "164109.297500", "164109.757500", "164110.217500", "164110.677500", "164111.137500", "164111.597500", "164112.057500", "164112.517500", "164112.977500", "164113.437500", "164113.897500", "164114.357500", "164114.817500", "164115.277500", "164115.737500", "164116.197500", "164116.657500", "164117.117500", "164117.577500", "164118.037500", "164118.497500", "164118.957500", "164119.417500", "164119.877500", "164120.337500", "164120.797500", "164121.257500", "164121.717500", "164122.177500", "164122.637500", "164123.097500", "164123.557500", "164124.017500", "164124.477500", "164124.937500", "164125.397500", "164125.857500", "164126.317500", "164126.777500", "164127.237500", "164127.697500", "164128.157500", "164128.617500", "164129.077500", "164129.537500", "164129.997500", "164130.457500", "164130.917500", "164131.377500", "164131.837500", "164132.297500", "164132.757500", "164133.217500", "164133.677500", "164134.137500", "164134.597500", "164135.057500", "164135.517500", "164135.977500", "164136.437500", "164136.897500", "164137.357500", "164137.817500", "164138.277500", "164138.737500", "164139.197500", "164139.657500", "164140.117500", "164140.577500", "164141.037500", "164141.497500", "164141.957500", "164142.417500", "164142.877500", "164143.337500", "164143.797500", "164144.257500", "164144.717500", "164145.177500", "164145.637500", "164146.097500", "164146.557500", "164147.017500", "164147.477500", "164147.937500", "164148.397500", "164148.857500", "164149.317500", "164149.777500", "164150.237500", "164150.697500", "164151.157500", "164151.617500", "164152.077500", "164152.537500", "164152.997500", "164153.457500", "164153.917500", "164154.377500", "164154.837500", "164155.297500", "164155.757500", "164156.217500", "164156.677500", "164157.137500", "164157.597500", "164158.057500", "164158.517500", "164158.977500", "164159.437500", "164159.897500", "164200.357500", "164200.817500", "164201.277500", "164201.737500", "164202.197500", "164202.657500", "164203.117500", "164203.577500", "164204.037500", "164204.497500", "164204.957500", "164205.417500", "164205.877500", "164206.337500", "164206.797500", "164207.257500", "164207.717500", "164208.177500", "164208.637500", "164209.097500", "164209.557500", "164210.017500", "164210.477500", "164210.937500", "164211.397500", "164211.857500", "164212.317500", "164212.777500", "164213.237500", "164213.697500", "164214.157500", "164214.617500", "164215.077500", "164215.537500", "164215.997500", "164216.457500", "164216.917500", "164217.377500", "164217.837500", "164218.297500", "164218.757500", "164219.217500", "164219.677500", "164220.137500", "164220.597500", "164221.057500", "164221.517500", "164221.977500", "164222.437500", "164222.897500", "164223.357500", "164223.817500", "164224.277500", "164224.737500", "164225.197500", "164225.657500", "164226.117500", "164226.577500", "164227.037500", "164227.497500", "164227.957500", "164228.417500", "164228.877500", "164229.337500", "164229.797500", "164230.257500", "164230.717500", "164231.177500", "164231.637500", "164232.097500", "164232.557500", "164233.017500", "164233.477500", "164233.937500", "164234.397500", "164234.857500", "164235.317500", "164235.777500", "164236.237500", "164236.697500", "164237.157500", "164237.617500", "164238.077500", "164238.537500", "164238.997500", "164239.457500", "164239.917500", "164240.377500", "164240.837500", "164241.297500", "164241.757500", "164242.217500", "164242.677500", "164243.137500", "164243.597500", "164244.057500", "164244.517500", "164244.977500", "164245.437500", "164245.897500", "164246.357500", "164246.817500", "164247.277500", "164247.737500", "164248.197500", "164248.657500", "164249.117500", "164249.577500", "164250.037500", "164250.497500", "164250.957500", "164251.417500", "164251.877500", "164252.337500", "164252.797500", "164253.257500", "164253.717500", "164254.177500", "164254.637500", "164255.097500", "164255.557500", "164256.017500", "164256.477500", "164256.937500", "164257.397500", "164257.857500", "164258.317500", "164258.777500", "164259.237500", "164259.697500", "164300.157500", "164300.617500", "164301.077500", "164301.537500", "164301.997500", "164302.457500", "164302.917500", "164303.377500", "164303.837500", "164304.297500", "164304.757500", "164305.217500", "164305.677500", "164306.137500", "164306.597500", "164307.057500", "164307.517500", "164307.977500", "164308.437500", "164308.897500", "164309.357500", "164309.817500", "164310.277500", "164310.737500", "164311.197500", "164311.657500", "164312.117500", "164312.577500", "164313.037500", "164313.497500", "164313.957500", "164314.417500", "164314.877500", "164315.337500", "164315.797500", "164316.257500", "164316.717500", "164317.177500", "164317.637500", "164318.097500", "164318.557500", "164319.017500", "164319.477500", "164319.937500", "164320.397500", "164320.857500", "164321.317500", "164321.777500", "164322.237500", "164322.697500", "164323.157500", "164323.617500", "164324.077500", "164324.537500", "164324.997500", "164325.457500", "164325.917500", "164326.377500", "164326.837500", "164327.297500", "164327.757500", "164328.217500", "164328.677500", "164329.137500", "164329.597500", "164330.057500", "164330.517500", "164330.977500", "164331.437500", "164331.897500", "164332.357500", "164332.817500", "164333.277500", "164333.737500", "164334.197500", "164334.657500", "164335.117500", "164335.577500", "164336.037500", "164336.497500", "164336.957500", "164337.417500", "164337.877500", "164338.337500", "164338.797500", "164339.257500", "164339.717500", "164340.177500", "164340.637500", "164341.097500", "164341.557500", "164342.017500", "164342.477500", "164342.937500", "164343.397500", "164343.857500", "164344.317500", "164344.777500", "164345.237500", "164345.697500", "164346.157500", "164346.617500", "164347.077500", "164347.537500", "164347.997500", "164348.457500", "164348.917500", "164349.377500", "164349.837500", "164350.297500", "164350.757500", "164351.217500", "164351.677500", "164352.137500", "164352.597500", "164353.057500", "164353.517500", "164353.977500", "164354.437500", "164354.897500", "164355.357500", "164355.817500", "164356.277500", "164356.737500", "164357.197500", "164357.657500", "164358.117500", "164358.577500", "164359.037500", "164359.497500", "164359.957500", "164400.417500", "164400.877500", "164401.337500", "164401.797500", "164402.257500", "164402.717500", "164403.177500", "164403.637500", "164404.097500", "164404.557500", "164405.017500", "164405.477500", "164405.937500", "164406.397500", "164406.857500", "164407.317500", "164407.777500", "164408.237500", "164408.697500", "164409.157500", "164409.617500", "164410.077500", "164410.537500", "164410.997500", "164411.457500", "164411.917500", "164412.377500", "164412.837500", "164413.297500", "164413.757500", "164414.217500", "164414.677500", "164415.137500", "164415.597500", "164416.057500", "164416.517500", "164416.977500", "164417.437500", "164417.897500", "164418.357500", "164418.817500", "164419.277500", "164419.737500", "164420.197500", "164420.657500", "164421.117500", "164421.577500", "164422.037500", "164422.497500", "164422.957500", "164423.417500", "164423.877500", "164424.337500", "164424.797500", "164425.257500", "164425.717500", "164426.177500", "164426.637500", "164427.097500", "164427.557500", "164428.017500", "164428.477500", "164428.937500", "164429.397500", "164429.857500", "164430.317500", "164430.777500", "164431.237500", "164431.697500", "164432.157500", "164432.617500", "164433.077500", "164433.537500", "164433.997500", "164434.457500", "164434.917500", "164435.377500", "164435.837500", "164436.297500", "164436.757500", "164437.217500", "164437.677500", "164438.137500", "164438.597500", "164439.057500", "164439.517500", "164439.977500", "164440.437500", "164440.897500", "164441.357500", "164441.817500", "164442.277500", "164442.737500", "164443.197500", "164443.657500", "164444.117500", "164444.577500", "164445.037500", "164445.497500", "164445.957500", "164446.417500", "164446.877500", "164447.337500", "164447.797500", "164448.257500", "164448.717500", "164449.177500", "164449.637500", "164450.097500", "164450.557500", "164451.017500", "164451.477500", "164451.937500", "164452.397500", "164452.857500", "164453.317500", "164453.777500", "164454.237500", "164454.697500", "164455.157500", "164455.617500", "164456.077500", "164456.537500", "164456.997500", "164457.457500", "164457.917500", "164458.377500", "164458.837500", "164459.297500", "164459.757500", "164500.217500", "164500.677500", "164501.137500", "164501.597500", "164502.057500", "164502.517500", "164502.977500", "164503.437500", "164503.897500", "164504.357500", "164504.817500", "164505.277500", "164505.737500", "164506.197500", "164506.657500", "164507.117500", "164507.577500", "164508.037500", "164508.497500", "164508.957500", "164509.417500", "164509.877500", "164510.337500", "164510.797500", "164511.257500", "164511.717500", "164512.177500", "164512.637500", "164513.097500", "164513.557500", "164514.017500", "164514.477500", "164514.937500", "164515.397500", "164515.857500", "164516.317500", "164516.777500", "164517.237500", "164517.697500", "164518.157500", "164518.617500", "164519.077500", "164519.537500", "164519.997500", "164520.457500", "164520.917500", "164521.377500", "164521.837500", "164522.297500", "164522.757500", "164523.217500", "164523.677500", "164524.137500", "164524.597500", "164525.057500", "164525.517500", "164525.977500", "164526.437500", "164526.897500", "164527.357500", "164527.817500", "164528.277500", "164528.737500", "164529.197500", "164529.657500", "164530.117500", "164530.577500", "164531.037500", "164531.497500", "164531.957500", "164532.417500", "164532.877500", "164533.337500", "164533.797500", "164534.257500", "164534.717500", "164535.177500", "164535.637500", "164536.097500", "164536.557500", "164537.017500", "164537.477500", "164537.937500", "164538.397500", "164538.857500", "164539.317500", "164539.777500", "164540.237500", "164540.697500", "164541.157500", "164541.617500", "164542.077500", "164542.537500", "164542.997500", "164543.457500", "164543.917500", "164544.377500", "164544.837500", "164545.297500", "164545.757500", "164546.217500", "164546.677500", "164547.137500", "164547.597500", "164548.057500", "164548.517500", "164548.977500", "164549.437500", "164549.897500", "164550.357500", "164550.817500", "164551.277500", "164551.737500", "164552.197500", "164552.657500", "164553.117500", "164553.577500", "164554.037500", "164554.497500", "164554.957500", "164555.417500", "164555.877500", "164556.337500", "164556.797500", "164557.257500", "164557.717500", "164558.177500", "164558.637500", "164559.097500", "164559.557500", "164600.017500", "164600.477500", "164600.937500", "164601.397500", "164601.857500", "164602.317500", "164602.777500", "164603.237500", "164603.697500", "164604.157500", "164604.617500", "164605.077500", "164605.537500", "164605.997500", "164606.457500"],
