{
  "AcquisitionMatrixPE": 82,
  "AcquisitionNumber": 1,
  "AcquisitionTime": "15:50:28.865000",
  "BandwidthPerPixelPhaseEncode": 24.888,
  "BaseResolution": 82,
  "BodyPartExamined": "BRAIN",
  "ConsistencyInfo": "N4_VE11C_LATEST_20160120",
  "ConversionSoftware": "dcm2niix",
  "ConversionSoftwareVersion": "v1.0.20201102",
  "DerivedVendorReportedEchoSpacing": 0.00049,
  "DeviceSerialNumber": "66112",
  "DwellTime": 2e-06,
  "EchoTime": 0.0272,
  "EchoTrainLength": 82,
  "EffectiveEchoSpacing": 0.00049,
  "FlipAngle": 44,
  "ImageComments": "Unaliased MB8/PE3",
  "ImageOrientationPatientDICOM": [0.997216, -0.00529037, 0.0743751, 0.0116617, 0.99627, -0.085494],
  "ImageType": [
    "ORIGINAL",
    "PRIMARY",
    "M",
    "MB",
    "ND",
    "NORM",
    "MOSAIC"
],
  "ImagingFrequency": 123.252,
  "InPlanePhaseEncodingDirectionDICOM": "COL",
  "InstitutionAddress": "Maynard 3,Hanover,NH,US,03755",
  "InstitutionName": "Dartmouth College - PBS",
  "InstitutionalDepartmentName": "Department",
  "MRAcquisitionType": "2D",
  "MagneticFieldStrength": 3,
  "Manufacturer": "Siemens",
  "ManufacturersModelName": "Prisma",
  "Modality": "MR",
  "MultibandAccelerationFactor": 8,
  "PartialFourier": 1,
  "PatientPosition": "HFS",
  "PercentPhaseFOV": 100,
  "PercentSampling": 100,
  "PhaseEncodingDirection": "j-",
  "PhaseEncodingSteps": 82,
  "PhaseResolution": 1,
  "PixelBandwidth": 3050,
  "ProcedureStepDescription": "Wager_Wager^1076_spacetop",
  "ProtocolName": "func_run-06_task-social_acq-ap-mb8",
  "PulseSequenceDetails": "%CustomerSeq%\\cmrr_mbep2d_bold",
  "ReceiveCoilActiveElements": "HEA;HEP",
  "ReceiveCoilName": "Head_32",
  "ReconMatrixPE": 82,
  "RepetitionTime": 0.46,
  "SAR": 0.0757198,
  "ScanOptions": "FS",
  "ScanningSequence": "EP",
  "SequenceName": "epfid2d1_82",
  "SequenceVariant": "SK\\SS",
  "SeriesDescription": "func_run-06_task-social_acq-ap-mb8",
  "SeriesNumber": 18,
  "ShimSetting": [4167, -7742, -7242, 569, -33, -138, 8, 73],
  "SliceThickness": 2.7,
  "SliceTiming": [0, 0.25, 0.0625, 0.3125, 0.125, 0.375, 0.1875, 0, 0.25, 0.0625, 0.3125, 0.125, 0.375, 0.1875, 0, 0.25, 0.0625, 0.3125, 0.125, 0.375, 0.1875, 0, 0.25, 0.0625, 0.3125, 0.125, 0.375, 0.1875, 0, 0.25, 0.0625, 0.3125, 0.125, 0.375, 0.1875, 0, 0.25, 0.0625, 0.3125, 0.125, 0.375, 0.1875, 0, 0.25, 0.0625, 0.3125, 0.125, 0.375, 0.1875, 0, 0.25, 0.0625, 0.3125, 0.125, 0.375, 0.1875],
  "SoftwareVersions": "syngo MR E11",
  "SpacingBetweenSlices": 2.7,
  "StationName": "AWP66112",
  "TaskName": "social",
  "TotalReadoutTime": 0.03969,
  "TxRefAmp": 216.956,
  "WipMemBlock": "46460f81-6f7c-4a13-bc2d-c6e1b79de134||Sequence: R016 ve11c/master r/e634e98; Dec 19 2017 11:00:25 by eja",
  "dcmmeta_affine": [
    [-2.6754584312438965, 0.03128756210207939, 0.19884254038333893, 106.42980194091797],
    [0.01419367827475071, 2.6729207038879395, -0.23253318667411804, -79.37171173095703],
    [0.19954286515712738, 0.22937428951263428, 2.6826088428497314, -74.253173828125],
    [0.0, 0.0, 0.0, 1.0]
],
  "dcmmeta_reorient_transform": [
    [0.0, -1.0, 0.0, 81.0],
    [1.0, 0.0, 0.0, 0.0],
    [0.0, 0.0, 1.0, 0.0],
    [0.0, 0.0, 0.0, 1.0]
],
  "dcmmeta_shape": [82, 82, 56, 872],
  "dcmmeta_slice_dim": 2,
  "dcmmeta_version": 0.6,
  "global": {
    "const": {
      "AccessionNumber": "A003527",
      "AcquisitionMatrix": [82, 0, 0, 82],
      "AngioFlag": "N",
      "BitsAllocated": 16,
      "BitsStored": 16,
      "BodyPartExamined": "BRAIN",
      "Columns": 656,
      "EchoNumbers": 1,
      "EchoTime": 27.2,
      "EchoTrainLength": 82,
      "FlipAngle": 44.0,
      "HighBit": 15,
      "ImageOrientationPatient": [0.99721630637992, -0.0052903707633, 0.0743750648214, 0.01166172807699, 0.99627043099687, -0.0854940490302],
      "ImagePositionPatient": [-885.80019597146, -900.18953564101, -47.112239616332],
      "ImageType": [
        "ORIGINAL",
        "PRIMARY",
        "M",
        "MB",
        "ND",
        "NORM",
        "MOSAIC"
],
      "ImagedNucleus": "1H",
      "ImagingFrequency": 123.252159,
      "InPlanePhaseEncodingDirection": "COL",
      "MRAcquisitionType": "2D",
      "MagneticFieldStrength": 3.0,
      "Manufacturer": "SIEMENS",
      "ManufacturerModelName": "Prisma",
      "Modality": "MR",
      "NumberOfAverages": 1.0,
      "NumberOfPhaseEncodingSteps": 82,
      "PercentPhaseFieldOfView": 100.0,
      "PercentSampling": 100.0,
      "PerformedProcedureStepStartTime": "144547.833000",
      "PhotometricInterpretation": "MONOCHROME2",
      "PixelBandwidth": 3050.0,
      "PixelRepresentation": 0,
      "PixelSpacing": [2.6829268932343, 2.6829268932343],
      "ProtocolName": "func_run-06_task-social_acq-ap-mb8",
      "RepetitionTime": 460.0,
      "Rows": 656,
      "SAR": 0.0757198220322,
      "SamplesPerPixel": 1,
      "ScanOptions": "FS",
      "ScanningSequence": "EP",
      "SequenceName": "epfid2d1_82",
      "SequenceVariant": [
        "SK",
        "SS"
],
      "SeriesDescription": "func_run-06_task-social_acq-ap-mb8",
      "SeriesNumber": 18,
      "SeriesTime": "155043.598000",
      "SliceLocation": -59.101071398909,
      "SliceThickness": 2.7000000476837,
      "SmallestImagePixelValue": 0,
      "SoftwareVersions": "syngo MR E11",
      "SpacingBetweenSlices": 2.6999999969183,
      "SpecificCharacterSet": "ISO_IR 100",
      "StudyID": "3",
      "StudyTime": "144547.787000",
      "TransmitCoilName": "Body",
      "VariableFlipAngleFlag": "N",
      "WindowCenterWidthExplanation": "Algo1",
      "dBdt": 0.0},
    "slices": {}
  },
  "time": {
    "samples": {
      "AcquisitionNumber": [1, 2, 3, 4, 5, 6, 7, 8, 9, 10, 11, 12, 13, 14, 15, 16, 17, 18, 19, 20, 21, 22, 23, 24, 25, 26, 27, 28, 29, 30, 31, 32, 33, 34, 35, 36, 37, 38, 39, 40, 41, 42, 43, 44, 45, 46, 47, 48, 49, 50, 51, 52, 53, 54, 55, 56, 57, 58, 59, 60, 61, 62, 63, 64, 65, 66, 67, 68, 69, 70, 71, 72, 73, 74, 75, 76, 77, 78, 79, 80, 81, 82, 83, 84, 85, 86, 87, 88, 89, 90, 91, 92, 93, 94, 95, 96, 97, 98, 99, 100, 101, 102, 103, 104, 105, 106, 107, 108, 109, 110, 111, 112, 113, 114, 115, 116, 117, 118, 119, 120, 121, 122, 123, 124, 125, 126, 127, 128, 129, 130, 131, 132, 133, 134, 135, 136, 137, 138, 139, 140, 141, 142, 143, 144, 145, 146, 147, 148, 149, 150, 151, 152, 153, 154, 155, 156, 157, 158, 159, 160, 161, 162, 163, 164, 165, 166, 167, 168, 169, 170, 171, 172, 173, 174, 175, 176, 177, 178, 179, 180, 181, 182, 183, 184, 185, 186, 187, 188, 189, 190, 191, 192, 193, 194, 195, 196, 197, 198, 199, 200, 201, 202, 203, 204, 205, 206, 207, 208, 209, 210, 211, 212, 213, 214, 215, 216, 217, 218, 219, 220, 221, 222, 223, 224, 225, 226, 227, 228, 229, 230, 231, 232, 233, 234, 235, 236, 237, 238, 239, 240, 241, 242, 243, 244, 245, 246, 247, 248, 249, 250, 251, 252, 253, 254, 255, 256, 257, 258, 259, 260, 261, 262, 263, 264, 265, 266, 267, 268, 269, 270, 271, 272, 273, 274, 275, 276, 277, 278, 279, 280, 281, 282, 283, 284, 285, 286, 287, 288, 289, 290, 291, 292, 293, 294, 295, 296, 297, 298, 299, 300, 301, 302, 303, 304, 305, 306, 307, 308, 309, 310, 311, 312, 313, 314, 315, 316, 317, 318, 319, 320, 321, 322, 323, 324, 325, 326, 327, 328, 329, 330, 331, 332, 333, 334, 335, 336, 337, 338, 339, 340, 341, 342, 343, 344, 345, 346, 347, 348, 349, 350, 351, 352, 353, 354, 355, 356, 357, 358, 359, 360, 361, 362, 363, 364, 365, 366, 367, 368, 369, 370, 371, 372, 373, 374, 375, 376, 377, 378, 379, 380, 381, 382, 383, 384, 385, 386, 387, 388, 389, 390, 391, 392, 393, 394, 395, 396, 397, 398, 399, 400, 401, 402, 403, 404, 405, 406, 407, 408, 409, 410, 411, 412, 413, 414, 415, 416, 417, 418, 419, 420, 421, 422, 423, 424, 425, 426, 427, 428, 429, 430, 431, 432, 433, 434, 435, 436, 437, 438, 439, 440, 441, 442, 443, 444, 445, 446, 447, 448, 449, 450, 451, 452, 453, 454, 455, 456, 457, 458, 459, 460, 461, 462, 463, 464, 465, 466, 467, 468, 469, 470, 471, 472, 473, 474, 475, 476, 477, 478, 479, 480, 481, 482, 483, 484, 485, 486, 487, 488, 489, 490, 491, 492, 493, 494, 495, 496, 497, 498, 499, 500, 501, 502, 503, 504, 505, 506, 507, 508, 509, 510, 511, 512, 513, 514, 515, 516, 517, 518, 519, 520, 521, 522, 523, 524, 525, 526, 527, 528, 529, 530, 531, 532, 533, 534, 535, 536, 537, 538, 539, 540, 541, 542, 543, 544, 545, 546, 547, 548, 549, 550, 551, 552, 553, 554, 555, 556, 557, 558, 559, 560, 561, 562, 563, 564, 565, 566, 567, 568, 569, 570, 571, 572, 573, 574, 575, 576, 577, 578, 579, 580, 581, 582, 583, 584, 585, 586, 587, 588, 589, 590, 591, 592, 593, 594, 595, 596, 597, 598, 599, 600, 601, 602, 603, 604, 605, 606, 607, 608, 609, 610, 611, 612, 613, 614, 615, 616, 617, 618, 619, 620, 621, 622, 623, 624, 625, 626, 627, 628, 629, 630, 631, 632, 633, 634, 635, 636, 637, 638, 639, 640, 641, 642, 643, 644, 645, 646, 647, 648, 649, 650, 651, 652, 653, 654, 655, 656, 657, 658, 659, 660, 661, 662, 663, 664, 665, 666, 667, 668, 669, 670, 671, 672, 673, 674, 675, 676, 677, 678, 679, 680, 681, 682, 683, 684, 685, 686, 687, 688, 689, 690, 691, 692, 693, 694, 695, 696, 697, 698, 699, 700, 701, 702, 703, 704, 705, 706, 707, 708, 709, 710, 711, 712, 713, 714, 715, 716, 717, 718, 719, 720, 721, 722, 723, 724, 725, 726, 727, 728, 729, 730, 731, 732, 733, 734, 735, 736, 737, 738, 739, 740, 741, 742, 743, 744, 745, 746, 747, 748, 749, 750, 751, 752, 753, 754, 755, 756, 757, 758, 759, 760, 761, 762, 763, 764, 765, 766, 767, 768, 769, 770, 771, 772, 773, 774, 775, 776, 777, 778, 779, 780, 781, 782, 783, 784, 785, 786, 787, 788, 789, 790, 791, 792, 793, 794, 795, 796, 797, 798, 799, 800, 801, 802, 803, 804, 805, 806, 807, 808, 809, 810, 811, 812, 813, 814, 815, 816, 817, 818, 819, 820, 821, 822, 823, 824, 825, 826, 827, 828, 829, 830, 831, 832, 833, 834, 835, 836, 837, 838, 839, 840, 841, 842, 843, 844, 845, 846, 847, 848, 849, 850, 851, 852, 853, 854, 855, 856, 857, 858, 859, 860, 861, 862, 863, 864, 865, 866, 867, 868, 869, 870, 871, 872],
      "AcquisitionTime": ["155028.865000", "155029.325000", "155029.785000", "155030.245000", "155030.705000", "155031.165000", "155031.625000", "155032.085000", "155032.545000", "155033.005000", "155033.465000", "155033.925000", "155034.385000", "155034.845000", "155035.305000", "155035.765000", "155036.225000", "155036.685000", "155037.145000", "155037.605000", "155038.065000", "155038.525000", "155038.985000", "155039.445000", "155039.905000", "155040.365000", "155040.825000", "155041.285000", "155041.745000", "155042.205000", "155042.665000", "155043.125000", "155043.585000", "155044.045000", "155044.505000", "155044.965000", "155045.425000", "155045.885000", "155046.345000", "155046.805000", "155047.265000", "155047.725000", "155048.185000", "155048.645000", "155049.105000", "155049.565000", "155050.025000", "155050.485000", "155050.945000", "155051.405000", "155051.865000", "155052.325000", "155052.785000", "155053.245000", "155053.705000", "155054.165000", "155054.625000", "155055.085000", "155055.545000", "155056.005000", "155056.465000", "155056.925000", "155057.385000", "155057.845000", "155058.305000", "155058.765000", "155059.225000", "155059.685000", "155100.145000", "155100.605000", "155101.065000", "155101.525000", "155101.985000", "155102.445000", "155102.905000", "155103.365000", "155103.825000", "155104.285000", "155104.745000", "155105.205000", "155105.665000", "155106.125000", "155106.585000", "155107.045000", "155107.505000", "155107.965000", "155108.425000", "155108.885000", "155109.345000", "155109.805000", "155110.265000", "155110.725000", "155111.185000", "155111.645000", "155112.105000", "155112.565000", "155113.025000", "155113.485000", "155113.945000", "155114.405000", "155114.865000", "155115.325000", "155115.785000", "155116.245000", "155116.705000", "155117.165000", "155117.625000", "155118.085000", "155118.545000", "155119.005000", "155119.465000", "155119.925000", "155120.385000", "155120.845000", "155121.305000", "155121.765000", "155122.225000", "155122.685000", "155123.145000", "155123.605000", "155124.065000", "155124.525000", "155124.985000", "155125.445000", "155125.905000", "155126.365000", "155126.825000", "155127.285000", "155127.745000", "155128.205000", "155128.665000", "155129.125000", "155129.585000", "155130.045000", "155130.505000", "155130.965000", "155131.425000", "155131.885000", "155132.345000", "155132.805000", "155133.265000", "155133.725000", "155134.185000", "155134.645000", "155135.105000", "155135.565000", "155136.025000", "155136.485000", "155136.945000", "155137.405000", "155137.865000", "155138.325000", "155138.785000", "155139.245000", "155139.705000", "155140.165000", "155140.625000", "155141.085000", "155141.545000", "155142.005000", "155142.465000", "155142.925000", "155143.385000", "155143.845000", "155144.305000", "155144.765000", "155145.225000", "155145.685000", "155146.145000", "155146.605000", "155147.065000", "155147.525000", "155147.985000", "155148.445000", "155148.905000", "155149.365000", "155149.825000", "155150.285000", "155150.745000", "155151.205000", "155151.665000", "155152.125000", "155152.585000", "155153.045000", "155153.505000", "155153.965000", "155154.425000", "155154.885000", "155155.345000", "155155.805000", "155156.265000", "155156.725000", "155157.185000", "155157.645000", "155158.105000", "155158.565000", "155159.025000", "155159.485000", "155159.945000", "155200.405000", "155200.865000", "155201.325000", "155201.785000", "155202.245000", "155202.705000", "155203.165000", "155203.625000", "155204.085000", "155204.545000", "155205.005000", "155205.465000", "155205.925000", "155206.385000", "155206.845000", "155207.305000", "155207.765000", "155208.225000", "155208.685000", "155209.145000", "155209.605000", "155210.065000", "155210.525000", "155210.985000", "155211.445000", "155211.905000", "155212.365000", "155212.825000", "155213.285000", "155213.745000", "155214.205000", "155214.665000", "155215.125000", "155215.585000", "155216.045000", "155216.505000", "155216.965000", "155217.425000", "155217.885000", "155218.345000", "155218.805000", "155219.265000", "155219.725000", "155220.185000", "155220.645000", "155221.105000", "155221.565000", "155222.025000", "155222.485000", "155222.945000", "155223.405000", "155223.865000", "155224.325000", "155224.785000", "155225.245000", "155225.705000", "155226.165000", "155226.625000", "155227.085000", "155227.545000", "155228.005000", "155228.465000", "155228.925000", "155229.385000", "155229.845000", "155230.305000", "155230.765000", "155231.225000", "155231.685000", "155232.145000", "155232.605000", "155233.065000", "155233.525000", "155233.985000", "155234.445000", "155234.905000", "155235.365000", "155235.825000", "155236.285000", "155236.745000", "155237.205000", "155237.665000", "155238.125000", "155238.585000", "155239.045000", "155239.505000", "155239.965000", "155240.425000", "155240.885000", "155241.345000", "155241.805000", "155242.265000", "155242.725000", "155243.185000", "155243.645000", "155244.105000", "155244.565000", "155245.025000", "155245.485000", "155245.945000", "155246.405000", "155246.865000", "155247.325000", "155247.785000", "155248.245000", "155248.705000", "155249.165000", "155249.625000", "155250.085000", "155250.545000", "155251.005000", "155251.465000", "155251.925000", "155252.385000", "155252.845000", "155253.305000", "155253.765000", "155254.225000", "155254.685000", "155255.145000", "155255.605000", "155256.065000", "155256.525000", "155256.985000", "155257.445000", "155257.905000", "155258.365000", "155258.825000", "155259.285000", "155259.745000", "155300.205000", "155300.665000", "155301.125000", "155301.585000", "155302.045000", "155302.505000", "155302.965000", "155303.425000", "155303.885000", "155304.345000", "155304.805000", "155305.265000", "155305.725000", "155306.185000", "155306.645000", "155307.105000", "155307.565000", "155308.025000", "155308.485000", "155308.945000", "155309.405000", "155309.865000", "155310.325000", "155310.785000", "155311.245000", "155311.705000", "155312.165000", "155312.625000", "155313.085000", "155313.545000", "155314.005000", "155314.465000", "155314.925000", "155315.385000", "155315.845000", "155316.305000", "155316.765000", "155317.225000", "155317.685000", "155318.145000", "155318.605000", "155319.065000", "155319.525000", "155319.985000", "155320.445000", "155320.905000", "155321.365000", "155321.825000", "155322.285000", "155322.745000", "155323.205000", "155323.665000", "155324.125000", "155324.585000", "155325.045000", "155325.505000", "155325.965000", "155326.425000", "155326.885000", "155327.345000", "155327.805000", "155328.265000", "155328.725000", "155329.185000", "155329.645000", "155330.105000", "155330.565000", "155331.025000", "155331.485000", "155331.945000", "155332.405000", "155332.865000", "155333.325000", "155333.785000", "155334.245000", "155334.705000", "155335.165000", "155335.625000", "155336.085000", "155336.545000", "155337.005000", "155337.465000", "155337.925000", "155338.385000", "155338.845000", "155339.305000", "155339.765000", "155340.225000", "155340.685000", "155341.145000", "155341.605000", "155342.065000", "155342.525000", "155342.985000", "155343.445000", "155343.905000", "155344.365000", "155344.825000", "155345.285000", "155345.745000", "155346.205000", "155346.665000", "155347.125000", "155347.585000", "155348.045000", "155348.505000", "155348.965000", "155349.425000", "155349.885000", "155350.345000", "155350.805000", "155351.265000", "155351.725000", "155352.185000", "155352.645000", "155353.105000", "155353.565000", "155354.025000", "155354.485000", "155354.945000", "155355.405000", "155355.865000", "155356.325000", "155356.785000", "155357.245000", "155357.705000", "155358.165000", "155358.625000", "155359.085000", "155359.545000", "155400.005000", "155400.465000", "155400.925000", "155401.385000", "155401.845000", "155402.305000", "155402.765000", "155403.225000", "155403.685000", "155404.145000", "155404.605000", "155405.065000", "155405.525000", "155405.985000", "155406.445000", "155406.905000", "155407.365000", "155407.825000", "155408.285000", "155408.745000", "155409.205000", "155409.665000", "155410.125000", "155410.585000", "155411.045000", "155411.505000", "155411.965000", "155412.425000", "155412.885000", "155413.345000", "155413.805000", "155414.265000", "155414.725000", "155415.185000", "155415.645000", "155416.105000", "155416.565000", "155417.025000", "155417.485000", "155417.945000", "155418.405000", "155418.865000", "155419.325000", "155419.785000", "155420.245000", "155420.705000", "155421.165000", "155421.625000", "155422.085000", "155422.545000", "155423.005000", "155423.465000", "155423.925000", "155424.385000", "155424.845000", "155425.305000", "155425.765000", "155426.225000", "155426.685000", "155427.145000", "155427.605000", "155428.065000", "155428.525000", "155428.985000", "155429.445000", "155429.905000", "155430.365000", "155430.825000", "155431.285000", "155431.745000", "155432.205000", "155432.665000", "155433.125000", "155433.585000", "155434.045000", "155434.505000", "155434.965000", "155435.425000", "155435.885000", "155436.345000", "155436.805000", "155437.265000", "155437.725000", "155438.185000", "155438.645000", "155439.105000", "155439.565000", "155440.025000", "155440.485000", "155440.945000", "155441.405000", "155441.865000", "155442.325000", "155442.785000", "155443.245000", "155443.705000", "155444.165000", "155444.625000", "155445.085000", "155445.545000", "155446.005000", "155446.465000", "155446.925000", "155447.385000", "155447.845000", "155448.305000", "155448.765000", "155449.225000", "155449.685000", "155450.145000", "155450.605000", "155451.065000", "155451.525000", "155451.985000", "155452.445000", "155452.905000", "155453.365000", "155453.825000", "155454.285000", "155454.745000", "155455.205000", "155455.665000", "155456.125000", "155456.585000", "155457.045000", "155457.505000", "155457.965000", "155458.425000", "155458.885000", "155459.345000", "155459.805000", "155500.265000", "155500.725000", "155501.185000", "155501.645000", "155502.105000", "155502.565000", "155503.025000", "155503.485000", "155503.945000", "155504.405000", "155504.865000", "155505.325000", "155505.785000", "155506.245000", "155506.705000", "155507.165000", "155507.625000", "155508.085000", "155508.545000", "155509.005000", "155509.465000", "155509.925000", "155510.385000", "155510.845000", "155511.305000", "155511.765000", "155512.225000", "155512.685000", "155513.145000", "155513.605000", "155514.065000", "155514.525000", "155514.985000", "155515.445000", "155515.905000", "155516.365000", "155516.825000", "155517.285000", "155517.745000", "155518.205000", "155518.665000", "155519.125000", "155519.585000", "155520.045000", "155520.505000", "155520.965000", "155521.425000", "155521.885000", "155522.345000", "155522.805000", "155523.265000", "155523.725000", "155524.185000", "155524.645000", "155525.105000", "155525.565000", "155526.025000", "155526.485000", "155526.945000", "155527.405000", "155527.865000", "155528.325000", "155528.785000", "155529.245000", "155529.705000", "155530.165000", "155530.625000", "155531.085000", "155531.545000", "155532.005000", "155532.465000", "155532.925000", "155533.385000", "155533.845000", "155534.305000", "155534.765000", "155535.225000", "155535.685000", "155536.145000", "155536.605000", "155537.065000", "155537.525000", "155537.985000", "155538.445000", "155538.905000", "155539.365000", "155539.825000", "155540.285000", "155540.745000", "155541.205000", "155541.665000", "155542.125000", "155542.585000", "155543.045000", "155543.505000", "155543.965000", "155544.425000", "155544.885000", "155545.345000", "155545.805000", "155546.265000", "155546.725000", "155547.185000", "155547.645000", "155548.105000", "155548.565000", "155549.025000", "155549.485000", "155549.945000", "155550.405000", "155550.865000", "155551.325000", "155551.785000", "155552.245000", "155552.705000", "155553.165000", "155553.625000", "155554.085000", "155554.545000", "155555.005000", "155555.465000", "155555.925000", "155556.385000", "155556.845000", "155557.305000", "155557.765000", "155558.225000", "155558.685000", "155559.145000", "155559.605000", "155600.065000", "155600.525000", "155600.985000", "155601.445000", "155601.905000", "155602.365000", "155602.825000", "155603.285000", "155603.745000", "155604.205000", "155604.665000", "155605.125000", "155605.585000", "155606.045000", "155606.505000", "155606.965000", "155607.425000", "155607.885000", "155608.345000", "155608.805000", "155609.265000", "155609.725000", "155610.185000", "155610.645000", "155611.105000", "155611.565000", "155612.025000", "155612.485000", "155612.945000", "155613.405000", "155613.865000", "155614.325000", "155614.785000", "155615.245000", "155615.705000", "155616.165000", "155616.625000", "155617.085000", "155617.545000", "155618.005000", "155618.465000", "155618.925000", "155619.385000", "155619.845000", "155620.305000", "155620.765000", "155621.225000", "155621.685000", "155622.145000", "155622.605000", "155623.065000", "155623.525000", "155623.985000", "155624.445000", "155624.905000", "155625.365000", "155625.825000", "155626.285000", "155626.745000", "155627.205000", "155627.665000", "155628.125000", "155628.585000", "155629.045000", "155629.505000", "155629.965000", "155630.425000", "155630.885000", "155631.345000", "155631.805000", "155632.265000", "155632.725000", "155633.185000", "155633.645000", "155634.105000", "155634.565000", "155635.025000", "155635.485000", "155635.945000", "155636.405000", "155636.865000", "155637.325000", "155637.785000", "155638.245000", "155638.705000", "155639.165000", "155639.625000", "155640.085000", "155640.545000", "155641.005000", "155641.465000", "155641.925000", "155642.385000", "155642.845000", "155643.305000", "155643.765000", "155644.225000", "155644.685000", "155645.145000", "155645.605000", "155646.065000", "155646.525000", "155646.985000", "155647.445000", "155647.905000", "155648.365000", "155648.825000", "155649.285000", "155649.745000", "155650.205000", "155650.665000", "155651.125000", "155651.585000", "155652.045000", "155652.505000", "155652.965000", "155653.425000", "155653.885000", "155654.345000", "155654.805000", "155655.265000", "155655.725000", "155656.185000", "155656.645000", "155657.105000", "155657.565000", "155658.025000", "155658.485000", "155658.945000", "155659.405000", "155659.865000", "155700.325000", "155700.785000", "155701.245000", "155701.705000", "155702.165000", "155702.625000", "155703.085000", "155703.545000", "155704.005000", "155704.465000", "155704.925000", "155705.385000", "155705.845000", "155706.305000", "155706.765000", "155707.225000", "155707.685000", "155708.145000", "155708.605000", "155709.065000", "155709.525000"],
