{
  "AcquisitionMatrixPE": 82,
  "AcquisitionNumber": 1,
  "AcquisitionTime": "15:47:47.757500",
  "BandwidthPerPixelPhaseEncode": 24.888,
  "BaseResolution": 82,
  "BodyPartExamined": "BRAIN",
  "ConsistencyInfo": "N4_VE11C_LATEST_20160120",
  "ConversionSoftware": "dcm2niix",
  "ConversionSoftwareVersion": "v1.0.20201102",
  "DerivedVendorReportedEchoSpacing": 0.00049,
  "DeviceSerialNumber": "66112",
  "DwellTime": 2e-06,
  "EchoTime": 0.0272,
  "EchoTrainLength": 82,
  "EffectiveEchoSpacing": 0.00049,
  "FlipAngle": 44,
  "ImageComments": "Unaliased MB8/PE3",
  "ImageOrientationPatientDICOM": [0.999418, 0.019568, -0.0279514, -0.0179683, 0.998248, 0.0563769],
  "ImageType": [
    "ORIGINAL",
    "PRIMARY",
    "M",
    "MB",
    "ND",
    "NORM",
    "MOSAIC"
],
  "ImagingFrequency": 123.252,
  "InPlanePhaseEncodingDirectionDICOM": "COL",
  "InstitutionAddress": "Maynard 3,Hanover,NH,US,03755",
  "InstitutionName": "Dartmouth College - PBS",
  "InstitutionalDepartmentName": "Department",
  "MRAcquisitionType": "2D",
  "MagneticFieldStrength": 3,
  "Manufacturer": "Siemens",
  "ManufacturersModelName": "Prisma",
  "Modality": "MR",
  "MultibandAccelerationFactor": 8,
  "PartialFourier": 1,
  "PatientPosition": "HFS",
  "PercentPhaseFOV": 100,
  "PercentSampling": 100,
  "PhaseEncodingDirection": "j-",
  "PhaseEncodingSteps": 82,
  "PhaseResolution": 1,
  "PixelBandwidth": 3050,
  "ProcedureStepDescription": "Wager_Wager^1076_spacetop",
  "ProtocolName": "func_run-01_task-alignvideo_acq-ap-mb8",
  "PulseSequenceDetails": "%CustomerSeq%\\cmrr_mbep2d_bold",
  "ReceiveCoilActiveElements": "HEA;HEP",
  "ReceiveCoilName": "Head_32",
  "ReconMatrixPE": 82,
  "RepetitionTime": 0.46,
  "SAR": 0.0967708,
  "ScanOptions": "FS",
  "ScanningSequence": "EP",
  "SequenceName": "epfid2d1_82",
  "SequenceVariant": "SK\\SS",
  "SeriesDescription": "func_run-01_task-alignvideo_acq-ap-mb8",
  "SeriesNumber": 30,
  "ShimSetting": [4124, -7773, -7241, 524, -102, -313, -66, 103],
  "SliceThickness": 2.7,
  "SliceTiming": [0, 0.2525, 0.0625, 0.315, 0.125, 0.3775, 0.1875, 0, 0.2525, 0.0625, 0.315, 0.125, 0.3775, 0.1875, 0, 0.2525, 0.0625, 0.315, 0.125, 0.3775, 0.1875, 0, 0.2525, 0.0625, 0.315, 0.125, 0.3775, 0.1875, 0, 0.2525, 0.0625, 0.315, 0.125, 0.3775, 0.1875, 0, 0.2525, 0.0625, 0.315, 0.125, 0.3775, 0.1875, 0, 0.2525, 0.0625, 0.315, 0.125, 0.3775, 0.1875, 0, 0.2525, 0.0625, 0.315, 0.125, 0.3775, 0.1875],
  "SoftwareVersions": "syngo MR E11",
  "SpacingBetweenSlices": 2.7,
  "StationName": "AWP66112",
  "TaskName": "alignvideo",
  "TotalReadoutTime": 0.03969,
  "TxRefAmp": 245.036,
  "WipMemBlock": "3b541df1-23a3-4da4-9cc7-dec80b75a393||Sequence: R016 ve11c/master r/e634e98; Dec 19 2017 11:00:25 by eja",
  "dcmmeta_affine": [
    [-2.6813647747039795, -0.04820770025253296, -0.07831509411334991, 116.07138061523438],
    [-0.052499402314424515, 2.6782259941101074, 0.15077288448810577, -89.9697265625],
    [-0.07499151676893234, -0.1512550413608551, 2.6946492195129395, -58.003868103027344],
    [0.0, 0.0, 0.0, 1.0]
],
  "dcmmeta_reorient_transform": [
    [0.0, -1.0, 0.0, 81.0],
    [1.0, 0.0, 0.0, 0.0],
    [0.0, 0.0, 1.0, 0.0],
    [0.0, 0.0, 0.0, 1.0]
],
  "dcmmeta_shape": [82, 82, 56, 1073],
  "dcmmeta_slice_dim": 2,
  "dcmmeta_version": 0.6,
  "global": {
    "const": {
      "AccessionNumber": "A003803",
      "AcquisitionMatrix": [82, 0, 0, 82],
      "AngioFlag": "N",
      "BitsAllocated": 16,
      "BitsStored": 16,
      "BodyPartExamined": "BRAIN",
      "Columns": 656,
      "EchoNumbers": 1,
      "EchoTime": 27.2,
      "EchoTrainLength": 82,
      "FlipAngle": 44.0,
      "HighBit": 15,
      "ImageOrientationPatient": [0.99941773803863, 0.01956795902953, -0.0279513841013, -0.0179683237087, 0.9982478585095, 0.05637687756785],
      "ImagePositionPatient": [-867.88262609735, -910.68478340219, -92.143157991506],
      "ImageType": [
        "ORIGINAL",
        "PRIMARY",
        "M",
        "MB",
        "ND",
        "NORM",
        "MOSAIC"
],
      "ImagedNucleus": "1H",
      "ImagingFrequency": 123.252204,
      "InPlanePhaseEncodingDirection": "COL",
      "MRAcquisitionType": "2D",
      "MagneticFieldStrength": 3.0,
      "Manufacturer": "SIEMENS",
      "ManufacturerModelName": "Prisma",
      "Modality": "MR",
      "NumberOfAverages": 1.0,
      "NumberOfPhaseEncodingSteps": 82,
      "PercentPhaseFieldOfView": 100.0,
      "PercentSampling": 100.0,
      "PerformedProcedureStepStartTime": "142936.029000",
      "PhotometricInterpretation": "MONOCHROME2",
      "PixelBandwidth": 3050.0,
      "PixelRepresentation": 0,
      "PixelSpacing": [2.6829268932343, 2.6829268932343],
      "ProtocolName": "func_run-01_task-alignvideo_acq-ap-mb8",
      "RepetitionTime": 460.0,
      "Rows": 656,
      "SAR": 0.09677080816944,
      "SamplesPerPixel": 1,
      "ScanOptions": "FS",
      "ScanningSequence": "EP",
      "SequenceName": "epfid2d1_82",
      "SequenceVariant": [
        "SK",
        "SS"
],
      "SeriesDescription": "func_run-01_task-alignvideo_acq-ap-mb8",
      "SeriesNumber": 30,
      "SeriesTime": "154815.087000",
      "SliceLocation": -66.279709535092,
      "SliceThickness": 2.7000000476837,
      "SmallestImagePixelValue": 0,
      "SoftwareVersions": "syngo MR E11",
      "SpacingBetweenSlices": 2.6999999637503,
      "SpecificCharacterSet": "ISO_IR 100",
      "StudyID": "1",
      "StudyTime": "142935.975000",
      "TransmitCoilName": "Body",
      "VariableFlipAngleFlag": "N",
      "WindowCenterWidthExplanation": "Algo1",
      "dBdt": 0.0},
    "slices": {}
  },
  "time": {
    "samples": {
      "AcquisitionNumber": [1, 2, 3, 4, 5, 6, 7, 8, 9, 10, 11, 12, 13, 14, 15, 16, 17, 18, 19, 20, 21, 22, 23, 24, 25, 26, 27, 28, 29, 30, 31, 32, 33, 34, 35, 36, 37, 38, 39, 40, 41, 42, 43, 44, 45, 46, 47, 48, 49, 50, 51, 52, 53, 54, 55, 56, 57, 58, 59, 60, 61, 62, 63, 64, 65, 66, 67, 68, 69, 70, 71, 72, 73, 74, 75, 76, 77, 78, 79, 80, 81, 82, 83, 84, 85, 86, 87, 88, 89, 90, 91, 92, 93, 94, 95, 96, 97, 98, 99, 100, 101, 102, 103, 104, 105, 106, 107, 108, 109, 110, 111, 112, 113, 114, 115, 116, 117, 118, 119, 120, 121, 122, 123, 124, 125, 126, 127, 128, 129, 130, 131, 132, 133, 134, 135, 136, 137, 138, 139, 140, 141, 142, 143, 144, 145, 146, 147, 148, 149, 150, 151, 152, 153, 154, 155, 156, 157, 158, 159, 160, 161, 162, 163, 164, 165, 166, 167, 168, 169, 170, 171, 172, 173, 174, 175, 176, 177, 178, 179, 180, 181, 182, 183, 184, 185, 186, 187, 188, 189, 190, 191, 192, 193, 194, 195, 196, 197, 198, 199, 200, 201, 202, 203, 204, 205, 206, 207, 208, 209, 210, 211, 212, 213, 214, 215, 216, 217, 218, 219, 220, 221, 222, 223, 224, 225, 226, 227, 228, 229, 230, 231, 232, 233, 234, 235, 236, 237, 238, 239, 240, 241, 242, 243, 244, 245, 246, 247, 248, 249, 250, 251, 252, 253, 254, 255, 256, 257, 258, 259, 260, 261, 262, 263, 264, 265, 266, 267, 268, 269, 270, 271, 272, 273, 274, 275, 276, 277, 278, 279, 280, 281, 282, 283, 284, 285, 286, 287, 288, 289, 290, 291, 292, 293, 294, 295, 296, 297, 298, 299, 300, 301, 302, 303, 304, 305, 306, 307, 308, 309, 310, 311, 312, 313, 314, 315, 316, 317, 318, 319, 320, 321, 322, 323, 324, 325, 326, 327, 328, 329, 330, 331, 332, 333, 334, 335, 336, 337, 338, 339, 340, 341, 342, 343, 344, 345, 346, 347, 348, 349, 350, 351, 352, 353, 354, 355, 356, 357, 358, 359, 360, 361, 362, 363, 364, 365, 366, 367, 368, 369, 370, 371, 372, 373, 374, 375, 376, 377, 378, 379, 380, 381, 382, 383, 384, 385, 386, 387, 388, 389, 390, 391, 392, 393, 394, 395, 396, 397, 398, 399, 400, 401, 402, 403, 404, 405, 406, 407, 408, 409, 410, 411, 412, 413, 414, 415, 416, 417, 418, 419, 420, 421, 422, 423, 424, 425, 426, 427, 428, 429, 430, 431, 432, 433, 434, 435, 436, 437, 438, 439, 440, 441, 442, 443, 444, 445, 446, 447, 448, 449, 450, 451, 452, 453, 454, 455, 456, 457, 458, 459, 460, 461, 462, 463, 464, 465, 466, 467, 468, 469, 470, 471, 472, 473, 474, 475, 476, 477, 478, 479, 480, 481, 482, 483, 484, 485, 486, 487, 488, 489, 490, 491, 492, 493, 494, 495, 496, 497, 498, 499, 500, 501, 502, 503, 504, 505, 506, 507, 508, 509, 510, 511, 512, 513, 514, 515, 516, 517, 518, 519, 520, 521, 522, 523, 524, 525, 526, 527, 528, 529, 530, 531, 532, 533, 534, 535, 536, 537, 538, 539, 540, 541, 542, 543, 544, 545, 546, 547, 548, 549, 550, 551, 552, 553, 554, 555, 556, 557, 558, 559, 560, 561, 562, 563, 564, 565, 566, 567, 568, 569, 570, 571, 572, 573, 574, 575, 576, 577, 578, 579, 580, 581, 582, 583, 584, 585, 586, 587, 588, 589, 590, 591, 592, 593, 594, 595, 596, 597, 598, 599, 600, 601, 602, 603, 604, 605, 606, 607, 608, 609, 610, 611, 612, 613, 614, 615, 616, 617, 618, 619, 620, 621, 622, 623, 624, 625, 626, 627, 628, 629, 630, 631, 632, 633, 634, 635, 636, 637, 638, 639, 640, 641, 642, 643, 644, 645, 646, 647, 648, 649, 650, 651, 652, 653, 654, 655, 656, 657, 658, 659, 660, 661, 662, 663, 664, 665, 666, 667, 668, 669, 670, 671, 672, 673, 674, 675, 676, 677, 678, 679, 680, 681, 682, 683, 684, 685, 686, 687, 688, 689, 690, 691, 692, 693, 694, 695, 696, 697, 698, 699, 700, 701, 702, 703, 704, 705, 706, 707, 708, 709, 710, 711, 712, 713, 714, 715, 716, 717, 718, 719, 720, 721, 722, 723, 724, 725, 726, 727, 728, 729, 730, 731, 732, 733, 734, 735, 736, 737, 738, 739, 740, 741, 742, 743, 744, 745, 746, 747, 748, 749, 750, 751, 752, 753, 754, 755, 756, 757, 758, 759, 760, 761, 762, 763, 764, 765, 766, 767, 768, 769, 770, 771, 772, 773, 774, 775, 776, 777, 778, 779, 780, 781, 782, 783, 784, 785, 786, 787, 788, 789, 790, 791, 792, 793, 794, 795, 796, 797, 798, 799, 800, 801, 802, 803, 804, 805, 806, 807, 808, 809, 810, 811, 812, 813, 814, 815, 816, 817, 818, 819, 820, 821, 822, 823, 824, 825, 826, 827, 828, 829, 830, 831, 832, 833, 834, 835, 836, 837, 838, 839, 840, 841, 842, 843, 844, 845, 846, 847, 848, 849, 850, 851, 852, 853, 854, 855, 856, 857, 858, 859, 860, 861, 862, 863, 864, 865, 866, 867, 868, 869, 870, 871, 872, 873, 874, 875, 876, 877, 878, 879, 880, 881, 882, 883, 884, 885, 886, 887, 888, 889, 890, 891, 892, 893, 894, 895, 896, 897, 898, 899, 900, 901, 902, 903, 904, 905, 906, 907, 908, 909, 910, 911, 912, 913, 914, 915, 916, 917, 918, 919, 920, 921, 922, 923, 924, 925, 926, 927, 928, 929, 930, 931, 932, 933, 934, 935, 936, 937, 938, 939, 940, 941, 942, 943, 944, 945, 946, 947, 948, 949, 950, 951, 952, 953, 954, 955, 956, 957, 958, 959, 960, 961, 962, 963, 964, 965, 966, 967, 968, 969, 970, 971, 972, 973, 974, 975, 976, 977, 978, 979, 980, 981, 982, 983, 984, 985, 986, 987, 988, 989, 990, 991, 992, 993, 994, 995, 996, 997, 998, 999, 1000, 1001, 1002, 1003, 1004, 1005, 1006, 1007, 1008, 1009, 1010, 1011, 1012, 1013, 1014, 1015, 1016, 1017, 1018, 1019, 1020, 1021, 1022, 1023, 1024, 1025, 1026, 1027, 1028, 1029, 1030, 1031, 1032, 1033, 1034, 1035, 1036, 1037, 1038, 1039, 1040, 1041, 1042, 1043, 1044, 1045, 1046, 1047, 1048, 1049, 1050, 1051, 1052, 1053, 1054, 1055, 1056, 1057, 1058, 1059, 1060, 1061, 1062, 1063, 1064, 1065, 1066, 1067, 1068, 1069, 1070, 1071, 1072, 1073],
      "AcquisitionTime": ["154747.757500", "154748.217500", "154748.677500", "154749.137500", "154749.597500", "154750.057500", "154750.517500", "154750.977500", "154751.437500", "154751.897500", "154752.357500", "154752.817500", "154753.277500", "154753.737500", "154754.197500", "154754.657500", "154755.117500", "154755.577500", "154756.037500", "154756.497500", "154756.957500", "154757.417500", "154757.877500", "154758.337500", "154758.797500", "154759.257500", "154759.717500", "154800.177500", "154800.637500", "154801.097500", "154801.557500", "154802.017500", "154802.477500", "154802.937500", "154803.397500", "154803.857500", "154804.317500", "154804.777500", "154805.237500", "154805.697500", "154806.157500", "154806.617500", "154807.077500", "154807.537500", "154807.997500", "154808.457500", "154808.917500", "154809.377500", "154809.837500", "154810.297500", "154810.757500", "154811.217500", "154811.677500", "154812.137500", "154812.597500", "154813.057500", "154813.517500", "154813.977500", "154814.437500", "154814.897500", "154815.357500", "154815.817500", "154816.277500", "154816.737500", "154817.197500", "154817.657500", "154818.117500", "154818.577500", "154819.037500", "154819.497500", "154819.957500", "154820.417500", "154820.877500", "154821.337500", "154821.797500", "154822.257500", "154822.717500", "154823.177500", "154823.637500", "154824.097500", "154824.557500", "154825.017500", "154825.477500", "154825.937500", "154826.397500", "154826.857500", "154827.317500", "154827.777500", "154828.237500", "154828.697500", "154829.157500", "154829.617500", "154830.077500", "154830.537500", "154830.997500", "154831.457500", "154831.917500", "154832.377500", "154832.837500", "154833.297500", "154833.757500", "154834.217500", "154834.677500", "154835.137500", "154835.597500", "154836.057500", "154836.517500", "154836.977500", "154837.437500", "154837.897500", "154838.357500", "154838.817500", "154839.277500", "154839.737500", "154840.197500", "154840.657500", "154841.117500", "154841.577500", "154842.037500", "154842.497500", "154842.957500", "154843.417500", "154843.877500", "154844.337500", "154844.797500", "154845.257500", "154845.717500", "154846.177500", "154846.637500", "154847.097500", "154847.557500", "154848.017500", "154848.477500", "154848.937500", "154849.397500", "154849.857500", "154850.317500", "154850.777500", "154851.237500", "154851.697500", "154852.157500", "154852.617500", "154853.077500", "154853.537500", "154853.997500", "154854.457500", "154854.917500", "154855.377500", "154855.837500", "154856.297500", "154856.757500", "154857.217500", "154857.677500", "154858.137500", "154858.597500", "154859.057500", "154859.517500", "154859.977500", "154900.437500", "154900.897500", "154901.357500", "154901.817500", "154902.277500", "154902.737500", "154903.197500", "154903.657500", "154904.117500", "154904.577500", "154905.037500", "154905.497500", "154905.957500", "154906.417500", "154906.877500", "154907.337500", "154907.797500", "154908.257500", "154908.717500", "154909.177500", "154909.637500", "154910.097500", "154910.557500", "154911.017500", "154911.477500", "154911.937500", "154912.397500", "154912.857500", "154913.317500", "154913.777500", "154914.237500", "154914.697500", "154915.157500", "154915.617500", "154916.077500", "154916.537500", "154916.997500", "154917.457500", "154917.917500", "154918.377500", "154918.837500", "154919.297500", "154919.757500", "154920.217500", "154920.677500", "154921.137500", "154921.597500", "154922.057500", "154922.517500", "154922.977500", "154923.437500", "154923.897500", "154924.357500", "154924.817500", "154925.277500", "154925.737500", "154926.197500", "154926.657500", "154927.117500", "154927.577500", "154928.037500", "154928.497500", "154928.957500", "154929.417500", "154929.877500", "154930.337500", "154930.797500", "154931.257500", "154931.717500", "154932.177500", "154932.637500", "154933.097500", "154933.557500", "154934.017500", "154934.477500", "154934.937500", "154935.397500", "154935.857500", "154936.317500", "154936.777500", "154937.237500", "154937.697500", "154938.157500", "154938.617500", "154939.077500", "154939.537500", "154939.997500", "154940.457500", "154940.917500", "154941.377500", "154941.837500", "154942.297500", "154942.757500", "154943.217500", "154943.677500", "154944.137500", "154944.597500", "154945.057500", "154945.517500", "154945.977500", "154946.437500", "154946.897500", "154947.357500", "154947.817500", "154948.277500", "154948.737500", "154949.197500", "154949.657500", "154950.117500", "154950.577500", "154951.037500", "154951.497500", "154951.957500", "154952.417500", "154952.877500", "154953.337500", "154953.797500", "154954.257500", "154954.717500", "154955.177500", "154955.637500", "154956.097500", "154956.557500", "154957.017500", "154957.477500", "154957.937500", "154958.397500", "154958.857500", "154959.317500", "154959.777500", "155000.237500", "155000.697500", "155001.157500", "155001.617500", "155002.077500", "155002.537500", "155002.997500", "155003.457500", "155003.917500", "155004.377500", "155004.837500", "155005.297500", "155005.757500", "155006.217500", "155006.677500", "155007.137500", "155007.597500", "155008.057500", "155008.517500", "155008.977500", "155009.437500", "155009.897500", "155010.357500", "155010.817500", "155011.277500", "155011.737500", "155012.197500", "155012.657500", "155013.117500", "155013.577500", "155014.037500", "155014.497500", "155014.957500", "155015.417500", "155015.877500", "155016.337500", "155016.797500", "155017.257500", "155017.717500", "155018.177500", "155018.637500", "155019.097500", "155019.557500", "155020.017500", "155020.477500", "155020.937500", "155021.397500", "155021.857500", "155022.317500", "155022.777500", "155023.237500", "155023.697500", "155024.157500", "155024.617500", "155025.077500", "155025.537500", "155025.997500", "155026.457500", "155026.917500", "155027.377500", "155027.837500", "155028.297500", "155028.757500", "155029.217500", "155029.677500", "155030.137500", "155030.597500", "155031.057500", "155031.517500", "155031.977500", "155032.437500", "155032.897500", "155033.357500", "155033.817500", "155034.277500", "155034.737500", "155035.197500", "155035.657500", "155036.117500", "155036.577500", "155037.037500", "155037.497500", "155037.957500", "155038.417500", "155038.877500", "155039.337500", "155039.797500", "155040.257500", "155040.717500", "155041.177500", "155041.637500", "155042.097500", "155042.557500", "155043.017500", "155043.477500", "155043.937500", "155044.397500", "155044.857500", "155045.317500", "155045.777500", "155046.237500", "155046.697500", "155047.157500", "155047.617500", "155048.077500", "155048.537500", "155048.997500", "155049.457500", "155049.917500", "155050.377500", "155050.837500", "155051.297500", "155051.757500", "155052.217500", "155052.677500", "155053.137500", "155053.597500", "155054.057500", "155054.517500", "155054.977500", "155055.437500", "155055.897500", "155056.357500", "155056.817500", "155057.277500", "155057.737500", "155058.197500", "155058.657500", "155059.117500", "155059.577500", "155100.037500", "155100.497500", "155100.957500", "155101.417500", "155101.877500", "155102.337500", "155102.797500", "155103.257500", "155103.717500", "155104.177500", "155104.637500", "155105.097500", "155105.557500", "155106.017500", "155106.477500", "155106.937500", "155107.397500", "155107.857500", "155108.317500", "155108.777500", "155109.237500", "155109.697500", "155110.157500", "155110.617500", "155111.077500", "155111.537500", "155111.997500", "155112.457500", "155112.917500", "155113.377500", "155113.837500", "155114.297500", "155114.757500", "155115.217500", "155115.677500", "155116.137500", "155116.597500", "155117.057500", "155117.517500", "155117.977500", "155118.437500", "155118.897500", "155119.357500", "155119.817500", "155120.277500", "155120.737500", "155121.197500", "155121.657500", "155122.117500", "155122.577500", "155123.037500", "155123.497500", "155123.957500", "155124.417500", "155124.877500", "155125.337500", "155125.797500", "155126.257500", "155126.717500", "155127.177500", "155127.637500", "155128.097500", "155128.557500", "155129.017500", "155129.477500", "155129.937500", "155130.397500", "155130.857500", "155131.317500", "155131.777500", "155132.237500", "155132.697500", "155133.157500", "155133.617500", "155134.077500", "155134.537500", "155134.997500", "155135.457500", "155135.917500", "155136.377500", "155136.837500", "155137.297500", "155137.757500", "155138.217500", "155138.677500", "155139.137500", "155139.597500", "155140.057500", "155140.517500", "155140.977500", "155141.437500", "155141.897500", "155142.357500", "155142.817500", "155143.277500", "155143.737500", "155144.197500", "155144.657500", "155145.117500", "155145.577500", "155146.037500", "155146.497500", "155146.957500", "155147.417500", "155147.877500", "155148.337500", "155148.797500", "155149.257500", "155149.717500", "155150.177500", "155150.637500", "155151.097500", "155151.557500", "155152.017500", "155152.477500", "155152.937500", "155153.397500", "155153.857500", "155154.317500", "155154.777500", "155155.237500", "155155.697500", "155156.157500", "155156.617500", "155157.077500", "155157.537500", "155157.997500", "155158.457500", "155158.917500", "155159.377500", "155159.837500", "155200.297500", "155200.757500", "155201.217500", "155201.677500", "155202.137500", "155202.597500", "155203.057500", "155203.517500", "155203.977500", "155204.437500", "155204.897500", "155205.357500", "155205.817500", "155206.277500", "155206.737500", "155207.197500", "155207.657500", "155208.117500", "155208.577500", "155209.037500", "155209.497500", "155209.957500", "155210.417500", "155210.877500", "155211.337500", "155211.797500", "155212.257500", "155212.717500", "155213.177500", "155213.637500", "155214.097500", "155214.557500", "155215.017500", "155215.477500", "155215.937500", "155216.397500", "155216.857500", "155217.317500", "155217.777500", "155218.237500", "155218.697500", "155219.157500", "155219.617500", "155220.077500", "155220.537500", "155220.997500", "155221.457500", "155221.917500", "155222.377500", "155222.837500", "155223.297500", "155223.757500", "155224.217500", "155224.677500", "155225.137500", "155225.597500", "155226.057500", "155226.517500", "155226.977500", "155227.437500", "155227.897500", "155228.357500", "155228.817500", "155229.277500", "155229.737500", "155230.197500", "155230.657500", "155231.117500", "155231.577500", "155232.037500", "155232.497500", "155232.957500", "155233.417500", "155233.877500", "155234.337500", "155234.797500", "155235.257500", "155235.717500", "155236.177500", "155236.637500", "155237.097500", "155237.557500", "155238.017500", "155238.477500", "155238.937500", "155239.397500", "155239.857500", "155240.317500", "155240.777500", "155241.237500", "155241.697500", "155242.157500", "155242.617500", "155243.077500", "155243.537500", "155243.997500", "155244.457500", "155244.917500", "155245.377500", "155245.837500", "155246.297500", "155246.757500", "155247.217500", "155247.677500", "155248.137500", "155248.597500", "155249.057500", "155249.517500", "155249.977500", "155250.437500", "155250.897500", "155251.357500", "155251.817500", "155252.277500", "155252.737500", "155253.197500", "155253.657500", "155254.117500", "155254.577500", "155255.037500", "155255.497500", "155255.957500", "155256.417500", "155256.877500", "155257.337500", "155257.797500", "155258.257500", "155258.717500", "155259.177500", "155259.637500", "155300.097500", "155300.557500", "155301.017500", "155301.477500", "155301.937500", "155302.397500", "155302.857500", "155303.317500", "155303.777500", "155304.237500", "155304.697500", "155305.157500", "155305.617500", "155306.077500", "155306.537500", "155306.997500", "155307.457500", "155307.917500", "155308.377500", "155308.837500", "155309.297500", "155309.757500", "155310.217500", "155310.677500", "155311.137500", "155311.597500", "155312.057500", "155312.517500", "155312.977500", "155313.437500", "155313.897500", "155314.357500", "155314.817500", "155315.277500", "155315.737500", "155316.197500", "155316.657500", "155317.117500", "155317.577500", "155318.037500", "155318.497500", "155318.957500", "155319.417500", "155319.877500", "155320.337500", "155320.797500", "155321.257500", "155321.717500", "155322.177500", "155322.637500", "155323.097500", "155323.557500", "155324.017500", "155324.477500", "155324.937500", "155325.397500", "155325.857500", "155326.317500", "155326.777500", "155327.237500", "155327.697500", "155328.157500", "155328.617500", "155329.077500", "155329.537500", "155329.997500", "155330.457500", "155330.917500", "155331.377500", "155331.837500", "155332.297500", "155332.757500", "155333.217500", "155333.677500", "155334.137500", "155334.597500", "155335.057500", "155335.517500", "155335.977500", "155336.437500", "155336.897500", "155337.357500", "155337.817500", "155338.277500", "155338.737500", "155339.197500", "155339.657500", "155340.117500", "155340.577500", "155341.037500", "155341.497500", "155341.957500", "155342.417500", "155342.877500", "155343.337500", "155343.797500", "155344.257500", "155344.717500", "155345.177500", "155345.637500", "155346.097500", "155346.557500", "155347.017500", "155347.477500", "155347.937500", "155348.397500", "155348.857500", "155349.317500", "155349.777500", "155350.237500", "155350.697500", "155351.157500", "155351.617500", "155352.077500", "155352.537500", "155352.997500", "155353.457500", "155353.917500", "155354.377500", "155354.837500", "155355.297500", "155355.757500", "155356.217500", "155356.677500", "155357.137500", "155357.597500", "155358.057500", "155358.517500", "155358.977500", "155359.437500", "155359.897500", "155400.357500", "155400.817500", "155401.277500", "155401.737500", "155402.197500", "155402.657500", "155403.117500", "155403.577500", "155404.037500", "155404.497500", "155404.957500", "155405.417500", "155405.877500", "155406.337500", "155406.797500", "155407.257500", "155407.717500", "155408.177500", "155408.637500", "155409.097500", "155409.557500", "155410.017500", "155410.477500", "155410.937500", "155411.397500", "155411.857500", "155412.317500", "155412.777500", "155413.237500", "155413.697500", "155414.157500", "155414.617500", "155415.077500", "155415.537500", "155415.997500", "155416.457500", "155416.917500", "155417.377500", "155417.837500", "155418.297500", "155418.757500", "155419.217500", "155419.677500", "155420.137500", "155420.597500", "155421.057500", "155421.517500", "155421.977500", "155422.437500", "155422.897500", "155423.357500", "155423.817500", "155424.277500", "155424.737500", "155425.197500", "155425.657500", "155426.117500", "155426.577500", "155427.037500", "155427.497500", "155427.957500", "155428.417500", "155428.877500", "155429.337500", "155429.797500", "155430.257500", "155430.717500", "155431.177500", "155431.637500", "155432.097500", "155432.557500", "155433.017500", "155433.477500", "155433.937500", "155434.397500", "155434.857500", "155435.317500", "155435.777500", "155436.237500", "155436.697500", "155437.157500", "155437.617500", "155438.077500", "155438.537500", "155438.997500", "155439.457500", "155439.917500", "155440.377500", "155440.837500", "155441.297500", "155441.757500", "155442.217500", "155442.677500", "155443.137500", "155443.597500", "155444.057500", "155444.517500", "155444.977500", "155445.437500", "155445.897500", "155446.357500", "155446.817500", "155447.277500", "155447.737500", "155448.197500", "155448.657500", "155449.117500", "155449.577500", "155450.037500", "155450.497500", "155450.957500", "155451.417500", "155451.877500", "155452.337500", "155452.797500", "155453.257500", "155453.717500", "155454.177500", "155454.637500", "155455.097500", "155455.557500", "155456.017500", "155456.477500", "155456.937500", "155457.397500", "155457.857500", "155458.317500", "155458.777500", "155459.237500", "155459.697500", "155500.157500", "155500.617500", "155501.077500", "155501.537500", "155501.997500", "155502.457500", "155502.917500", "155503.377500", "155503.837500", "155504.297500", "155504.757500", "155505.217500", "155505.677500", "155506.137500", "155506.597500", "155507.057500", "155507.517500", "155507.977500", "155508.437500", "155508.897500", "155509.357500", "155509.817500", "155510.277500", "155510.737500", "155511.197500", "155511.657500", "155512.117500", "155512.577500", "155513.037500", "155513.497500", "155513.957500", "155514.417500", "155514.877500", "155515.337500", "155515.797500", "155516.257500", "155516.717500", "155517.177500", "155517.637500", "155518.097500", "155518.557500", "155519.017500", "155519.477500", "155519.937500", "155520.397500", "155520.857500", "155521.317500", "155521.777500", "155522.237500", "155522.697500", "155523.157500", "155523.617500", "155524.077500", "155524.537500", "155524.997500", "155525.457500", "155525.917500", "155526.377500", "155526.837500", "155527.297500", "155527.757500", "155528.217500", "155528.677500", "155529.137500", "155529.597500", "155530.057500", "155530.517500", "155530.977500", "155531.437500", "155531.897500", "155532.357500", "155532.817500", "155533.277500", "155533.737500", "155534.197500", "155534.657500", "155535.117500", "155535.577500", "155536.037500", "155536.497500", "155536.957500", "155537.417500", "155537.877500", "155538.337500", "155538.797500", "155539.257500", "155539.717500", "155540.177500", "155540.637500", "155541.097500", "155541.557500", "155542.017500", "155542.477500", "155542.937500", "155543.397500", "155543.857500", "155544.317500", "155544.777500", "155545.237500", "155545.697500", "155546.157500", "155546.617500", "155547.077500", "155547.537500", "155547.997500", "155548.457500", "155548.917500", "155549.377500", "155549.837500", "155550.297500", "155550.757500", "155551.217500", "155551.677500", "155552.137500", "155552.597500", "155553.057500", "155553.517500", "155553.977500", "155554.437500", "155554.897500", "155555.357500", "155555.817500", "155556.277500", "155556.737500", "155557.197500", "155557.657500", "155558.117500", "155558.577500", "155559.037500", "155559.497500", "155559.957500", "155600.417500", "155600.877500"],
