{
  "AcquisitionMatrixPE": 82,
  "AcquisitionNumber": 1,
  "AcquisitionTime": "15:08:48.285000",
  "BandwidthPerPixelPhaseEncode": 24.888,
  "BaseResolution": 82,
  "BodyPartExamined": "BRAIN",
  "ConsistencyInfo": "N4_VE11C_LATEST_20160120",
  "ConversionSoftware": "dcm2niix",
  "ConversionSoftwareVersion": "v1.0.20201102",
  "DerivedVendorReportedEchoSpacing": 0.00049,
  "DeviceSerialNumber": "66112",
  "DwellTime": 2e-06,
  "EchoTime": 0.0272,
  "EchoTrainLength": 82,
  "EffectiveEchoSpacing": 0.00049,
  "FlipAngle": 44,
  "ImageComments": "Unaliased MB8/PE3",
  "ImageOrientationPatientDICOM": [0.99926, 0.00917845, -0.0373557, -0.00872036, 0.999885, 0.0124075],
  "ImageType": [
    "ORIGINAL",
    "PRIMARY",
    "M",
    "MB",
    "ND",
    "NORM",
    "MOSAIC"
],
  "ImagingFrequency": 123.252,
  "InPlanePhaseEncodingDirectionDICOM": "COL",
  "InstitutionAddress": "Maynard 3,Hanover,NH,US,03755",
  "InstitutionName": "Dartmouth College - PBS",
  "InstitutionalDepartmentName": "Department",
  "MRAcquisitionType": "2D",
  "MagneticFieldStrength": 3,
  "Manufacturer": "Siemens",
  "ManufacturersModelName": "Prisma",
  "Modality": "MR",
  "MultibandAccelerationFactor": 8,
  "PartialFourier": 1,
  "PatientPosition": "HFS",
  "PercentPhaseFOV": 100,
  "PercentSampling": 100,
  "PhaseEncodingDirection": "j-",
  "PhaseEncodingSteps": 82,
  "PhaseResolution": 1,
  "PixelBandwidth": 3050,
  "ProcedureStepDescription": "Wager_Wager^1076_spacetop",
  "ProtocolName": "func_run-02_task-social_acq-ap-mb8",
  "PulseSequenceDetails": "%CustomerSeq%\\cmrr_mbep2d_bold",
  "ReceiveCoilActiveElements": "HEA;HEP",
  "ReceiveCoilName": "Head_32",
  "ReconMatrixPE": 82,
  "RepetitionTime": 0.46,
  "SAR": 0.0966581,
  "ScanOptions": "FS",
  "ScanningSequence": "EP",
  "SequenceName": "epfid2d1_82",
  "SequenceVariant": "SK\\SS",
  "SeriesDescription": "func_run-02_task-social_acq-ap-mb8",
  "SeriesNumber": 14,
  "ShimSetting": [4125, -7774, -7240, 523, -99, -317, -68, 102],
  "SliceThickness": 2.7,
  "SliceTiming": [0, 0.2525, 0.0625, 0.315, 0.125, 0.3775, 0.19, 0, 0.2525, 0.0625, 0.315, 0.125, 0.3775, 0.19, 0, 0.2525, 0.0625, 0.315, 0.125, 0.3775, 0.19, 0, 0.2525, 0.0625, 0.315, 0.125, 0.3775, 0.19, 0, 0.2525, 0.0625, 0.315, 0.125, 0.3775, 0.19, 0, 0.2525, 0.0625, 0.315, 0.125, 0.3775, 0.19, 0, 0.2525, 0.0625, 0.315, 0.125, 0.3775, 0.19, 0, 0.2525, 0.0625, 0.315, 0.125, 0.3775, 0.19],
  "SoftwareVersions": "syngo MR E11",
  "SpacingBetweenSlices": 2.7,
  "StationName": "AWP66112",
  "TaskName": "social",
  "TotalReadoutTime": 0.03969,
  "TxRefAmp": 245.036,
  "WipMemBlock": "b55ca720-960c-4964-af0c-59465d722cab||Sequence: R016 ve11c/master r/e634e98; Dec 19 2017 11:00:25 by eja",
  "dcmmeta_affine": [
    [-2.680941104888916, -0.023396095260977745, -0.10115636885166168, 116.30883026123047],
    [-0.02462512068450451, 2.6826183795928955, 0.032595813274383545, -85.7464828491211],
    [-0.10022270679473877, -0.03328831493854523, 2.6979074478149414, -61.10007858276367],
    [0.0, 0.0, 0.0, 1.0]
],
  "dcmmeta_reorient_transform": [
    [0.0, -1.0, 0.0, 81.0],
    [1.0, 0.0, 0.0, 0.0],
    [0.0, 0.0, 1.0, 0.0],
    [0.0, 0.0, 0.0, 1.0]
],
  "dcmmeta_shape": [82, 82, 56, 872],
  "dcmmeta_slice_dim": 2,
  "dcmmeta_version": 0.6,
  "global": {
    "const": {
      "AccessionNumber": "A003803",
      "AcquisitionMatrix": [82, 0, 0, 82],
      "AngioFlag": "N",
      "BitsAllocated": 16,
      "BitsStored": 16,
      "BodyPartExamined": "BRAIN",
      "Columns": 656,
      "EchoNumbers": 1,
      "EchoTime": 27.2,
      "EchoTrainLength": 82,
      "FlipAngle": 44.0,
      "HighBit": 15,
      "ImageOrientationPatient": [0.99925987858706, 0.0091784535871, -0.0373557363189, -0.008720362304, 0.999884998473, 0.01240746186513],
      "ImagePositionPatient": [-877.12919088249, -908.52448111523, -44.58625892407],
      "ImageType": [
        "ORIGINAL",
        "PRIMARY",
        "M",
        "MB",
        "ND",
        "NORM",
        "MOSAIC"
],
      "ImagedNucleus": "1H",
      "ImagingFrequency": 123.252199,
      "InPlanePhaseEncodingDirection": "COL",
      "MRAcquisitionType": "2D",
      "MagneticFieldStrength": 3.0,
      "Manufacturer": "SIEMENS",
      "ManufacturerModelName": "Prisma",
      "Modality": "MR",
      "NumberOfAverages": 1.0,
      "NumberOfPhaseEncodingSteps": 82,
      "PercentPhaseFieldOfView": 100.0,
      "PercentSampling": 100.0,
      "PerformedProcedureStepStartTime": "142936.029000",
      "PhotometricInterpretation": "MONOCHROME2",
      "PixelBandwidth": 3050.0,
      "PixelRepresentation": 0,
      "PixelSpacing": [2.6829268932343, 2.6829268932343],
      "ProtocolName": "func_run-02_task-social_acq-ap-mb8",
      "RepetitionTime": 460.0,
      "Rows": 656,
      "SAR": 0.09665808134241,
      "SamplesPerPixel": 1,
      "ScanOptions": "FS",
      "ScanningSequence": "EP",
      "SequenceName": "epfid2d1_82",
      "SequenceVariant": [
        "SK",
        "SS"
],
      "SeriesDescription": "func_run-02_task-social_acq-ap-mb8",
      "SeriesNumber": 14,
      "SeriesTime": "150915.181000",
      "SliceLocation": -66.44544897302,
      "SliceThickness": 2.7000000476837,
      "SmallestImagePixelValue": 0,
      "SoftwareVersions": "syngo MR E11",
      "SpacingBetweenSlices": 2.6999999605708,
      "SpecificCharacterSet": "ISO_IR 100",
      "StudyID": "1",
      "StudyTime": "142935.975000",
      "TransmitCoilName": "Body",
      "VariableFlipAngleFlag": "N",
      "WindowCenterWidthExplanation": "Algo1",
      "dBdt": 0.0},
    "slices": {}
  },
  "time": {
    "samples": {
      "AcquisitionNumber": [1, 2, 3, 4, 5, 6, 7, 8, 9, 10, 11, 12, 13, 14, 15, 16, 17, 18, 19, 20, 21, 22, 23, 24, 25, 26, 27, 28, 29, 30, 31, 32, 33, 34, 35, 36, 37, 38, 39, 40, 41, 42, 43, 44, 45, 46, 47, 48, 49, 50, 51, 52, 53, 54, 55, 56, 57, 58, 59, 60, 61, 62, 63, 64, 65, 66, 67, 68, 69, 70, 71, 72, 73, 74, 75, 76, 77, 78, 79, 80, 81, 82, 83, 84, 85, 86, 87, 88, 89, 90, 91, 92, 93, 94, 95, 96, 97, 98, 99, 100, 101, 102, 103, 104, 105, 106, 107, 108, 109, 110, 111, 112, 113, 114, 115, 116, 117, 118, 119, 120, 121, 122, 123, 124, 125, 126, 127, 128, 129, 130, 131, 132, 133, 134, 135, 136, 137, 138, 139, 140, 141, 142, 143, 144, 145, 146, 147, 148, 149, 150, 151, 152, 153, 154, 155, 156, 157, 158, 159, 160, 161, 162, 163, 164, 165, 166, 167, 168, 169, 170, 171, 172, 173, 174, 175, 176, 177, 178, 179, 180, 181, 182, 183, 184, 185, 186, 187, 188, 189, 190, 191, 192, 193, 194, 195, 196, 197, 198, 199, 200, 201, 202, 203, 204, 205, 206, 207, 208, 209, 210, 211, 212, 213, 214, 215, 216, 217, 218, 219, 220, 221, 222, 223, 224, 225, 226, 227, 228, 229, 230, 231, 232, 233, 234, 235, 236, 237, 238, 239, 240, 241, 242, 243, 244, 245, 246, 247, 248, 249, 250, 251, 252, 253, 254, 255, 256, 257, 258, 259, 260, 261, 262, 263, 264, 265, 266, 267, 268, 269, 270, 271, 272, 273, 274, 275, 276, 277, 278, 279, 280, 281, 282, 283, 284, 285, 286, 287, 288, 289, 290, 291, 292, 293, 294, 295, 296, 297, 298, 299, 300, 301, 302, 303, 304, 305, 306, 307, 308, 309, 310, 311, 312, 313, 314, 315, 316, 317, 318, 319, 320, 321, 322, 323, 324, 325, 326, 327, 328, 329, 330, 331, 332, 333, 334, 335, 336, 337, 338, 339, 340, 341, 342, 343, 344, 345, 346, 347, 348, 349, 350, 351, 352, 353, 354, 355, 356, 357, 358, 359, 360, 361, 362, 363, 364, 365, 366, 367, 368, 369, 370, 371, 372, 373, 374, 375, 376, 377, 378, 379, 380, 381, 382, 383, 384, 385, 386, 387, 388, 389, 390, 391, 392, 393, 394, 395, 396, 397, 398, 399, 400, 401, 402, 403, 404, 405, 406, 407, 408, 409, 410, 411, 412, 413, 414, 415, 416, 417, 418, 419, 420, 421, 422, 423, 424, 425, 426, 427, 428, 429, 430, 431, 432, 433, 434, 435, 436, 437, 438, 439, 440, 441, 442, 443, 444, 445, 446, 447, 448, 449, 450, 451, 452, 453, 454, 455, 456, 457, 458, 459, 460, 461, 462, 463, 464, 465, 466, 467, 468, 469, 470, 471, 472, 473, 474, 475, 476, 477, 478, 479, 480, 481, 482, 483, 484, 485, 486, 487, 488, 489, 490, 491, 492, 493, 494, 495, 496, 497, 498, 499, 500, 501, 502, 503, 504, 505, 506, 507, 508, 509, 510, 511, 512, 513, 514, 515, 516, 517, 518, 519, 520, 521, 522, 523, 524, 525, 526, 527, 528, 529, 530, 531, 532, 533, 534, 535, 536, 537, 538, 539, 540, 541, 542, 543, 544, 545, 546, 547, 548, 549, 550, 551, 552, 553, 554, 555, 556, 557, 558, 559, 560, 561, 562, 563, 564, 565, 566, 567, 568, 569, 570, 571, 572, 573, 574, 575, 576, 577, 578, 579, 580, 581, 582, 583, 584, 585, 586, 587, 588, 589, 590, 591, 592, 593, 594, 595, 596, 597, 598, 599, 600, 601, 602, 603, 604, 605, 606, 607, 608, 609, 610, 611, 612, 613, 614, 615, 616, 617, 618, 619, 620, 621, 622, 623, 624, 625, 626, 627, 628, 629, 630, 631, 632, 633, 634, 635, 636, 637, 638, 639, 640, 641, 642, 643, 644, 645, 646, 647, 648, 649, 650, 651, 652, 653, 654, 655, 656, 657, 658, 659, 660, 661, 662, 663, 664, 665, 666, 667, 668, 669, 670, 671, 672, 673, 674, 675, 676, 677, 678, 679, 680, 681, 682, 683, 684, 685, 686, 687, 688, 689, 690, 691, 692, 693, 694, 695, 696, 697, 698, 699, 700, 701, 702, 703, 704, 705, 706, 707, 708, 709, 710, 711, 712, 713, 714, 715, 716, 717, 718, 719, 720, 721, 722, 723, 724, 725, 726, 727, 728, 729, 730, 731, 732, 733, 734, 735, 736, 737, 738, 739, 740, 741, 742, 743, 744, 745, 746, 747, 748, 749, 750, 751, 752, 753, 754, 755, 756, 757, 758, 759, 760, 761, 762, 763, 764, 765, 766, 767, 768, 769, 770, 771, 772, 773, 774, 775, 776, 777, 778, 779, 780, 781, 782, 783, 784, 785, 786, 787, 788, 789, 790, 791, 792, 793, 794, 795, 796, 797, 798, 799, 800, 801, 802, 803, 804, 805, 806, 807, 808, 809, 810, 811, 812, 813, 814, 815, 816, 817, 818, 819, 820, 821, 822, 823, 824, 825, 826, 827, 828, 829, 830, 831, 832, 833, 834, 835, 836, 837, 838, 839, 840, 841, 842, 843, 844, 845, 846, 847, 848, 849, 850, 851, 852, 853, 854, 855, 856, 857, 858, 859, 860, 861, 862, 863, 864, 865, 866, 867, 868, 869, 870, 871, 872],
      "AcquisitionTime": ["150848.285000", "150848.745000", "150849.205000", "150849.665000", "150850.125000", "150850.585000", "150851.045000", "150851.505000", "150851.965000", "150852.425000", "150852.885000", "150853.345000", "150853.805000", "150854.265000", "150854.725000", "150855.185000", "150855.645000", "150856.105000", "150856.565000", "150857.025000", "150857.485000", "150857.945000", "150858.405000", "150858.865000", "150859.325000", "150859.785000", "150900.245000", "150900.705000", "150901.165000", "150901.625000", "150902.085000", "150902.545000", "150903.005000", "150903.465000", "150903.925000", "150904.385000", "150904.845000", "150905.305000", "150905.765000", "150906.225000", "150906.685000", "150907.145000", "150907.605000", "150908.065000", "150908.525000", "150908.985000", "150909.445000", "150909.905000", "150910.365000", "150910.825000", "150911.285000", "150911.745000", "150912.205000", "150912.665000", "150913.125000", "150913.585000", "150914.045000", "150914.505000", "150914.965000", "150915.425000", "150915.885000", "150916.345000", "150916.805000", "150917.265000", "150917.725000", "150918.185000", "150918.645000", "150919.105000", "150919.565000", "150920.025000", "150920.485000", "150920.945000", "150921.405000", "150921.865000", "150922.325000", "150922.785000", "150923.245000", "150923.705000", "150924.165000", "150924.625000", "150925.085000", "150925.545000", "150926.005000", "150926.465000", "150926.925000", "150927.385000", "150927.845000", "150928.305000", "150928.765000", "150929.225000", "150929.685000", "150930.145000", "150930.605000", "150931.065000", "150931.525000", "150931.985000", "150932.445000", "150932.905000", "150933.365000", "150933.825000", "150934.285000", "150934.745000", "150935.205000", "150935.665000", "150936.125000", "150936.585000", "150937.045000", "150937.505000", "150937.965000", "150938.425000", "150938.885000", "150939.345000", "150939.805000", "150940.265000", "150940.725000", "150941.185000", "150941.645000", "150942.105000", "150942.565000", "150943.025000", "150943.485000", "150943.945000", "150944.405000", "150944.865000", "150945.325000", "150945.785000", "150946.245000", "150946.705000", "150947.165000", "150947.625000", "150948.085000", "150948.545000", "150949.005000", "150949.465000", "150949.925000", "150950.385000", "150950.845000", "150951.305000", "150951.765000", "150952.225000", "150952.685000", "150953.145000", "150953.605000", "150954.065000", "150954.525000", "150954.985000", "150955.445000", "150955.905000", "150956.365000", "150956.825000", "150957.285000", "150957.745000", "150958.205000", "150958.665000", "150959.125000", "150959.585000", "151000.045000", "151000.505000", "151000.965000", "151001.425000", "151001.885000", "151002.345000", "151002.805000", "151003.265000", "151003.725000", "151004.185000", "151004.645000", "151005.105000", "151005.565000", "151006.025000", "151006.485000", "151006.945000", "151007.405000", "151007.865000", "151008.325000", "151008.785000", "151009.245000", "151009.705000", "151010.165000", "151010.625000", "151011.085000", "151011.545000", "151012.005000", "151012.465000", "151012.925000", "151013.385000", "151013.845000", "151014.305000", "151014.765000", "151015.225000", "151015.685000", "151016.145000", "151016.605000", "151017.065000", "151017.525000", "151017.985000", "151018.445000", "151018.905000", "151019.365000", "151019.825000", "151020.285000", "151020.745000", "151021.205000", "151021.665000", "151022.125000", "151022.585000", "151023.045000", "151023.505000", "151023.965000", "151024.425000", "151024.885000", "151025.345000", "151025.805000", "151026.265000", "151026.725000", "151027.185000", "151027.645000", "151028.105000", "151028.565000", "151029.025000", "151029.485000", "151029.945000", "151030.405000", "151030.865000", "151031.325000", "151031.785000", "151032.245000", "151032.705000", "151033.165000", "151033.625000", "151034.085000", "151034.545000", "151035.005000", "151035.465000", "151035.925000", "151036.385000", "151036.845000", "151037.305000", "151037.765000", "151038.225000", "151038.685000", "151039.145000", "151039.605000", "151040.065000", "151040.525000", "151040.985000", "151041.445000", "151041.905000", "151042.365000", "151042.825000", "151043.285000", "151043.745000", "151044.205000", "151044.665000", "151045.125000", "151045.585000", "151046.045000", "151046.505000", "151046.965000", "151047.425000", "151047.885000", "151048.345000", "151048.805000", "151049.265000", "151049.725000", "151050.185000", "151050.645000", "151051.105000", "151051.565000", "151052.025000", "151052.485000", "151052.945000", "151053.405000", "151053.865000", "151054.325000", "151054.785000", "151055.245000", "151055.705000", "151056.165000", "151056.625000", "151057.085000", "151057.545000", "151058.005000", "151058.465000", "151058.925000", "151059.385000", "151059.845000", "151100.305000", "151100.765000", "151101.225000", "151101.685000", "151102.145000", "151102.605000", "151103.065000", "151103.525000", "151103.985000", "151104.445000", "151104.905000", "151105.365000", "151105.825000", "151106.285000", "151106.745000", "151107.205000", "151107.665000", "151108.125000", "151108.585000", "151109.045000", "151109.505000", "151109.965000", "151110.425000", "151110.885000", "151111.345000", "151111.805000", "151112.265000", "151112.725000", "151113.185000", "151113.645000", "151114.105000", "151114.565000", "151115.025000", "151115.485000", "151115.945000", "151116.405000", "151116.865000", "151117.325000", "151117.785000", "151118.245000", "151118.705000", "151119.165000", "151119.625000", "151120.085000", "151120.545000", "151121.005000", "151121.465000", "151121.925000", "151122.385000", "151122.845000", "151123.305000", "151123.765000", "151124.225000", "151124.685000", "151125.145000", "151125.605000", "151126.065000", "151126.525000", "151126.985000", "151127.445000", "151127.905000", "151128.365000", "151128.825000", "151129.285000", "151129.745000", "151130.205000", "151130.665000", "151131.125000", "151131.585000", "151132.045000", "151132.505000", "151132.965000", "151133.425000", "151133.885000", "151134.345000", "151134.805000", "151135.265000", "151135.725000", "151136.185000", "151136.645000", "151137.105000", "151137.565000", "151138.025000", "151138.485000", "151138.945000", "151139.405000", "151139.865000", "151140.325000", "151140.785000", "151141.245000", "151141.705000", "151142.165000", "151142.625000", "151143.085000", "151143.545000", "151144.005000", "151144.465000", "151144.925000", "151145.385000", "151145.845000", "151146.305000", "151146.765000", "151147.225000", "151147.685000", "151148.145000", "151148.605000", "151149.065000", "151149.525000", "151149.985000", "151150.445000", "151150.905000", "151151.365000", "151151.825000", "151152.285000", "151152.745000", "151153.205000", "151153.665000", "151154.125000", "151154.585000", "151155.045000", "151155.505000", "151155.965000", "151156.425000", "151156.885000", "151157.345000", "151157.805000", "151158.265000", "151158.725000", "151159.185000", "151159.645000", "151200.105000", "151200.565000", "151201.025000", "151201.485000", "151201.945000", "151202.405000", "151202.865000", "151203.325000", "151203.785000", "151204.245000", "151204.705000", "151205.165000", "151205.625000", "151206.085000", "151206.545000", "151207.005000", "151207.465000", "151207.925000", "151208.385000", "151208.845000", "151209.305000", "151209.765000", "151210.225000", "151210.685000", "151211.145000", "151211.605000", "151212.065000", "151212.525000", "151212.985000", "151213.445000", "151213.905000", "151214.365000", "151214.825000", "151215.285000", "151215.745000", "151216.205000", "151216.665000", "151217.125000", "151217.585000", "151218.045000", "151218.505000", "151218.965000", "151219.425000", "151219.885000", "151220.345000", "151220.805000", "151221.265000", "151221.725000", "151222.185000", "151222.645000", "151223.105000", "151223.565000", "151224.025000", "151224.485000", "151224.945000", "151225.405000", "151225.865000", "151226.325000", "151226.785000", "151227.245000", "151227.705000", "151228.165000", "151228.625000", "151229.085000", "151229.545000", "151230.005000", "151230.465000", "151230.925000", "151231.385000", "151231.845000", "151232.305000", "151232.765000", "151233.225000", "151233.685000", "151234.145000", "151234.605000", "151235.065000", "151235.525000", "151235.985000", "151236.445000", "151236.905000", "151237.365000", "151237.825000", "151238.285000", "151238.745000", "151239.205000", "151239.665000", "151240.125000", "151240.585000", "151241.045000", "151241.505000", "151241.965000", "151242.425000", "151242.885000", "151243.345000", "151243.805000", "151244.265000", "151244.725000", "151245.185000", "151245.645000", "151246.105000", "151246.565000", "151247.025000", "151247.485000", "151247.945000", "151248.405000", "151248.865000", "151249.325000", "151249.785000", "151250.245000", "151250.705000", "151251.165000", "151251.625000", "151252.085000", "151252.545000", "151253.005000", "151253.465000", "151253.925000", "151254.385000", "151254.845000", "151255.305000", "151255.765000", "151256.225000", "151256.685000", "151257.145000", "151257.605000", "151258.065000", "151258.525000", "151258.985000", "151259.445000", "151259.905000", "151300.365000", "151300.825000", "151301.285000", "151301.745000", "151302.205000", "151302.665000", "151303.125000", "151303.585000", "151304.045000", "151304.505000", "151304.965000", "151305.425000", "151305.885000", "151306.345000", "151306.805000", "151307.265000", "151307.725000", "151308.185000", "151308.645000", "151309.105000", "151309.565000", "151310.025000", "151310.485000", "151310.945000", "151311.405000", "151311.865000", "151312.325000", "151312.785000", "151313.245000", "151313.705000", "151314.165000", "151314.625000", "151315.085000", "151315.545000", "151316.005000", "151316.465000", "151316.925000", "151317.385000", "151317.845000", "151318.305000", "151318.765000", "151319.225000", "151319.685000", "151320.145000", "151320.605000", "151321.065000", "151321.525000", "151321.985000", "151322.445000", "151322.905000", "151323.365000", "151323.825000", "151324.285000", "151324.745000", "151325.205000", "151325.665000", "151326.125000", "151326.585000", "151327.045000", "151327.505000", "151327.965000", "151328.425000", "151328.885000", "151329.345000", "151329.805000", "151330.265000", "151330.725000", "151331.185000", "151331.645000", "151332.105000", "151332.565000", "151333.025000", "151333.485000", "151333.945000", "151334.405000", "151334.865000", "151335.325000", "151335.785000", "151336.245000", "151336.705000", "151337.165000", "151337.625000", "151338.085000", "151338.545000", "151339.005000", "151339.465000", "151339.925000", "151340.385000", "151340.845000", "151341.305000", "151341.765000", "151342.225000", "151342.685000", "151343.145000", "151343.605000", "151344.065000", "151344.525000", "151344.985000", "151345.445000", "151345.905000", "151346.365000", "151346.825000", "151347.285000", "151347.745000", "151348.205000", "151348.665000", "151349.125000", "151349.585000", "151350.045000", "151350.505000", "151350.965000", "151351.425000", "151351.885000", "151352.345000", "151352.805000", "151353.265000", "151353.725000", "151354.185000", "151354.645000", "151355.105000", "151355.565000", "151356.025000", "151356.485000", "151356.945000", "151357.405000", "151357.865000", "151358.325000", "151358.785000", "151359.245000", "151359.705000", "151400.165000", "151400.625000", "151401.085000", "151401.545000", "151402.005000", "151402.465000", "151402.925000", "151403.385000", "151403.845000", "151404.305000", "151404.765000", "151405.225000", "151405.685000", "151406.145000", "151406.605000", "151407.065000", "151407.525000", "151407.985000", "151408.445000", "151408.905000", "151409.365000", "151409.825000", "151410.285000", "151410.745000", "151411.205000", "151411.665000", "151412.125000", "151412.585000", "151413.045000", "151413.505000", "151413.965000", "151414.425000", "151414.885000", "151415.345000", "151415.805000", "151416.265000", "151416.725000", "151417.185000", "151417.645000", "151418.105000", "151418.565000", "151419.025000", "151419.485000", "151419.945000", "151420.405000", "151420.865000", "151421.325000", "151421.785000", "151422.245000", "151422.705000", "151423.165000", "151423.625000", "151424.085000", "151424.545000", "151425.005000", "151425.465000", "151425.925000", "151426.385000", "151426.845000", "151427.305000", "151427.765000", "151428.225000", "151428.685000", "151429.145000", "151429.605000", "151430.065000", "151430.525000", "151430.985000", "151431.445000", "151431.905000", "151432.365000", "151432.825000", "151433.285000", "151433.745000", "151434.205000", "151434.665000", "151435.125000", "151435.585000", "151436.045000", "151436.505000", "151436.965000", "151437.425000", "151437.885000", "151438.345000", "151438.805000", "151439.265000", "151439.725000", "151440.185000", "151440.645000", "151441.105000", "151441.565000", "151442.025000", "151442.485000", "151442.945000", "151443.405000", "151443.865000", "151444.325000", "151444.785000", "151445.245000", "151445.705000", "151446.165000", "151446.625000", "151447.085000", "151447.545000", "151448.005000", "151448.465000", "151448.925000", "151449.385000", "151449.845000", "151450.305000", "151450.765000", "151451.225000", "151451.685000", "151452.145000", "151452.605000", "151453.065000", "151453.525000", "151453.985000", "151454.445000", "151454.905000", "151455.365000", "151455.825000", "151456.285000", "151456.745000", "151457.205000", "151457.665000", "151458.125000", "151458.585000", "151459.045000", "151459.505000", "151459.965000", "151500.425000", "151500.885000", "151501.345000", "151501.805000", "151502.265000", "151502.725000", "151503.185000", "151503.645000", "151504.105000", "151504.565000", "151505.025000", "151505.485000", "151505.945000", "151506.405000", "151506.865000", "151507.325000", "151507.785000", "151508.245000", "151508.705000", "151509.165000", "151509.625000", "151510.085000", "151510.545000", "151511.005000", "151511.465000", "151511.925000", "151512.385000", "151512.845000", "151513.305000", "151513.765000", "151514.225000", "151514.685000", "151515.145000", "151515.605000", "151516.065000", "151516.525000", "151516.985000", "151517.445000", "151517.905000", "151518.365000", "151518.825000", "151519.285000", "151519.745000", "151520.205000", "151520.665000", "151521.125000", "151521.585000", "151522.045000", "151522.505000", "151522.965000", "151523.425000", "151523.885000", "151524.345000", "151524.805000", "151525.265000", "151525.725000", "151526.185000", "151526.645000", "151527.105000", "151527.565000", "151528.025000", "151528.485000", "151528.945000"],
