{
  "AcquisitionMatrixPE": 82,
  "AcquisitionNumber": 1,
  "AcquisitionTime": "15:01:12.637500",
  "BandwidthPerPixelPhaseEncode": 24.888,
  "BaseResolution": 82,
  "BodyPartExamined": "BRAIN",
  "ConsistencyInfo": "N4_VE11C_LATEST_20160120",
  "ConversionSoftware": "dcm2niix",
  "ConversionSoftwareVersion": "v1.0.20201102",
  "DerivedVendorReportedEchoSpacing": 0.00049,
  "DeviceSerialNumber": "66112",
  "DwellTime": 2e-06,
  "EchoTime": 0.0272,
  "EchoTrainLength": 82,
  "EffectiveEchoSpacing": 0.00049,
  "FlipAngle": 44,
  "ImageComments": "Unaliased MB8/PE3",
  "ImageOrientationPatientDICOM": [0.99926, 0.00917845, -0.0373557, -0.00872036, 0.999885, 0.0124075],
  "ImageType": [
    "ORIGINAL",
    "PRIMARY",
    "M",
    "MB",
    "ND",
    "NORM",
    "MOSAIC"
],
  "ImagingFrequency": 123.252,
  "InPlanePhaseEncodingDirectionDICOM": "COL",
  "InstitutionAddress": "Maynard 3,Hanover,NH,US,03755",
  "InstitutionName": "Dartmouth College - PBS",
  "InstitutionalDepartmentName": "Department",
  "MRAcquisitionType": "2D",
  "MagneticFieldStrength": 3,
  "Manufacturer": "Siemens",
  "ManufacturersModelName": "Prisma",
  "Modality": "MR",
  "MultibandAccelerationFactor": 8,
  "PartialFourier": 1,
  "PatientPosition": "HFS",
  "PercentPhaseFOV": 100,
  "PercentSampling": 100,
  "PhaseEncodingDirection": "j-",
  "PhaseEncodingSteps": 82,
  "PhaseResolution": 1,
  "PixelBandwidth": 3050,
  "ProcedureStepDescription": "Wager_Wager^1076_spacetop",
  "ProtocolName": "func_run-01_task-social_acq-ap-mb8",
  "PulseSequenceDetails": "%CustomerSeq%\\cmrr_mbep2d_bold",
  "ReceiveCoilActiveElements": "HEA;HEP",
  "ReceiveCoilName": "Head_32",
  "ReconMatrixPE": 82,
  "RepetitionTime": 0.46,
  "SAR": 0.0966581,
  "ScanOptions": "FS",
  "ScanningSequence": "EP",
  "SequenceName": "epfid2d1_82",
  "SequenceVariant": "SK\\SS",
  "SeriesDescription": "func_run-01_task-social_acq-ap-mb8",
  "SeriesNumber": 12,
  "ShimSetting": [4125, -7774, -7240, 523, -99, -317, -68, 102],
  "SliceThickness": 2.7,
  "SliceTiming": [0, 0.25, 0.0625, 0.3125, 0.125, 0.375, 0.1875, 0, 0.25, 0.0625, 0.3125, 0.125, 0.375, 0.1875, 0, 0.25, 0.0625, 0.3125, 0.125, 0.375, 0.1875, 0, 0.25, 0.0625, 0.3125, 0.125, 0.375, 0.1875, 0, 0.25, 0.0625, 0.3125, 0.125, 0.375, 0.1875, 0, 0.25, 0.0625, 0.3125, 0.125, 0.375, 0.1875, 0, 0.25, 0.0625, 0.3125, 0.125, 0.375, 0.1875, 0, 0.25, 0.0625, 0.3125, 0.125, 0.375, 0.1875],
  "SoftwareVersions": "syngo MR E11",
  "SpacingBetweenSlices": 2.7,
  "StationName": "AWP66112",
  "TaskName": "social",
  "TotalReadoutTime": 0.03969,
  "TxRefAmp": 245.036,
  "WipMemBlock": "4e25f710-384f-4ba1-a05d-c610c3fd509e||Sequence: R016 ve11c/master r/e634e98; Dec 19 2017 11:00:25 by eja",
  "dcmmeta_affine": [
    [-2.680941104888916, -0.023396095260977745, -0.10115636885166168, 116.30883026123047],
    [-0.02462512068450451, 2.6826183795928955, 0.032595813274383545, -85.7464828491211],
    [-0.10022270679473877, -0.03328831493854523, 2.6979074478149414, -61.10007858276367],
    [0.0, 0.0, 0.0, 1.0]
],
  "dcmmeta_reorient_transform": [
    [0.0, -1.0, 0.0, 81.0],
    [1.0, 0.0, 0.0, 0.0],
    [0.0, 0.0, 1.0, 0.0],
    [0.0, 0.0, 0.0, 1.0]
],
  "dcmmeta_shape": [82, 82, 56, 872],
  "dcmmeta_slice_dim": 2,
  "dcmmeta_version": 0.6,
  "global": {
    "const": {
      "AccessionNumber": "A003803",
      "AcquisitionMatrix": [82, 0, 0, 82],
      "AngioFlag": "N",
      "BitsAllocated": 16,
      "BitsStored": 16,
      "BodyPartExamined": "BRAIN",
      "Columns": 656,
      "EchoNumbers": 1,
      "EchoTime": 27.2,
      "EchoTrainLength": 82,
      "FlipAngle": 44.0,
      "HighBit": 15,
      "ImageOrientationPatient": [0.99925987858706, 0.0091784535871, -0.0373557363189, -0.008720362304, 0.999884998473, 0.01240746186513],
      "ImagePositionPatient": [-877.12919088249, -908.52448111523, -44.58625892407],
      "ImageType": [
        "ORIGINAL",
        "PRIMARY",
        "M",
        "MB",
        "ND",
        "NORM",
        "MOSAIC"
],
      "ImagedNucleus": "1H",
      "ImagingFrequency": 123.252195,
      "InPlanePhaseEncodingDirection": "COL",
      "MRAcquisitionType": "2D",
      "MagneticFieldStrength": 3.0,
      "Manufacturer": "SIEMENS",
      "ManufacturerModelName": "Prisma",
      "Modality": "MR",
      "NumberOfAverages": 1.0,
      "NumberOfPhaseEncodingSteps": 82,
      "PercentPhaseFieldOfView": 100.0,
      "PercentSampling": 100.0,
      "PerformedProcedureStepStartTime": "142936.029000",
      "PhotometricInterpretation": "MONOCHROME2",
      "PixelBandwidth": 3050.0,
      "PixelRepresentation": 0,
      "PixelSpacing": [2.6829268932343, 2.6829268932343],
      "ProtocolName": "func_run-01_task-social_acq-ap-mb8",
      "RepetitionTime": 460.0,
      "Rows": 656,
      "SAR": 0.09665808134241,
      "SamplesPerPixel": 1,
      "ScanOptions": "FS",
      "ScanningSequence": "EP",
      "SequenceName": "epfid2d1_82",
      "SequenceVariant": [
        "SK",
        "SS"
],
      "SeriesDescription": "func_run-01_task-social_acq-ap-mb8",
      "SeriesNumber": 12,
      "SeriesTime": "150135.085000",
      "SliceLocation": -66.44544897302,
      "SliceThickness": 2.7000000476837,
      "SmallestImagePixelValue": 0,
      "SoftwareVersions": "syngo MR E11",
      "SpacingBetweenSlices": 2.6999999605708,
      "SpecificCharacterSet": "ISO_IR 100",
      "StudyID": "1",
      "StudyTime": "142935.975000",
      "TransmitCoilName": "Body",
      "VariableFlipAngleFlag": "N",
      "WindowCenterWidthExplanation": "Algo1",
      "dBdt": 0.0},
    "slices": {}
  },
  "time": {
    "samples": {
      "AcquisitionNumber": [1, 2, 3, 4, 5, 6, 7, 8, 9, 10, 11, 12, 13, 14, 15, 16, 17, 18, 19, 20, 21, 22, 23, 24, 25, 26, 27, 28, 29, 30, 31, 32, 33, 34, 35, 36, 37, 38, 39, 40, 41, 42, 43, 44, 45, 46, 47, 48, 49, 50, 51, 52, 53, 54, 55, 56, 57, 58, 59, 60, 61, 62, 63, 64, 65, 66, 67, 68, 69, 70, 71, 72, 73, 74, 75, 76, 77, 78, 79, 80, 81, 82, 83, 84, 85, 86, 87, 88, 89, 90, 91, 92, 93, 94, 95, 96, 97, 98, 99, 100, 101, 102, 103, 104, 105, 106, 107, 108, 109, 110, 111, 112, 113, 114, 115, 116, 117, 118, 119, 120, 121, 122, 123, 124, 125, 126, 127, 128, 129, 130, 131, 132, 133, 134, 135, 136, 137, 138, 139, 140, 141, 142, 143, 144, 145, 146, 147, 148, 149, 150, 151, 152, 153, 154, 155, 156, 157, 158, 159, 160, 161, 162, 163, 164, 165, 166, 167, 168, 169, 170, 171, 172, 173, 174, 175, 176, 177, 178, 179, 180, 181, 182, 183, 184, 185, 186, 187, 188, 189, 190, 191, 192, 193, 194, 195, 196, 197, 198, 199, 200, 201, 202, 203, 204, 205, 206, 207, 208, 209, 210, 211, 212, 213, 214, 215, 216, 217, 218, 219, 220, 221, 222, 223, 224, 225, 226, 227, 228, 229, 230, 231, 232, 233, 234, 235, 236, 237, 238, 239, 240, 241, 242, 243, 244, 245, 246, 247, 248, 249, 250, 251, 252, 253, 254, 255, 256, 257, 258, 259, 260, 261, 262, 263, 264, 265, 266, 267, 268, 269, 270, 271, 272, 273, 274, 275, 276, 277, 278, 279, 280, 281, 282, 283, 284, 285, 286, 287, 288, 289, 290, 291, 292, 293, 294, 295, 296, 297, 298, 299, 300, 301, 302, 303, 304, 305, 306, 307, 308, 309, 310, 311, 312, 313, 314, 315, 316, 317, 318, 319, 320, 321, 322, 323, 324, 325, 326, 327, 328, 329, 330, 331, 332, 333, 334, 335, 336, 337, 338, 339, 340, 341, 342, 343, 344, 345, 346, 347, 348, 349, 350, 351, 352, 353, 354, 355, 356, 357, 358, 359, 360, 361, 362, 363, 364, 365, 366, 367, 368, 369, 370, 371, 372, 373, 374, 375, 376, 377, 378, 379, 380, 381, 382, 383, 384, 385, 386, 387, 388, 389, 390, 391, 392, 393, 394, 395, 396, 397, 398, 399, 400, 401, 402, 403, 404, 405, 406, 407, 408, 409, 410, 411, 412, 413, 414, 415, 416, 417, 418, 419, 420, 421, 422, 423, 424, 425, 426, 427, 428, 429, 430, 431, 432, 433, 434, 435, 436, 437, 438, 439, 440, 441, 442, 443, 444, 445, 446, 447, 448, 449, 450, 451, 452, 453, 454, 455, 456, 457, 458, 459, 460, 461, 462, 463, 464, 465, 466, 467, 468, 469, 470, 471, 472, 473, 474, 475, 476, 477, 478, 479, 480, 481, 482, 483, 484, 485, 486, 487, 488, 489, 490, 491, 492, 493, 494, 495, 496, 497, 498, 499, 500, 501, 502, 503, 504, 505, 506, 507, 508, 509, 510, 511, 512, 513, 514, 515, 516, 517, 518, 519, 520, 521, 522, 523, 524, 525, 526, 527, 528, 529, 530, 531, 532, 533, 534, 535, 536, 537, 538, 539, 540, 541, 542, 543, 544, 545, 546, 547, 548, 549, 550, 551, 552, 553, 554, 555, 556, 557, 558, 559, 560, 561, 562, 563, 564, 565, 566, 567, 568, 569, 570, 571, 572, 573, 574, 575, 576, 577, 578, 579, 580, 581, 582, 583, 584, 585, 586, 587, 588, 589, 590, 591, 592, 593, 594, 595, 596, 597, 598, 599, 600, 601, 602, 603, 604, 605, 606, 607, 608, 609, 610, 611, 612, 613, 614, 615, 616, 617, 618, 619, 620, 621, 622, 623, 624, 625, 626, 627, 628, 629, 630, 631, 632, 633, 634, 635, 636, 637, 638, 639, 640, 641, 642, 643, 644, 645, 646, 647, 648, 649, 650, 651, 652, 653, 654, 655, 656, 657, 658, 659, 660, 661, 662, 663, 664, 665, 666, 667, 668, 669, 670, 671, 672, 673, 674, 675, 676, 677, 678, 679, 680, 681, 682, 683, 684, 685, 686, 687, 688, 689, 690, 691, 692, 693, 694, 695, 696, 697, 698, 699, 700, 701, 702, 703, 704, 705, 706, 707, 708, 709, 710, 711, 712, 713, 714, 715, 716, 717, 718, 719, 720, 721, 722, 723, 724, 725, 726, 727, 728, 729, 730, 731, 732, 733, 734, 735, 736, 737, 738, 739, 740, 741, 742, 743, 744, 745, 746, 747, 748, 749, 750, 751, 752, 753, 754, 755, 756, 757, 758, 759, 760, 761, 762, 763, 764, 765, 766, 767, 768, 769, 770, 771, 772, 773, 774, 775, 776, 777, 778, 779, 780, 781, 782, 783, 784, 785, 786, 787, 788, 789, 790, 791, 792, 793, 794, 795, 796, 797, 798, 799, 800, 801, 802, 803, 804, 805, 806, 807, 808, 809, 810, 811, 812, 813, 814, 815, 816, 817, 818, 819, 820, 821, 822, 823, 824, 825, 826, 827, 828, 829, 830, 831, 832, 833, 834, 835, 836, 837, 838, 839, 840, 841, 842, 843, 844, 845, 846, 847, 848, 849, 850, 851, 852, 853, 854, 855, 856, 857, 858, 859, 860, 861, 862, 863, 864, 865, 866, 867, 868, 869, 870, 871, 872],
      "AcquisitionTime": ["150112.637500", "150113.097500", "150113.557500", "150114.017500", "150114.477500", "150114.937500", "150115.397500", "150115.857500", "150116.317500", "150116.777500", "150117.237500", "150117.697500", "150118.157500", "150118.617500", "150119.077500", "150119.537500", "150119.997500", "150120.457500", "150120.917500", "150121.377500", "150121.837500", "150122.297500", "150122.757500", "150123.217500", "150123.677500", "150124.137500", "150124.597500", "150125.057500", "150125.517500", "150125.977500", "150126.437500", "150126.897500", "150127.357500", "150127.817500", "150128.277500", "150128.737500", "150129.197500", "150129.657500", "150130.117500", "150130.577500", "150131.037500", "150131.497500", "150131.957500", "150132.417500", "150132.877500", "150133.337500", "150133.797500", "150134.257500", "150134.717500", "150135.177500", "150135.637500", "150136.097500", "150136.557500", "150137.017500", "150137.477500", "150137.937500", "150138.397500", "150138.857500", "150139.317500", "150139.777500", "150140.237500", "150140.697500", "150141.157500", "150141.617500", "150142.077500", "150142.537500", "150142.997500", "150143.457500", "150143.917500", "150144.377500", "150144.837500", "150145.297500", "150145.757500", "150146.217500", "150146.677500", "150147.137500", "150147.597500", "150148.057500", "150148.517500", "150148.977500", "150149.437500", "150149.897500", "150150.357500", "150150.817500", "150151.277500", "150151.737500", "150152.197500", "150152.657500", "150153.117500", "150153.577500", "150154.037500", "150154.497500", "150154.957500", "150155.417500", "150155.877500", "150156.337500", "150156.797500", "150157.257500", "150157.717500", "150158.177500", "150158.637500", "150159.097500", "150159.557500", "150200.017500", "150200.477500", "150200.937500", "150201.397500", "150201.857500", "150202.317500", "150202.777500", "150203.237500", "150203.697500", "150204.157500", "150204.617500", "150205.077500", "150205.537500", "150205.997500", "150206.457500", "150206.917500", "150207.377500", "150207.837500", "150208.297500", "150208.757500", "150209.217500", "150209.677500", "150210.137500", "150210.597500", "150211.057500", "150211.517500", "150211.977500", "150212.437500", "150212.897500", "150213.357500", "150213.817500", "150214.277500", "150214.737500", "150215.197500", "150215.657500", "150216.117500", "150216.577500", "150217.037500", "150217.497500", "150217.957500", "150218.417500", "150218.877500", "150219.337500", "150219.797500", "150220.257500", "150220.717500", "150221.177500", "150221.637500", "150222.097500", "150222.557500", "150223.017500", "150223.477500", "150223.937500", "150224.397500", "150224.857500", "150225.317500", "150225.777500", "150226.237500", "150226.697500", "150227.157500", "150227.617500", "150228.077500", "150228.537500", "150228.997500", "150229.457500", "150229.917500", "150230.377500", "150230.837500", "150231.297500", "150231.757500", "150232.217500", "150232.677500", "150233.137500", "150233.597500", "150234.057500", "150234.517500", "150234.977500", "150235.437500", "150235.897500", "150236.357500", "150236.817500", "150237.277500", "150237.737500", "150238.197500", "150238.657500", "150239.117500", "150239.577500", "150240.037500", "150240.497500", "150240.957500", "150241.417500", "150241.877500", "150242.337500", "150242.797500", "150243.257500", "150243.717500", "150244.177500", "150244.637500", "150245.097500", "150245.557500", "150246.017500", "150246.477500", "150246.937500", "150247.397500", "150247.857500", "150248.317500", "150248.777500", "150249.237500", "150249.697500", "150250.157500", "150250.617500", "150251.077500", "150251.537500", "150251.997500", "150252.457500", "150252.917500", "150253.377500", "150253.837500", "150254.297500", "150254.757500", "150255.217500", "150255.677500", "150256.137500", "150256.597500", "150257.057500", "150257.517500", "150257.977500", "150258.437500", "150258.897500", "150259.357500", "150259.817500", "150300.277500", "150300.737500", "150301.197500", "150301.657500", "150302.117500", "150302.577500", "150303.037500", "150303.497500", "150303.957500", "150304.417500", "150304.877500", "150305.337500", "150305.797500", "150306.257500", "150306.717500", "150307.177500", "150307.637500", "150308.097500", "150308.557500", "150309.017500", "150309.477500", "150309.937500", "150310.397500", "150310.857500", "150311.317500", "150311.777500", "150312.237500", "150312.697500", "150313.157500", "150313.617500", "150314.077500", "150314.537500", "150314.997500", "150315.457500", "150315.917500", "150316.377500", "150316.837500", "150317.297500", "150317.757500", "150318.217500", "150318.677500", "150319.137500", "150319.597500", "150320.057500", "150320.517500", "150320.977500", "150321.437500", "150321.897500", "150322.357500", "150322.817500", "150323.277500", "150323.737500", "150324.197500", "150324.657500", "150325.117500", "150325.577500", "150326.037500", "150326.497500", "150326.957500", "150327.417500", "150327.877500", "150328.337500", "150328.797500", "150329.257500", "150329.717500", "150330.177500", "150330.637500", "150331.097500", "150331.557500", "150332.017500", "150332.477500", "150332.937500", "150333.397500", "150333.857500", "150334.317500", "150334.777500", "150335.237500", "150335.697500", "150336.157500", "150336.617500", "150337.077500", "150337.537500", "150337.997500", "150338.457500", "150338.917500", "150339.377500", "150339.837500", "150340.297500", "150340.757500", "150341.217500", "150341.677500", "150342.137500", "150342.597500", "150343.057500", "150343.517500", "150343.977500", "150344.437500", "150344.897500", "150345.357500", "150345.817500", "150346.277500", "150346.737500", "150347.197500", "150347.657500", "150348.117500", "150348.577500", "150349.037500", "150349.497500", "150349.957500", "150350.417500", "150350.877500", "150351.337500", "150351.797500", "150352.257500", "150352.717500", "150353.177500", "150353.637500", "150354.097500", "150354.557500", "150355.017500", "150355.477500", "150355.937500", "150356.397500", "150356.857500", "150357.317500", "150357.777500", "150358.237500", "150358.697500", "150359.157500", "150359.617500", "150400.077500", "150400.537500", "150400.997500", "150401.457500", "150401.917500", "150402.377500", "150402.837500", "150403.297500", "150403.757500", "150404.217500", "150404.677500", "150405.137500", "150405.597500", "150406.057500", "150406.517500", "150406.977500", "150407.437500", "150407.897500", "150408.357500", "150408.817500", "150409.277500", "150409.737500", "150410.197500", "150410.657500", "150411.117500", "150411.577500", "150412.037500", "150412.497500", "150412.957500", "150413.417500", "150413.877500", "150414.337500", "150414.797500", "150415.257500", "150415.717500", "150416.177500", "150416.637500", "150417.097500", "150417.557500", "150418.017500", "150418.477500", "150418.937500", "150419.397500", "150419.857500", "150420.317500", "150420.777500", "150421.237500", "150421.697500", "150422.157500", "150422.617500", "150423.077500", "150423.537500", "150423.997500", "150424.457500", "150424.917500", "150425.377500", "150425.837500", "150426.297500", "150426.757500", "150427.217500", "150427.677500", "150428.137500", "150428.597500", "150429.057500", "150429.517500", "150429.977500", "150430.437500", "150430.897500", "150431.357500", "150431.817500", "150432.277500", "150432.737500", "150433.197500", "150433.657500", "150434.117500", "150434.577500", "150435.037500", "150435.497500", "150435.957500", "150436.417500", "150436.877500", "150437.337500", "150437.797500", "150438.257500", "150438.717500", "150439.177500", "150439.637500", "150440.097500", "150440.557500", "150441.017500", "150441.477500", "150441.937500", "150442.397500", "150442.857500", "150443.317500", "150443.777500", "150444.237500", "150444.697500", "150445.157500", "150445.617500", "150446.077500", "150446.537500", "150446.997500", "150447.457500", "150447.917500", "150448.377500", "150448.837500", "150449.297500", "150449.757500", "150450.217500", "150450.677500", "150451.137500", "150451.597500", "150452.057500", "150452.517500", "150452.977500", "150453.437500", "150453.897500", "150454.357500", "150454.817500", "150455.277500", "150455.737500", "150456.197500", "150456.657500", "150457.117500", "150457.577500", "150458.037500", "150458.497500", "150458.957500", "150459.417500", "150459.877500", "150500.337500", "150500.797500", "150501.257500", "150501.717500", "150502.177500", "150502.637500", "150503.097500", "150503.557500", "150504.017500", "150504.477500", "150504.937500", "150505.397500", "150505.857500", "150506.317500", "150506.777500", "150507.237500", "150507.697500", "150508.157500", "150508.617500", "150509.077500", "150509.537500", "150509.997500", "150510.457500", "150510.917500", "150511.377500", "150511.837500", "150512.297500", "150512.757500", "150513.217500", "150513.677500", "150514.137500", "150514.597500", "150515.057500", "150515.517500", "150515.977500", "150516.437500", "150516.897500", "150517.357500", "150517.817500", "150518.277500", "150518.737500", "150519.197500", "150519.657500", "150520.117500", "150520.577500", "150521.037500", "150521.497500", "150521.957500", "150522.417500", "150522.877500", "150523.337500", "150523.797500", "150524.257500", "150524.717500", "150525.177500", "150525.637500", "150526.097500", "150526.557500", "150527.017500", "150527.477500", "150527.937500", "150528.397500", "150528.857500", "150529.317500", "150529.777500", "150530.237500", "150530.697500", "150531.157500", "150531.617500", "150532.077500", "150532.537500", "150532.997500", "150533.457500", "150533.917500", "150534.377500", "150534.837500", "150535.297500", "150535.757500", "150536.217500", "150536.677500", "150537.137500", "150537.597500", "150538.057500", "150538.517500", "150538.977500", "150539.437500", "150539.897500", "150540.357500", "150540.817500", "150541.277500", "150541.737500", "150542.197500", "150542.657500", "150543.117500", "150543.577500", "150544.037500", "150544.497500", "150544.957500", "150545.417500", "150545.877500", "150546.337500", "150546.797500", "150547.257500", "150547.717500", "150548.177500", "150548.637500", "150549.097500", "150549.557500", "150550.017500", "150550.477500", "150550.937500", "150551.397500", "150551.857500", "150552.317500", "150552.777500", "150553.237500", "150553.697500", "150554.157500", "150554.617500", "150555.077500", "150555.537500", "150555.997500", "150556.457500", "150556.917500", "150557.377500", "150557.837500", "150558.297500", "150558.757500", "150559.217500", "150559.677500", "150600.137500", "150600.597500", "150601.057500", "150601.517500", "150601.977500", "150602.437500", "150602.897500", "150603.357500", "150603.817500", "150604.277500", "150604.737500", "150605.197500", "150605.657500", "150606.117500", "150606.577500", "150607.037500", "150607.497500", "150607.957500", "150608.417500", "150608.877500", "150609.337500", "150609.797500", "150610.257500", "150610.717500", "150611.177500", "150611.637500", "150612.097500", "150612.557500", "150613.017500", "150613.477500", "150613.937500", "150614.397500", "150614.857500", "150615.317500", "150615.777500", "150616.237500", "150616.697500", "150617.157500", "150617.617500", "150618.077500", "150618.537500", "150618.997500", "150619.457500", "150619.917500", "150620.377500", "150620.837500", "150621.297500", "150621.757500", "150622.217500", "150622.677500", "150623.137500", "150623.597500", "150624.057500", "150624.517500", "150624.977500", "150625.437500", "150625.897500", "150626.357500", "150626.817500", "150627.277500", "150627.737500", "150628.197500", "150628.657500", "150629.117500", "150629.577500", "150630.037500", "150630.497500", "150630.957500", "150631.417500", "150631.877500", "150632.337500", "150632.797500", "150633.257500", "150633.717500", "150634.177500", "150634.637500", "150635.097500", "150635.557500", "150636.017500", "150636.477500", "150636.937500", "150637.397500", "150637.857500", "150638.317500", "150638.777500", "150639.237500", "150639.697500", "150640.157500", "150640.617500", "150641.077500", "150641.537500", "150641.997500", "150642.457500", "150642.917500", "150643.377500", "150643.837500", "150644.297500", "150644.757500", "150645.217500", "150645.677500", "150646.137500", "150646.597500", "150647.057500", "150647.517500", "150647.977500", "150648.437500", "150648.897500", "150649.357500", "150649.817500", "150650.277500", "150650.737500", "150651.197500", "150651.657500", "150652.117500", "150652.577500", "150653.037500", "150653.497500", "150653.957500", "150654.417500", "150654.877500", "150655.337500", "150655.797500", "150656.257500", "150656.717500", "150657.177500", "150657.637500", "150658.097500", "150658.557500", "150659.017500", "150659.477500", "150659.937500", "150700.397500", "150700.857500", "150701.317500", "150701.777500", "150702.237500", "150702.697500", "150703.157500", "150703.617500", "150704.077500", "150704.537500", "150704.997500", "150705.457500", "150705.917500", "150706.377500", "150706.837500", "150707.297500", "150707.757500", "150708.217500", "150708.677500", "150709.137500", "150709.597500", "150710.057500", "150710.517500", "150710.977500", "150711.437500", "150711.897500", "150712.357500", "150712.817500", "150713.277500", "150713.737500", "150714.197500", "150714.657500", "150715.117500", "150715.577500", "150716.037500", "150716.497500", "150716.957500", "150717.417500", "150717.877500", "150718.337500", "150718.797500", "150719.257500", "150719.717500", "150720.177500", "150720.637500", "150721.097500", "150721.557500", "150722.017500", "150722.477500", "150722.937500", "150723.397500", "150723.857500", "150724.317500", "150724.777500", "150725.237500", "150725.697500", "150726.157500", "150726.617500", "150727.077500", "150727.537500", "150727.997500", "150728.457500", "150728.917500", "150729.377500", "150729.837500", "150730.297500", "150730.757500", "150731.217500", "150731.677500", "150732.137500", "150732.597500", "150733.057500", "150733.517500", "150733.977500", "150734.437500", "150734.897500", "150735.357500", "150735.817500", "150736.277500", "150736.737500", "150737.197500", "150737.657500", "150738.117500", "150738.577500", "150739.037500", "150739.497500", "150739.957500", "150740.417500", "150740.877500", "150741.337500", "150741.797500", "150742.257500", "150742.717500", "150743.177500", "150743.637500", "150744.097500", "150744.557500", "150745.017500", "150745.477500", "150745.937500", "150746.397500", "150746.857500", "150747.317500", "150747.777500", "150748.237500", "150748.697500", "150749.157500", "150749.617500", "150750.077500", "150750.537500", "150750.997500", "150751.457500", "150751.917500", "150752.377500", "150752.837500", "150753.297500"],
