{
  "AcquisitionMatrixPE": 82,
  "AcquisitionNumber": 1,
  "AcquisitionTime": "15:37:59.992500",
  "BandwidthPerPixelPhaseEncode": 24.888,
  "BaseResolution": 82,
  "BodyPartExamined": "BRAIN",
  "ConsistencyInfo": "N4_VE11C_LATEST_20160120",
  "ConversionSoftware": "dcm2niix",
  "ConversionSoftwareVersion": "v1.0.20201102",
  "DerivedVendorReportedEchoSpacing": 0.00049,
  "DeviceSerialNumber": "66112",
  "DwellTime": 2e-06,
  "EchoTime": 0.0272,
  "EchoTrainLength": 82,
  "EffectiveEchoSpacing": 0.00049,
  "FlipAngle": 44,
  "ImageComments": "Unaliased MB8/PE3",
  "ImageOrientationPatientDICOM": [0.99926, 0.00917845, -0.0373557, -0.00872036, 0.999885, 0.0124075],
  "ImageType": [
    "ORIGINAL",
    "PRIMARY",
    "M",
    "MB",
    "ND",
    "NORM",
    "MOSAIC"
],
  "ImagingFrequency": 123.252,
  "InPlanePhaseEncodingDirectionDICOM": "COL",
  "InstitutionAddress": "Maynard 3,Hanover,NH,US,03755",
  "InstitutionName": "Dartmouth College - PBS",
  "InstitutionalDepartmentName": "Department",
  "MRAcquisitionType": "2D",
  "MagneticFieldStrength": 3,
  "Manufacturer": "Siemens",
  "ManufacturersModelName": "Prisma",
  "Modality": "MR",
  "MultibandAccelerationFactor": 8,
  "PartialFourier": 1,
  "PatientPosition": "HFS",
  "PercentPhaseFOV": 100,
  "PercentSampling": 100,
  "PhaseEncodingDirection": "j-",
  "PhaseEncodingSteps": 82,
  "PhaseResolution": 1,
  "PixelBandwidth": 3050,
  "ProcedureStepDescription": "Wager_Wager^1076_spacetop",
  "ProtocolName": "func_run-06_task-social_acq-ap-mb8",
  "PulseSequenceDetails": "%CustomerSeq%\\cmrr_mbep2d_bold",
  "ReceiveCoilActiveElements": "HEA;HEP",
  "ReceiveCoilName": "Head_32",
  "ReconMatrixPE": 82,
  "RepetitionTime": 0.46,
  "SAR": 0.0966581,
  "ScanOptions": "FS",
  "ScanningSequence": "EP",
  "SequenceName": "epfid2d1_82",
  "SequenceVariant": "SK\\SS",
  "SeriesDescription": "func_run-06_task-social_acq-ap-mb8",
  "SeriesNumber": 22,
  "ShimSetting": [4125, -7774, -7240, 523, -99, -317, -68, 102],
  "SliceThickness": 2.7,
  "SliceTiming": [0, 0.2525, 0.065, 0.315, 0.1275, 0.3775, 0.19, 0, 0.2525, 0.065, 0.315, 0.1275, 0.3775, 0.19, 0, 0.2525, 0.065, 0.315, 0.1275, 0.3775, 0.19, 0, 0.2525, 0.065, 0.315, 0.1275, 0.3775, 0.19, 0, 0.2525, 0.065, 0.315, 0.1275, 0.3775, 0.19, 0, 0.2525, 0.065, 0.315, 0.1275, 0.3775, 0.19, 0, 0.2525, 0.065, 0.315, 0.1275, 0.3775, 0.19, 0, 0.2525, 0.065, 0.315, 0.1275, 0.3775, 0.19],
  "SoftwareVersions": "syngo MR E11",
  "SpacingBetweenSlices": 2.7,
  "StationName": "AWP66112",
  "TaskName": "social",
  "TotalReadoutTime": 0.03969,
  "TxRefAmp": 245.036,
  "WipMemBlock": "b456b736-3722-46ac-af17-de22eccb6014||Sequence: R016 ve11c/master r/e634e98; Dec 19 2017 11:00:25 by eja",
  "dcmmeta_affine": [
    [-2.680941104888916, -0.023396095260977745, -0.10115636885166168, 116.30883026123047],
    [-0.02462512068450451, 2.6826183795928955, 0.032595813274383545, -85.7464828491211],
    [-0.10022270679473877, -0.03328831493854523, 2.6979074478149414, -61.10007858276367],
    [0.0, 0.0, 0.0, 1.0]
],
  "dcmmeta_reorient_transform": [
    [0.0, -1.0, 0.0, 81.0],
    [1.0, 0.0, 0.0, 0.0],
    [0.0, 0.0, 1.0, 0.0],
    [0.0, 0.0, 0.0, 1.0]
],
  "dcmmeta_shape": [82, 82, 56, 872],
  "dcmmeta_slice_dim": 2,
  "dcmmeta_version": 0.6,
  "global": {
    "const": {
      "AccessionNumber": "A003803",
      "AcquisitionMatrix": [82, 0, 0, 82],
      "AngioFlag": "N",
      "BitsAllocated": 16,
      "BitsStored": 16,
      "BodyPartExamined": "BRAIN",
      "Columns": 656,
      "EchoNumbers": 1,
      "EchoTime": 27.2,
      "EchoTrainLength": 82,
      "FlipAngle": 44.0,
      "HighBit": 15,
      "ImageOrientationPatient": [0.99925987858706, 0.0091784535871, -0.0373557363189, -0.008720362304, 0.999884998473, 0.01240746186513],
      "ImagePositionPatient": [-877.12919088249, -908.52448111523, -44.58625892407],
      "ImageType": [
        "ORIGINAL",
        "PRIMARY",
        "M",
        "MB",
        "ND",
        "NORM",
        "MOSAIC"
],
      "ImagedNucleus": "1H",
      "ImagingFrequency": 123.252205,
      "InPlanePhaseEncodingDirection": "COL",
      "MRAcquisitionType": "2D",
      "MagneticFieldStrength": 3.0,
      "Manufacturer": "SIEMENS",
      "ManufacturerModelName": "Prisma",
      "Modality": "MR",
      "NumberOfAverages": 1.0,
      "NumberOfPhaseEncodingSteps": 82,
      "PercentPhaseFieldOfView": 100.0,
      "PercentSampling": 100.0,
      "PerformedProcedureStepStartTime": "142936.029000",
      "PhotometricInterpretation": "MONOCHROME2",
      "PixelBandwidth": 3050.0,
      "PixelRepresentation": 0,
      "PixelSpacing": [2.6829268932343, 2.6829268932343],
      "ProtocolName": "func_run-06_task-social_acq-ap-mb8",
      "RepetitionTime": 460.0,
      "Rows": 656,
      "SAR": 0.09665808134241,
      "SamplesPerPixel": 1,
      "ScanOptions": "FS",
      "ScanningSequence": "EP",
      "SequenceName": "epfid2d1_82",
      "SequenceVariant": [
        "SK",
        "SS"
],
      "SeriesDescription": "func_run-06_task-social_acq-ap-mb8",
      "SeriesNumber": 22,
      "SeriesTime": "153815.225000",
      "SliceLocation": -66.44544897302,
      "SliceThickness": 2.7000000476837,
      "SmallestImagePixelValue": 0,
      "SoftwareVersions": "syngo MR E11",
      "SpacingBetweenSlices": 2.6999999605708,
      "SpecificCharacterSet": "ISO_IR 100",
      "StudyID": "1",
      "StudyTime": "142935.975000",
      "TransmitCoilName": "Body",
      "VariableFlipAngleFlag": "N",
      "WindowCenterWidthExplanation": "Algo1",
      "dBdt": 0.0},
    "slices": {}
  },
  "time": {
    "samples": {
      "AcquisitionNumber": [1, 2, 3, 4, 5, 6, 7, 8, 9, 10, 11, 12, 13, 14, 15, 16, 17, 18, 19, 20, 21, 22, 23, 24, 25, 26, 27, 28, 29, 30, 31, 32, 33, 34, 35, 36, 37, 38, 39, 40, 41, 42, 43, 44, 45, 46, 47, 48, 49, 50, 51, 52, 53, 54, 55, 56, 57, 58, 59, 60, 61, 62, 63, 64, 65, 66, 67, 68, 69, 70, 71, 72, 73, 74, 75, 76, 77, 78, 79, 80, 81, 82, 83, 84, 85, 86, 87, 88, 89, 90, 91, 92, 93, 94, 95, 96, 97, 98, 99, 100, 101, 102, 103, 104, 105, 106, 107, 108, 109, 110, 111, 112, 113, 114, 115, 116, 117, 118, 119, 120, 121, 122, 123, 124, 125, 126, 127, 128, 129, 130, 131, 132, 133, 134, 135, 136, 137, 138, 139, 140, 141, 142, 143, 144, 145, 146, 147, 148, 149, 150, 151, 152, 153, 154, 155, 156, 157, 158, 159, 160, 161, 162, 163, 164, 165, 166, 167, 168, 169, 170, 171, 172, 173, 174, 175, 176, 177, 178, 179, 180, 181, 182, 183, 184, 185, 186, 187, 188, 189, 190, 191, 192, 193, 194, 195, 196, 197, 198, 199, 200, 201, 202, 203, 204, 205, 206, 207, 208, 209, 210, 211, 212, 213, 214, 215, 216, 217, 218, 219, 220, 221, 222, 223, 224, 225, 226, 227, 228, 229, 230, 231, 232, 233, 234, 235, 236, 237, 238, 239, 240, 241, 242, 243, 244, 245, 246, 247, 248, 249, 250, 251, 252, 253, 254, 255, 256, 257, 258, 259, 260, 261, 262, 263, 264, 265, 266, 267, 268, 269, 270, 271, 272, 273, 274, 275, 276, 277, 278, 279, 280, 281, 282, 283, 284, 285, 286, 287, 288, 289, 290, 291, 292, 293, 294, 295, 296, 297, 298, 299, 300, 301, 302, 303, 304, 305, 306, 307, 308, 309, 310, 311, 312, 313, 314, 315, 316, 317, 318, 319, 320, 321, 322, 323, 324, 325, 326, 327, 328, 329, 330, 331, 332, 333, 334, 335, 336, 337, 338, 339, 340, 341, 342, 343, 344, 345, 346, 347, 348, 349, 350, 351, 352, 353, 354, 355, 356, 357, 358, 359, 360, 361, 362, 363, 364, 365, 366, 367, 368, 369, 370, 371, 372, 373, 374, 375, 376, 377, 378, 379, 380, 381, 382, 383, 384, 385, 386, 387, 388, 389, 390, 391, 392, 393, 394, 395, 396, 397, 398, 399, 400, 401, 402, 403, 404, 405, 406, 407, 408, 409, 410, 411, 412, 413, 414, 415, 416, 417, 418, 419, 420, 421, 422, 423, 424, 425, 426, 427, 428, 429, 430, 431, 432, 433, 434, 435, 436, 437, 438, 439, 440, 441, 442, 443, 444, 445, 446, 447, 448, 449, 450, 451, 452, 453, 454, 455, 456, 457, 458, 459, 460, 461, 462, 463, 464, 465, 466, 467, 468, 469, 470, 471, 472, 473, 474, 475, 476, 477, 478, 479, 480, 481, 482, 483, 484, 485, 486, 487, 488, 489, 490, 491, 492, 493, 494, 495, 496, 497, 498, 499, 500, 501, 502, 503, 504, 505, 506, 507, 508, 509, 510, 511, 512, 513, 514, 515, 516, 517, 518, 519, 520, 521, 522, 523, 524, 525, 526, 527, 528, 529, 530, 531, 532, 533, 534, 535, 536, 537, 538, 539, 540, 541, 542, 543, 544, 545, 546, 547, 548, 549, 550, 551, 552, 553, 554, 555, 556, 557, 558, 559, 560, 561, 562, 563, 564, 565, 566, 567, 568, 569, 570, 571, 572, 573, 574, 575, 576, 577, 578, 579, 580, 581, 582, 583, 584, 585, 586, 587, 588, 589, 590, 591, 592, 593, 594, 595, 596, 597, 598, 599, 600, 601, 602, 603, 604, 605, 606, 607, 608, 609, 610, 611, 612, 613, 614, 615, 616, 617, 618, 619, 620, 621, 622, 623, 624, 625, 626, 627, 628, 629, 630, 631, 632, 633, 634, 635, 636, 637, 638, 639, 640, 641, 642, 643, 644, 645, 646, 647, 648, 649, 650, 651, 652, 653, 654, 655, 656, 657, 658, 659, 660, 661, 662, 663, 664, 665, 666, 667, 668, 669, 670, 671, 672, 673, 674, 675, 676, 677, 678, 679, 680, 681, 682, 683, 684, 685, 686, 687, 688, 689, 690, 691, 692, 693, 694, 695, 696, 697, 698, 699, 700, 701, 702, 703, 704, 705, 706, 707, 708, 709, 710, 711, 712, 713, 714, 715, 716, 717, 718, 719, 720, 721, 722, 723, 724, 725, 726, 727, 728, 729, 730, 731, 732, 733, 734, 735, 736, 737, 738, 739, 740, 741, 742, 743, 744, 745, 746, 747, 748, 749, 750, 751, 752, 753, 754, 755, 756, 757, 758, 759, 760, 761, 762, 763, 764, 765, 766, 767, 768, 769, 770, 771, 772, 773, 774, 775, 776, 777, 778, 779, 780, 781, 782, 783, 784, 785, 786, 787, 788, 789, 790, 791, 792, 793, 794, 795, 796, 797, 798, 799, 800, 801, 802, 803, 804, 805, 806, 807, 808, 809, 810, 811, 812, 813, 814, 815, 816, 817, 818, 819, 820, 821, 822, 823, 824, 825, 826, 827, 828, 829, 830, 831, 832, 833, 834, 835, 836, 837, 838, 839, 840, 841, 842, 843, 844, 845, 846, 847, 848, 849, 850, 851, 852, 853, 854, 855, 856, 857, 858, 859, 860, 861, 862, 863, 864, 865, 866, 867, 868, 869, 870, 871, 872],
      "AcquisitionTime": ["153759.992500", "153800.452500", "153800.912500", "153801.372500", "153801.832500", "153802.292500", "153802.752500", "153803.212500", "153803.672500", "153804.132500", "153804.592500", "153805.052500", "153805.512500", "153805.972500", "153806.432500", "153806.892500", "153807.352500", "153807.812500", "153808.272500", "153808.732500", "153809.192500", "153809.652500", "153810.112500", "153810.572500", "153811.032500", "153811.492500", "153811.952500", "153812.412500", "153812.872500", "153813.332500", "153813.792500", "153814.252500", "153814.712500", "153815.172500", "153815.632500", "153816.092500", "153816.552500", "153817.012500", "153817.472500", "153817.932500", "153818.392500", "153818.852500", "153819.312500", "153819.772500", "153820.232500", "153820.692500", "153821.152500", "153821.612500", "153822.072500", "153822.532500", "153822.992500", "153823.452500", "153823.912500", "153824.372500", "153824.832500", "153825.292500", "153825.752500", "153826.212500", "153826.672500", "153827.132500", "153827.592500", "153828.052500", "153828.512500", "153828.972500", "153829.432500", "153829.892500", "153830.352500", "153830.812500", "153831.272500", "153831.732500", "153832.192500", "153832.652500", "153833.112500", "153833.572500", "153834.032500", "153834.492500", "153834.952500", "153835.412500", "153835.872500", "153836.332500", "153836.792500", "153837.252500", "153837.712500", "153838.172500", "153838.632500", "153839.092500", "153839.552500", "153840.012500", "153840.472500", "153840.932500", "153841.392500", "153841.852500", "153842.312500", "153842.772500", "153843.232500", "153843.692500", "153844.152500", "153844.612500", "153845.072500", "153845.532500", "153845.992500", "153846.452500", "153846.912500", "153847.372500", "153847.832500", "153848.292500", "153848.752500", "153849.212500", "153849.672500", "153850.132500", "153850.592500", "153851.052500", "153851.512500", "153851.972500", "153852.432500", "153852.892500", "153853.352500", "153853.812500", "153854.272500", "153854.732500", "153855.192500", "153855.652500", "153856.112500", "153856.572500", "153857.032500", "153857.492500", "153857.952500", "153858.412500", "153858.872500", "153859.332500", "153859.792500", "153900.252500", "153900.712500", "153901.172500", "153901.632500", "153902.092500", "153902.552500", "153903.012500", "153903.472500", "153903.932500", "153904.392500", "153904.852500", "153905.312500", "153905.772500", "153906.232500", "153906.692500", "153907.152500", "153907.612500", "153908.072500", "153908.532500", "153908.992500", "153909.452500", "153909.912500", "153910.372500", "153910.832500", "153911.292500", "153911.752500", "153912.212500", "153912.672500", "153913.132500", "153913.592500", "153914.052500", "153914.512500", "153914.972500", "153915.432500", "153915.892500", "153916.352500", "153916.812500", "153917.272500", "153917.732500", "153918.192500", "153918.652500", "153919.112500", "153919.572500", "153920.032500", "153920.492500", "153920.952500", "153921.412500", "153921.872500", "153922.332500", "153922.792500", "153923.252500", "153923.712500", "153924.172500", "153924.632500", "153925.092500", "153925.552500", "153926.012500", "153926.472500", "153926.932500", "153927.392500", "153927.852500", "153928.312500", "153928.772500", "153929.232500", "153929.692500", "153930.152500", "153930.612500", "153931.072500", "153931.532500", "153931.992500", "153932.452500", "153932.912500", "153933.372500", "153933.832500", "153934.292500", "153934.752500", "153935.212500", "153935.672500", "153936.132500", "153936.592500", "153937.052500", "153937.512500", "153937.972500", "153938.432500", "153938.892500", "153939.352500", "153939.812500", "153940.272500", "153940.732500", "153941.192500", "153941.652500", "153942.112500", "153942.572500", "153943.032500", "153943.492500", "153943.952500", "153944.412500", "153944.872500", "153945.332500", "153945.792500", "153946.252500", "153946.712500", "153947.172500", "153947.632500", "153948.092500", "153948.552500", "153949.012500", "153949.472500", "153949.932500", "153950.392500", "153950.852500", "153951.312500", "153951.772500", "153952.232500", "153952.692500", "153953.152500", "153953.612500", "153954.072500", "153954.532500", "153954.992500", "153955.452500", "153955.912500", "153956.372500", "153956.832500", "153957.292500", "153957.752500", "153958.212500", "153958.672500", "153959.132500", "153959.592500", "154000.052500", "154000.512500", "154000.972500", "154001.432500", "154001.892500", "154002.352500", "154002.812500", "154003.272500", "154003.732500", "154004.192500", "154004.652500", "154005.112500", "154005.572500", "154006.032500", "154006.492500", "154006.952500", "154007.412500", "154007.872500", "154008.332500", "154008.792500", "154009.252500", "154009.712500", "154010.172500", "154010.632500", "154011.092500", "154011.552500", "154012.012500", "154012.472500", "154012.932500", "154013.392500", "154013.852500", "154014.312500", "154014.772500", "154015.232500", "154015.692500", "154016.152500", "154016.612500", "154017.072500", "154017.532500", "154017.992500", "154018.452500", "154018.912500", "154019.372500", "154019.832500", "154020.292500", "154020.752500", "154021.212500", "154021.672500", "154022.132500", "154022.592500", "154023.052500", "154023.512500", "154023.972500", "154024.432500", "154024.892500", "154025.352500", "154025.812500", "154026.272500", "154026.732500", "154027.192500", "154027.652500", "154028.112500", "154028.572500", "154029.032500", "154029.492500", "154029.952500", "154030.412500", "154030.872500", "154031.332500", "154031.792500", "154032.252500", "154032.712500", "154033.172500", "154033.632500", "154034.092500", "154034.552500", "154035.012500", "154035.472500", "154035.932500", "154036.392500", "154036.852500", "154037.312500", "154037.772500", "154038.232500", "154038.692500", "154039.152500", "154039.612500", "154040.072500", "154040.532500", "154040.992500", "154041.452500", "154041.912500", "154042.372500", "154042.832500", "154043.292500", "154043.752500", "154044.212500", "154044.672500", "154045.132500", "154045.592500", "154046.052500", "154046.512500", "154046.972500", "154047.432500", "154047.892500", "154048.352500", "154048.812500", "154049.272500", "154049.732500", "154050.192500", "154050.652500", "154051.112500", "154051.572500", "154052.032500", "154052.492500", "154052.952500", "154053.412500", "154053.872500", "154054.332500", "154054.792500", "154055.252500", "154055.712500", "154056.172500", "154056.632500", "154057.092500", "154057.552500", "154058.012500", "154058.472500", "154058.932500", "154059.392500", "154059.852500", "154100.312500", "154100.772500", "154101.232500", "154101.692500", "154102.152500", "154102.612500", "154103.072500", "154103.532500", "154103.992500", "154104.452500", "154104.912500", "154105.372500", "154105.832500", "154106.292500", "154106.752500", "154107.212500", "154107.672500", "154108.132500", "154108.592500", "154109.052500", "154109.512500", "154109.972500", "154110.432500", "154110.892500", "154111.352500", "154111.812500", "154112.272500", "154112.732500", "154113.192500", "154113.652500", "154114.112500", "154114.572500", "154115.032500", "154115.492500", "154115.952500", "154116.412500", "154116.872500", "154117.332500", "154117.792500", "154118.252500", "154118.712500", "154119.172500", "154119.632500", "154120.092500", "154120.552500", "154121.012500", "154121.472500", "154121.932500", "154122.392500", "154122.852500", "154123.312500", "154123.772500", "154124.232500", "154124.692500", "154125.152500", "154125.612500", "154126.072500", "154126.532500", "154126.992500", "154127.452500", "154127.912500", "154128.372500", "154128.832500", "154129.292500", "154129.752500", "154130.212500", "154130.672500", "154131.132500", "154131.592500", "154132.052500", "154132.512500", "154132.972500", "154133.432500", "154133.892500", "154134.352500", "154134.812500", "154135.272500", "154135.732500", "154136.192500", "154136.652500", "154137.112500", "154137.572500", "154138.032500", "154138.492500", "154138.952500", "154139.412500", "154139.872500", "154140.332500", "154140.792500", "154141.252500", "154141.712500", "154142.172500", "154142.632500", "154143.092500", "154143.552500", "154144.012500", "154144.472500", "154144.932500", "154145.392500", "154145.852500", "154146.312500", "154146.772500", "154147.232500", "154147.692500", "154148.152500", "154148.612500", "154149.072500", "154149.532500", "154149.992500", "154150.452500", "154150.912500", "154151.372500", "154151.832500", "154152.292500", "154152.752500", "154153.212500", "154153.672500", "154154.132500", "154154.592500", "154155.052500", "154155.512500", "154155.972500", "154156.432500", "154156.892500", "154157.352500", "154157.812500", "154158.272500", "154158.732500", "154159.192500", "154159.652500", "154200.112500", "154200.572500", "154201.032500", "154201.492500", "154201.952500", "154202.412500", "154202.872500", "154203.332500", "154203.792500", "154204.252500", "154204.712500", "154205.172500", "154205.632500", "154206.092500", "154206.552500", "154207.012500", "154207.472500", "154207.932500", "154208.392500", "154208.852500", "154209.312500", "154209.772500", "154210.232500", "154210.692500", "154211.152500", "154211.612500", "154212.072500", "154212.532500", "154212.992500", "154213.452500", "154213.912500", "154214.372500", "154214.832500", "154215.292500", "154215.752500", "154216.212500", "154216.672500", "154217.132500", "154217.592500", "154218.052500", "154218.512500", "154218.972500", "154219.432500", "154219.892500", "154220.352500", "154220.812500", "154221.272500", "154221.732500", "154222.192500", "154222.652500", "154223.112500", "154223.572500", "154224.032500", "154224.492500", "154224.952500", "154225.412500", "154225.872500", "154226.332500", "154226.792500", "154227.252500", "154227.712500", "154228.172500", "154228.632500", "154229.092500", "154229.552500", "154230.012500", "154230.472500", "154230.932500", "154231.392500", "154231.852500", "154232.312500", "154232.772500", "154233.232500", "154233.692500", "154234.152500", "154234.612500", "154235.072500", "154235.532500", "154235.992500", "154236.452500", "154236.912500", "154237.372500", "154237.832500", "154238.292500", "154238.752500", "154239.212500", "154239.672500", "154240.132500", "154240.592500", "154241.052500", "154241.512500", "154241.972500", "154242.432500", "154242.892500", "154243.352500", "154243.812500", "154244.272500", "154244.732500", "154245.192500", "154245.652500", "154246.112500", "154246.572500", "154247.032500", "154247.492500", "154247.952500", "154248.412500", "154248.872500", "154249.332500", "154249.792500", "154250.252500", "154250.712500", "154251.172500", "154251.632500", "154252.092500", "154252.552500", "154253.012500", "154253.472500", "154253.932500", "154254.392500", "154254.852500", "154255.312500", "154255.772500", "154256.232500", "154256.692500", "154257.152500", "154257.612500", "154258.072500", "154258.532500", "154258.992500", "154259.452500", "154259.912500", "154300.372500", "154300.832500", "154301.292500", "154301.752500", "154302.212500", "154302.672500", "154303.132500", "154303.592500", "154304.052500", "154304.512500", "154304.972500", "154305.432500", "154305.892500", "154306.352500", "154306.812500", "154307.272500", "154307.732500", "154308.192500", "154308.652500", "154309.112500", "154309.572500", "154310.032500", "154310.492500", "154310.952500", "154311.412500", "154311.872500", "154312.332500", "154312.792500", "154313.252500", "154313.712500", "154314.172500", "154314.632500", "154315.092500", "154315.552500", "154316.012500", "154316.472500", "154316.932500", "154317.392500", "154317.852500", "154318.312500", "154318.772500", "154319.232500", "154319.692500", "154320.152500", "154320.612500", "154321.072500", "154321.532500", "154321.992500", "154322.452500", "154322.912500", "154323.372500", "154323.832500", "154324.292500", "154324.752500", "154325.212500", "154325.672500", "154326.132500", "154326.592500", "154327.052500", "154327.512500", "154327.972500", "154328.432500", "154328.892500", "154329.352500", "154329.812500", "154330.272500", "154330.732500", "154331.192500", "154331.652500", "154332.112500", "154332.572500", "154333.032500", "154333.492500", "154333.952500", "154334.412500", "154334.872500", "154335.332500", "154335.792500", "154336.252500", "154336.712500", "154337.172500", "154337.632500", "154338.092500", "154338.552500", "154339.012500", "154339.472500", "154339.932500", "154340.392500", "154340.852500", "154341.312500", "154341.772500", "154342.232500", "154342.692500", "154343.152500", "154343.612500", "154344.072500", "154344.532500", "154344.992500", "154345.452500", "154345.912500", "154346.372500", "154346.832500", "154347.292500", "154347.752500", "154348.212500", "154348.672500", "154349.132500", "154349.592500", "154350.052500", "154350.512500", "154350.972500", "154351.432500", "154351.892500", "154352.352500", "154352.812500", "154353.272500", "154353.732500", "154354.192500", "154354.652500", "154355.112500", "154355.572500", "154356.032500", "154356.492500", "154356.952500", "154357.412500", "154357.872500", "154358.332500", "154358.792500", "154359.252500", "154359.712500", "154400.172500", "154400.632500", "154401.092500", "154401.552500", "154402.012500", "154402.472500", "154402.932500", "154403.392500", "154403.852500", "154404.312500", "154404.772500", "154405.232500", "154405.692500", "154406.152500", "154406.612500", "154407.072500", "154407.532500", "154407.992500", "154408.452500", "154408.912500", "154409.372500", "154409.832500", "154410.292500", "154410.752500", "154411.212500", "154411.672500", "154412.132500", "154412.592500", "154413.052500", "154413.512500", "154413.972500", "154414.432500", "154414.892500", "154415.352500", "154415.812500", "154416.272500", "154416.732500", "154417.192500", "154417.652500", "154418.112500", "154418.572500", "154419.032500", "154419.492500", "154419.952500", "154420.412500", "154420.872500", "154421.332500", "154421.792500", "154422.252500", "154422.712500", "154423.172500", "154423.632500", "154424.092500", "154424.552500", "154425.012500", "154425.472500", "154425.932500", "154426.392500", "154426.852500", "154427.312500", "154427.772500", "154428.232500", "154428.692500", "154429.152500", "154429.612500", "154430.072500", "154430.532500", "154430.992500", "154431.452500", "154431.912500", "154432.372500", "154432.832500", "154433.292500", "154433.752500", "154434.212500", "154434.672500", "154435.132500", "154435.592500", "154436.052500", "154436.512500", "154436.972500", "154437.432500", "154437.892500", "154438.352500", "154438.812500", "154439.272500", "154439.732500", "154440.192500", "154440.652500"],
