{
  "AcquisitionMatrixPE": 82,
  "AcquisitionNumber": 1,
  "AcquisitionTime": "15:29:49.622500",
  "BandwidthPerPixelPhaseEncode": 24.888,
  "BaseResolution": 82,
  "BodyPartExamined": "BRAIN",
  "ConsistencyInfo": "N4_VE11C_LATEST_20160120",
  "ConversionSoftware": "dcm2niix",
  "ConversionSoftwareVersion": "v1.0.20201102",
  "DerivedVendorReportedEchoSpacing": 0.00049,
  "DeviceSerialNumber": "66112",
  "DwellTime": 2e-06,
  "EchoTime": 0.0272,
  "EchoTrainLength": 82,
  "EffectiveEchoSpacing": 0.00049,
  "FlipAngle": 44,
  "ImageComments": "Unaliased MB8/PE3",
  "ImageOrientationPatientDICOM": [0.99926, 0.00917845, -0.0373557, -0.00872036, 0.999885, 0.0124075],
  "ImageType": [
    "ORIGINAL",
    "PRIMARY",
    "M",
    "MB",
    "ND",
    "NORM",
    "MOSAIC"
],
  "ImagingFrequency": 123.252,
  "InPlanePhaseEncodingDirectionDICOM": "COL",
  "InstitutionAddress": "Maynard 3,Hanover,NH,US,03755",
  "InstitutionName": "Dartmouth College - PBS",
  "InstitutionalDepartmentName": "Department",
  "MRAcquisitionType": "2D",
  "MagneticFieldStrength": 3,
  "Manufacturer": "Siemens",
  "ManufacturersModelName": "Prisma",
  "Modality": "MR",
  "MultibandAccelerationFactor": 8,
  "PartialFourier": 1,
  "PatientPosition": "HFS",
  "PercentPhaseFOV": 100,
  "PercentSampling": 100,
  "PhaseEncodingDirection": "j-",
  "PhaseEncodingSteps": 82,
  "PhaseResolution": 1,
  "PixelBandwidth": 3050,
  "ProcedureStepDescription": "Wager_Wager^1076_spacetop",
  "ProtocolName": "func_run-05_task-social_acq-ap-mb8",
  "PulseSequenceDetails": "%CustomerSeq%\\cmrr_mbep2d_bold",
  "ReceiveCoilActiveElements": "HEA;HEP",
  "ReceiveCoilName": "Head_32",
  "ReconMatrixPE": 82,
  "RepetitionTime": 0.46,
  "SAR": 0.0966581,
  "ScanOptions": "FS",
  "ScanningSequence": "EP",
  "SequenceName": "epfid2d1_82",
  "SequenceVariant": "SK\\SS",
  "SeriesDescription": "func_run-05_task-social_acq-ap-mb8",
  "SeriesNumber": 20,
  "ShimSetting": [4125, -7774, -7240, 523, -99, -317, -68, 102],
  "SliceThickness": 2.7,
  "SliceTiming": [0, 0.2525, 0.0625, 0.315, 0.1275, 0.3775, 0.19, 0, 0.2525, 0.0625, 0.315, 0.1275, 0.3775, 0.19, 0, 0.2525, 0.0625, 0.315, 0.1275, 0.3775, 0.19, 0, 0.2525, 0.0625, 0.315, 0.1275, 0.3775, 0.19, 0, 0.2525, 0.0625, 0.315, 0.1275, 0.3775, 0.19, 0, 0.2525, 0.0625, 0.315, 0.1275, 0.3775, 0.19, 0, 0.2525, 0.0625, 0.315, 0.1275, 0.3775, 0.19, 0, 0.2525, 0.0625, 0.315, 0.1275, 0.3775, 0.19],
  "SoftwareVersions": "syngo MR E11",
  "SpacingBetweenSlices": 2.7,
  "StationName": "AWP66112",
  "TaskName": "social",
  "TotalReadoutTime": 0.03969,
  "TxRefAmp": 245.036,
  "WipMemBlock": "3a70ea1a-4db5-4dd6-84a6-4db3fd80ac2e||Sequence: R016 ve11c/master r/e634e98; Dec 19 2017 11:00:25 by eja",
  "dcmmeta_affine": [
    [-2.680941104888916, -0.023396095260977745, -0.10115636885166168, 116.30883026123047],
    [-0.02462512068450451, 2.6826183795928955, 0.032595813274383545, -85.7464828491211],
    [-0.10022270679473877, -0.03328831493854523, 2.6979074478149414, -61.10007858276367],
    [0.0, 0.0, 0.0, 1.0]
],
  "dcmmeta_reorient_transform": [
    [0.0, -1.0, 0.0, 81.0],
    [1.0, 0.0, 0.0, 0.0],
    [0.0, 0.0, 1.0, 0.0],
    [0.0, 0.0, 0.0, 1.0]
],
  "dcmmeta_shape": [82, 82, 56, 872],
  "dcmmeta_slice_dim": 2,
  "dcmmeta_version": 0.6,
  "global": {
    "const": {
      "AccessionNumber": "A003803",
      "AcquisitionMatrix": [82, 0, 0, 82],
      "AngioFlag": "N",
      "BitsAllocated": 16,
      "BitsStored": 16,
      "BodyPartExamined": "BRAIN",
      "Columns": 656,
      "EchoNumbers": 1,
      "EchoTime": 27.2,
      "EchoTrainLength": 82,
      "FlipAngle": 44.0,
      "HighBit": 15,
      "ImageOrientationPatient": [0.99925987858706, 0.0091784535871, -0.0373557363189, -0.008720362304, 0.999884998473, 0.01240746186513],
      "ImagePositionPatient": [-877.12919088249, -908.52448111523, -44.58625892407],
      "ImageType": [
        "ORIGINAL",
        "PRIMARY",
        "M",
        "MB",
        "ND",
        "NORM",
        "MOSAIC"
],
      "ImagedNucleus": "1H",
      "ImagingFrequency": 123.252204,
      "InPlanePhaseEncodingDirection": "COL",
      "MRAcquisitionType": "2D",
      "MagneticFieldStrength": 3.0,
      "Manufacturer": "SIEMENS",
      "ManufacturerModelName": "Prisma",
      "Modality": "MR",
      "NumberOfAverages": 1.0,
      "NumberOfPhaseEncodingSteps": 82,
      "PercentPhaseFieldOfView": 100.0,
      "PercentSampling": 100.0,
      "PerformedProcedureStepStartTime": "142936.029000",
      "PhotometricInterpretation": "MONOCHROME2",
      "PixelBandwidth": 3050.0,
      "PixelRepresentation": 0,
      "PixelSpacing": [2.6829268932343, 2.6829268932343],
      "ProtocolName": "func_run-05_task-social_acq-ap-mb8",
      "RepetitionTime": 460.0,
      "Rows": 656,
      "SAR": 0.09665808134241,
      "SamplesPerPixel": 1,
      "ScanOptions": "FS",
      "ScanningSequence": "EP",
      "SequenceName": "epfid2d1_82",
      "SequenceVariant": [
        "SK",
        "SS"
],
      "SeriesDescription": "func_run-05_task-social_acq-ap-mb8",
      "SeriesNumber": 20,
      "SeriesTime": "153015.159000",
      "SliceLocation": -66.44544897302,
      "SliceThickness": 2.7000000476837,
      "SmallestImagePixelValue": 0,
      "SoftwareVersions": "syngo MR E11",
      "SpacingBetweenSlices": 2.6999999605708,
      "SpecificCharacterSet": "ISO_IR 100",
      "StudyID": "1",
      "StudyTime": "142935.975000",
      "TransmitCoilName": "Body",
      "VariableFlipAngleFlag": "N",
      "WindowCenterWidthExplanation": "Algo1",
      "dBdt": 0.0},
    "slices": {}
  },
  "time": {
    "samples": {
      "AcquisitionNumber": [1, 2, 3, 4, 5, 6, 7, 8, 9, 10, 11, 12, 13, 14, 15, 16, 17, 18, 19, 20, 21, 22, 23, 24, 25, 26, 27, 28, 29, 30, 31, 32, 33, 34, 35, 36, 37, 38, 39, 40, 41, 42, 43, 44, 45, 46, 47, 48, 49, 50, 51, 52, 53, 54, 55, 56, 57, 58, 59, 60, 61, 62, 63, 64, 65, 66, 67, 68, 69, 70, 71, 72, 73, 74, 75, 76, 77, 78, 79, 80, 81, 82, 83, 84, 85, 86, 87, 88, 89, 90, 91, 92, 93, 94, 95, 96, 97, 98, 99, 100, 101, 102, 103, 104, 105, 106, 107, 108, 109, 110, 111, 112, 113, 114, 115, 116, 117, 118, 119, 120, 121, 122, 123, 124, 125, 126, 127, 128, 129, 130, 131, 132, 133, 134, 135, 136, 137, 138, 139, 140, 141, 142, 143, 144, 145, 146, 147, 148, 149, 150, 151, 152, 153, 154, 155, 156, 157, 158, 159, 160, 161, 162, 163, 164, 165, 166, 167, 168, 169, 170, 171, 172, 173, 174, 175, 176, 177, 178, 179, 180, 181, 182, 183, 184, 185, 186, 187, 188, 189, 190, 191, 192, 193, 194, 195, 196, 197, 198, 199, 200, 201, 202, 203, 204, 205, 206, 207, 208, 209, 210, 211, 212, 213, 214, 215, 216, 217, 218, 219, 220, 221, 222, 223, 224, 225, 226, 227, 228, 229, 230, 231, 232, 233, 234, 235, 236, 237, 238, 239, 240, 241, 242, 243, 244, 245, 246, 247, 248, 249, 250, 251, 252, 253, 254, 255, 256, 257, 258, 259, 260, 261, 262, 263, 264, 265, 266, 267, 268, 269, 270, 271, 272, 273, 274, 275, 276, 277, 278, 279, 280, 281, 282, 283, 284, 285, 286, 287, 288, 289, 290, 291, 292, 293, 294, 295, 296, 297, 298, 299, 300, 301, 302, 303, 304, 305, 306, 307, 308, 309, 310, 311, 312, 313, 314, 315, 316, 317, 318, 319, 320, 321, 322, 323, 324, 325, 326, 327, 328, 329, 330, 331, 332, 333, 334, 335, 336, 337, 338, 339, 340, 341, 342, 343, 344, 345, 346, 347, 348, 349, 350, 351, 352, 353, 354, 355, 356, 357, 358, 359, 360, 361, 362, 363, 364, 365, 366, 367, 368, 369, 370, 371, 372, 373, 374, 375, 376, 377, 378, 379, 380, 381, 382, 383, 384, 385, 386, 387, 388, 389, 390, 391, 392, 393, 394, 395, 396, 397, 398, 399, 400, 401, 402, 403, 404, 405, 406, 407, 408, 409, 410, 411, 412, 413, 414, 415, 416, 417, 418, 419, 420, 421, 422, 423, 424, 425, 426, 427, 428, 429, 430, 431, 432, 433, 434, 435, 436, 437, 438, 439, 440, 441, 442, 443, 444, 445, 446, 447, 448, 449, 450, 451, 452, 453, 454, 455, 456, 457, 458, 459, 460, 461, 462, 463, 464, 465, 466, 467, 468, 469, 470, 471, 472, 473, 474, 475, 476, 477, 478, 479, 480, 481, 482, 483, 484, 485, 486, 487, 488, 489, 490, 491, 492, 493, 494, 495, 496, 497, 498, 499, 500, 501, 502, 503, 504, 505, 506, 507, 508, 509, 510, 511, 512, 513, 514, 515, 516, 517, 518, 519, 520, 521, 522, 523, 524, 525, 526, 527, 528, 529, 530, 531, 532, 533, 534, 535, 536, 537, 538, 539, 540, 541, 542, 543, 544, 545, 546, 547, 548, 549, 550, 551, 552, 553, 554, 555, 556, 557, 558, 559, 560, 561, 562, 563, 564, 565, 566, 567, 568, 569, 570, 571, 572, 573, 574, 575, 576, 577, 578, 579, 580, 581, 582, 583, 584, 585, 586, 587, 588, 589, 590, 591, 592, 593, 594, 595, 596, 597, 598, 599, 600, 601, 602, 603, 604, 605, 606, 607, 608, 609, 610, 611, 612, 613, 614, 615, 616, 617, 618, 619, 620, 621, 622, 623, 624, 625, 626, 627, 628, 629, 630, 631, 632, 633, 634, 635, 636, 637, 638, 639, 640, 641, 642, 643, 644, 645, 646, 647, 648, 649, 650, 651, 652, 653, 654, 655, 656, 657, 658, 659, 660, 661, 662, 663, 664, 665, 666, 667, 668, 669, 670, 671, 672, 673, 674, 675, 676, 677, 678, 679, 680, 681, 682, 683, 684, 685, 686, 687, 688, 689, 690, 691, 692, 693, 694, 695, 696, 697, 698, 699, 700, 701, 702, 703, 704, 705, 706, 707, 708, 709, 710, 711, 712, 713, 714, 715, 716, 717, 718, 719, 720, 721, 722, 723, 724, 725, 726, 727, 728, 729, 730, 731, 732, 733, 734, 735, 736, 737, 738, 739, 740, 741, 742, 743, 744, 745, 746, 747, 748, 749, 750, 751, 752, 753, 754, 755, 756, 757, 758, 759, 760, 761, 762, 763, 764, 765, 766, 767, 768, 769, 770, 771, 772, 773, 774, 775, 776, 777, 778, 779, 780, 781, 782, 783, 784, 785, 786, 787, 788, 789, 790, 791, 792, 793, 794, 795, 796, 797, 798, 799, 800, 801, 802, 803, 804, 805, 806, 807, 808, 809, 810, 811, 812, 813, 814, 815, 816, 817, 818, 819, 820, 821, 822, 823, 824, 825, 826, 827, 828, 829, 830, 831, 832, 833, 834, 835, 836, 837, 838, 839, 840, 841, 842, 843, 844, 845, 846, 847, 848, 849, 850, 851, 852, 853, 854, 855, 856, 857, 858, 859, 860, 861, 862, 863, 864, 865, 866, 867, 868, 869, 870, 871, 872],
      "AcquisitionTime": ["152949.622500", "152950.082500", "152950.542500", "152951.002500", "152951.462500", "152951.922500", "152952.382500", "152952.842500", "152953.302500", "152953.762500", "152954.222500", "152954.682500", "152955.142500", "152955.602500", "152956.062500", "152956.522500", "152956.982500", "152957.442500", "152957.902500", "152958.362500", "152958.822500", "152959.282500", "152959.742500", "153000.202500", "153000.662500", "153001.122500", "153001.582500", "153002.042500", "153002.502500", "153002.962500", "153003.422500", "153003.882500", "153004.342500", "153004.802500", "153005.262500", "153005.722500", "153006.182500", "153006.642500", "153007.102500", "153007.562500", "153008.022500", "153008.482500", "153008.942500", "153009.402500", "153009.862500", "153010.322500", "153010.782500", "153011.242500", "153011.702500", "153012.162500", "153012.622500", "153013.082500", "153013.542500", "153014.002500", "153014.462500", "153014.922500", "153015.382500", "153015.842500", "153016.302500", "153016.762500", "153017.222500", "153017.682500", "153018.142500", "153018.602500", "153019.062500", "153019.522500", "153019.982500", "153020.442500", "153020.902500", "153021.362500", "153021.822500", "153022.282500", "153022.742500", "153023.202500", "153023.662500", "153024.122500", "153024.582500", "153025.042500", "153025.502500", "153025.962500", "153026.422500", "153026.882500", "153027.342500", "153027.802500", "153028.262500", "153028.722500", "153029.182500", "153029.642500", "153030.102500", "153030.562500", "153031.022500", "153031.482500", "153031.942500", "153032.402500", "153032.862500", "153033.322500", "153033.782500", "153034.242500", "153034.702500", "153035.162500", "153035.622500", "153036.082500", "153036.542500", "153037.002500", "153037.462500", "153037.922500", "153038.382500", "153038.842500", "153039.302500", "153039.762500", "153040.222500", "153040.682500", "153041.142500", "153041.602500", "153042.062500", "153042.522500", "153042.982500", "153043.442500", "153043.902500", "153044.362500", "153044.822500", "153045.282500", "153045.742500", "153046.202500", "153046.662500", "153047.122500", "153047.582500", "153048.042500", "153048.502500", "153048.962500", "153049.422500", "153049.882500", "153050.342500", "153050.802500", "153051.262500", "153051.722500", "153052.182500", "153052.642500", "153053.102500", "153053.562500", "153054.022500", "153054.482500", "153054.942500", "153055.402500", "153055.862500", "153056.322500", "153056.782500", "153057.242500", "153057.702500", "153058.162500", "153058.622500", "153059.082500", "153059.542500", "153100.002500", "153100.462500", "153100.922500", "153101.382500", "153101.842500", "153102.302500", "153102.762500", "153103.222500", "153103.682500", "153104.142500", "153104.602500", "153105.062500", "153105.522500", "153105.982500", "153106.442500", "153106.902500", "153107.362500", "153107.822500", "153108.282500", "153108.742500", "153109.202500", "153109.662500", "153110.122500", "153110.582500", "153111.042500", "153111.502500", "153111.962500", "153112.422500", "153112.882500", "153113.342500", "153113.802500", "153114.262500", "153114.722500", "153115.182500", "153115.642500", "153116.102500", "153116.562500", "153117.022500", "153117.482500", "153117.942500", "153118.402500", "153118.862500", "153119.322500", "153119.782500", "153120.242500", "153120.702500", "153121.162500", "153121.622500", "153122.082500", "153122.542500", "153123.002500", "153123.462500", "153123.922500", "153124.382500", "153124.842500", "153125.302500", "153125.762500", "153126.222500", "153126.682500", "153127.142500", "153127.602500", "153128.062500", "153128.522500", "153128.982500", "153129.442500", "153129.902500", "153130.362500", "153130.822500", "153131.282500", "153131.742500", "153132.202500", "153132.662500", "153133.122500", "153133.582500", "153134.042500", "153134.502500", "153134.962500", "153135.422500", "153135.882500", "153136.342500", "153136.802500", "153137.262500", "153137.722500", "153138.182500", "153138.642500", "153139.102500", "153139.562500", "153140.022500", "153140.482500", "153140.942500", "153141.402500", "153141.862500", "153142.322500", "153142.782500", "153143.242500", "153143.702500", "153144.162500", "153144.622500", "153145.082500", "153145.542500", "153146.002500", "153146.462500", "153146.922500", "153147.382500", "153147.842500", "153148.302500", "153148.762500", "153149.222500", "153149.682500", "153150.142500", "153150.602500", "153151.062500", "153151.522500", "153151.982500", "153152.442500", "153152.902500", "153153.362500", "153153.822500", "153154.282500", "153154.742500", "153155.202500", "153155.662500", "153156.122500", "153156.582500", "153157.042500", "153157.502500", "153157.962500", "153158.422500", "153158.882500", "153159.342500", "153159.802500", "153200.262500", "153200.722500", "153201.182500", "153201.642500", "153202.102500", "153202.562500", "153203.022500", "153203.482500", "153203.942500", "153204.402500", "153204.862500", "153205.322500", "153205.782500", "153206.242500", "153206.702500", "153207.162500", "153207.622500", "153208.082500", "153208.542500", "153209.002500", "153209.462500", "153209.922500", "153210.382500", "153210.842500", "153211.302500", "153211.762500", "153212.222500", "153212.682500", "153213.142500", "153213.602500", "153214.062500", "153214.522500", "153214.982500", "153215.442500", "153215.902500", "153216.362500", "153216.822500", "153217.282500", "153217.742500", "153218.202500", "153218.662500", "153219.122500", "153219.582500", "153220.042500", "153220.502500", "153220.962500", "153221.422500", "153221.882500", "153222.342500", "153222.802500", "153223.262500", "153223.722500", "153224.182500", "153224.642500", "153225.102500", "153225.562500", "153226.022500", "153226.482500", "153226.942500", "153227.402500", "153227.862500", "153228.322500", "153228.782500", "153229.242500", "153229.702500", "153230.162500", "153230.622500", "153231.082500", "153231.542500", "153232.002500", "153232.462500", "153232.922500", "153233.382500", "153233.842500", "153234.302500", "153234.762500", "153235.222500", "153235.682500", "153236.142500", "153236.602500", "153237.062500", "153237.522500", "153237.982500", "153238.442500", "153238.902500", "153239.362500", "153239.822500", "153240.282500", "153240.742500", "153241.202500", "153241.662500", "153242.122500", "153242.582500", "153243.042500", "153243.502500", "153243.962500", "153244.422500", "153244.882500", "153245.342500", "153245.802500", "153246.262500", "153246.722500", "153247.182500", "153247.642500", "153248.102500", "153248.562500", "153249.022500", "153249.482500", "153249.942500", "153250.402500", "153250.862500", "153251.322500", "153251.782500", "153252.242500", "153252.702500", "153253.162500", "153253.622500", "153254.082500", "153254.542500", "153255.002500", "153255.462500", "153255.922500", "153256.382500", "153256.842500", "153257.302500", "153257.762500", "153258.222500", "153258.682500", "153259.142500", "153259.602500", "153300.062500", "153300.522500", "153300.982500", "153301.442500", "153301.902500", "153302.362500", "153302.822500", "153303.282500", "153303.742500", "153304.202500", "153304.662500", "153305.122500", "153305.582500", "153306.042500", "153306.502500", "153306.962500", "153307.422500", "153307.882500", "153308.342500", "153308.802500", "153309.262500", "153309.722500", "153310.182500", "153310.642500", "153311.102500", "153311.562500", "153312.022500", "153312.482500", "153312.942500", "153313.402500", "153313.862500", "153314.322500", "153314.782500", "153315.242500", "153315.702500", "153316.162500", "153316.622500", "153317.082500", "153317.542500", "153318.002500", "153318.462500", "153318.922500", "153319.382500", "153319.842500", "153320.302500", "153320.762500", "153321.222500", "153321.682500", "153322.142500", "153322.602500", "153323.062500", "153323.522500", "153323.982500", "153324.442500", "153324.902500", "153325.362500", "153325.822500", "153326.282500", "153326.742500", "153327.202500", "153327.662500", "153328.122500", "153328.582500", "153329.042500", "153329.502500", "153329.962500", "153330.422500", "153330.882500", "153331.342500", "153331.802500", "153332.262500", "153332.722500", "153333.182500", "153333.642500", "153334.102500", "153334.562500", "153335.022500", "153335.482500", "153335.942500", "153336.402500", "153336.862500", "153337.322500", "153337.782500", "153338.242500", "153338.702500", "153339.162500", "153339.622500", "153340.082500", "153340.542500", "153341.002500", "153341.462500", "153341.922500", "153342.382500", "153342.842500", "153343.302500", "153343.762500", "153344.222500", "153344.682500", "153345.142500", "153345.602500", "153346.062500", "153346.522500", "153346.982500", "153347.442500", "153347.902500", "153348.362500", "153348.822500", "153349.282500", "153349.742500", "153350.202500", "153350.662500", "153351.122500", "153351.582500", "153352.042500", "153352.502500", "153352.962500", "153353.422500", "153353.882500", "153354.342500", "153354.802500", "153355.262500", "153355.722500", "153356.182500", "153356.642500", "153357.102500", "153357.562500", "153358.022500", "153358.482500", "153358.942500", "153359.402500", "153359.862500", "153400.322500", "153400.782500", "153401.242500", "153401.702500", "153402.162500", "153402.622500", "153403.082500", "153403.542500", "153404.002500", "153404.462500", "153404.922500", "153405.382500", "153405.842500", "153406.302500", "153406.762500", "153407.222500", "153407.682500", "153408.142500", "153408.602500", "153409.062500", "153409.522500", "153409.982500", "153410.442500", "153410.902500", "153411.362500", "153411.822500", "153412.282500", "153412.742500", "153413.202500", "153413.662500", "153414.122500", "153414.582500", "153415.042500", "153415.502500", "153415.962500", "153416.422500", "153416.882500", "153417.342500", "153417.802500", "153418.262500", "153418.722500", "153419.182500", "153419.642500", "153420.102500", "153420.562500", "153421.022500", "153421.482500", "153421.942500", "153422.402500", "153422.862500", "153423.322500", "153423.782500", "153424.242500", "153424.702500", "153425.162500", "153425.622500", "153426.082500", "153426.542500", "153427.002500", "153427.462500", "153427.922500", "153428.382500", "153428.842500", "153429.302500", "153429.762500", "153430.222500", "153430.682500", "153431.142500", "153431.602500", "153432.062500", "153432.522500", "153432.982500", "153433.442500", "153433.902500", "153434.362500", "153434.822500", "153435.282500", "153435.742500", "153436.202500", "153436.662500", "153437.122500", "153437.582500", "153438.042500", "153438.502500", "153438.962500", "153439.422500", "153439.882500", "153440.342500", "153440.802500", "153441.262500", "153441.722500", "153442.182500", "153442.642500", "153443.102500", "153443.562500", "153444.022500", "153444.482500", "153444.942500", "153445.402500", "153445.862500", "153446.322500", "153446.782500", "153447.242500", "153447.702500", "153448.162500", "153448.622500", "153449.082500", "153449.542500", "153450.002500", "153450.462500", "153450.922500", "153451.382500", "153451.842500", "153452.302500", "153452.762500", "153453.222500", "153453.682500", "153454.142500", "153454.602500", "153455.062500", "153455.522500", "153455.982500", "153456.442500", "153456.902500", "153457.362500", "153457.822500", "153458.282500", "153458.742500", "153459.202500", "153459.662500", "153500.122500", "153500.582500", "153501.042500", "153501.502500", "153501.962500", "153502.422500", "153502.882500", "153503.342500", "153503.802500", "153504.262500", "153504.722500", "153505.182500", "153505.642500", "153506.102500", "153506.562500", "153507.022500", "153507.482500", "153507.942500", "153508.402500", "153508.862500", "153509.322500", "153509.782500", "153510.242500", "153510.702500", "153511.162500", "153511.622500", "153512.082500", "153512.542500", "153513.002500", "153513.462500", "153513.922500", "153514.382500", "153514.842500", "153515.302500", "153515.762500", "153516.222500", "153516.682500", "153517.142500", "153517.602500", "153518.062500", "153518.522500", "153518.982500", "153519.442500", "153519.902500", "153520.362500", "153520.822500", "153521.282500", "153521.742500", "153522.202500", "153522.662500", "153523.122500", "153523.582500", "153524.042500", "153524.502500", "153524.962500", "153525.422500", "153525.882500", "153526.342500", "153526.802500", "153527.262500", "153527.722500", "153528.182500", "153528.642500", "153529.102500", "153529.562500", "153530.022500", "153530.482500", "153530.942500", "153531.402500", "153531.862500", "153532.322500", "153532.782500", "153533.242500", "153533.702500", "153534.162500", "153534.622500", "153535.082500", "153535.542500", "153536.002500", "153536.462500", "153536.922500", "153537.382500", "153537.842500", "153538.302500", "153538.762500", "153539.222500", "153539.682500", "153540.142500", "153540.602500", "153541.062500", "153541.522500", "153541.982500", "153542.442500", "153542.902500", "153543.362500", "153543.822500", "153544.282500", "153544.742500", "153545.202500", "153545.662500", "153546.122500", "153546.582500", "153547.042500", "153547.502500", "153547.962500", "153548.422500", "153548.882500", "153549.342500", "153549.802500", "153550.262500", "153550.722500", "153551.182500", "153551.642500", "153552.102500", "153552.562500", "153553.022500", "153553.482500", "153553.942500", "153554.402500", "153554.862500", "153555.322500", "153555.782500", "153556.242500", "153556.702500", "153557.162500", "153557.622500", "153558.082500", "153558.542500", "153559.002500", "153559.462500", "153559.922500", "153600.382500", "153600.842500", "153601.302500", "153601.762500", "153602.222500", "153602.682500", "153603.142500", "153603.602500", "153604.062500", "153604.522500", "153604.982500", "153605.442500", "153605.902500", "153606.362500", "153606.822500", "153607.282500", "153607.742500", "153608.202500", "153608.662500", "153609.122500", "153609.582500", "153610.042500", "153610.502500", "153610.962500", "153611.422500", "153611.882500", "153612.342500", "153612.802500", "153613.262500", "153613.722500", "153614.182500", "153614.642500", "153615.102500", "153615.562500", "153616.022500", "153616.482500", "153616.942500", "153617.402500", "153617.862500", "153618.322500", "153618.782500", "153619.242500", "153619.702500", "153620.162500", "153620.622500", "153621.082500", "153621.542500", "153622.002500", "153622.462500", "153622.922500", "153623.382500", "153623.842500", "153624.302500", "153624.762500", "153625.222500", "153625.682500", "153626.142500", "153626.602500", "153627.062500", "153627.522500", "153627.982500", "153628.442500", "153628.902500", "153629.362500", "153629.822500", "153630.282500"],
