{
  "AcquisitionMatrixPE": 82,
  "AcquisitionNumber": 1,
  "AcquisitionTime": "12:56:13.507500",
  "BandwidthPerPixelPhaseEncode": 24.888,
  "BaseResolution": 82,
  "BodyPartExamined": "BRAIN",
  "ConsistencyInfo": "N4_VE11C_LATEST_20160120",
  "ConversionSoftware": "dcm2niix",
  "ConversionSoftwareVersion": "v1.0.20201102",
  "DerivedVendorReportedEchoSpacing": 0.00049,
  "DeviceSerialNumber": "66112",
  "DwellTime": 2e-06,
  "EchoTime": 0.0272,
  "EchoTrainLength": 82,
  "EffectiveEchoSpacing": 0.00049,
  "FlipAngle": 44,
  "ImageComments": "Unaliased MB8/PE3",
  "ImageOrientationPatientDICOM": [0.9998, 0.0186801, 0.00716731, -0.0195463, 0.988417, 0.150497],
  "ImageType": [
    "ORIGINAL",
    "PRIMARY",
    "M",
    "MB",
    "ND",
    "NORM",
    "MOSAIC"
],
  "ImagingFrequency": 123.252,
  "InPlanePhaseEncodingDirectionDICOM": "COL",
  "InstitutionAddress": "Maynard 3,Hanover,NH,US,03755",
  "InstitutionName": "Dartmouth College - PBS",
  "InstitutionalDepartmentName": "Department",
  "MRAcquisitionType": "2D",
  "MagneticFieldStrength": 3,
  "Manufacturer": "Siemens",
  "ManufacturersModelName": "Prisma",
  "Modality": "MR",
  "MultibandAccelerationFactor": 8,
  "PartialFourier": 1,
  "PatientPosition": "HFS",
  "PercentPhaseFOV": 100,
  "PercentSampling": 100,
  "PhaseEncodingDirection": "j-",
  "PhaseEncodingSteps": 82,
  "PhaseResolution": 1,
  "PixelBandwidth": 3050,
  "ProcedureStepDescription": "Wager_Wager^1076_spacetop",
  "ProtocolName": "func_run-01_task-faces_acq-ap-mb8",
  "PulseSequenceDetails": "%CustomerSeq%\\cmrr_mbep2d_bold",
  "ReceiveCoilActiveElements": "HEA;HEP",
  "ReceiveCoilName": "Head_32",
  "ReconMatrixPE": 82,
  "RepetitionTime": 0.46,
  "SAR": 0.114155,
  "ScanOptions": "FS",
  "ScanningSequence": "EP",
  "SequenceName": "epfid2d1_82",
  "SequenceVariant": "SK\\SS",
  "SeriesDescription": "func_run-01_task-faces_acq-ap-mb8",
  "SeriesNumber": 16,
  "ShimSetting": [4153, -7750, -7256, 545, -20, -11, 56, 78],
  "SliceThickness": 2.7,
  "SliceTiming": [0, 0.25, 0.0625, 0.3125, 0.125, 0.375, 0.1875, 0, 0.25, 0.0625, 0.3125, 0.125, 0.375, 0.1875, 0, 0.25, 0.0625, 0.3125, 0.125, 0.375, 0.1875, 0, 0.25, 0.0625, 0.3125, 0.125, 0.375, 0.1875, 0, 0.25, 0.0625, 0.3125, 0.125, 0.375, 0.1875, 0, 0.25, 0.0625, 0.3125, 0.125, 0.375, 0.1875, 0, 0.25, 0.0625, 0.3125, 0.125, 0.375, 0.1875, 0, 0.25, 0.0625, 0.3125, 0.125, 0.375, 0.1875],
  "SoftwareVersions": "syngo MR E11",
  "SpacingBetweenSlices": 2.7,
  "StationName": "AWP66112",
  "TaskName": "faces",
  "TotalReadoutTime": 0.03969,
  "TxRefAmp": 250.1,
  "WipMemBlock": "1cf14920-c53e-4c2e-8a1c-b70c91c8d8af||Sequence: R016 ve11c/master r/e634e98; Dec 19 2017 11:00:25 by eja",
  "dcmmeta_affine": [
    [-2.682389736175537, -0.05244136601686478, 0.011537091806530952, 114.67627716064453],
    [-0.050117410719394684, 2.651851177215576, 0.4066378176212311, -95.9087905883789],
    [0.01922936737537384, -0.40377146005630493, 2.6691782474517822, -37.86857986450195],
    [0.0, 0.0, 0.0, 1.0]
],
  "dcmmeta_reorient_transform": [
    [0.0, -1.0, 0.0, 81.0],
    [1.0, 0.0, 0.0, 0.0],
    [0.0, 0.0, 1.0, 0.0],
    [0.0, 0.0, 0.0, 1.0]
],
  "dcmmeta_shape": [82, 82, 56, 914],
  "dcmmeta_slice_dim": 2,
  "dcmmeta_version": 0.6,
  "global": {
    "const": {
      "AccessionNumber": "A003450",
      "AcquisitionMatrix": [82, 0, 0, 82],
      "AngioFlag": "N",
      "BitsAllocated": 16,
      "BitsStored": 16,
      "BodyPartExamined": "BRAIN",
      "Columns": 656,
      "EchoNumbers": 1,
      "EchoTime": 27.2,
      "EchoTrainLength": 82,
      "FlipAngle": 44.0,
      "HighBit": 15,
      "ImageOrientationPatient": [0.99979982126622, 0.01868012494099, 0.00716730969253, -0.0195463268616, 0.98841727311871, 0.15049662888847],
      "ImagePositionPatient": [-865.22373617798, -894.35617739854, -191.9753025844],
      "ImageType": [
        "ORIGINAL",
        "PRIMARY",
        "M",
        "MB",
        "ND",
        "NORM",
        "MOSAIC"
],
      "ImagedNucleus": "1H",
      "ImagingFrequency": 123.252149,
      "InPlanePhaseEncodingDirection": "COL",
      "MRAcquisitionType": "2D",
      "MagneticFieldStrength": 3.0,
      "Manufacturer": "SIEMENS",
      "ManufacturerModelName": "Prisma",
      "Modality": "MR",
      "NumberOfAverages": 1.0,
      "NumberOfPhaseEncodingSteps": 82,
      "PercentPhaseFieldOfView": 100.0,
      "PercentSampling": 100.0,
      "PerformedProcedureStepStartTime": "113354.394000",
      "PhotometricInterpretation": "MONOCHROME2",
      "PixelBandwidth": 3050.0,
      "PixelRepresentation": 0,
      "PixelSpacing": [2.6829268932343, 2.6829268932343],
      "ProtocolName": "func_run-01_task-faces_acq-ap-mb8",
      "RepetitionTime": 460.0,
      "Rows": 656,
      "SAR": 0.11415453193667,
      "SamplesPerPixel": 1,
      "ScanOptions": "FS",
      "ScanningSequence": "EP",
      "SequenceName": "epfid2d1_82",
      "SequenceVariant": [
        "SK",
        "SS"
],
      "SeriesDescription": "func_run-01_task-faces_acq-ap-mb8",
      "SeriesNumber": 16,
      "SeriesTime": "125624.177000",
      "SliceLocation": -51.390777438143,
      "SliceThickness": 2.7000000476837,
      "SmallestImagePixelValue": 0,
      "SoftwareVersions": "syngo MR E11",
      "SpacingBetweenSlices": 2.6999999605522,
      "SpecificCharacterSet": "ISO_IR 100",
      "StudyID": "1",
      "StudyTime": "113354.272000",
      "TransmitCoilName": "Body",
      "VariableFlipAngleFlag": "N",
      "WindowCenterWidthExplanation": "Algo1",
      "dBdt": 0.0},
    "slices": {}
  },
  "time": {
    "samples": {
      "AcquisitionNumber": [1, 2, 3, 4, 5, 6, 7, 8, 9, 10, 11, 12, 13, 14, 15, 16, 17, 18, 19, 20, 21, 22, 23, 24, 25, 26, 27, 28, 29, 30, 31, 32, 33, 34, 35, 36, 37, 38, 39, 40, 41, 42, 43, 44, 45, 46, 47, 48, 49, 50, 51, 52, 53, 54, 55, 56, 57, 58, 59, 60, 61, 62, 63, 64, 65, 66, 67, 68, 69, 70, 71, 72, 73, 74, 75, 76, 77, 78, 79, 80, 81, 82, 83, 84, 85, 86, 87, 88, 89, 90, 91, 92, 93, 94, 95, 96, 97, 98, 99, 100, 101, 102, 103, 104, 105, 106, 107, 108, 109, 110, 111, 112, 113, 114, 115, 116, 117, 118, 119, 120, 121, 122, 123, 124, 125, 126, 127, 128, 129, 130, 131, 132, 133, 134, 135, 136, 137, 138, 139, 140, 141, 142, 143, 144, 145, 146, 147, 148, 149, 150, 151, 152, 153, 154, 155, 156, 157, 158, 159, 160, 161, 162, 163, 164, 165, 166, 167, 168, 169, 170, 171, 172, 173, 174, 175, 176, 177, 178, 179, 180, 181, 182, 183, 184, 185, 186, 187, 188, 189, 190, 191, 192, 193, 194, 195, 196, 197, 198, 199, 200, 201, 202, 203, 204, 205, 206, 207, 208, 209, 210, 211, 212, 213, 214, 215, 216, 217, 218, 219, 220, 221, 222, 223, 224, 225, 226, 227, 228, 229, 230, 231, 232, 233, 234, 235, 236, 237, 238, 239, 240, 241, 242, 243, 244, 245, 246, 247, 248, 249, 250, 251, 252, 253, 254, 255, 256, 257, 258, 259, 260, 261, 262, 263, 264, 265, 266, 267, 268, 269, 270, 271, 272, 273, 274, 275, 276, 277, 278, 279, 280, 281, 282, 283, 284, 285, 286, 287, 288, 289, 290, 291, 292, 293, 294, 295, 296, 297, 298, 299, 300, 301, 302, 303, 304, 305, 306, 307, 308, 309, 310, 311, 312, 313, 314, 315, 316, 317, 318, 319, 320, 321, 322, 323, 324, 325, 326, 327, 328, 329, 330, 331, 332, 333, 334, 335, 336, 337, 338, 339, 340, 341, 342, 343, 344, 345, 346, 347, 348, 349, 350, 351, 352, 353, 354, 355, 356, 357, 358, 359, 360, 361, 362, 363, 364, 365, 366, 367, 368, 369, 370, 371, 372, 373, 374, 375, 376, 377, 378, 379, 380, 381, 382, 383, 384, 385, 386, 387, 388, 389, 390, 391, 392, 393, 394, 395, 396, 397, 398, 399, 400, 401, 402, 403, 404, 405, 406, 407, 408, 409, 410, 411, 412, 413, 414, 415, 416, 417, 418, 419, 420, 421, 422, 423, 424, 425, 426, 427, 428, 429, 430, 431, 432, 433, 434, 435, 436, 437, 438, 439, 440, 441, 442, 443, 444, 445, 446, 447, 448, 449, 450, 451, 452, 453, 454, 455, 456, 457, 458, 459, 460, 461, 462, 463, 464, 465, 466, 467, 468, 469, 470, 471, 472, 473, 474, 475, 476, 477, 478, 479, 480, 481, 482, 483, 484, 485, 486, 487, 488, 489, 490, 491, 492, 493, 494, 495, 496, 497, 498, 499, 500, 501, 502, 503, 504, 505, 506, 507, 508, 509, 510, 511, 512, 513, 514, 515, 516, 517, 518, 519, 520, 521, 522, 523, 524, 525, 526, 527, 528, 529, 530, 531, 532, 533, 534, 535, 536, 537, 538, 539, 540, 541, 542, 543, 544, 545, 546, 547, 548, 549, 550, 551, 552, 553, 554, 555, 556, 557, 558, 559, 560, 561, 562, 563, 564, 565, 566, 567, 568, 569, 570, 571, 572, 573, 574, 575, 576, 577, 578, 579, 580, 581, 582, 583, 584, 585, 586, 587, 588, 589, 590, 591, 592, 593, 594, 595, 596, 597, 598, 599, 600, 601, 602, 603, 604, 605, 606, 607, 608, 609, 610, 611, 612, 613, 614, 615, 616, 617, 618, 619, 620, 621, 622, 623, 624, 625, 626, 627, 628, 629, 630, 631, 632, 633, 634, 635, 636, 637, 638, 639, 640, 641, 642, 643, 644, 645, 646, 647, 648, 649, 650, 651, 652, 653, 654, 655, 656, 657, 658, 659, 660, 661, 662, 663, 664, 665, 666, 667, 668, 669, 670, 671, 672, 673, 674, 675, 676, 677, 678, 679, 680, 681, 682, 683, 684, 685, 686, 687, 688, 689, 690, 691, 692, 693, 694, 695, 696, 697, 698, 699, 700, 701, 702, 703, 704, 705, 706, 707, 708, 709, 710, 711, 712, 713, 714, 715, 716, 717, 718, 719, 720, 721, 722, 723, 724, 725, 726, 727, 728, 729, 730, 731, 732, 733, 734, 735, 736, 737, 738, 739, 740, 741, 742, 743, 744, 745, 746, 747, 748, 749, 750, 751, 752, 753, 754, 755, 756, 757, 758, 759, 760, 761, 762, 763, 764, 765, 766, 767, 768, 769, 770, 771, 772, 773, 774, 775, 776, 777, 778, 779, 780, 781, 782, 783, 784, 785, 786, 787, 788, 789, 790, 791, 792, 793, 794, 795, 796, 797, 798, 799, 800, 801, 802, 803, 804, 805, 806, 807, 808, 809, 810, 811, 812, 813, 814, 815, 816, 817, 818, 819, 820, 821, 822, 823, 824, 825, 826, 827, 828, 829, 830, 831, 832, 833, 834, 835, 836, 837, 838, 839, 840, 841, 842, 843, 844, 845, 846, 847, 848, 849, 850, 851, 852, 853, 854, 855, 856, 857, 858, 859, 860, 861, 862, 863, 864, 865, 866, 867, 868, 869, 870, 871, 872, 873, 874, 875, 876, 877, 878, 879, 880, 881, 882, 883, 884, 885, 886, 887, 888, 889, 890, 891, 892, 893, 894, 895, 896, 897, 898, 899, 900, 901, 902, 903, 904, 905, 906, 907, 908, 909, 910, 911, 912, 913, 914],
      "AcquisitionTime": ["125613.507500", "125613.967500", "125614.427500", "125614.887500", "125615.347500", "125615.807500", "125616.267500", "125616.727500", "125617.187500", "125617.647500", "125618.107500", "125618.567500", "125619.027500", "125619.487500", "125619.947500", "125620.407500", "125620.867500", "125621.327500", "125621.787500", "125622.247500", "125622.707500", "125623.167500", "125623.627500", "125624.087500", "125624.547500", "125625.007500", "125625.467500", "125625.927500", "125626.387500", "125626.847500", "125627.307500", "125627.767500", "125628.227500", "125628.687500", "125629.147500", "125629.607500", "125630.067500", "125630.527500", "125630.987500", "125631.447500", "125631.907500", "125632.367500", "125632.827500", "125633.287500", "125633.747500", "125634.207500", "125634.667500", "125635.127500", "125635.587500", "125636.047500", "125636.507500", "125636.967500", "125637.427500", "125637.887500", "125638.347500", "125638.807500", "125639.267500", "125639.727500", "125640.187500", "125640.647500", "125641.107500", "125641.567500", "125642.027500", "125642.487500", "125642.947500", "125643.407500", "125643.867500", "125644.327500", "125644.787500", "125645.247500", "125645.707500", "125646.167500", "125646.627500", "125647.087500", "125647.547500", "125648.007500", "125648.467500", "125648.927500", "125649.387500", "125649.847500", "125650.307500", "125650.767500", "125651.227500", "125651.687500", "125652.147500", "125652.607500", "125653.067500", "125653.527500", "125653.987500", "125654.447500", "125654.907500", "125655.367500", "125655.827500", "125656.287500", "125656.747500", "125657.207500", "125657.667500", "125658.127500", "125658.587500", "125659.047500", "125659.507500", "125659.967500", "125700.427500", "125700.887500", "125701.347500", "125701.807500", "125702.267500", "125702.727500", "125703.187500", "125703.647500", "125704.107500", "125704.567500", "125705.027500", "125705.487500", "125705.947500", "125706.407500", "125706.867500", "125707.327500", "125707.787500", "125708.247500", "125708.707500", "125709.167500", "125709.627500", "125710.087500", "125710.547500", "125711.007500", "125711.467500", "125711.927500", "125712.387500", "125712.847500", "125713.307500", "125713.767500", "125714.227500", "125714.687500", "125715.147500", "125715.607500", "125716.067500", "125716.527500", "125716.987500", "125717.447500", "125717.907500", "125718.367500", "125718.827500", "125719.287500", "125719.747500", "125720.207500", "125720.667500", "125721.127500", "125721.587500", "125722.047500", "125722.507500", "125722.967500", "125723.427500", "125723.887500", "125724.347500", "125724.807500", "125725.267500", "125725.727500", "125726.187500", "125726.647500", "125727.107500", "125727.567500", "125728.027500", "125728.487500", "125728.947500", "125729.407500", "125729.867500", "125730.327500", "125730.787500", "125731.247500", "125731.707500", "125732.167500", "125732.627500", "125733.087500", "125733.547500", "125734.007500", "125734.467500", "125734.927500", "125735.387500", "125735.847500", "125736.307500", "125736.767500", "125737.227500", "125737.687500", "125738.147500", "125738.607500", "125739.067500", "125739.527500", "125739.987500", "125740.447500", "125740.907500", "125741.367500", "125741.827500", "125742.287500", "125742.747500", "125743.207500", "125743.667500", "125744.127500", "125744.587500", "125745.047500", "125745.507500", "125745.967500", "125746.427500", "125746.887500", "125747.347500", "125747.807500", "125748.267500", "125748.727500", "125749.187500", "125749.647500", "125750.107500", "125750.567500", "125751.027500", "125751.487500", "125751.947500", "125752.407500", "125752.867500", "125753.327500", "125753.787500", "125754.247500", "125754.707500", "125755.167500", "125755.627500", "125756.087500", "125756.547500", "125757.007500", "125757.467500", "125757.927500", "125758.387500", "125758.847500", "125759.307500", "125759.767500", "125800.227500", "125800.687500", "125801.147500", "125801.607500", "125802.067500", "125802.527500", "125802.987500", "125803.447500", "125803.907500", "125804.367500", "125804.827500", "125805.287500", "125805.747500", "125806.207500", "125806.667500", "125807.127500", "125807.587500", "125808.047500", "125808.507500", "125808.967500", "125809.427500", "125809.887500", "125810.347500", "125810.807500", "125811.267500", "125811.727500", "125812.187500", "125812.647500", "125813.107500", "125813.567500", "125814.027500", "125814.487500", "125814.947500", "125815.407500", "125815.867500", "125816.327500", "125816.787500", "125817.247500", "125817.707500", "125818.167500", "125818.627500", "125819.087500", "125819.547500", "125820.007500", "125820.467500", "125820.927500", "125821.387500", "125821.847500", "125822.307500", "125822.767500", "125823.227500", "125823.687500", "125824.147500", "125824.607500", "125825.067500", "125825.527500", "125825.987500", "125826.447500", "125826.907500", "125827.367500", "125827.827500", "125828.287500", "125828.747500", "125829.207500", "125829.667500", "125830.127500", "125830.587500", "125831.047500", "125831.507500", "125831.967500", "125832.427500", "125832.887500", "125833.347500", "125833.807500", "125834.267500", "125834.727500", "125835.187500", "125835.647500", "125836.107500", "125836.567500", "125837.027500", "125837.487500", "125837.947500", "125838.407500", "125838.867500", "125839.327500", "125839.787500", "125840.247500", "125840.707500", "125841.167500", "125841.627500", "125842.087500", "125842.547500", "125843.007500", "125843.467500", "125843.927500", "125844.387500", "125844.847500", "125845.307500", "125845.767500", "125846.227500", "125846.687500", "125847.147500", "125847.607500", "125848.067500", "125848.527500", "125848.987500", "125849.447500", "125849.907500", "125850.367500", "125850.827500", "125851.287500", "125851.747500", "125852.207500", "125852.667500", "125853.127500", "125853.587500", "125854.047500", "125854.507500", "125854.967500", "125855.427500", "125855.887500", "125856.347500", "125856.807500", "125857.267500", "125857.727500", "125858.187500", "125858.647500", "125859.107500", "125859.567500", "125900.027500", "125900.487500", "125900.947500", "125901.407500", "125901.867500", "125902.327500", "125902.787500", "125903.247500", "125903.707500", "125904.167500", "125904.627500", "125905.087500", "125905.547500", "125906.007500", "125906.467500", "125906.927500", "125907.387500", "125907.847500", "125908.307500", "125908.767500", "125909.227500", "125909.687500", "125910.147500", "125910.607500", "125911.067500", "125911.527500", "125911.987500", "125912.447500", "125912.907500", "125913.367500", "125913.827500", "125914.287500", "125914.747500", "125915.207500", "125915.667500", "125916.127500", "125916.587500", "125917.047500", "125917.507500", "125917.967500", "125918.427500", "125918.887500", "125919.347500", "125919.807500", "125920.267500", "125920.727500", "125921.187500", "125921.647500", "125922.107500", "125922.567500", "125923.027500", "125923.487500", "125923.947500", "125924.407500", "125924.867500", "125925.327500", "125925.787500", "125926.247500", "125926.707500", "125927.167500", "125927.627500", "125928.087500", "125928.547500", "125929.007500", "125929.467500", "125929.927500", "125930.387500", "125930.847500", "125931.307500", "125931.767500", "125932.227500", "125932.687500", "125933.147500", "125933.607500", "125934.067500", "125934.527500", "125934.987500", "125935.447500", "125935.907500", "125936.367500", "125936.827500", "125937.287500", "125937.747500", "125938.207500", "125938.667500", "125939.127500", "125939.587500", "125940.047500", "125940.507500", "125940.967500", "125941.427500", "125941.887500", "125942.347500", "125942.807500", "125943.267500", "125943.727500", "125944.187500", "125944.647500", "125945.107500", "125945.567500", "125946.027500", "125946.487500", "125946.947500", "125947.407500", "125947.867500", "125948.327500", "125948.787500", "125949.247500", "125949.707500", "125950.167500", "125950.627500", "125951.087500", "125951.547500", "125952.007500", "125952.467500", "125952.927500", "125953.387500", "125953.847500", "125954.307500", "125954.767500", "125955.227500", "125955.687500", "125956.147500", "125956.607500", "125957.067500", "125957.527500", "125957.987500", "125958.447500", "125958.907500", "125959.367500", "125959.827500", "130000.287500", "130000.747500", "130001.207500", "130001.667500", "130002.127500", "130002.587500", "130003.047500", "130003.507500", "130003.967500", "130004.427500", "130004.887500", "130005.347500", "130005.807500", "130006.267500", "130006.727500", "130007.187500", "130007.647500", "130008.107500", "130008.567500", "130009.027500", "130009.487500", "130009.947500", "130010.407500", "130010.867500", "130011.327500", "130011.787500", "130012.247500", "130012.707500", "130013.167500", "130013.627500", "130014.087500", "130014.547500", "130015.007500", "130015.467500", "130015.927500", "130016.387500", "130016.847500", "130017.307500", "130017.767500", "130018.227500", "130018.687500", "130019.147500", "130019.607500", "130020.067500", "130020.527500", "130020.987500", "130021.447500", "130021.907500", "130022.367500", "130022.827500", "130023.287500", "130023.747500", "130024.207500", "130024.667500", "130025.127500", "130025.587500", "130026.047500", "130026.507500", "130026.967500", "130027.427500", "130027.887500", "130028.347500", "130028.807500", "130029.267500", "130029.727500", "130030.187500", "130030.647500", "130031.107500", "130031.567500", "130032.027500", "130032.487500", "130032.947500", "130033.407500", "130033.867500", "130034.327500", "130034.787500", "130035.247500", "130035.707500", "130036.167500", "130036.627500", "130037.087500", "130037.547500", "130038.007500", "130038.467500", "130038.927500", "130039.387500", "130039.847500", "130040.307500", "130040.767500", "130041.227500", "130041.687500", "130042.147500", "130042.607500", "130043.067500", "130043.527500", "130043.987500", "130044.447500", "130044.907500", "130045.367500", "130045.827500", "130046.287500", "130046.747500", "130047.207500", "130047.667500", "130048.127500", "130048.587500", "130049.047500", "130049.507500", "130049.967500", "130050.427500", "130050.887500", "130051.347500", "130051.807500", "130052.267500", "130052.727500", "130053.187500", "130053.647500", "130054.107500", "130054.567500", "130055.027500", "130055.487500", "130055.947500", "130056.407500", "130056.867500", "130057.327500", "130057.787500", "130058.247500", "130058.707500", "130059.167500", "130059.627500", "130100.087500", "130100.547500", "130101.007500", "130101.467500", "130101.927500", "130102.387500", "130102.847500", "130103.307500", "130103.767500", "130104.227500", "130104.687500", "130105.147500", "130105.607500", "130106.067500", "130106.527500", "130106.987500", "130107.447500", "130107.907500", "130108.367500", "130108.827500", "130109.287500", "130109.747500", "130110.207500", "130110.667500", "130111.127500", "130111.587500", "130112.047500", "130112.507500", "130112.967500", "130113.427500", "130113.887500", "130114.347500", "130114.807500", "130115.267500", "130115.727500", "130116.187500", "130116.647500", "130117.107500", "130117.567500", "130118.027500", "130118.487500", "130118.947500", "130119.407500", "130119.867500", "130120.327500", "130120.787500", "130121.247500", "130121.707500", "130122.167500", "130122.627500", "130123.087500", "130123.547500", "130124.007500", "130124.467500", "130124.927500", "130125.387500", "130125.847500", "130126.307500", "130126.767500", "130127.227500", "130127.687500", "130128.147500", "130128.607500", "130129.067500", "130129.527500", "130129.987500", "130130.447500", "130130.907500", "130131.367500", "130131.827500", "130132.287500", "130132.747500", "130133.207500", "130133.667500", "130134.127500", "130134.587500", "130135.047500", "130135.507500", "130135.967500", "130136.427500", "130136.887500", "130137.347500", "130137.807500", "130138.267500", "130138.727500", "130139.187500", "130139.647500", "130140.107500", "130140.567500", "130141.027500", "130141.487500", "130141.947500", "130142.407500", "130142.867500", "130143.327500", "130143.787500", "130144.247500", "130144.707500", "130145.167500", "130145.627500", "130146.087500", "130146.547500", "130147.007500", "130147.467500", "130147.927500", "130148.387500", "130148.847500", "130149.307500", "130149.767500", "130150.227500", "130150.687500", "130151.147500", "130151.607500", "130152.067500", "130152.527500", "130152.987500", "130153.447500", "130153.907500", "130154.367500", "130154.827500", "130155.287500", "130155.747500", "130156.207500", "130156.667500", "130157.127500", "130157.587500", "130158.047500", "130158.507500", "130158.967500", "130159.427500", "130159.887500", "130200.347500", "130200.807500", "130201.267500", "130201.727500", "130202.187500", "130202.647500", "130203.107500", "130203.567500", "130204.027500", "130204.487500", "130204.947500", "130205.407500", "130205.867500", "130206.327500", "130206.787500", "130207.247500", "130207.707500", "130208.167500", "130208.627500", "130209.087500", "130209.547500", "130210.007500", "130210.467500", "130210.927500", "130211.387500", "130211.847500", "130212.307500", "130212.767500", "130213.227500", "130213.687500", "130214.147500", "130214.607500", "130215.067500", "130215.527500", "130215.987500", "130216.447500", "130216.907500", "130217.367500", "130217.827500", "130218.287500", "130218.747500", "130219.207500", "130219.667500", "130220.127500", "130220.587500", "130221.047500", "130221.507500", "130221.967500", "130222.427500", "130222.887500", "130223.347500", "130223.807500", "130224.267500", "130224.727500", "130225.187500", "130225.647500", "130226.107500", "130226.567500", "130227.027500", "130227.487500", "130227.947500", "130228.407500", "130228.867500", "130229.327500", "130229.787500", "130230.247500", "130230.707500", "130231.167500", "130231.627500", "130232.087500", "130232.547500", "130233.007500", "130233.467500", "130233.927500", "130234.387500", "130234.847500", "130235.307500", "130235.767500", "130236.227500", "130236.687500", "130237.147500", "130237.607500", "130238.067500", "130238.527500", "130238.987500", "130239.447500", "130239.907500", "130240.367500", "130240.827500", "130241.287500", "130241.747500", "130242.207500", "130242.667500", "130243.127500", "130243.587500", "130244.047500", "130244.507500", "130244.967500", "130245.427500", "130245.887500", "130246.347500", "130246.807500", "130247.267500", "130247.727500", "130248.187500", "130248.647500", "130249.107500", "130249.567500", "130250.027500", "130250.487500", "130250.947500", "130251.407500", "130251.867500", "130252.327500", "130252.787500", "130253.247500", "130253.707500", "130254.167500", "130254.627500", "130255.087500", "130255.547500", "130256.007500", "130256.467500", "130256.927500", "130257.387500", "130257.847500", "130258.307500", "130258.767500", "130259.227500", "130259.687500", "130300.147500", "130300.607500", "130301.067500", "130301.527500", "130301.987500", "130302.447500", "130302.907500", "130303.367500", "130303.827500", "130304.287500", "130304.747500", "130305.207500", "130305.667500", "130306.127500", "130306.587500", "130307.047500", "130307.507500", "130307.967500", "130308.427500", "130308.887500", "130309.347500", "130309.807500", "130310.267500", "130310.727500", "130311.187500", "130311.647500", "130312.107500", "130312.567500", "130313.027500", "130313.487500"],
