{
  "AcquisitionMatrixPE": 82,
  "AcquisitionNumber": 1,
  "AcquisitionTime": "13:12:12.435000",
  "BandwidthPerPixelPhaseEncode": 24.888,
  "BaseResolution": 82,
  "BodyPartExamined": "BRAIN",
  "ConsistencyInfo": "N4_VE11C_LATEST_20160120",
  "ConversionSoftware": "dcm2niix",
  "ConversionSoftwareVersion": "v1.0.20201102",
  "DerivedVendorReportedEchoSpacing": 0.00049,
  "DeviceSerialNumber": "66112",
  "DwellTime": 2e-06,
  "EchoTime": 0.0272,
  "EchoTrainLength": 82,
  "EffectiveEchoSpacing": 0.00049,
  "FlipAngle": 44,
  "ImageComments": "Unaliased MB8/PE3",
  "ImageOrientationPatientDICOM": [0.9998, 0.0186801, 0.00716731, -0.0195463, 0.988417, 0.150497],
  "ImageType": [
    "ORIGINAL",
    "PRIMARY",
    "M",
    "MB",
    "ND",
    "NORM",
    "MOSAIC"
],
  "ImagingFrequency": 123.252,
  "InPlanePhaseEncodingDirectionDICOM": "COL",
  "InstitutionAddress": "Maynard 3,Hanover,NH,US,03755",
  "InstitutionName": "Dartmouth College - PBS",
  "InstitutionalDepartmentName": "Department",
  "MRAcquisitionType": "2D",
  "MagneticFieldStrength": 3,
  "Manufacturer": "Siemens",
  "ManufacturersModelName": "Prisma",
  "Modality": "MR",
  "MultibandAccelerationFactor": 8,
  "PartialFourier": 1,
  "PatientPosition": "HFS",
  "PercentPhaseFOV": 100,
  "PercentSampling": 100,
  "PhaseEncodingDirection": "j-",
  "PhaseEncodingSteps": 82,
  "PhaseResolution": 1,
  "PixelBandwidth": 3050,
  "ProcedureStepDescription": "Wager_Wager^1076_spacetop",
  "ProtocolName": "func_run-03_task-faces_acq-ap-mb8",
  "PulseSequenceDetails": "%CustomerSeq%\\cmrr_mbep2d_bold",
  "ReceiveCoilActiveElements": "HEA;HEP",
  "ReceiveCoilName": "Head_32",
  "ReconMatrixPE": 82,
  "RepetitionTime": 0.46,
  "SAR": 0.114155,
  "ScanOptions": "FS",
  "ScanningSequence": "EP",
  "SequenceName": "epfid2d1_82",
  "SequenceVariant": "SK\\SS",
  "SeriesDescription": "func_run-03_task-faces_acq-ap-mb8",
  "SeriesNumber": 20,
  "ShimSetting": [4153, -7750, -7256, 545, -20, -11, 56, 78],
  "SliceThickness": 2.7,
  "SliceTiming": [0, 0.25, 0.0625, 0.3125, 0.125, 0.3775, 0.1875, 0, 0.25, 0.0625, 0.3125, 0.125, 0.3775, 0.1875, 0, 0.25, 0.0625, 0.3125, 0.125, 0.3775, 0.1875, 0, 0.25, 0.0625, 0.3125, 0.125, 0.3775, 0.1875, 0, 0.25, 0.0625, 0.3125, 0.125, 0.3775, 0.1875, 0, 0.25, 0.0625, 0.3125, 0.125, 0.3775, 0.1875, 0, 0.25, 0.0625, 0.3125, 0.125, 0.3775, 0.1875, 0, 0.25, 0.0625, 0.3125, 0.125, 0.3775, 0.1875],
  "SoftwareVersions": "syngo MR E11",
  "SpacingBetweenSlices": 2.7,
  "StationName": "AWP66112",
  "TaskName": "faces",
  "TotalReadoutTime": 0.03969,
  "TxRefAmp": 250.1,
  "WipMemBlock": "cc8444c6-fc5b-4968-8902-14802765ed25||Sequence: R016 ve11c/master r/e634e98; Dec 19 2017 11:00:25 by eja",
  "dcmmeta_affine": [
    [-2.682389736175537, -0.05244136601686478, 0.011537091806530952, 114.67627716064453],
    [-0.050117410719394684, 2.651851177215576, 0.4066378176212311, -95.9087905883789],
    [0.01922936737537384, -0.40377146005630493, 2.6691782474517822, -37.86857986450195],
    [0.0, 0.0, 0.0, 1.0]
],
  "dcmmeta_reorient_transform": [
    [0.0, -1.0, 0.0, 81.0],
    [1.0, 0.0, 0.0, 0.0],
    [0.0, 0.0, 1.0, 0.0],
    [0.0, 0.0, 0.0, 1.0]
],
  "dcmmeta_shape": [82, 82, 56, 914],
  "dcmmeta_slice_dim": 2,
  "dcmmeta_version": 0.6,
  "global": {
    "const": {
      "AccessionNumber": "A003450",
      "AcquisitionMatrix": [82, 0, 0, 82],
      "AngioFlag": "N",
      "BitsAllocated": 16,
      "BitsStored": 16,
      "BodyPartExamined": "BRAIN",
      "Columns": 656,
      "EchoNumbers": 1,
      "EchoTime": 27.2,
      "EchoTrainLength": 82,
      "FlipAngle": 44.0,
      "HighBit": 15,
      "ImageOrientationPatient": [0.99979982126622, 0.01868012494099, 0.00716730969253, -0.0195463268616, 0.98841727311871, 0.15049662888847],
      "ImagePositionPatient": [-865.22373617798, -894.35617739854, -191.9753025844],
      "ImageType": [
        "ORIGINAL",
        "PRIMARY",
        "M",
        "MB",
        "ND",
        "NORM",
        "MOSAIC"
],
      "ImagedNucleus": "1H",
      "ImagingFrequency": 123.252156,
      "InPlanePhaseEncodingDirection": "COL",
      "MRAcquisitionType": "2D",
      "MagneticFieldStrength": 3.0,
      "Manufacturer": "SIEMENS",
      "ManufacturerModelName": "Prisma",
      "Modality": "MR",
      "NumberOfAverages": 1.0,
      "NumberOfPhaseEncodingSteps": 82,
      "PercentPhaseFieldOfView": 100.0,
      "PercentSampling": 100.0,
      "PerformedProcedureStepStartTime": "113354.394000",
      "PhotometricInterpretation": "MONOCHROME2",
      "PixelBandwidth": 3050.0,
      "PixelRepresentation": 0,
      "PixelSpacing": [2.6829268932343, 2.6829268932343],
      "ProtocolName": "func_run-03_task-faces_acq-ap-mb8",
      "RepetitionTime": 460.0,
      "Rows": 656,
      "SAR": 0.11415453193667,
      "SamplesPerPixel": 1,
      "ScanOptions": "FS",
      "ScanningSequence": "EP",
      "SequenceName": "epfid2d1_82",
      "SequenceVariant": [
        "SK",
        "SS"
],
      "SeriesDescription": "func_run-03_task-faces_acq-ap-mb8",
      "SeriesNumber": 20,
      "SeriesTime": "131224.294000",
      "SliceLocation": -51.390777438143,
      "SliceThickness": 2.7000000476837,
      "SmallestImagePixelValue": 0,
      "SoftwareVersions": "syngo MR E11",
      "SpacingBetweenSlices": 2.6999999605522,
      "SpecificCharacterSet": "ISO_IR 100",
      "StudyID": "1",
      "StudyTime": "113354.272000",
      "TransmitCoilName": "Body",
      "VariableFlipAngleFlag": "N",
      "WindowCenterWidthExplanation": "Algo1",
      "dBdt": 0.0},
    "slices": {}
  },
  "time": {
    "samples": {
      "AcquisitionNumber": [1, 2, 3, 4, 5, 6, 7, 8, 9, 10, 11, 12, 13, 14, 15, 16, 17, 18, 19, 20, 21, 22, 23, 24, 25, 26, 27, 28, 29, 30, 31, 32, 33, 34, 35, 36, 37, 38, 39, 40, 41, 42, 43, 44, 45, 46, 47, 48, 49, 50, 51, 52, 53, 54, 55, 56, 57, 58, 59, 60, 61, 62, 63, 64, 65, 66, 67, 68, 69, 70, 71, 72, 73, 74, 75, 76, 77, 78, 79, 80, 81, 82, 83, 84, 85, 86, 87, 88, 89, 90, 91, 92, 93, 94, 95, 96, 97, 98, 99, 100, 101, 102, 103, 104, 105, 106, 107, 108, 109, 110, 111, 112, 113, 114, 115, 116, 117, 118, 119, 120, 121, 122, 123, 124, 125, 126, 127, 128, 129, 130, 131, 132, 133, 134, 135, 136, 137, 138, 139, 140, 141, 142, 143, 144, 145, 146, 147, 148, 149, 150, 151, 152, 153, 154, 155, 156, 157, 158, 159, 160, 161, 162, 163, 164, 165, 166, 167, 168, 169, 170, 171, 172, 173, 174, 175, 176, 177, 178, 179, 180, 181, 182, 183, 184, 185, 186, 187, 188, 189, 190, 191, 192, 193, 194, 195, 196, 197, 198, 199, 200, 201, 202, 203, 204, 205, 206, 207, 208, 209, 210, 211, 212, 213, 214, 215, 216, 217, 218, 219, 220, 221, 222, 223, 224, 225, 226, 227, 228, 229, 230, 231, 232, 233, 234, 235, 236, 237, 238, 239, 240, 241, 242, 243, 244, 245, 246, 247, 248, 249, 250, 251, 252, 253, 254, 255, 256, 257, 258, 259, 260, 261, 262, 263, 264, 265, 266, 267, 268, 269, 270, 271, 272, 273, 274, 275, 276, 277, 278, 279, 280, 281, 282, 283, 284, 285, 286, 287, 288, 289, 290, 291, 292, 293, 294, 295, 296, 297, 298, 299, 300, 301, 302, 303, 304, 305, 306, 307, 308, 309, 310, 311, 312, 313, 314, 315, 316, 317, 318, 319, 320, 321, 322, 323, 324, 325, 326, 327, 328, 329, 330, 331, 332, 333, 334, 335, 336, 337, 338, 339, 340, 341, 342, 343, 344, 345, 346, 347, 348, 349, 350, 351, 352, 353, 354, 355, 356, 357, 358, 359, 360, 361, 362, 363, 364, 365, 366, 367, 368, 369, 370, 371, 372, 373, 374, 375, 376, 377, 378, 379, 380, 381, 382, 383, 384, 385, 386, 387, 388, 389, 390, 391, 392, 393, 394, 395, 396, 397, 398, 399, 400, 401, 402, 403, 404, 405, 406, 407, 408, 409, 410, 411, 412, 413, 414, 415, 416, 417, 418, 419, 420, 421, 422, 423, 424, 425, 426, 427, 428, 429, 430, 431, 432, 433, 434, 435, 436, 437, 438, 439, 440, 441, 442, 443, 444, 445, 446, 447, 448, 449, 450, 451, 452, 453, 454, 455, 456, 457, 458, 459, 460, 461, 462, 463, 464, 465, 466, 467, 468, 469, 470, 471, 472, 473, 474, 475, 476, 477, 478, 479, 480, 481, 482, 483, 484, 485, 486, 487, 488, 489, 490, 491, 492, 493, 494, 495, 496, 497, 498, 499, 500, 501, 502, 503, 504, 505, 506, 507, 508, 509, 510, 511, 512, 513, 514, 515, 516, 517, 518, 519, 520, 521, 522, 523, 524, 525, 526, 527, 528, 529, 530, 531, 532, 533, 534, 535, 536, 537, 538, 539, 540, 541, 542, 543, 544, 545, 546, 547, 548, 549, 550, 551, 552, 553, 554, 555, 556, 557, 558, 559, 560, 561, 562, 563, 564, 565, 566, 567, 568, 569, 570, 571, 572, 573, 574, 575, 576, 577, 578, 579, 580, 581, 582, 583, 584, 585, 586, 587, 588, 589, 590, 591, 592, 593, 594, 595, 596, 597, 598, 599, 600, 601, 602, 603, 604, 605, 606, 607, 608, 609, 610, 611, 612, 613, 614, 615, 616, 617, 618, 619, 620, 621, 622, 623, 624, 625, 626, 627, 628, 629, 630, 631, 632, 633, 634, 635, 636, 637, 638, 639, 640, 641, 642, 643, 644, 645, 646, 647, 648, 649, 650, 651, 652, 653, 654, 655, 656, 657, 658, 659, 660, 661, 662, 663, 664, 665, 666, 667, 668, 669, 670, 671, 672, 673, 674, 675, 676, 677, 678, 679, 680, 681, 682, 683, 684, 685, 686, 687, 688, 689, 690, 691, 692, 693, 694, 695, 696, 697, 698, 699, 700, 701, 702, 703, 704, 705, 706, 707, 708, 709, 710, 711, 712, 713, 714, 715, 716, 717, 718, 719, 720, 721, 722, 723, 724, 725, 726, 727, 728, 729, 730, 731, 732, 733, 734, 735, 736, 737, 738, 739, 740, 741, 742, 743, 744, 745, 746, 747, 748, 749, 750, 751, 752, 753, 754, 755, 756, 757, 758, 759, 760, 761, 762, 763, 764, 765, 766, 767, 768, 769, 770, 771, 772, 773, 774, 775, 776, 777, 778, 779, 780, 781, 782, 783, 784, 785, 786, 787, 788, 789, 790, 791, 792, 793, 794, 795, 796, 797, 798, 799, 800, 801, 802, 803, 804, 805, 806, 807, 808, 809, 810, 811, 812, 813, 814, 815, 816, 817, 818, 819, 820, 821, 822, 823, 824, 825, 826, 827, 828, 829, 830, 831, 832, 833, 834, 835, 836, 837, 838, 839, 840, 841, 842, 843, 844, 845, 846, 847, 848, 849, 850, 851, 852, 853, 854, 855, 856, 857, 858, 859, 860, 861, 862, 863, 864, 865, 866, 867, 868, 869, 870, 871, 872, 873, 874, 875, 876, 877, 878, 879, 880, 881, 882, 883, 884, 885, 886, 887, 888, 889, 890, 891, 892, 893, 894, 895, 896, 897, 898, 899, 900, 901, 902, 903, 904, 905, 906, 907, 908, 909, 910, 911, 912, 913, 914],
      "AcquisitionTime": ["131212.435000", "131212.895000", "131213.355000", "131213.815000", "131214.275000", "131214.735000", "131215.195000", "131215.655000", "131216.115000", "131216.575000", "131217.035000", "131217.495000", "131217.955000", "131218.415000", "131218.875000", "131219.335000", "131219.795000", "131220.255000", "131220.715000", "131221.175000", "131221.635000", "131222.095000", "131222.555000", "131223.015000", "131223.475000", "131223.935000", "131224.395000", "131224.855000", "131225.315000", "131225.775000", "131226.235000", "131226.695000", "131227.155000", "131227.615000", "131228.075000", "131228.535000", "131228.995000", "131229.455000", "131229.915000", "131230.375000", "131230.835000", "131231.295000", "131231.755000", "131232.215000", "131232.675000", "131233.135000", "131233.595000", "131234.055000", "131234.515000", "131234.975000", "131235.435000", "131235.895000", "131236.355000", "131236.815000", "131237.275000", "131237.735000", "131238.195000", "131238.655000", "131239.115000", "131239.575000", "131240.035000", "131240.495000", "131240.955000", "131241.415000", "131241.875000", "131242.335000", "131242.795000", "131243.255000", "131243.715000", "131244.175000", "131244.635000", "131245.095000", "131245.555000", "131246.015000", "131246.475000", "131246.935000", "131247.395000", "131247.855000", "131248.315000", "131248.775000", "131249.235000", "131249.695000", "131250.155000", "131250.615000", "131251.075000", "131251.535000", "131251.995000", "131252.455000", "131252.915000", "131253.375000", "131253.835000", "131254.295000", "131254.755000", "131255.215000", "131255.675000", "131256.135000", "131256.595000", "131257.055000", "131257.515000", "131257.975000", "131258.435000", "131258.895000", "131259.355000", "131259.815000", "131300.275000", "131300.735000", "131301.195000", "131301.655000", "131302.115000", "131302.575000", "131303.035000", "131303.495000", "131303.955000", "131304.415000", "131304.875000", "131305.335000", "131305.795000", "131306.255000", "131306.715000", "131307.175000", "131307.635000", "131308.095000", "131308.555000", "131309.015000", "131309.475000", "131309.935000", "131310.395000", "131310.855000", "131311.315000", "131311.775000", "131312.235000", "131312.695000", "131313.155000", "131313.615000", "131314.075000", "131314.535000", "131314.995000", "131315.455000", "131315.915000", "131316.375000", "131316.835000", "131317.295000", "131317.755000", "131318.215000", "131318.675000", "131319.135000", "131319.595000", "131320.055000", "131320.515000", "131320.975000", "131321.435000", "131321.895000", "131322.355000", "131322.815000", "131323.275000", "131323.735000", "131324.195000", "131324.655000", "131325.115000", "131325.575000", "131326.035000", "131326.495000", "131326.955000", "131327.415000", "131327.875000", "131328.335000", "131328.795000", "131329.255000", "131329.715000", "131330.175000", "131330.635000", "131331.095000", "131331.555000", "131332.015000", "131332.475000", "131332.935000", "131333.395000", "131333.855000", "131334.315000", "131334.775000", "131335.235000", "131335.695000", "131336.155000", "131336.615000", "131337.075000", "131337.535000", "131337.995000", "131338.455000", "131338.915000", "131339.375000", "131339.835000", "131340.295000", "131340.755000", "131341.215000", "131341.675000", "131342.135000", "131342.595000", "131343.055000", "131343.515000", "131343.975000", "131344.435000", "131344.895000", "131345.355000", "131345.815000", "131346.275000", "131346.735000", "131347.195000", "131347.655000", "131348.115000", "131348.575000", "131349.035000", "131349.495000", "131349.955000", "131350.415000", "131350.875000", "131351.335000", "131351.795000", "131352.255000", "131352.715000", "131353.175000", "131353.635000", "131354.095000", "131354.555000", "131355.015000", "131355.475000", "131355.935000", "131356.395000", "131356.855000", "131357.315000", "131357.775000", "131358.235000", "131358.695000", "131359.155000", "131359.615000", "131400.075000", "131400.535000", "131400.995000", "131401.455000", "131401.915000", "131402.375000", "131402.835000", "131403.295000", "131403.755000", "131404.215000", "131404.675000", "131405.135000", "131405.595000", "131406.055000", "131406.515000", "131406.975000", "131407.435000", "131407.895000", "131408.355000", "131408.815000", "131409.275000", "131409.735000", "131410.195000", "131410.655000", "131411.115000", "131411.575000", "131412.035000", "131412.495000", "131412.955000", "131413.415000", "131413.875000", "131414.335000", "131414.795000", "131415.255000", "131415.715000", "131416.175000", "131416.635000", "131417.095000", "131417.555000", "131418.015000", "131418.475000", "131418.935000", "131419.395000", "131419.855000", "131420.315000", "131420.775000", "131421.235000", "131421.695000", "131422.155000", "131422.615000", "131423.075000", "131423.535000", "131423.995000", "131424.455000", "131424.915000", "131425.375000", "131425.835000", "131426.295000", "131426.755000", "131427.215000", "131427.675000", "131428.135000", "131428.595000", "131429.055000", "131429.515000", "131429.975000", "131430.435000", "131430.895000", "131431.355000", "131431.815000", "131432.275000", "131432.735000", "131433.195000", "131433.655000", "131434.115000", "131434.575000", "131435.035000", "131435.495000", "131435.955000", "131436.415000", "131436.875000", "131437.335000", "131437.795000", "131438.255000", "131438.715000", "131439.175000", "131439.635000", "131440.095000", "131440.555000", "131441.015000", "131441.475000", "131441.935000", "131442.395000", "131442.855000", "131443.315000", "131443.775000", "131444.235000", "131444.695000", "131445.155000", "131445.615000", "131446.075000", "131446.535000", "131446.995000", "131447.455000", "131447.915000", "131448.375000", "131448.835000", "131449.295000", "131449.755000", "131450.215000", "131450.675000", "131451.135000", "131451.595000", "131452.055000", "131452.515000", "131452.975000", "131453.435000", "131453.895000", "131454.355000", "131454.815000", "131455.275000", "131455.735000", "131456.195000", "131456.655000", "131457.115000", "131457.575000", "131458.035000", "131458.495000", "131458.955000", "131459.415000", "131459.875000", "131500.335000", "131500.795000", "131501.255000", "131501.715000", "131502.175000", "131502.635000", "131503.095000", "131503.555000", "131504.015000", "131504.475000", "131504.935000", "131505.395000", "131505.855000", "131506.315000", "131506.775000", "131507.235000", "131507.695000", "131508.155000", "131508.615000", "131509.075000", "131509.535000", "131509.995000", "131510.455000", "131510.915000", "131511.375000", "131511.835000", "131512.295000", "131512.755000", "131513.215000", "131513.675000", "131514.135000", "131514.595000", "131515.055000", "131515.515000", "131515.975000", "131516.435000", "131516.895000", "131517.355000", "131517.815000", "131518.275000", "131518.735000", "131519.195000", "131519.655000", "131520.115000", "131520.575000", "131521.035000", "131521.495000", "131521.955000", "131522.415000", "131522.875000", "131523.335000", "131523.795000", "131524.255000", "131524.715000", "131525.175000", "131525.635000", "131526.095000", "131526.555000", "131527.015000", "131527.475000", "131527.935000", "131528.395000", "131528.855000", "131529.315000", "131529.775000", "131530.235000", "131530.695000", "131531.155000", "131531.615000", "131532.075000", "131532.535000", "131532.995000", "131533.455000", "131533.915000", "131534.375000", "131534.835000", "131535.295000", "131535.755000", "131536.215000", "131536.675000", "131537.135000", "131537.595000", "131538.055000", "131538.515000", "131538.975000", "131539.435000", "131539.895000", "131540.355000", "131540.815000", "131541.275000", "131541.735000", "131542.195000", "131542.655000", "131543.115000", "131543.575000", "131544.035000", "131544.495000", "131544.955000", "131545.415000", "131545.875000", "131546.335000", "131546.795000", "131547.255000", "131547.715000", "131548.175000", "131548.635000", "131549.095000", "131549.555000", "131550.015000", "131550.475000", "131550.935000", "131551.395000", "131551.855000", "131552.315000", "131552.775000", "131553.235000", "131553.695000", "131554.155000", "131554.615000", "131555.075000", "131555.535000", "131555.995000", "131556.455000", "131556.915000", "131557.375000", "131557.835000", "131558.295000", "131558.755000", "131559.215000", "131559.675000", "131600.135000", "131600.595000", "131601.055000", "131601.515000", "131601.975000", "131602.435000", "131602.895000", "131603.355000", "131603.815000", "131604.275000", "131604.735000", "131605.195000", "131605.655000", "131606.115000", "131606.575000", "131607.035000", "131607.495000", "131607.955000", "131608.415000", "131608.875000", "131609.335000", "131609.795000", "131610.255000", "131610.715000", "131611.175000", "131611.635000", "131612.095000", "131612.555000", "131613.015000", "131613.475000", "131613.935000", "131614.395000", "131614.855000", "131615.315000", "131615.775000", "131616.235000", "131616.695000", "131617.155000", "131617.615000", "131618.075000", "131618.535000", "131618.995000", "131619.455000", "131619.915000", "131620.375000", "131620.835000", "131621.295000", "131621.755000", "131622.215000", "131622.675000", "131623.135000", "131623.595000", "131624.055000", "131624.515000", "131624.975000", "131625.435000", "131625.895000", "131626.355000", "131626.815000", "131627.275000", "131627.735000", "131628.195000", "131628.655000", "131629.115000", "131629.575000", "131630.035000", "131630.495000", "131630.955000", "131631.415000", "131631.875000", "131632.335000", "131632.795000", "131633.255000", "131633.715000", "131634.175000", "131634.635000", "131635.095000", "131635.555000", "131636.015000", "131636.475000", "131636.935000", "131637.395000", "131637.855000", "131638.315000", "131638.775000", "131639.235000", "131639.695000", "131640.155000", "131640.615000", "131641.075000", "131641.535000", "131641.995000", "131642.455000", "131642.915000", "131643.375000", "131643.835000", "131644.295000", "131644.755000", "131645.215000", "131645.675000", "131646.135000", "131646.595000", "131647.055000", "131647.515000", "131647.975000", "131648.435000", "131648.895000", "131649.355000", "131649.815000", "131650.275000", "131650.735000", "131651.195000", "131651.655000", "131652.115000", "131652.575000", "131653.035000", "131653.495000", "131653.955000", "131654.415000", "131654.875000", "131655.335000", "131655.795000", "131656.255000", "131656.715000", "131657.175000", "131657.635000", "131658.095000", "131658.555000", "131659.015000", "131659.475000", "131659.935000", "131700.395000", "131700.855000", "131701.315000", "131701.775000", "131702.235000", "131702.695000", "131703.155000", "131703.615000", "131704.075000", "131704.535000", "131704.995000", "131705.455000", "131705.915000", "131706.375000", "131706.835000", "131707.295000", "131707.755000", "131708.215000", "131708.675000", "131709.135000", "131709.595000", "131710.055000", "131710.515000", "131710.975000", "131711.435000", "131711.895000", "131712.355000", "131712.815000", "131713.275000", "131713.735000", "131714.195000", "131714.655000", "131715.115000", "131715.575000", "131716.035000", "131716.495000", "131716.955000", "131717.415000", "131717.875000", "131718.335000", "131718.795000", "131719.255000", "131719.715000", "131720.175000", "131720.635000", "131721.095000", "131721.555000", "131722.015000", "131722.475000", "131722.935000", "131723.395000", "131723.855000", "131724.315000", "131724.775000", "131725.235000", "131725.695000", "131726.155000", "131726.615000", "131727.075000", "131727.535000", "131727.995000", "131728.455000", "131728.915000", "131729.375000", "131729.835000", "131730.295000", "131730.755000", "131731.215000", "131731.675000", "131732.135000", "131732.595000", "131733.055000", "131733.515000", "131733.975000", "131734.435000", "131734.895000", "131735.355000", "131735.815000", "131736.275000", "131736.735000", "131737.195000", "131737.655000", "131738.115000", "131738.575000", "131739.035000", "131739.495000", "131739.955000", "131740.415000", "131740.875000", "131741.335000", "131741.795000", "131742.255000", "131742.715000", "131743.175000", "131743.635000", "131744.095000", "131744.555000", "131745.015000", "131745.475000", "131745.935000", "131746.395000", "131746.855000", "131747.315000", "131747.775000", "131748.235000", "131748.695000", "131749.155000", "131749.615000", "131750.075000", "131750.535000", "131750.995000", "131751.455000", "131751.915000", "131752.375000", "131752.835000", "131753.295000", "131753.755000", "131754.215000", "131754.675000", "131755.135000", "131755.595000", "131756.055000", "131756.515000", "131756.975000", "131757.435000", "131757.895000", "131758.355000", "131758.815000", "131759.275000", "131759.735000", "131800.195000", "131800.655000", "131801.115000", "131801.575000", "131802.035000", "131802.495000", "131802.955000", "131803.415000", "131803.875000", "131804.335000", "131804.795000", "131805.255000", "131805.715000", "131806.175000", "131806.635000", "131807.095000", "131807.555000", "131808.015000", "131808.475000", "131808.935000", "131809.395000", "131809.855000", "131810.315000", "131810.775000", "131811.235000", "131811.695000", "131812.155000", "131812.615000", "131813.075000", "131813.535000", "131813.995000", "131814.455000", "131814.915000", "131815.375000", "131815.835000", "131816.295000", "131816.755000", "131817.215000", "131817.675000", "131818.135000", "131818.595000", "131819.055000", "131819.515000", "131819.975000", "131820.435000", "131820.895000", "131821.355000", "131821.815000", "131822.275000", "131822.735000", "131823.195000", "131823.655000", "131824.115000", "131824.575000", "131825.035000", "131825.495000", "131825.955000", "131826.415000", "131826.875000", "131827.335000", "131827.795000", "131828.255000", "131828.715000", "131829.175000", "131829.635000", "131830.095000", "131830.555000", "131831.015000", "131831.475000", "131831.935000", "131832.395000", "131832.855000", "131833.315000", "131833.775000", "131834.235000", "131834.695000", "131835.155000", "131835.615000", "131836.075000", "131836.535000", "131836.995000", "131837.455000", "131837.915000", "131838.375000", "131838.835000", "131839.295000", "131839.755000", "131840.215000", "131840.675000", "131841.135000", "131841.595000", "131842.055000", "131842.515000", "131842.975000", "131843.435000", "131843.895000", "131844.355000", "131844.815000", "131845.275000", "131845.735000", "131846.195000", "131846.655000", "131847.115000", "131847.575000", "131848.035000", "131848.495000", "131848.955000", "131849.415000", "131849.875000", "131850.335000", "131850.795000", "131851.255000", "131851.715000", "131852.175000", "131852.635000", "131853.095000", "131853.555000", "131854.015000", "131854.475000", "131854.935000", "131855.395000", "131855.855000", "131856.315000", "131856.775000", "131857.235000", "131857.695000", "131858.155000", "131858.615000", "131859.075000", "131859.535000", "131859.995000", "131900.455000", "131900.915000", "131901.375000", "131901.835000", "131902.295000", "131902.755000", "131903.215000", "131903.675000", "131904.135000", "131904.595000", "131905.055000", "131905.515000", "131905.975000", "131906.435000", "131906.895000", "131907.355000", "131907.815000", "131908.275000", "131908.735000", "131909.195000", "131909.655000", "131910.115000", "131910.575000", "131911.035000", "131911.495000", "131911.955000", "131912.415000"],
