{
  "AcquisitionMatrixPE": 82,
  "AcquisitionNumber": 1,
  "AcquisitionTime": "13:53:11.962500",
  "BandwidthPerPixelPhaseEncode": 24.888,
  "BaseResolution": 82,
  "BodyPartExamined": "BRAIN",
  "ConsistencyInfo": "N4_VE11C_LATEST_20160120",
  "ConversionSoftware": "dcm2niix",
  "ConversionSoftwareVersion": "v1.0.20201102",
  "DerivedVendorReportedEchoSpacing": 0.00049,
  "DeviceSerialNumber": "66112",
  "DwellTime": 2e-06,
  "EchoTime": 0.0272,
  "EchoTrainLength": 82,
  "EffectiveEchoSpacing": 0.00049,
  "FlipAngle": 44,
  "ImageComments": "Unaliased MB8/PE3",
  "ImageOrientationPatientDICOM": [0.999846, 0.00102744, -0.0175252, 0.00209402, 0.984179, 0.177167],
  "ImageType": [
    "ORIGINAL",
    "PRIMARY",
    "M",
    "MB",
    "ND",
    "NORM",
    "MOSAIC"
],
  "ImagingFrequency": 123.252,
  "InPlanePhaseEncodingDirectionDICOM": "COL",
  "InstitutionAddress": "Maynard 3,Hanover,NH,US,03755",
  "InstitutionName": "Dartmouth College - PBS",
  "InstitutionalDepartmentName": "Department",
  "MRAcquisitionType": "2D",
  "MagneticFieldStrength": 3,
  "Manufacturer": "Siemens",
  "ManufacturersModelName": "Prisma",
  "Modality": "MR",
  "MultibandAccelerationFactor": 8,
  "PartialFourier": 1,
  "PatientPosition": "HFS",
  "PercentPhaseFOV": 100,
  "PercentSampling": 100,
  "PhaseEncodingDirection": "j-",
  "PhaseEncodingSteps": 82,
  "PhaseResolution": 1,
  "PixelBandwidth": 3050,
  "ProcedureStepDescription": "Wager_Wager^1076_spacetop",
  "ProtocolName": "func_run-04_task-alignvideo_acq-ap-mb8",
  "PulseSequenceDetails": "%CustomerSeq%\\cmrr_mbep2d_bold",
  "ReceiveCoilActiveElements": "HEA;HEP",
  "ReceiveCoilName": "Head_32",
  "ReconMatrixPE": 82,
  "RepetitionTime": 0.46,
  "SAR": 0.114155,
  "ScanOptions": "FS",
  "ScanningSequence": "EP",
  "SequenceName": "epfid2d1_82",
  "SequenceVariant": "SK\\SS",
  "SeriesDescription": "func_run-04_task-alignvideo_acq-ap-mb8",
  "SeriesNumber": 34,
  "ShimSetting": [4152, -7751, -7257, 540, -25, -17, 53, 77],
  "SliceThickness": 2.7,
  "SliceTiming": [0, 0.2525, 0.065, 0.315, 0.1275, 0.3775, 0.19, 0, 0.2525, 0.065, 0.315, 0.1275, 0.3775, 0.19, 0, 0.2525, 0.065, 0.315, 0.1275, 0.3775, 0.19, 0, 0.2525, 0.065, 0.315, 0.1275, 0.3775, 0.19, 0, 0.2525, 0.065, 0.315, 0.1275, 0.3775, 0.19, 0, 0.2525, 0.065, 0.315, 0.1275, 0.3775, 0.19, 0, 0.2525, 0.065, 0.315, 0.1275, 0.3775, 0.19, 0, 0.2525, 0.065, 0.315, 0.1275, 0.3775, 0.19],
  "SoftwareVersions": "syngo MR E11",
  "SpacingBetweenSlices": 2.7,
  "StationName": "AWP66112",
  "TaskName": "alignvideo",
  "TotalReadoutTime": 0.03969,
  "TxRefAmp": 250.1,
  "WipMemBlock": "48bd2fc4-8e0c-48f1-908a-546d021a8a39||Sequence: R016 ve11c/master r/e634e98; Dec 19 2017 11:00:25 by eja",
  "dcmmeta_affine": [
    [-2.682513475418091, 0.005618114490061998, -0.04706088453531265, 113.9674301147461],
    [-0.002756553702056408, 2.64047908782959, 0.47837644815444946, -97.92819213867188],
    [-0.04701883718371391, -0.4753262996673584, 2.6568667888641357, -34.85775375366211],
    [0.0, 0.0, 0.0, 1.0]
],
  "dcmmeta_reorient_transform": [
    [0.0, -1.0, 0.0, 81.0],
    [1.0, 0.0, 0.0, 0.0],
    [0.0, 0.0, 1.0, 0.0],
    [0.0, 0.0, 0.0, 1.0]
],
  "dcmmeta_shape": [82, 82, 56, 914],
  "dcmmeta_slice_dim": 2,
  "dcmmeta_version": 0.6,
  "global": {
    "const": {
      "AccessionNumber": "A003450",
      "AcquisitionMatrix": [82, 0, 0, 82],
      "AngioFlag": "N",
      "BitsAllocated": 16,
      "BitsStored": 16,
      "BodyPartExamined": "BRAIN",
      "Columns": 656,
      "EchoNumbers": 1,
      "EchoTime": 27.2,
      "EchoTrainLength": 82,
      "FlipAngle": 44.0,
      "HighBit": 15,
      "ImageOrientationPatient": [0.99984589395071, 0.00102744270809, -0.0175252021782, 0.00209402438069, 0.98417856278604, 0.1771670726018],
      "ImagePositionPatient": [-885.9162493996, -874.55926218177, -196.28342567719],
      "ImageType": [
        "ORIGINAL",
        "PRIMARY",
        "M",
        "MB",
        "ND",
        "NORM",
        "MOSAIC"
],
      "ImagedNucleus": "1H",
      "ImagingFrequency": 123.252165,
      "InPlanePhaseEncodingDirection": "COL",
      "MRAcquisitionType": "2D",
      "MagneticFieldStrength": 3.0,
      "Manufacturer": "SIEMENS",
      "ManufacturerModelName": "Prisma",
      "Modality": "MR",
      "NumberOfAverages": 1.0,
      "NumberOfPhaseEncodingSteps": 82,
      "PercentPhaseFieldOfView": 100.0,
      "PercentSampling": 100.0,
      "PerformedProcedureStepStartTime": "113354.394000",
      "PhotometricInterpretation": "MONOCHROME2",
      "PixelBandwidth": 3050.0,
      "PixelRepresentation": 0,
      "PixelSpacing": [2.6829268932343, 2.6829268932343],
      "ProtocolName": "func_run-04_task-alignvideo_acq-ap-mb8",
      "RepetitionTime": 460.0,
      "Rows": 656,
      "SAR": 0.11415453193667,
      "SamplesPerPixel": 1,
      "ScanOptions": "FS",
      "ScanningSequence": "EP",
      "SequenceName": "epfid2d1_82",
      "SequenceVariant": [
        "SK",
        "SS"
],
      "SeriesDescription": "func_run-04_task-alignvideo_acq-ap-mb8",
      "SeriesNumber": 34,
      "SeriesTime": "135324.167000",
      "SliceLocation": -53.637908618088,
      "SliceThickness": 2.7000000476837,
      "SmallestImagePixelValue": 0,
      "SoftwareVersions": "syngo MR E11",
      "SpacingBetweenSlices": 2.699999920389,
      "SpecificCharacterSet": "ISO_IR 100",
      "StudyID": "1",
      "StudyTime": "113354.272000",
      "TransmitCoilName": "Body",
      "VariableFlipAngleFlag": "N",
      "WindowCenterWidthExplanation": "Algo1",
      "dBdt": 0.0},
    "slices": {}
  },
  "time": {
    "samples": {
      "AcquisitionNumber": [1, 2, 3, 4, 5, 6, 7, 8, 9, 10, 11, 12, 13, 14, 15, 16, 17, 18, 19, 20, 21, 22, 23, 24, 25, 26, 27, 28, 29, 30, 31, 32, 33, 34, 35, 36, 37, 38, 39, 40, 41, 42, 43, 44, 45, 46, 47, 48, 49, 50, 51, 52, 53, 54, 55, 56, 57, 58, 59, 60, 61, 62, 63, 64, 65, 66, 67, 68, 69, 70, 71, 72, 73, 74, 75, 76, 77, 78, 79, 80, 81, 82, 83, 84, 85, 86, 87, 88, 89, 90, 91, 92, 93, 94, 95, 96, 97, 98, 99, 100, 101, 102, 103, 104, 105, 106, 107, 108, 109, 110, 111, 112, 113, 114, 115, 116, 117, 118, 119, 120, 121, 122, 123, 124, 125, 126, 127, 128, 129, 130, 131, 132, 133, 134, 135, 136, 137, 138, 139, 140, 141, 142, 143, 144, 145, 146, 147, 148, 149, 150, 151, 152, 153, 154, 155, 156, 157, 158, 159, 160, 161, 162, 163, 164, 165, 166, 167, 168, 169, 170, 171, 172, 173, 174, 175, 176, 177, 178, 179, 180, 181, 182, 183, 184, 185, 186, 187, 188, 189, 190, 191, 192, 193, 194, 195, 196, 197, 198, 199, 200, 201, 202, 203, 204, 205, 206, 207, 208, 209, 210, 211, 212, 213, 214, 215, 216, 217, 218, 219, 220, 221, 222, 223, 224, 225, 226, 227, 228, 229, 230, 231, 232, 233, 234, 235, 236, 237, 238, 239, 240, 241, 242, 243, 244, 245, 246, 247, 248, 249, 250, 251, 252, 253, 254, 255, 256, 257, 258, 259, 260, 261, 262, 263, 264, 265, 266, 267, 268, 269, 270, 271, 272, 273, 274, 275, 276, 277, 278, 279, 280, 281, 282, 283, 284, 285, 286, 287, 288, 289, 290, 291, 292, 293, 294, 295, 296, 297, 298, 299, 300, 301, 302, 303, 304, 305, 306, 307, 308, 309, 310, 311, 312, 313, 314, 315, 316, 317, 318, 319, 320, 321, 322, 323, 324, 325, 326, 327, 328, 329, 330, 331, 332, 333, 334, 335, 336, 337, 338, 339, 340, 341, 342, 343, 344, 345, 346, 347, 348, 349, 350, 351, 352, 353, 354, 355, 356, 357, 358, 359, 360, 361, 362, 363, 364, 365, 366, 367, 368, 369, 370, 371, 372, 373, 374, 375, 376, 377, 378, 379, 380, 381, 382, 383, 384, 385, 386, 387, 388, 389, 390, 391, 392, 393, 394, 395, 396, 397, 398, 399, 400, 401, 402, 403, 404, 405, 406, 407, 408, 409, 410, 411, 412, 413, 414, 415, 416, 417, 418, 419, 420, 421, 422, 423, 424, 425, 426, 427, 428, 429, 430, 431, 432, 433, 434, 435, 436, 437, 438, 439, 440, 441, 442, 443, 444, 445, 446, 447, 448, 449, 450, 451, 452, 453, 454, 455, 456, 457, 458, 459, 460, 461, 462, 463, 464, 465, 466, 467, 468, 469, 470, 471, 472, 473, 474, 475, 476, 477, 478, 479, 480, 481, 482, 483, 484, 485, 486, 487, 488, 489, 490, 491, 492, 493, 494, 495, 496, 497, 498, 499, 500, 501, 502, 503, 504, 505, 506, 507, 508, 509, 510, 511, 512, 513, 514, 515, 516, 517, 518, 519, 520, 521, 522, 523, 524, 525, 526, 527, 528, 529, 530, 531, 532, 533, 534, 535, 536, 537, 538, 539, 540, 541, 542, 543, 544, 545, 546, 547, 548, 549, 550, 551, 552, 553, 554, 555, 556, 557, 558, 559, 560, 561, 562, 563, 564, 565, 566, 567, 568, 569, 570, 571, 572, 573, 574, 575, 576, 577, 578, 579, 580, 581, 582, 583, 584, 585, 586, 587, 588, 589, 590, 591, 592, 593, 594, 595, 596, 597, 598, 599, 600, 601, 602, 603, 604, 605, 606, 607, 608, 609, 610, 611, 612, 613, 614, 615, 616, 617, 618, 619, 620, 621, 622, 623, 624, 625, 626, 627, 628, 629, 630, 631, 632, 633, 634, 635, 636, 637, 638, 639, 640, 641, 642, 643, 644, 645, 646, 647, 648, 649, 650, 651, 652, 653, 654, 655, 656, 657, 658, 659, 660, 661, 662, 663, 664, 665, 666, 667, 668, 669, 670, 671, 672, 673, 674, 675, 676, 677, 678, 679, 680, 681, 682, 683, 684, 685, 686, 687, 688, 689, 690, 691, 692, 693, 694, 695, 696, 697, 698, 699, 700, 701, 702, 703, 704, 705, 706, 707, 708, 709, 710, 711, 712, 713, 714, 715, 716, 717, 718, 719, 720, 721, 722, 723, 724, 725, 726, 727, 728, 729, 730, 731, 732, 733, 734, 735, 736, 737, 738, 739, 740, 741, 742, 743, 744, 745, 746, 747, 748, 749, 750, 751, 752, 753, 754, 755, 756, 757, 758, 759, 760, 761, 762, 763, 764, 765, 766, 767, 768, 769, 770, 771, 772, 773, 774, 775, 776, 777, 778, 779, 780, 781, 782, 783, 784, 785, 786, 787, 788, 789, 790, 791, 792, 793, 794, 795, 796, 797, 798, 799, 800, 801, 802, 803, 804, 805, 806, 807, 808, 809, 810, 811, 812, 813, 814, 815, 816, 817, 818, 819, 820, 821, 822, 823, 824, 825, 826, 827, 828, 829, 830, 831, 832, 833, 834, 835, 836, 837, 838, 839, 840, 841, 842, 843, 844, 845, 846, 847, 848, 849, 850, 851, 852, 853, 854, 855, 856, 857, 858, 859, 860, 861, 862, 863, 864, 865, 866, 867, 868, 869, 870, 871, 872, 873, 874, 875, 876, 877, 878, 879, 880, 881, 882, 883, 884, 885, 886, 887, 888, 889, 890, 891, 892, 893, 894, 895, 896, 897, 898, 899, 900, 901, 902, 903, 904, 905, 906, 907, 908, 909, 910, 911, 912, 913, 914],
      "AcquisitionTime": ["135311.962500", "135312.422500", "135312.882500", "135313.342500", "135313.802500", "135314.262500", "135314.722500", "135315.182500", "135315.642500", "135316.102500", "135316.562500", "135317.022500", "135317.482500", "135317.942500", "135318.402500", "135318.862500", "135319.322500", "135319.782500", "135320.242500", "135320.702500", "135321.162500", "135321.622500", "135322.082500", "135322.542500", "135323.002500", "135323.462500", "135323.922500", "135324.382500", "135324.842500", "135325.302500", "135325.762500", "135326.222500", "135326.682500", "135327.142500", "135327.602500", "135328.062500", "135328.522500", "135328.982500", "135329.442500", "135329.902500", "135330.362500", "135330.822500", "135331.282500", "135331.742500", "135332.202500", "135332.662500", "135333.122500", "135333.582500", "135334.042500", "135334.502500", "135334.962500", "135335.422500", "135335.882500", "135336.342500", "135336.802500", "135337.262500", "135337.722500", "135338.182500", "135338.642500", "135339.102500", "135339.562500", "135340.022500", "135340.482500", "135340.942500", "135341.402500", "135341.862500", "135342.322500", "135342.782500", "135343.242500", "135343.702500", "135344.162500", "135344.622500", "135345.082500", "135345.542500", "135346.002500", "135346.462500", "135346.922500", "135347.382500", "135347.842500", "135348.302500", "135348.762500", "135349.222500", "135349.682500", "135350.142500", "135350.602500", "135351.062500", "135351.522500", "135351.982500", "135352.442500", "135352.902500", "135353.362500", "135353.822500", "135354.282500", "135354.742500", "135355.202500", "135355.662500", "135356.122500", "135356.582500", "135357.042500", "135357.502500", "135357.962500", "135358.422500", "135358.882500", "135359.342500", "135359.802500", "135400.262500", "135400.722500", "135401.182500", "135401.642500", "135402.102500", "135402.562500", "135403.022500", "135403.482500", "135403.942500", "135404.402500", "135404.862500", "135405.322500", "135405.782500", "135406.242500", "135406.702500", "135407.162500", "135407.622500", "135408.082500", "135408.542500", "135409.002500", "135409.462500", "135409.922500", "135410.382500", "135410.842500", "135411.302500", "135411.762500", "135412.222500", "135412.682500", "135413.142500", "135413.602500", "135414.062500", "135414.522500", "135414.982500", "135415.442500", "135415.902500", "135416.362500", "135416.822500", "135417.282500", "135417.742500", "135418.202500", "135418.662500", "135419.122500", "135419.582500", "135420.042500", "135420.502500", "135420.962500", "135421.422500", "135421.882500", "135422.342500", "135422.802500", "135423.262500", "135423.722500", "135424.182500", "135424.642500", "135425.102500", "135425.562500", "135426.022500", "135426.482500", "135426.942500", "135427.402500", "135427.862500", "135428.322500", "135428.782500", "135429.242500", "135429.702500", "135430.162500", "135430.622500", "135431.082500", "135431.542500", "135432.002500", "135432.462500", "135432.922500", "135433.382500", "135433.842500", "135434.302500", "135434.762500", "135435.222500", "135435.682500", "135436.142500", "135436.602500", "135437.062500", "135437.522500", "135437.982500", "135438.442500", "135438.902500", "135439.362500", "135439.822500", "135440.282500", "135440.742500", "135441.202500", "135441.662500", "135442.122500", "135442.582500", "135443.042500", "135443.502500", "135443.962500", "135444.422500", "135444.882500", "135445.342500", "135445.802500", "135446.262500", "135446.722500", "135447.182500", "135447.642500", "135448.102500", "135448.562500", "135449.022500", "135449.482500", "135449.942500", "135450.402500", "135450.862500", "135451.322500", "135451.782500", "135452.242500", "135452.702500", "135453.162500", "135453.622500", "135454.082500", "135454.542500", "135455.002500", "135455.462500", "135455.922500", "135456.382500", "135456.842500", "135457.302500", "135457.762500", "135458.222500", "135458.682500", "135459.142500", "135459.602500", "135500.062500", "135500.522500", "135500.982500", "135501.442500", "135501.902500", "135502.362500", "135502.822500", "135503.282500", "135503.742500", "135504.202500", "135504.662500", "135505.122500", "135505.582500", "135506.042500", "135506.502500", "135506.962500", "135507.422500", "135507.882500", "135508.342500", "135508.802500", "135509.262500", "135509.722500", "135510.182500", "135510.642500", "135511.102500", "135511.562500", "135512.022500", "135512.482500", "135512.942500", "135513.402500", "135513.862500", "135514.322500", "135514.782500", "135515.242500", "135515.702500", "135516.162500", "135516.622500", "135517.082500", "135517.542500", "135518.002500", "135518.462500", "135518.922500", "135519.382500", "135519.842500", "135520.302500", "135520.762500", "135521.222500", "135521.682500", "135522.142500", "135522.602500", "135523.062500", "135523.522500", "135523.982500", "135524.442500", "135524.902500", "135525.362500", "135525.822500", "135526.282500", "135526.742500", "135527.202500", "135527.662500", "135528.122500", "135528.582500", "135529.042500", "135529.502500", "135529.962500", "135530.422500", "135530.882500", "135531.342500", "135531.802500", "135532.262500", "135532.722500", "135533.182500", "135533.642500", "135534.102500", "135534.562500", "135535.022500", "135535.482500", "135535.942500", "135536.402500", "135536.862500", "135537.322500", "135537.782500", "135538.242500", "135538.702500", "135539.162500", "135539.622500", "135540.082500", "135540.542500", "135541.002500", "135541.462500", "135541.922500", "135542.382500", "135542.842500", "135543.302500", "135543.762500", "135544.222500", "135544.682500", "135545.142500", "135545.602500", "135546.062500", "135546.522500", "135546.982500", "135547.442500", "135547.902500", "135548.362500", "135548.822500", "135549.282500", "135549.742500", "135550.202500", "135550.662500", "135551.122500", "135551.582500", "135552.042500", "135552.502500", "135552.962500", "135553.422500", "135553.882500", "135554.342500", "135554.802500", "135555.262500", "135555.722500", "135556.182500", "135556.642500", "135557.102500", "135557.562500", "135558.022500", "135558.482500", "135558.942500", "135559.402500", "135559.862500", "135600.322500", "135600.782500", "135601.242500", "135601.702500", "135602.162500", "135602.622500", "135603.082500", "135603.542500", "135604.002500", "135604.462500", "135604.922500", "135605.382500", "135605.842500", "135606.302500", "135606.762500", "135607.222500", "135607.682500", "135608.142500", "135608.602500", "135609.062500", "135609.522500", "135609.982500", "135610.442500", "135610.902500", "135611.362500", "135611.822500", "135612.282500", "135612.742500", "135613.202500", "135613.662500", "135614.122500", "135614.582500", "135615.042500", "135615.502500", "135615.962500", "135616.422500", "135616.882500", "135617.342500", "135617.802500", "135618.262500", "135618.722500", "135619.182500", "135619.642500", "135620.102500", "135620.562500", "135621.022500", "135621.482500", "135621.942500", "135622.402500", "135622.862500", "135623.322500", "135623.782500", "135624.242500", "135624.702500", "135625.162500", "135625.622500", "135626.082500", "135626.542500", "135627.002500", "135627.462500", "135627.922500", "135628.382500", "135628.842500", "135629.302500", "135629.762500", "135630.222500", "135630.682500", "135631.142500", "135631.602500", "135632.062500", "135632.522500", "135632.982500", "135633.442500", "135633.902500", "135634.362500", "135634.822500", "135635.282500", "135635.742500", "135636.202500", "135636.662500", "135637.122500", "135637.582500", "135638.042500", "135638.502500", "135638.962500", "135639.422500", "135639.882500", "135640.342500", "135640.802500", "135641.262500", "135641.722500", "135642.182500", "135642.642500", "135643.102500", "135643.562500", "135644.022500", "135644.482500", "135644.942500", "135645.402500", "135645.862500", "135646.322500", "135646.782500", "135647.242500", "135647.702500", "135648.162500", "135648.622500", "135649.082500", "135649.542500", "135650.002500", "135650.462500", "135650.922500", "135651.382500", "135651.842500", "135652.302500", "135652.762500", "135653.222500", "135653.682500", "135654.142500", "135654.602500", "135655.062500", "135655.522500", "135655.982500", "135656.442500", "135656.902500", "135657.362500", "135657.822500", "135658.282500", "135658.742500", "135659.202500", "135659.662500", "135700.122500", "135700.582500", "135701.042500", "135701.502500", "135701.962500", "135702.422500", "135702.882500", "135703.342500", "135703.802500", "135704.262500", "135704.722500", "135705.182500", "135705.642500", "135706.102500", "135706.562500", "135707.022500", "135707.482500", "135707.942500", "135708.402500", "135708.862500", "135709.322500", "135709.782500", "135710.242500", "135710.702500", "135711.162500", "135711.622500", "135712.082500", "135712.542500", "135713.002500", "135713.462500", "135713.922500", "135714.382500", "135714.842500", "135715.302500", "135715.762500", "135716.222500", "135716.682500", "135717.142500", "135717.602500", "135718.062500", "135718.522500", "135718.982500", "135719.442500", "135719.902500", "135720.362500", "135720.822500", "135721.282500", "135721.742500", "135722.202500", "135722.662500", "135723.122500", "135723.582500", "135724.042500", "135724.502500", "135724.962500", "135725.422500", "135725.882500", "135726.342500", "135726.802500", "135727.262500", "135727.722500", "135728.182500", "135728.642500", "135729.102500", "135729.562500", "135730.022500", "135730.482500", "135730.942500", "135731.402500", "135731.862500", "135732.322500", "135732.782500", "135733.242500", "135733.702500", "135734.162500", "135734.622500", "135735.082500", "135735.542500", "135736.002500", "135736.462500", "135736.922500", "135737.382500", "135737.842500", "135738.302500", "135738.762500", "135739.222500", "135739.682500", "135740.142500", "135740.602500", "135741.062500", "135741.522500", "135741.982500", "135742.442500", "135742.902500", "135743.362500", "135743.822500", "135744.282500", "135744.742500", "135745.202500", "135745.662500", "135746.122500", "135746.582500", "135747.042500", "135747.502500", "135747.962500", "135748.422500", "135748.882500", "135749.342500", "135749.802500", "135750.262500", "135750.722500", "135751.182500", "135751.642500", "135752.102500", "135752.562500", "135753.022500", "135753.482500", "135753.942500", "135754.402500", "135754.862500", "135755.322500", "135755.782500", "135756.242500", "135756.702500", "135757.162500", "135757.622500", "135758.082500", "135758.542500", "135759.002500", "135759.462500", "135759.922500", "135800.382500", "135800.842500", "135801.302500", "135801.762500", "135802.222500", "135802.682500", "135803.142500", "135803.602500", "135804.062500", "135804.522500", "135804.982500", "135805.442500", "135805.902500", "135806.362500", "135806.822500", "135807.282500", "135807.742500", "135808.202500", "135808.662500", "135809.122500", "135809.582500", "135810.042500", "135810.502500", "135810.962500", "135811.422500", "135811.882500", "135812.342500", "135812.802500", "135813.262500", "135813.722500", "135814.182500", "135814.642500", "135815.102500", "135815.562500", "135816.022500", "135816.482500", "135816.942500", "135817.402500", "135817.862500", "135818.322500", "135818.782500", "135819.242500", "135819.702500", "135820.162500", "135820.622500", "135821.082500", "135821.542500", "135822.002500", "135822.462500", "135822.922500", "135823.382500", "135823.842500", "135824.302500", "135824.762500", "135825.222500", "135825.682500", "135826.142500", "135826.602500", "135827.062500", "135827.522500", "135827.982500", "135828.442500", "135828.902500", "135829.362500", "135829.822500", "135830.282500", "135830.742500", "135831.202500", "135831.662500", "135832.122500", "135832.582500", "135833.042500", "135833.502500", "135833.962500", "135834.422500", "135834.882500", "135835.342500", "135835.802500", "135836.262500", "135836.722500", "135837.182500", "135837.642500", "135838.102500", "135838.562500", "135839.022500", "135839.482500", "135839.942500", "135840.402500", "135840.862500", "135841.322500", "135841.782500", "135842.242500", "135842.702500", "135843.162500", "135843.622500", "135844.082500", "135844.542500", "135845.002500", "135845.462500", "135845.922500", "135846.382500", "135846.842500", "135847.302500", "135847.762500", "135848.222500", "135848.682500", "135849.142500", "135849.602500", "135850.062500", "135850.522500", "135850.982500", "135851.442500", "135851.902500", "135852.362500", "135852.822500", "135853.282500", "135853.742500", "135854.202500", "135854.662500", "135855.122500", "135855.582500", "135856.042500", "135856.502500", "135856.962500", "135857.422500", "135857.882500", "135858.342500", "135858.802500", "135859.262500", "135859.722500", "135900.182500", "135900.642500", "135901.102500", "135901.562500", "135902.022500", "135902.482500", "135902.942500", "135903.402500", "135903.862500", "135904.322500", "135904.782500", "135905.242500", "135905.702500", "135906.162500", "135906.622500", "135907.082500", "135907.542500", "135908.002500", "135908.462500", "135908.922500", "135909.382500", "135909.842500", "135910.302500", "135910.762500", "135911.222500", "135911.682500", "135912.142500", "135912.602500", "135913.062500", "135913.522500", "135913.982500", "135914.442500", "135914.902500", "135915.362500", "135915.822500", "135916.282500", "135916.742500", "135917.202500", "135917.662500", "135918.122500", "135918.582500", "135919.042500", "135919.502500", "135919.962500", "135920.422500", "135920.882500", "135921.342500", "135921.802500", "135922.262500", "135922.722500", "135923.182500", "135923.642500", "135924.102500", "135924.562500", "135925.022500", "135925.482500", "135925.942500", "135926.402500", "135926.862500", "135927.322500", "135927.782500", "135928.242500", "135928.702500", "135929.162500", "135929.622500", "135930.082500", "135930.542500", "135931.002500", "135931.462500", "135931.922500", "135932.382500", "135932.842500", "135933.302500", "135933.762500", "135934.222500", "135934.682500", "135935.142500", "135935.602500", "135936.062500", "135936.522500", "135936.982500", "135937.442500", "135937.902500", "135938.362500", "135938.822500", "135939.282500", "135939.742500", "135940.202500", "135940.662500", "135941.122500", "135941.582500", "135942.042500", "135942.502500", "135942.962500", "135943.422500", "135943.882500", "135944.342500", "135944.802500", "135945.262500", "135945.722500", "135946.182500", "135946.642500", "135947.102500", "135947.562500", "135948.022500", "135948.482500", "135948.942500", "135949.402500", "135949.862500", "135950.322500", "135950.782500", "135951.242500", "135951.702500", "135952.162500", "135952.622500", "135953.082500", "135953.542500", "135954.002500", "135954.462500", "135954.922500", "135955.382500", "135955.842500", "135956.302500", "135956.762500", "135957.222500", "135957.682500", "135958.142500", "135958.602500", "135959.062500", "135959.522500", "135959.982500", "140000.442500", "140000.902500", "140001.362500", "140001.822500", "140002.282500", "140002.742500", "140003.202500", "140003.662500", "140004.122500", "140004.582500", "140005.042500", "140005.502500", "140005.962500", "140006.422500", "140006.882500", "140007.342500", "140007.802500", "140008.262500", "140008.722500", "140009.182500", "140009.642500", "140010.102500", "140010.562500", "140011.022500", "140011.482500", "140011.942500"],
