{
  "AcquisitionMatrixPE": 82,
  "AcquisitionNumber": 1,
  "AcquisitionTime": "13:22:12.340000",
  "BandwidthPerPixelPhaseEncode": 24.888,
  "BaseResolution": 82,
  "BodyPartExamined": "BRAIN",
  "ConsistencyInfo": "N4_VE11C_LATEST_20160120",
  "ConversionSoftware": "dcm2niix",
  "ConversionSoftwareVersion": "v1.0.20201102",
  "DerivedVendorReportedEchoSpacing": 0.00049,
  "DeviceSerialNumber": "66112",
  "DwellTime": 2e-06,
  "EchoTime": 0.0272,
  "EchoTrainLength": 82,
  "EffectiveEchoSpacing": 0.00049,
  "FlipAngle": 44,
  "ImageComments": "Unaliased MB8/PE3",
  "ImageOrientationPatientDICOM": [0.999846, 0.00102744, -0.0175252, 0.00209402, 0.984179, 0.177167],
  "ImageType": [
    "ORIGINAL",
    "PRIMARY",
    "M",
    "MB",
    "ND",
    "NORM",
    "MOSAIC"
],
  "ImagingFrequency": 123.252,
  "InPlanePhaseEncodingDirectionDICOM": "COL",
  "InstitutionAddress": "Maynard 3,Hanover,NH,US,03755",
  "InstitutionName": "Dartmouth College - PBS",
  "InstitutionalDepartmentName": "Department",
  "MRAcquisitionType": "2D",
  "MagneticFieldStrength": 3,
  "Manufacturer": "Siemens",
  "ManufacturersModelName": "Prisma",
  "Modality": "MR",
  "MultibandAccelerationFactor": 8,
  "PartialFourier": 1,
  "PatientPosition": "HFS",
  "PercentPhaseFOV": 100,
  "PercentSampling": 100,
  "PhaseEncodingDirection": "j-",
  "PhaseEncodingSteps": 82,
  "PhaseResolution": 1,
  "PixelBandwidth": 3050,
  "ProcedureStepDescription": "Wager_Wager^1076_spacetop",
  "ProtocolName": "func_run-01_task-alignvideo_acq-ap-mb8",
  "PulseSequenceDetails": "%CustomerSeq%\\cmrr_mbep2d_bold",
  "ReceiveCoilActiveElements": "HEA;HEP",
  "ReceiveCoilName": "Head_32",
  "ReconMatrixPE": 82,
  "RepetitionTime": 0.46,
  "SAR": 0.114094,
  "ScanOptions": "FS",
  "ScanningSequence": "EP",
  "SequenceName": "epfid2d1_82",
  "SequenceVariant": "SK\\SS",
  "SeriesDescription": "func_run-01_task-alignvideo_acq-ap-mb8",
  "SeriesNumber": 28,
  "ShimSetting": [4152, -7751, -7257, 540, -25, -17, 53, 77],
  "SliceThickness": 2.7,
  "SliceTiming": [0, 0.2525, 0.0625, 0.315, 0.125, 0.3775, 0.19, 0, 0.2525, 0.0625, 0.315, 0.125, 0.3775, 0.19, 0, 0.2525, 0.0625, 0.315, 0.125, 0.3775, 0.19, 0, 0.2525, 0.0625, 0.315, 0.125, 0.3775, 0.19, 0, 0.2525, 0.0625, 0.315, 0.125, 0.3775, 0.19, 0, 0.2525, 0.0625, 0.315, 0.125, 0.3775, 0.19, 0, 0.2525, 0.0625, 0.315, 0.125, 0.3775, 0.19, 0, 0.2525, 0.0625, 0.315, 0.125, 0.3775, 0.19],
  "SoftwareVersions": "syngo MR E11",
  "SpacingBetweenSlices": 2.7,
  "StationName": "AWP66112",
  "TaskName": "alignvideo",
  "TotalReadoutTime": 0.03969,
  "TxRefAmp": 250.1,
  "WipMemBlock": "01badbc3-203c-4bc4-a956-b2da1f92be24||Sequence: R016 ve11c/master r/e634e98; Dec 19 2017 11:00:25 by eja",
  "dcmmeta_affine": [
    [-2.682513475418091, 0.005618114490061998, -0.04706088453531265, 113.9674301147461],
    [-0.002756553702056408, 2.64047908782959, 0.47837644815444946, -97.92819213867188],
    [-0.04701883718371391, -0.4753262996673584, 2.6568667888641357, -34.85775375366211],
    [0.0, 0.0, 0.0, 1.0]
],
  "dcmmeta_reorient_transform": [
    [0.0, -1.0, 0.0, 81.0],
    [1.0, 0.0, 0.0, 0.0],
    [0.0, 0.0, 1.0, 0.0],
    [0.0, 0.0, 0.0, 1.0]
],
  "dcmmeta_shape": [82, 82, 56, 839],
  "dcmmeta_slice_dim": 2,
  "dcmmeta_version": 0.6,
  "global": {
    "const": {
      "AccessionNumber": "A003450",
      "AcquisitionMatrix": [82, 0, 0, 82],
      "AngioFlag": "N",
      "BitsAllocated": 16,
      "BitsStored": 16,
      "BodyPartExamined": "BRAIN",
      "Columns": 656,
      "EchoNumbers": 1,
      "EchoTime": 27.2,
      "EchoTrainLength": 82,
      "FlipAngle": 44.0,
      "HighBit": 15,
      "ImageOrientationPatient": [0.99984589395071, 0.00102744270809, -0.0175252021782, 0.00209402438069, 0.98417856278604, 0.1771670726018],
      "ImagePositionPatient": [-885.9162493996, -874.55926218177, -196.28342567719],
      "ImageType": [
        "ORIGINAL",
        "PRIMARY",
        "M",
        "MB",
        "ND",
        "NORM",
        "MOSAIC"
],
      "ImagedNucleus": "1H",
      "ImagingFrequency": 123.252156,
      "InPlanePhaseEncodingDirection": "COL",
      "MRAcquisitionType": "2D",
      "MagneticFieldStrength": 3.0,
      "Manufacturer": "SIEMENS",
      "ManufacturerModelName": "Prisma",
      "Modality": "MR",
      "NumberOfAverages": 1.0,
      "NumberOfPhaseEncodingSteps": 82,
      "PercentPhaseFieldOfView": 100.0,
      "PercentSampling": 100.0,
      "PerformedProcedureStepStartTime": "113354.394000",
      "PhotometricInterpretation": "MONOCHROME2",
      "PixelBandwidth": 3050.0,
      "PixelRepresentation": 0,
      "PixelSpacing": [2.6829268932343, 2.6829268932343],
      "ProtocolName": "func_run-01_task-alignvideo_acq-ap-mb8",
      "RepetitionTime": 460.0,
      "Rows": 656,
      "SAR": 0.11409412634182,
      "SamplesPerPixel": 1,
      "ScanOptions": "FS",
      "ScanningSequence": "EP",
      "SequenceName": "epfid2d1_82",
      "SequenceVariant": [
        "SK",
        "SS"
],
      "SeriesDescription": "func_run-01_task-alignvideo_acq-ap-mb8",
      "SeriesNumber": 28,
      "SeriesTime": "132224.160000",
      "SliceLocation": -53.637908618088,
      "SliceThickness": 2.7000000476837,
      "SmallestImagePixelValue": 0,
      "SoftwareVersions": "syngo MR E11",
      "SpacingBetweenSlices": 2.699999920389,
      "SpecificCharacterSet": "ISO_IR 100",
      "StudyID": "1",
      "StudyTime": "113354.272000",
      "TransmitCoilName": "Body",
      "VariableFlipAngleFlag": "N",
      "WindowCenterWidthExplanation": "Algo1",
      "dBdt": 0.0},
    "slices": {}
  },
  "time": {
    "samples": {
      "AcquisitionNumber": [1, 2, 3, 4, 5, 6, 7, 8, 9, 10, 11, 12, 13, 14, 15, 16, 17, 18, 19, 20, 21, 22, 23, 24, 25, 26, 27, 28, 29, 30, 31, 32, 33, 34, 35, 36, 37, 38, 39, 40, 41, 42, 43, 44, 45, 46, 47, 48, 49, 50, 51, 52, 53, 54, 55, 56, 57, 58, 59, 60, 61, 62, 63, 64, 65, 66, 67, 68, 69, 70, 71, 72, 73, 74, 75, 76, 77, 78, 79, 80, 81, 82, 83, 84, 85, 86, 87, 88, 89, 90, 91, 92, 93, 94, 95, 96, 97, 98, 99, 100, 101, 102, 103, 104, 105, 106, 107, 108, 109, 110, 111, 112, 113, 114, 115, 116, 117, 118, 119, 120, 121, 122, 123, 124, 125, 126, 127, 128, 129, 130, 131, 132, 133, 134, 135, 136, 137, 138, 139, 140, 141, 142, 143, 144, 145, 146, 147, 148, 149, 150, 151, 152, 153, 154, 155, 156, 157, 158, 159, 160, 161, 162, 163, 164, 165, 166, 167, 168, 169, 170, 171, 172, 173, 174, 175, 176, 177, 178, 179, 180, 181, 182, 183, 184, 185, 186, 187, 188, 189, 190, 191, 192, 193, 194, 195, 196, 197, 198, 199, 200, 201, 202, 203, 204, 205, 206, 207, 208, 209, 210, 211, 212, 213, 214, 215, 216, 217, 218, 219, 220, 221, 222, 223, 224, 225, 226, 227, 228, 229, 230, 231, 232, 233, 234, 235, 236, 237, 238, 239, 240, 241, 242, 243, 244, 245, 246, 247, 248, 249, 250, 251, 252, 253, 254, 255, 256, 257, 258, 259, 260, 261, 262, 263, 264, 265, 266, 267, 268, 269, 270, 271, 272, 273, 274, 275, 276, 277, 278, 279, 280, 281, 282, 283, 284, 285, 286, 287, 288, 289, 290, 291, 292, 293, 294, 295, 296, 297, 298, 299, 300, 301, 302, 303, 304, 305, 306, 307, 308, 309, 310, 311, 312, 313, 314, 315, 316, 317, 318, 319, 320, 321, 322, 323, 324, 325, 326, 327, 328, 329, 330, 331, 332, 333, 334, 335, 336, 337, 338, 339, 340, 341, 342, 343, 344, 345, 346, 347, 348, 349, 350, 351, 352, 353, 354, 355, 356, 357, 358, 359, 360, 361, 362, 363, 364, 365, 366, 367, 368, 369, 370, 371, 372, 373, 374, 375, 376, 377, 378, 379, 380, 381, 382, 383, 384, 385, 386, 387, 388, 389, 390, 391, 392, 393, 394, 395, 396, 397, 398, 399, 400, 401, 402, 403, 404, 405, 406, 407, 408, 409, 410, 411, 412, 413, 414, 415, 416, 417, 418, 419, 420, 421, 422, 423, 424, 425, 426, 427, 428, 429, 430, 431, 432, 433, 434, 435, 436, 437, 438, 439, 440, 441, 442, 443, 444, 445, 446, 447, 448, 449, 450, 451, 452, 453, 454, 455, 456, 457, 458, 459, 460, 461, 462, 463, 464, 465, 466, 467, 468, 469, 470, 471, 472, 473, 474, 475, 476, 477, 478, 479, 480, 481, 482, 483, 484, 485, 486, 487, 488, 489, 490, 491, 492, 493, 494, 495, 496, 497, 498, 499, 500, 501, 502, 503, 504, 505, 506, 507, 508, 509, 510, 511, 512, 513, 514, 515, 516, 517, 518, 519, 520, 521, 522, 523, 524, 525, 526, 527, 528, 529, 530, 531, 532, 533, 534, 535, 536, 537, 538, 539, 540, 541, 542, 543, 544, 545, 546, 547, 548, 549, 550, 551, 552, 553, 554, 555, 556, 557, 558, 559, 560, 561, 562, 563, 564, 565, 566, 567, 568, 569, 570, 571, 572, 573, 574, 575, 576, 577, 578, 579, 580, 581, 582, 583, 584, 585, 586, 587, 588, 589, 590, 591, 592, 593, 594, 595, 596, 597, 598, 599, 600, 601, 602, 603, 604, 605, 606, 607, 608, 609, 610, 611, 612, 613, 614, 615, 616, 617, 618, 619, 620, 621, 622, 623, 624, 625, 626, 627, 628, 629, 630, 631, 632, 633, 634, 635, 636, 637, 638, 639, 640, 641, 642, 643, 644, 645, 646, 647, 648, 649, 650, 651, 652, 653, 654, 655, 656, 657, 658, 659, 660, 661, 662, 663, 664, 665, 666, 667, 668, 669, 670, 671, 672, 673, 674, 675, 676, 677, 678, 679, 680, 681, 682, 683, 684, 685, 686, 687, 688, 689, 690, 691, 692, 693, 694, 695, 696, 697, 698, 699, 700, 701, 702, 703, 704, 705, 706, 707, 708, 709, 710, 711, 712, 713, 714, 715, 716, 717, 718, 719, 720, 721, 722, 723, 724, 725, 726, 727, 728, 729, 730, 731, 732, 733, 734, 735, 736, 737, 738, 739, 740, 741, 742, 743, 744, 745, 746, 747, 748, 749, 750, 751, 752, 753, 754, 755, 756, 757, 758, 759, 760, 761, 762, 763, 764, 765, 766, 767, 768, 769, 770, 771, 772, 773, 774, 775, 776, 777, 778, 779, 780, 781, 782, 783, 784, 785, 786, 787, 788, 789, 790, 791, 792, 793, 794, 795, 796, 797, 798, 799, 800, 801, 802, 803, 804, 805, 806, 807, 808, 809, 810, 811, 812, 813, 814, 815, 816, 817, 818, 819, 820, 821, 822, 823, 824, 825, 826, 827, 828, 829, 830, 831, 832, 833, 834, 835, 836, 837, 838, 839],
      "AcquisitionTime": ["132212.340000", "132212.800000", "132213.260000", "132213.720000", "132214.180000", "132214.640000", "132215.100000", "132215.560000", "132216.020000", "132216.480000", "132216.940000", "132217.400000", "132217.860000", "132218.320000", "132218.780000", "132219.240000", "132219.700000", "132220.160000", "132220.620000", "132221.080000", "132221.540000", "132222.000000", "132222.460000", "132222.920000", "132223.380000", "132223.840000", "132224.300000", "132224.760000", "132225.220000", "132225.680000", "132226.140000", "132226.600000", "132227.060000", "132227.520000", "132227.980000", "132228.440000", "132228.900000", "132229.360000", "132229.820000", "132230.280000", "132230.740000", "132231.200000", "132231.660000", "132232.120000", "132232.580000", "132233.040000", "132233.500000", "132233.960000", "132234.420000", "132234.880000", "132235.340000", "132235.800000", "132236.260000", "132236.720000", "132237.180000", "132237.640000", "132238.100000", "132238.560000", "132239.020000", "132239.480000", "132239.940000", "132240.400000", "132240.860000", "132241.320000", "132241.780000", "132242.240000", "132242.700000", "132243.160000", "132243.620000", "132244.080000", "132244.540000", "132245.000000", "132245.460000", "132245.920000", "132246.380000", "132246.840000", "132247.300000", "132247.760000", "132248.220000", "132248.680000", "132249.140000", "132249.600000", "132250.060000", "132250.520000", "132250.980000", "132251.440000", "132251.900000", "132252.360000", "132252.820000", "132253.280000", "132253.740000", "132254.200000", "132254.660000", "132255.120000", "132255.580000", "132256.040000", "132256.500000", "132256.960000", "132257.420000", "132257.880000", "132258.340000", "132258.800000", "132259.260000", "132259.720000", "132300.180000", "132300.640000", "132301.100000", "132301.560000", "132302.020000", "132302.480000", "132302.940000", "132303.400000", "132303.860000", "132304.320000", "132304.780000", "132305.240000", "132305.700000", "132306.160000", "132306.620000", "132307.080000", "132307.540000", "132308.000000", "132308.460000", "132308.920000", "132309.380000", "132309.840000", "132310.300000", "132310.760000", "132311.220000", "132311.680000", "132312.140000", "132312.600000", "132313.060000", "132313.520000", "132313.980000", "132314.440000", "132314.900000", "132315.360000", "132315.820000", "132316.280000", "132316.740000", "132317.200000", "132317.660000", "132318.120000", "132318.580000", "132319.040000", "132319.500000", "132319.960000", "132320.420000", "132320.880000", "132321.340000", "132321.800000", "132322.260000", "132322.720000", "132323.180000", "132323.640000", "132324.100000", "132324.560000", "132325.020000", "132325.480000", "132325.940000", "132326.400000", "132326.860000", "132327.320000", "132327.780000", "132328.240000", "132328.700000", "132329.160000", "132329.620000", "132330.080000", "132330.540000", "132331.000000", "132331.460000", "132331.920000", "132332.380000", "132332.840000", "132333.300000", "132333.760000", "132334.220000", "132334.680000", "132335.140000", "132335.600000", "132336.060000", "132336.520000", "132336.980000", "132337.440000", "132337.900000", "132338.360000", "132338.820000", "132339.280000", "132339.740000", "132340.200000", "132340.660000", "132341.120000", "132341.580000", "132342.040000", "132342.500000", "132342.960000", "132343.420000", "132343.880000", "132344.340000", "132344.800000", "132345.260000", "132345.720000", "132346.180000", "132346.640000", "132347.100000", "132347.560000", "132348.020000", "132348.480000", "132348.940000", "132349.400000", "132349.860000", "132350.320000", "132350.780000", "132351.240000", "132351.700000", "132352.160000", "132352.620000", "132353.080000", "132353.540000", "132354.000000", "132354.460000", "132354.920000", "132355.380000", "132355.840000", "132356.300000", "132356.760000", "132357.220000", "132357.680000", "132358.140000", "132358.600000", "132359.060000", "132359.520000", "132359.980000", "132400.440000", "132400.900000", "132401.360000", "132401.820000", "132402.280000", "132402.740000", "132403.200000", "132403.660000", "132404.120000", "132404.580000", "132405.040000", "132405.500000", "132405.960000", "132406.420000", "132406.880000", "132407.340000", "132407.800000", "132408.260000", "132408.720000", "132409.180000", "132409.640000", "132410.100000", "132410.560000", "132411.020000", "132411.480000", "132411.940000", "132412.400000", "132412.860000", "132413.320000", "132413.780000", "132414.240000", "132414.700000", "132415.160000", "132415.620000", "132416.080000", "132416.540000", "132417.000000", "132417.460000", "132417.920000", "132418.380000", "132418.840000", "132419.300000", "132419.760000", "132420.220000", "132420.680000", "132421.140000", "132421.600000", "132422.060000", "132422.520000", "132422.980000", "132423.440000", "132423.900000", "132424.360000", "132424.820000", "132425.280000", "132425.740000", "132426.200000", "132426.660000", "132427.120000", "132427.580000", "132428.040000", "132428.500000", "132428.960000", "132429.420000", "132429.880000", "132430.340000", "132430.800000", "132431.260000", "132431.720000", "132432.180000", "132432.640000", "132433.100000", "132433.560000", "132434.020000", "132434.480000", "132434.940000", "132435.400000", "132435.860000", "132436.320000", "132436.780000", "132437.240000", "132437.700000", "132438.160000", "132438.620000", "132439.080000", "132439.540000", "132440.000000", "132440.460000", "132440.920000", "132441.380000", "132441.840000", "132442.300000", "132442.760000", "132443.220000", "132443.680000", "132444.140000", "132444.600000", "132445.060000", "132445.520000", "132445.980000", "132446.440000", "132446.900000", "132447.360000", "132447.820000", "132448.280000", "132448.740000", "132449.200000", "132449.660000", "132450.120000", "132450.580000", "132451.040000", "132451.500000", "132451.960000", "132452.420000", "132452.880000", "132453.340000", "132453.800000", "132454.260000", "132454.720000", "132455.180000", "132455.640000", "132456.100000", "132456.560000", "132457.020000", "132457.480000", "132457.940000", "132458.400000", "132458.860000", "132459.320000", "132459.780000", "132500.240000", "132500.700000", "132501.160000", "132501.620000", "132502.080000", "132502.540000", "132503.000000", "132503.460000", "132503.920000", "132504.380000", "132504.840000", "132505.300000", "132505.760000", "132506.220000", "132506.680000", "132507.140000", "132507.600000", "132508.060000", "132508.520000", "132508.980000", "132509.440000", "132509.900000", "132510.360000", "132510.820000", "132511.280000", "132511.740000", "132512.200000", "132512.660000", "132513.120000", "132513.580000", "132514.040000", "132514.500000", "132514.960000", "132515.420000", "132515.880000", "132516.340000", "132516.800000", "132517.260000", "132517.720000", "132518.180000", "132518.640000", "132519.100000", "132519.560000", "132520.020000", "132520.480000", "132520.940000", "132521.400000", "132521.860000", "132522.320000", "132522.780000", "132523.240000", "132523.700000", "132524.160000", "132524.620000", "132525.080000", "132525.540000", "132526.000000", "132526.460000", "132526.920000", "132527.380000", "132527.840000", "132528.300000", "132528.760000", "132529.220000", "132529.680000", "132530.140000", "132530.600000", "132531.060000", "132531.520000", "132531.980000", "132532.440000", "132532.900000", "132533.360000", "132533.820000", "132534.280000", "132534.740000", "132535.200000", "132535.660000", "132536.120000", "132536.580000", "132537.040000", "132537.500000", "132537.960000", "132538.420000", "132538.880000", "132539.340000", "132539.800000", "132540.260000", "132540.720000", "132541.180000", "132541.640000", "132542.100000", "132542.560000", "132543.020000", "132543.480000", "132543.940000", "132544.400000", "132544.860000", "132545.320000", "132545.780000", "132546.240000", "132546.700000", "132547.160000", "132547.620000", "132548.080000", "132548.540000", "132549.000000", "132549.460000", "132549.920000", "132550.380000", "132550.840000", "132551.300000", "132551.760000", "132552.220000", "132552.680000", "132553.140000", "132553.600000", "132554.060000", "132554.520000", "132554.980000", "132555.440000", "132555.900000", "132556.360000", "132556.820000", "132557.280000", "132557.740000", "132558.200000", "132558.660000", "132559.120000", "132559.580000", "132600.040000", "132600.500000", "132600.960000", "132601.420000", "132601.880000", "132602.340000", "132602.800000", "132603.260000", "132603.720000", "132604.180000", "132604.640000", "132605.100000", "132605.560000", "132606.020000", "132606.480000", "132606.940000", "132607.400000", "132607.860000", "132608.320000", "132608.780000", "132609.240000", "132609.700000", "132610.160000", "132610.620000", "132611.080000", "132611.540000", "132612.000000", "132612.460000", "132612.920000", "132613.380000", "132613.840000", "132614.300000", "132614.760000", "132615.220000", "132615.680000", "132616.140000", "132616.600000", "132617.060000", "132617.520000", "132617.980000", "132618.440000", "132618.900000", "132619.360000", "132619.820000", "132620.280000", "132620.740000", "132621.200000", "132621.660000", "132622.120000", "132622.580000", "132623.040000", "132623.500000", "132623.960000", "132624.420000", "132624.880000", "132625.340000", "132625.800000", "132626.260000", "132626.720000", "132627.180000", "132627.640000", "132628.100000", "132628.560000", "132629.020000", "132629.480000", "132629.940000", "132630.400000", "132630.860000", "132631.320000", "132631.780000", "132632.240000", "132632.700000", "132633.160000", "132633.620000", "132634.080000", "132634.540000", "132635.000000", "132635.460000", "132635.920000", "132636.380000", "132636.840000", "132637.300000", "132637.760000", "132638.220000", "132638.680000", "132639.140000", "132639.600000", "132640.060000", "132640.520000", "132640.980000", "132641.440000", "132641.900000", "132642.360000", "132642.820000", "132643.280000", "132643.740000", "132644.200000", "132644.660000", "132645.120000", "132645.580000", "132646.040000", "132646.500000", "132646.960000", "132647.420000", "132647.880000", "132648.340000", "132648.800000", "132649.260000", "132649.720000", "132650.180000", "132650.640000", "132651.100000", "132651.560000", "132652.020000", "132652.480000", "132652.940000", "132653.400000", "132653.860000", "132654.320000", "132654.780000", "132655.240000", "132655.700000", "132656.160000", "132656.620000", "132657.080000", "132657.540000", "132658.000000", "132658.460000", "132658.920000", "132659.380000", "132659.840000", "132700.300000", "132700.760000", "132701.220000", "132701.680000", "132702.140000", "132702.600000", "132703.060000", "132703.520000", "132703.980000", "132704.440000", "132704.900000", "132705.360000", "132705.820000", "132706.280000", "132706.740000", "132707.200000", "132707.660000", "132708.120000", "132708.580000", "132709.040000", "132709.500000", "132709.960000", "132710.420000", "132710.880000", "132711.340000", "132711.800000", "132712.260000", "132712.720000", "132713.180000", "132713.640000", "132714.100000", "132714.560000", "132715.020000", "132715.480000", "132715.940000", "132716.400000", "132716.860000", "132717.320000", "132717.780000", "132718.240000", "132718.700000", "132719.160000", "132719.620000", "132720.080000", "132720.540000", "132721.000000", "132721.460000", "132721.920000", "132722.380000", "132722.840000", "132723.300000", "132723.760000", "132724.220000", "132724.680000", "132725.140000", "132725.600000", "132726.060000", "132726.520000", "132726.980000", "132727.440000", "132727.900000", "132728.360000", "132728.820000", "132729.280000", "132729.740000", "132730.200000", "132730.660000", "132731.120000", "132731.580000", "132732.040000", "132732.500000", "132732.960000", "132733.420000", "132733.880000", "132734.340000", "132734.800000", "132735.260000", "132735.720000", "132736.180000", "132736.640000", "132737.100000", "132737.560000", "132738.020000", "132738.480000", "132738.940000", "132739.400000", "132739.860000", "132740.320000", "132740.780000", "132741.240000", "132741.700000", "132742.160000", "132742.620000", "132743.080000", "132743.540000", "132744.000000", "132744.460000", "132744.920000", "132745.380000", "132745.840000", "132746.300000", "132746.760000", "132747.220000", "132747.680000", "132748.140000", "132748.600000", "132749.060000", "132749.520000", "132749.980000", "132750.440000", "132750.900000", "132751.360000", "132751.820000", "132752.280000", "132752.740000", "132753.200000", "132753.660000", "132754.120000", "132754.580000", "132755.040000", "132755.500000", "132755.960000", "132756.420000", "132756.880000", "132757.340000", "132757.800000", "132758.260000", "132758.720000", "132759.180000", "132759.640000", "132800.100000", "132800.560000", "132801.020000", "132801.480000", "132801.940000", "132802.400000", "132802.860000", "132803.320000", "132803.780000", "132804.240000", "132804.700000", "132805.160000", "132805.620000", "132806.080000", "132806.540000", "132807.000000", "132807.460000", "132807.920000", "132808.380000", "132808.840000", "132809.300000", "132809.760000", "132810.220000", "132810.680000", "132811.140000", "132811.600000", "132812.060000", "132812.520000", "132812.980000", "132813.440000", "132813.900000", "132814.360000", "132814.820000", "132815.280000", "132815.740000", "132816.200000", "132816.660000", "132817.120000", "132817.580000", "132818.040000", "132818.500000", "132818.960000", "132819.420000", "132819.880000", "132820.340000", "132820.800000", "132821.260000", "132821.720000", "132822.180000", "132822.640000", "132823.100000", "132823.560000", "132824.020000", "132824.480000", "132824.940000", "132825.400000", "132825.860000", "132826.320000", "132826.780000", "132827.240000", "132827.700000", "132828.160000", "132828.620000", "132829.080000", "132829.540000", "132830.000000", "132830.460000", "132830.920000", "132831.380000", "132831.840000", "132832.300000", "132832.760000", "132833.220000", "132833.680000", "132834.140000", "132834.600000", "132835.060000", "132835.520000", "132835.980000", "132836.440000", "132836.900000", "132837.360000", "132837.820000"],
