{
  "AcquisitionMatrixPE": 82,
  "AcquisitionNumber": 1,
  "AcquisitionTime": "13:04:19.957500",
  "BandwidthPerPixelPhaseEncode": 24.888,
  "BaseResolution": 82,
  "BodyPartExamined": "BRAIN",
  "ConsistencyInfo": "N4_VE11C_LATEST_20160120",
  "ConversionSoftware": "dcm2niix",
  "ConversionSoftwareVersion": "v1.0.20201102",
  "DerivedVendorReportedEchoSpacing": 0.00049,
  "DeviceSerialNumber": "66112",
  "DwellTime": 2e-06,
  "EchoTime": 0.0272,
  "EchoTrainLength": 82,
  "EffectiveEchoSpacing": 0.00049,
  "FlipAngle": 44,
  "ImageComments": "Unaliased MB8/PE3",
  "ImageOrientationPatientDICOM": [0.9998, 0.0186801, 0.00716731, -0.0195463, 0.988417, 0.150497],
  "ImageType": [
    "ORIGINAL",
    "PRIMARY",
    "M",
    "MB",
    "ND",
    "NORM",
    "MOSAIC"
],
  "ImagingFrequency": 123.252,
  "InPlanePhaseEncodingDirectionDICOM": "COL",
  "InstitutionAddress": "Maynard 3,Hanover,NH,US,03755",
  "InstitutionName": "Dartmouth College - PBS",
  "InstitutionalDepartmentName": "Department",
  "MRAcquisitionType": "2D",
  "MagneticFieldStrength": 3,
  "Manufacturer": "Siemens",
  "ManufacturersModelName": "Prisma",
  "Modality": "MR",
  "MultibandAccelerationFactor": 8,
  "PartialFourier": 1,
  "PatientPosition": "HFS",
  "PercentPhaseFOV": 100,
  "PercentSampling": 100,
  "PhaseEncodingDirection": "j-",
  "PhaseEncodingSteps": 82,
  "PhaseResolution": 1,
  "PixelBandwidth": 3050,
  "ProcedureStepDescription": "Wager_Wager^1076_spacetop",
  "ProtocolName": "func_run-02_task-faces_acq-ap-mb8",
  "PulseSequenceDetails": "%CustomerSeq%\\cmrr_mbep2d_bold",
  "ReceiveCoilActiveElements": "HEA;HEP",
  "ReceiveCoilName": "Head_32",
  "ReconMatrixPE": 82,
  "RepetitionTime": 0.46,
  "SAR": 0.114155,
  "ScanOptions": "FS",
  "ScanningSequence": "EP",
  "SequenceName": "epfid2d1_82",
  "SequenceVariant": "SK\\SS",
  "SeriesDescription": "func_run-02_task-faces_acq-ap-mb8",
  "SeriesNumber": 18,
  "ShimSetting": [4153, -7750, -7256, 545, -20, -11, 56, 78],
  "SliceThickness": 2.7,
  "SliceTiming": [0, 0.25, 0.0625, 0.3125, 0.125, 0.3775, 0.1875, 0, 0.25, 0.0625, 0.3125, 0.125, 0.3775, 0.1875, 0, 0.25, 0.0625, 0.3125, 0.125, 0.3775, 0.1875, 0, 0.25, 0.0625, 0.3125, 0.125, 0.3775, 0.1875, 0, 0.25, 0.0625, 0.3125, 0.125, 0.3775, 0.1875, 0, 0.25, 0.0625, 0.3125, 0.125, 0.3775, 0.1875, 0, 0.25, 0.0625, 0.3125, 0.125, 0.3775, 0.1875, 0, 0.25, 0.0625, 0.3125, 0.125, 0.3775, 0.1875],
  "SoftwareVersions": "syngo MR E11",
  "SpacingBetweenSlices": 2.7,
  "StationName": "AWP66112",
  "TaskName": "faces",
  "TotalReadoutTime": 0.03969,
  "TxRefAmp": 250.1,
  "WipMemBlock": "de4ac6e7-05cf-4eb6-808e-95afdb26f39b||Sequence: R016 ve11c/master r/e634e98; Dec 19 2017 11:00:25 by eja",
  "dcmmeta_affine": [
    [-2.682389736175537, -0.05244136601686478, 0.011537091806530952, 114.67627716064453],
    [-0.050117410719394684, 2.651851177215576, 0.4066378176212311, -95.9087905883789],
    [0.01922936737537384, -0.40377146005630493, 2.6691782474517822, -37.86857986450195],
    [0.0, 0.0, 0.0, 1.0]
],
  "dcmmeta_reorient_transform": [
    [0.0, -1.0, 0.0, 81.0],
    [1.0, 0.0, 0.0, 0.0],
    [0.0, 0.0, 1.0, 0.0],
    [0.0, 0.0, 0.0, 1.0]
],
  "dcmmeta_shape": [82, 82, 56, 914],
  "dcmmeta_slice_dim": 2,
  "dcmmeta_version": 0.6,
  "global": {
    "const": {
      "AccessionNumber": "A003450",
      "AcquisitionMatrix": [82, 0, 0, 82],
      "AngioFlag": "N",
      "BitsAllocated": 16,
      "BitsStored": 16,
      "BodyPartExamined": "BRAIN",
      "Columns": 656,
      "EchoNumbers": 1,
      "EchoTime": 27.2,
      "EchoTrainLength": 82,
      "FlipAngle": 44.0,
      "HighBit": 15,
      "ImageOrientationPatient": [0.99979982126622, 0.01868012494099, 0.00716730969253, -0.0195463268616, 0.98841727311871, 0.15049662888847],
      "ImagePositionPatient": [-865.22373617798, -894.35617739854, -191.9753025844],
      "ImageType": [
        "ORIGINAL",
        "PRIMARY",
        "M",
        "MB",
        "ND",
        "NORM",
        "MOSAIC"
],
      "ImagedNucleus": "1H",
      "ImagingFrequency": 123.252154,
      "InPlanePhaseEncodingDirection": "COL",
      "MRAcquisitionType": "2D",
      "MagneticFieldStrength": 3.0,
      "Manufacturer": "SIEMENS",
      "ManufacturerModelName": "Prisma",
      "Modality": "MR",
      "NumberOfAverages": 1.0,
      "NumberOfPhaseEncodingSteps": 82,
      "PercentPhaseFieldOfView": 100.0,
      "PercentSampling": 100.0,
      "PerformedProcedureStepStartTime": "113354.394000",
      "PhotometricInterpretation": "MONOCHROME2",
      "PixelBandwidth": 3050.0,
      "PixelRepresentation": 0,
      "PixelSpacing": [2.6829268932343, 2.6829268932343],
      "ProtocolName": "func_run-02_task-faces_acq-ap-mb8",
      "RepetitionTime": 460.0,
      "Rows": 656,
      "SAR": 0.11415453193667,
      "SamplesPerPixel": 1,
      "ScanOptions": "FS",
      "ScanningSequence": "EP",
      "SequenceName": "epfid2d1_82",
      "SequenceVariant": [
        "SK",
        "SS"
],
      "SeriesDescription": "func_run-02_task-faces_acq-ap-mb8",
      "SeriesNumber": 18,
      "SeriesTime": "130444.225000",
      "SliceLocation": -51.390777438143,
      "SliceThickness": 2.7000000476837,
      "SmallestImagePixelValue": 0,
      "SoftwareVersions": "syngo MR E11",
      "SpacingBetweenSlices": 2.6999999605522,
      "SpecificCharacterSet": "ISO_IR 100",
      "StudyID": "1",
      "StudyTime": "113354.272000",
      "TransmitCoilName": "Body",
      "VariableFlipAngleFlag": "N",
      "WindowCenterWidthExplanation": "Algo1",
      "dBdt": 0.0},
    "slices": {}
  },
  "time": {
    "samples": {
      "AcquisitionNumber": [1, 2, 3, 4, 5, 6, 7, 8, 9, 10, 11, 12, 13, 14, 15, 16, 17, 18, 19, 20, 21, 22, 23, 24, 25, 26, 27, 28, 29, 30, 31, 32, 33, 34, 35, 36, 37, 38, 39, 40, 41, 42, 43, 44, 45, 46, 47, 48, 49, 50, 51, 52, 53, 54, 55, 56, 57, 58, 59, 60, 61, 62, 63, 64, 65, 66, 67, 68, 69, 70, 71, 72, 73, 74, 75, 76, 77, 78, 79, 80, 81, 82, 83, 84, 85, 86, 87, 88, 89, 90, 91, 92, 93, 94, 95, 96, 97, 98, 99, 100, 101, 102, 103, 104, 105, 106, 107, 108, 109, 110, 111, 112, 113, 114, 115, 116, 117, 118, 119, 120, 121, 122, 123, 124, 125, 126, 127, 128, 129, 130, 131, 132, 133, 134, 135, 136, 137, 138, 139, 140, 141, 142, 143, 144, 145, 146, 147, 148, 149, 150, 151, 152, 153, 154, 155, 156, 157, 158, 159, 160, 161, 162, 163, 164, 165, 166, 167, 168, 169, 170, 171, 172, 173, 174, 175, 176, 177, 178, 179, 180, 181, 182, 183, 184, 185, 186, 187, 188, 189, 190, 191, 192, 193, 194, 195, 196, 197, 198, 199, 200, 201, 202, 203, 204, 205, 206, 207, 208, 209, 210, 211, 212, 213, 214, 215, 216, 217, 218, 219, 220, 221, 222, 223, 224, 225, 226, 227, 228, 229, 230, 231, 232, 233, 234, 235, 236, 237, 238, 239, 240, 241, 242, 243, 244, 245, 246, 247, 248, 249, 250, 251, 252, 253, 254, 255, 256, 257, 258, 259, 260, 261, 262, 263, 264, 265, 266, 267, 268, 269, 270, 271, 272, 273, 274, 275, 276, 277, 278, 279, 280, 281, 282, 283, 284, 285, 286, 287, 288, 289, 290, 291, 292, 293, 294, 295, 296, 297, 298, 299, 300, 301, 302, 303, 304, 305, 306, 307, 308, 309, 310, 311, 312, 313, 314, 315, 316, 317, 318, 319, 320, 321, 322, 323, 324, 325, 326, 327, 328, 329, 330, 331, 332, 333, 334, 335, 336, 337, 338, 339, 340, 341, 342, 343, 344, 345, 346, 347, 348, 349, 350, 351, 352, 353, 354, 355, 356, 357, 358, 359, 360, 361, 362, 363, 364, 365, 366, 367, 368, 369, 370, 371, 372, 373, 374, 375, 376, 377, 378, 379, 380, 381, 382, 383, 384, 385, 386, 387, 388, 389, 390, 391, 392, 393, 394, 395, 396, 397, 398, 399, 400, 401, 402, 403, 404, 405, 406, 407, 408, 409, 410, 411, 412, 413, 414, 415, 416, 417, 418, 419, 420, 421, 422, 423, 424, 425, 426, 427, 428, 429, 430, 431, 432, 433, 434, 435, 436, 437, 438, 439, 440, 441, 442, 443, 444, 445, 446, 447, 448, 449, 450, 451, 452, 453, 454, 455, 456, 457, 458, 459, 460, 461, 462, 463, 464, 465, 466, 467, 468, 469, 470, 471, 472, 473, 474, 475, 476, 477, 478, 479, 480, 481, 482, 483, 484, 485, 486, 487, 488, 489, 490, 491, 492, 493, 494, 495, 496, 497, 498, 499, 500, 501, 502, 503, 504, 505, 506, 507, 508, 509, 510, 511, 512, 513, 514, 515, 516, 517, 518, 519, 520, 521, 522, 523, 524, 525, 526, 527, 528, 529, 530, 531, 532, 533, 534, 535, 536, 537, 538, 539, 540, 541, 542, 543, 544, 545, 546, 547, 548, 549, 550, 551, 552, 553, 554, 555, 556, 557, 558, 559, 560, 561, 562, 563, 564, 565, 566, 567, 568, 569, 570, 571, 572, 573, 574, 575, 576, 577, 578, 579, 580, 581, 582, 583, 584, 585, 586, 587, 588, 589, 590, 591, 592, 593, 594, 595, 596, 597, 598, 599, 600, 601, 602, 603, 604, 605, 606, 607, 608, 609, 610, 611, 612, 613, 614, 615, 616, 617, 618, 619, 620, 621, 622, 623, 624, 625, 626, 627, 628, 629, 630, 631, 632, 633, 634, 635, 636, 637, 638, 639, 640, 641, 642, 643, 644, 645, 646, 647, 648, 649, 650, 651, 652, 653, 654, 655, 656, 657, 658, 659, 660, 661, 662, 663, 664, 665, 666, 667, 668, 669, 670, 671, 672, 673, 674, 675, 676, 677, 678, 679, 680, 681, 682, 683, 684, 685, 686, 687, 688, 689, 690, 691, 692, 693, 694, 695, 696, 697, 698, 699, 700, 701, 702, 703, 704, 705, 706, 707, 708, 709, 710, 711, 712, 713, 714, 715, 716, 717, 718, 719, 720, 721, 722, 723, 724, 725, 726, 727, 728, 729, 730, 731, 732, 733, 734, 735, 736, 737, 738, 739, 740, 741, 742, 743, 744, 745, 746, 747, 748, 749, 750, 751, 752, 753, 754, 755, 756, 757, 758, 759, 760, 761, 762, 763, 764, 765, 766, 767, 768, 769, 770, 771, 772, 773, 774, 775, 776, 777, 778, 779, 780, 781, 782, 783, 784, 785, 786, 787, 788, 789, 790, 791, 792, 793, 794, 795, 796, 797, 798, 799, 800, 801, 802, 803, 804, 805, 806, 807, 808, 809, 810, 811, 812, 813, 814, 815, 816, 817, 818, 819, 820, 821, 822, 823, 824, 825, 826, 827, 828, 829, 830, 831, 832, 833, 834, 835, 836, 837, 838, 839, 840, 841, 842, 843, 844, 845, 846, 847, 848, 849, 850, 851, 852, 853, 854, 855, 856, 857, 858, 859, 860, 861, 862, 863, 864, 865, 866, 867, 868, 869, 870, 871, 872, 873, 874, 875, 876, 877, 878, 879, 880, 881, 882, 883, 884, 885, 886, 887, 888, 889, 890, 891, 892, 893, 894, 895, 896, 897, 898, 899, 900, 901, 902, 903, 904, 905, 906, 907, 908, 909, 910, 911, 912, 913, 914],
      "AcquisitionTime": ["130419.957500", "130420.417500", "130420.877500", "130421.337500", "130421.797500", "130422.257500", "130422.717500", "130423.177500", "130423.637500", "130424.097500", "130424.557500", "130425.017500", "130425.477500", "130425.937500", "130426.397500", "130426.857500", "130427.317500", "130427.777500", "130428.237500", "130428.697500", "130429.157500", "130429.617500", "130430.077500", "130430.537500", "130430.997500", "130431.457500", "130431.917500", "130432.377500", "130432.837500", "130433.297500", "130433.757500", "130434.217500", "130434.677500", "130435.137500", "130435.597500", "130436.057500", "130436.517500", "130436.977500", "130437.437500", "130437.897500", "130438.357500", "130438.817500", "130439.277500", "130439.737500", "130440.197500", "130440.657500", "130441.117500", "130441.577500", "130442.037500", "130442.497500", "130442.957500", "130443.417500", "130443.877500", "130444.337500", "130444.797500", "130445.257500", "130445.717500", "130446.177500", "130446.637500", "130447.097500", "130447.557500", "130448.017500", "130448.477500", "130448.937500", "130449.397500", "130449.857500", "130450.317500", "130450.777500", "130451.237500", "130451.697500", "130452.157500", "130452.617500", "130453.077500", "130453.537500", "130453.997500", "130454.457500", "130454.917500", "130455.377500", "130455.837500", "130456.297500", "130456.757500", "130457.217500", "130457.677500", "130458.137500", "130458.597500", "130459.057500", "130459.517500", "130459.977500", "130500.437500", "130500.897500", "130501.357500", "130501.817500", "130502.277500", "130502.737500", "130503.197500", "130503.657500", "130504.117500", "130504.577500", "130505.037500", "130505.497500", "130505.957500", "130506.417500", "130506.877500", "130507.337500", "130507.797500", "130508.257500", "130508.717500", "130509.177500", "130509.637500", "130510.097500", "130510.557500", "130511.017500", "130511.477500", "130511.937500", "130512.397500", "130512.857500", "130513.317500", "130513.777500", "130514.237500", "130514.697500", "130515.157500", "130515.617500", "130516.077500", "130516.537500", "130516.997500", "130517.457500", "130517.917500", "130518.377500", "130518.837500", "130519.297500", "130519.757500", "130520.217500", "130520.677500", "130521.137500", "130521.597500", "130522.057500", "130522.517500", "130522.977500", "130523.437500", "130523.897500", "130524.357500", "130524.817500", "130525.277500", "130525.737500", "130526.197500", "130526.657500", "130527.117500", "130527.577500", "130528.037500", "130528.497500", "130528.957500", "130529.417500", "130529.877500", "130530.337500", "130530.797500", "130531.257500", "130531.717500", "130532.177500", "130532.637500", "130533.097500", "130533.557500", "130534.017500", "130534.477500", "130534.937500", "130535.397500", "130535.857500", "130536.317500", "130536.777500", "130537.237500", "130537.697500", "130538.157500", "130538.617500", "130539.077500", "130539.537500", "130539.997500", "130540.457500", "130540.917500", "130541.377500", "130541.837500", "130542.297500", "130542.757500", "130543.217500", "130543.677500", "130544.137500", "130544.597500", "130545.057500", "130545.517500", "130545.977500", "130546.437500", "130546.897500", "130547.357500", "130547.817500", "130548.277500", "130548.737500", "130549.197500", "130549.657500", "130550.117500", "130550.577500", "130551.037500", "130551.497500", "130551.957500", "130552.417500", "130552.877500", "130553.337500", "130553.797500", "130554.257500", "130554.717500", "130555.177500", "130555.637500", "130556.097500", "130556.557500", "130557.017500", "130557.477500", "130557.937500", "130558.397500", "130558.857500", "130559.317500", "130559.777500", "130600.237500", "130600.697500", "130601.157500", "130601.617500", "130602.077500", "130602.537500", "130602.997500", "130603.457500", "130603.917500", "130604.377500", "130604.837500", "130605.297500", "130605.757500", "130606.217500", "130606.677500", "130607.137500", "130607.597500", "130608.057500", "130608.517500", "130608.977500", "130609.437500", "130609.897500", "130610.357500", "130610.817500", "130611.277500", "130611.737500", "130612.197500", "130612.657500", "130613.117500", "130613.577500", "130614.037500", "130614.497500", "130614.957500", "130615.417500", "130615.877500", "130616.337500", "130616.797500", "130617.257500", "130617.717500", "130618.177500", "130618.637500", "130619.097500", "130619.557500", "130620.017500", "130620.477500", "130620.937500", "130621.397500", "130621.857500", "130622.317500", "130622.777500", "130623.237500", "130623.697500", "130624.157500", "130624.617500", "130625.077500", "130625.537500", "130625.997500", "130626.457500", "130626.917500", "130627.377500", "130627.837500", "130628.297500", "130628.757500", "130629.217500", "130629.677500", "130630.137500", "130630.597500", "130631.057500", "130631.517500", "130631.977500", "130632.437500", "130632.897500", "130633.357500", "130633.817500", "130634.277500", "130634.737500", "130635.197500", "130635.657500", "130636.117500", "130636.577500", "130637.037500", "130637.497500", "130637.957500", "130638.417500", "130638.877500", "130639.337500", "130639.797500", "130640.257500", "130640.717500", "130641.177500", "130641.637500", "130642.097500", "130642.557500", "130643.017500", "130643.477500", "130643.937500", "130644.397500", "130644.857500", "130645.317500", "130645.777500", "130646.237500", "130646.697500", "130647.157500", "130647.617500", "130648.077500", "130648.537500", "130648.997500", "130649.457500", "130649.917500", "130650.377500", "130650.837500", "130651.297500", "130651.757500", "130652.217500", "130652.677500", "130653.137500", "130653.597500", "130654.057500", "130654.517500", "130654.977500", "130655.437500", "130655.897500", "130656.357500", "130656.817500", "130657.277500", "130657.737500", "130658.197500", "130658.657500", "130659.117500", "130659.577500", "130700.037500", "130700.497500", "130700.957500", "130701.417500", "130701.877500", "130702.337500", "130702.797500", "130703.257500", "130703.717500", "130704.177500", "130704.637500", "130705.097500", "130705.557500", "130706.017500", "130706.477500", "130706.937500", "130707.397500", "130707.857500", "130708.317500", "130708.777500", "130709.237500", "130709.697500", "130710.157500", "130710.617500", "130711.077500", "130711.537500", "130711.997500", "130712.457500", "130712.917500", "130713.377500", "130713.837500", "130714.297500", "130714.757500", "130715.217500", "130715.677500", "130716.137500", "130716.597500", "130717.057500", "130717.517500", "130717.977500", "130718.437500", "130718.897500", "130719.357500", "130719.817500", "130720.277500", "130720.737500", "130721.197500", "130721.657500", "130722.117500", "130722.577500", "130723.037500", "130723.497500", "130723.957500", "130724.417500", "130724.877500", "130725.337500", "130725.797500", "130726.257500", "130726.717500", "130727.177500", "130727.637500", "130728.097500", "130728.557500", "130729.017500", "130729.477500", "130729.937500", "130730.397500", "130730.857500", "130731.317500", "130731.777500", "130732.237500", "130732.697500", "130733.157500", "130733.617500", "130734.077500", "130734.537500", "130734.997500", "130735.457500", "130735.917500", "130736.377500", "130736.837500", "130737.297500", "130737.757500", "130738.217500", "130738.677500", "130739.137500", "130739.597500", "130740.057500", "130740.517500", "130740.977500", "130741.437500", "130741.897500", "130742.357500", "130742.817500", "130743.277500", "130743.737500", "130744.197500", "130744.657500", "130745.117500", "130745.577500", "130746.037500", "130746.497500", "130746.957500", "130747.417500", "130747.877500", "130748.337500", "130748.797500", "130749.257500", "130749.717500", "130750.177500", "130750.637500", "130751.097500", "130751.557500", "130752.017500", "130752.477500", "130752.937500", "130753.397500", "130753.857500", "130754.317500", "130754.777500", "130755.237500", "130755.697500", "130756.157500", "130756.617500", "130757.077500", "130757.537500", "130757.997500", "130758.457500", "130758.917500", "130759.377500", "130759.837500", "130800.297500", "130800.757500", "130801.217500", "130801.677500", "130802.137500", "130802.597500", "130803.057500", "130803.517500", "130803.977500", "130804.437500", "130804.897500", "130805.357500", "130805.817500", "130806.277500", "130806.737500", "130807.197500", "130807.657500", "130808.117500", "130808.577500", "130809.037500", "130809.497500", "130809.957500", "130810.417500", "130810.877500", "130811.337500", "130811.797500", "130812.257500", "130812.717500", "130813.177500", "130813.637500", "130814.097500", "130814.557500", "130815.017500", "130815.477500", "130815.937500", "130816.397500", "130816.857500", "130817.317500", "130817.777500", "130818.237500", "130818.697500", "130819.157500", "130819.617500", "130820.077500", "130820.537500", "130820.997500", "130821.457500", "130821.917500", "130822.377500", "130822.837500", "130823.297500", "130823.757500", "130824.217500", "130824.677500", "130825.137500", "130825.597500", "130826.057500", "130826.517500", "130826.977500", "130827.437500", "130827.897500", "130828.357500", "130828.817500", "130829.277500", "130829.737500", "130830.197500", "130830.657500", "130831.117500", "130831.577500", "130832.037500", "130832.497500", "130832.957500", "130833.417500", "130833.877500", "130834.337500", "130834.797500", "130835.257500", "130835.717500", "130836.177500", "130836.637500", "130837.097500", "130837.557500", "130838.017500", "130838.477500", "130838.937500", "130839.397500", "130839.857500", "130840.317500", "130840.777500", "130841.237500", "130841.697500", "130842.157500", "130842.617500", "130843.077500", "130843.537500", "130843.997500", "130844.457500", "130844.917500", "130845.377500", "130845.837500", "130846.297500", "130846.757500", "130847.217500", "130847.677500", "130848.137500", "130848.597500", "130849.057500", "130849.517500", "130849.977500", "130850.437500", "130850.897500", "130851.357500", "130851.817500", "130852.277500", "130852.737500", "130853.197500", "130853.657500", "130854.117500", "130854.577500", "130855.037500", "130855.497500", "130855.957500", "130856.417500", "130856.877500", "130857.337500", "130857.797500", "130858.257500", "130858.717500", "130859.177500", "130859.637500", "130900.097500", "130900.557500", "130901.017500", "130901.477500", "130901.937500", "130902.397500", "130902.857500", "130903.317500", "130903.777500", "130904.237500", "130904.697500", "130905.157500", "130905.617500", "130906.077500", "130906.537500", "130906.997500", "130907.457500", "130907.917500", "130908.377500", "130908.837500", "130909.297500", "130909.757500", "130910.217500", "130910.677500", "130911.137500", "130911.597500", "130912.057500", "130912.517500", "130912.977500", "130913.437500", "130913.897500", "130914.357500", "130914.817500", "130915.277500", "130915.737500", "130916.197500", "130916.657500", "130917.117500", "130917.577500", "130918.037500", "130918.497500", "130918.957500", "130919.417500", "130919.877500", "130920.337500", "130920.797500", "130921.257500", "130921.717500", "130922.177500", "130922.637500", "130923.097500", "130923.557500", "130924.017500", "130924.477500", "130924.937500", "130925.397500", "130925.857500", "130926.317500", "130926.777500", "130927.237500", "130927.697500", "130928.157500", "130928.617500", "130929.077500", "130929.537500", "130929.997500", "130930.457500", "130930.917500", "130931.377500", "130931.837500", "130932.297500", "130932.757500", "130933.217500", "130933.677500", "130934.137500", "130934.597500", "130935.057500", "130935.517500", "130935.977500", "130936.437500", "130936.897500", "130937.357500", "130937.817500", "130938.277500", "130938.737500", "130939.197500", "130939.657500", "130940.117500", "130940.577500", "130941.037500", "130941.497500", "130941.957500", "130942.417500", "130942.877500", "130943.337500", "130943.797500", "130944.257500", "130944.717500", "130945.177500", "130945.637500", "130946.097500", "130946.557500", "130947.017500", "130947.477500", "130947.937500", "130948.397500", "130948.857500", "130949.317500", "130949.777500", "130950.237500", "130950.697500", "130951.157500", "130951.617500", "130952.077500", "130952.537500", "130952.997500", "130953.457500", "130953.917500", "130954.377500", "130954.837500", "130955.297500", "130955.757500", "130956.217500", "130956.677500", "130957.137500", "130957.597500", "130958.057500", "130958.517500", "130958.977500", "130959.437500", "130959.897500", "131000.357500", "131000.817500", "131001.277500", "131001.737500", "131002.197500", "131002.657500", "131003.117500", "131003.577500", "131004.037500", "131004.497500", "131004.957500", "131005.417500", "131005.877500", "131006.337500", "131006.797500", "131007.257500", "131007.717500", "131008.177500", "131008.637500", "131009.097500", "131009.557500", "131010.017500", "131010.477500", "131010.937500", "131011.397500", "131011.857500", "131012.317500", "131012.777500", "131013.237500", "131013.697500", "131014.157500", "131014.617500", "131015.077500", "131015.537500", "131015.997500", "131016.457500", "131016.917500", "131017.377500", "131017.837500", "131018.297500", "131018.757500", "131019.217500", "131019.677500", "131020.137500", "131020.597500", "131021.057500", "131021.517500", "131021.977500", "131022.437500", "131022.897500", "131023.357500", "131023.817500", "131024.277500", "131024.737500", "131025.197500", "131025.657500", "131026.117500", "131026.577500", "131027.037500", "131027.497500", "131027.957500", "131028.417500", "131028.877500", "131029.337500", "131029.797500", "131030.257500", "131030.717500", "131031.177500", "131031.637500", "131032.097500", "131032.557500", "131033.017500", "131033.477500", "131033.937500", "131034.397500", "131034.857500", "131035.317500", "131035.777500", "131036.237500", "131036.697500", "131037.157500", "131037.617500", "131038.077500", "131038.537500", "131038.997500", "131039.457500", "131039.917500", "131040.377500", "131040.837500", "131041.297500", "131041.757500", "131042.217500", "131042.677500", "131043.137500", "131043.597500", "131044.057500", "131044.517500", "131044.977500", "131045.437500", "131045.897500", "131046.357500", "131046.817500", "131047.277500", "131047.737500", "131048.197500", "131048.657500", "131049.117500", "131049.577500", "131050.037500", "131050.497500", "131050.957500", "131051.417500", "131051.877500", "131052.337500", "131052.797500", "131053.257500", "131053.717500", "131054.177500", "131054.637500", "131055.097500", "131055.557500", "131056.017500", "131056.477500", "131056.937500", "131057.397500", "131057.857500", "131058.317500", "131058.777500", "131059.237500", "131059.697500", "131100.157500", "131100.617500", "131101.077500", "131101.537500", "131101.997500", "131102.457500", "131102.917500", "131103.377500", "131103.837500", "131104.297500", "131104.757500", "131105.217500", "131105.677500", "131106.137500", "131106.597500", "131107.057500", "131107.517500", "131107.977500", "131108.437500", "131108.897500", "131109.357500", "131109.817500", "131110.277500", "131110.737500", "131111.197500", "131111.657500", "131112.117500", "131112.577500", "131113.037500", "131113.497500", "131113.957500", "131114.417500", "131114.877500", "131115.337500", "131115.797500", "131116.257500", "131116.717500", "131117.177500", "131117.637500", "131118.097500", "131118.557500", "131119.017500", "131119.477500", "131119.937500"],
