{
  "AcquisitionMatrixPE": 82,
  "AcquisitionNumber": 1,
  "AcquisitionTime": "18:39:20.192500",
  "BandwidthPerPixelPhaseEncode": 24.888,
  "BaseResolution": 82,
  "BodyPartExamined": "BRAIN",
  "ConsistencyInfo": "N4_VE11E_LATEST_20181129",
  "ConversionSoftware": "dcm2niix",
  "ConversionSoftwareVersion": "v1.0.20201102",
  "DerivedVendorReportedEchoSpacing": 0.00049,
  "DeviceSerialNumber": "66112",
  "DwellTime": 2e-06,
  "EchoTime": 0.0272,
  "EchoTrainLength": 82,
  "EffectiveEchoSpacing": 0.00049,
  "FlipAngle": 44,
  "ImageComments": "Unaliased MB8/PE3",
  "ImageOrientationPatientDICOM": [0.999133, 0.0250495, 0.033249, -0.0261632, 0.999096, 0.0334942],
  "ImageType": [
    "ORIGINAL",
    "PRIMARY",
    "M",
    "MB",
    "ND",
    "NORM",
    "MOSAIC"
],
  "ImagingFrequency": 123.259,
  "InPlanePhaseEncodingDirectionDICOM": "COL",
  "InstitutionAddress": "Maynard 3,Hanover,NH,US,03755",
  "InstitutionName": "Dartmouth College - PBS",
  "InstitutionalDepartmentName": "Department",
  "MRAcquisitionType": "2D",
  "MagneticFieldStrength": 3,
  "Manufacturer": "Siemens",
  "ManufacturersModelName": "Prisma",
  "Modality": "MR",
  "MultibandAccelerationFactor": 8,
  "PartialFourier": 1,
  "PatientPosition": "HFS",
  "PercentPhaseFOV": 100,
  "PercentSampling": 100,
  "PhaseEncodingDirection": "j-",
  "PhaseEncodingSteps": 82,
  "PhaseResolution": 1,
  "PixelBandwidth": 3050,
  "ProcedureStepDescription": "Wager_Wager^1076_spacetop",
  "ProtocolName": "func_run-05_task-social_acq-ap-mb8",
  "PulseSequenceDetails": "%CustomerSeq%\\cmrr_mbep2d_bold",
  "ReceiveCoilActiveElements": "HEA;HEP",
  "ReceiveCoilName": "Head_32",
  "ReconMatrixPE": 82,
  "RepetitionTime": 0.46,
  "SAR": 0.108059,
  "ScanOptions": "FS",
  "ScanningSequence": "EP",
  "SequenceName": "epfid2d1_82",
  "SequenceVariant": "SK\\SS",
  "SeriesDescription": "func_run-05_task-social_acq-ap-mb8",
  "SeriesNumber": 20,
  "ShimSetting": [4255, -7770, -7254, 240, -17, -60, -177, 12],
  "SliceThickness": 2.7,
  "SliceTiming": [0, 0.25, 0.0625, 0.3125, 0.125, 0.375, 0.1875, 0, 0.25, 0.0625, 0.3125, 0.125, 0.375, 0.1875, 0, 0.25, 0.0625, 0.3125, 0.125, 0.375, 0.1875, 0, 0.25, 0.0625, 0.3125, 0.125, 0.375, 0.1875, 0, 0.25, 0.0625, 0.3125, 0.125, 0.375, 0.1875, 0, 0.25, 0.0625, 0.3125, 0.125, 0.375, 0.1875, 0, 0.25, 0.0625, 0.3125, 0.125, 0.375, 0.1875, 0, 0.25, 0.0625, 0.3125, 0.125, 0.375, 0.1875],
  "SoftwareVersions": "syngo MR E11",
  "SpacingBetweenSlices": 2.7,
  "StationName": "AWP66112",
  "TaskName": "social",
  "TotalReadoutTime": 0.03969,
  "TxRefAmp": 256.653,
  "WipMemBlock": "d42ec2c3-af47-4fc3-9635-4086ff4494ce||Sequence: R016 ve11e/master r/434b28f1; Aug  7 2019 18:53:46 by eja",
  "dcmmeta_affine": [
    [-2.680601119995117, -0.07019394636154175, 0.08742575347423553, 111.6570816040039],
    [-0.0672059878706932, 2.6805026531219482, 0.09270472824573517, -88.20968627929688],
    [0.08920454233884811, -0.08986254036426544, 2.696991443634033, -87.2504653930664],
    [0.0, 0.0, 0.0, 1.0]
],
  "dcmmeta_reorient_transform": [
    [0.0, -1.0, 0.0, 81.0],
    [1.0, 0.0, 0.0, 0.0],
    [0.0, 0.0, 1.0, 0.0],
    [0.0, 0.0, 0.0, 1.0]
],
  "dcmmeta_shape": [82, 82, 56, 872],
  "dcmmeta_slice_dim": 2,
  "dcmmeta_version": 0.6,
  "global": {
    "const": {
      "AccessionNumber": "A004325",
      "AcquisitionMatrix": [82, 0, 0, 82],
      "AngioFlag": "N",
      "BitsAllocated": 16,
      "BitsStored": 16,
      "BodyPartExamined": "BRAIN",
      "Columns": 656,
      "EchoNumbers": 1,
      "EchoTime": 27.2,
      "EchoTrainLength": 82,
      "FlipAngle": 44.0,
      "HighBit": 15,
      "ImageOrientationPatient": [0.99913313855803, 0.02504950511633, 0.03324896582774, -0.0261631985189, 0.99909640389848, 0.03349421980575],
      "ImagePositionPatient": [-855.15824404738, -917.5033957857, -145.92158868113],
      "ImageType": [
        "ORIGINAL",
        "PRIMARY",
        "M",
        "MB",
        "ND",
        "NORM",
        "MOSAIC"
],
      "ImagedNucleus": "1H",
      "ImagingFrequency": 123.259145,
      "InPlanePhaseEncodingDirection": "COL",
      "MRAcquisitionType": "2D",
      "MagneticFieldStrength": 3.0,
      "Manufacturer": "SIEMENS",
      "ManufacturerModelName": "Prisma",
      "Modality": "MR",
      "NumberOfAverages": 1.0,
      "NumberOfPhaseEncodingSteps": 82,
      "PercentPhaseFieldOfView": 100.0,
      "PercentSampling": 100.0,
      "PerformedProcedureStepStartTime": "173831.830000",
      "PhotometricInterpretation": "MONOCHROME2",
      "PixelBandwidth": 3050.0,
      "PixelRepresentation": 0,
      "PixelSpacing": [2.6829268932343, 2.6829268932343],
      "ProtocolName": "func_run-05_task-social_acq-ap-mb8",
      "RepetitionTime": 460.0,
      "Rows": 656,
      "SAR": 0.10805893084056,
      "SamplesPerPixel": 1,
      "ScanOptions": "FS",
      "ScanningSequence": "EP",
      "SequenceName": "epfid2d1_82",
      "SequenceVariant": [
        "SK",
        "SS"
],
      "SeriesDescription": "func_run-05_task-social_acq-ap-mb8",
      "SeriesNumber": 20,
      "SeriesTime": "183938.160000",
      "SliceLocation": -86.566486246518,
      "SliceThickness": 2.7000000476837,
      "SmallestImagePixelValue": 0,
      "SoftwareVersions": "syngo MR E11",
      "SpacingBetweenSlices": 2.6999999909394,
      "SpecificCharacterSet": "ISO_IR 100",
      "StudyID": "1",
      "StudyTime": "173831.778000",
      "TransmitCoilName": "Body",
      "VariableFlipAngleFlag": "N",
      "WindowCenterWidthExplanation": "Algo1"
    },
    "slices": {}
  },
  "time": {
    "samples": {
      "AcquisitionNumber": [1, 2, 3, 4, 5, 6, 7, 8, 9, 10, 11, 12, 13, 14, 15, 16, 17, 18, 19, 20, 21, 22, 23, 24, 25, 26, 27, 28, 29, 30, 31, 32, 33, 34, 35, 36, 37, 38, 39, 40, 41, 42, 43, 44, 45, 46, 47, 48, 49, 50, 51, 52, 53, 54, 55, 56, 57, 58, 59, 60, 61, 62, 63, 64, 65, 66, 67, 68, 69, 70, 71, 72, 73, 74, 75, 76, 77, 78, 79, 80, 81, 82, 83, 84, 85, 86, 87, 88, 89, 90, 91, 92, 93, 94, 95, 96, 97, 98, 99, 100, 101, 102, 103, 104, 105, 106, 107, 108, 109, 110, 111, 112, 113, 114, 115, 116, 117, 118, 119, 120, 121, 122, 123, 124, 125, 126, 127, 128, 129, 130, 131, 132, 133, 134, 135, 136, 137, 138, 139, 140, 141, 142, 143, 144, 145, 146, 147, 148, 149, 150, 151, 152, 153, 154, 155, 156, 157, 158, 159, 160, 161, 162, 163, 164, 165, 166, 167, 168, 169, 170, 171, 172, 173, 174, 175, 176, 177, 178, 179, 180, 181, 182, 183, 184, 185, 186, 187, 188, 189, 190, 191, 192, 193, 194, 195, 196, 197, 198, 199, 200, 201, 202, 203, 204, 205, 206, 207, 208, 209, 210, 211, 212, 213, 214, 215, 216, 217, 218, 219, 220, 221, 222, 223, 224, 225, 226, 227, 228, 229, 230, 231, 232, 233, 234, 235, 236, 237, 238, 239, 240, 241, 242, 243, 244, 245, 246, 247, 248, 249, 250, 251, 252, 253, 254, 255, 256, 257, 258, 259, 260, 261, 262, 263, 264, 265, 266, 267, 268, 269, 270, 271, 272, 273, 274, 275, 276, 277, 278, 279, 280, 281, 282, 283, 284, 285, 286, 287, 288, 289, 290, 291, 292, 293, 294, 295, 296, 297, 298, 299, 300, 301, 302, 303, 304, 305, 306, 307, 308, 309, 310, 311, 312, 313, 314, 315, 316, 317, 318, 319, 320, 321, 322, 323, 324, 325, 326, 327, 328, 329, 330, 331, 332, 333, 334, 335, 336, 337, 338, 339, 340, 341, 342, 343, 344, 345, 346, 347, 348, 349, 350, 351, 352, 353, 354, 355, 356, 357, 358, 359, 360, 361, 362, 363, 364, 365, 366, 367, 368, 369, 370, 371, 372, 373, 374, 375, 376, 377, 378, 379, 380, 381, 382, 383, 384, 385, 386, 387, 388, 389, 390, 391, 392, 393, 394, 395, 396, 397, 398, 399, 400, 401, 402, 403, 404, 405, 406, 407, 408, 409, 410, 411, 412, 413, 414, 415, 416, 417, 418, 419, 420, 421, 422, 423, 424, 425, 426, 427, 428, 429, 430, 431, 432, 433, 434, 435, 436, 437, 438, 439, 440, 441, 442, 443, 444, 445, 446, 447, 448, 449, 450, 451, 452, 453, 454, 455, 456, 457, 458, 459, 460, 461, 462, 463, 464, 465, 466, 467, 468, 469, 470, 471, 472, 473, 474, 475, 476, 477, 478, 479, 480, 481, 482, 483, 484, 485, 486, 487, 488, 489, 490, 491, 492, 493, 494, 495, 496, 497, 498, 499, 500, 501, 502, 503, 504, 505, 506, 507, 508, 509, 510, 511, 512, 513, 514, 515, 516, 517, 518, 519, 520, 521, 522, 523, 524, 525, 526, 527, 528, 529, 530, 531, 532, 533, 534, 535, 536, 537, 538, 539, 540, 541, 542, 543, 544, 545, 546, 547, 548, 549, 550, 551, 552, 553, 554, 555, 556, 557, 558, 559, 560, 561, 562, 563, 564, 565, 566, 567, 568, 569, 570, 571, 572, 573, 574, 575, 576, 577, 578, 579, 580, 581, 582, 583, 584, 585, 586, 587, 588, 589, 590, 591, 592, 593, 594, 595, 596, 597, 598, 599, 600, 601, 602, 603, 604, 605, 606, 607, 608, 609, 610, 611, 612, 613, 614, 615, 616, 617, 618, 619, 620, 621, 622, 623, 624, 625, 626, 627, 628, 629, 630, 631, 632, 633, 634, 635, 636, 637, 638, 639, 640, 641, 642, 643, 644, 645, 646, 647, 648, 649, 650, 651, 652, 653, 654, 655, 656, 657, 658, 659, 660, 661, 662, 663, 664, 665, 666, 667, 668, 669, 670, 671, 672, 673, 674, 675, 676, 677, 678, 679, 680, 681, 682, 683, 684, 685, 686, 687, 688, 689, 690, 691, 692, 693, 694, 695, 696, 697, 698, 699, 700, 701, 702, 703, 704, 705, 706, 707, 708, 709, 710, 711, 712, 713, 714, 715, 716, 717, 718, 719, 720, 721, 722, 723, 724, 725, 726, 727, 728, 729, 730, 731, 732, 733, 734, 735, 736, 737, 738, 739, 740, 741, 742, 743, 744, 745, 746, 747, 748, 749, 750, 751, 752, 753, 754, 755, 756, 757, 758, 759, 760, 761, 762, 763, 764, 765, 766, 767, 768, 769, 770, 771, 772, 773, 774, 775, 776, 777, 778, 779, 780, 781, 782, 783, 784, 785, 786, 787, 788, 789, 790, 791, 792, 793, 794, 795, 796, 797, 798, 799, 800, 801, 802, 803, 804, 805, 806, 807, 808, 809, 810, 811, 812, 813, 814, 815, 816, 817, 818, 819, 820, 821, 822, 823, 824, 825, 826, 827, 828, 829, 830, 831, 832, 833, 834, 835, 836, 837, 838, 839, 840, 841, 842, 843, 844, 845, 846, 847, 848, 849, 850, 851, 852, 853, 854, 855, 856, 857, 858, 859, 860, 861, 862, 863, 864, 865, 866, 867, 868, 869, 870, 871, 872],
      "AcquisitionTime": ["183920.192500", "183920.652500", "183921.112500", "183921.572500", "183922.032500", "183922.492500", "183922.952500", "183923.412500", "183923.872500", "183924.332500", "183924.792500", "183925.252500", "183925.712500", "183926.172500", "183926.632500", "183927.092500", "183927.552500", "183928.012500", "183928.472500", "183928.932500", "183929.392500", "183929.852500", "183930.312500", "183930.772500", "183931.232500", "183931.692500", "183932.152500", "183932.612500", "183933.072500", "183933.532500", "183933.992500", "183934.452500", "183934.912500", "183935.372500", "183935.832500", "183936.292500", "183936.752500", "183937.212500", "183937.672500", "183938.132500", "183938.592500", "183939.052500", "183939.512500", "183939.972500", "183940.432500", "183940.892500", "183941.352500", "183941.812500", "183942.272500", "183942.732500", "183943.192500", "183943.652500", "183944.112500", "183944.572500", "183945.032500", "183945.492500", "183945.952500", "183946.412500", "183946.872500", "183947.332500", "183947.792500", "183948.252500", "183948.712500", "183949.172500", "183949.632500", "183950.092500", "183950.552500", "183951.012500", "183951.472500", "183951.932500", "183952.392500", "183952.852500", "183953.312500", "183953.772500", "183954.232500", "183954.692500", "183955.152500", "183955.612500", "183956.072500", "183956.532500", "183956.992500", "183957.452500", "183957.912500", "183958.372500", "183958.832500", "183959.292500", "183959.752500", "184000.212500", "184000.672500", "184001.132500", "184001.592500", "184002.052500", "184002.512500", "184002.972500", "184003.432500", "184003.892500", "184004.352500", "184004.812500", "184005.272500", "184005.732500", "184006.192500", "184006.652500", "184007.112500", "184007.572500", "184008.032500", "184008.492500", "184008.952500", "184009.412500", "184009.872500", "184010.332500", "184010.792500", "184011.252500", "184011.712500", "184012.172500", "184012.632500", "184013.092500", "184013.552500", "184014.012500", "184014.472500", "184014.932500", "184015.392500", "184015.852500", "184016.312500", "184016.772500", "184017.232500", "184017.692500", "184018.152500", "184018.612500", "184019.072500", "184019.532500", "184019.992500", "184020.452500", "184020.912500", "184021.372500", "184021.832500", "184022.292500", "184022.752500", "184023.212500", "184023.672500", "184024.132500", "184024.592500", "184025.052500", "184025.512500", "184025.972500", "184026.432500", "184026.892500", "184027.352500", "184027.812500", "184028.272500", "184028.732500", "184029.192500", "184029.652500", "184030.112500", "184030.572500", "184031.032500", "184031.492500", "184031.952500", "184032.412500", "184032.872500", "184033.332500", "184033.792500", "184034.252500", "184034.712500", "184035.172500", "184035.632500", "184036.092500", "184036.552500", "184037.012500", "184037.472500", "184037.932500", "184038.392500", "184038.852500", "184039.312500", "184039.772500", "184040.232500", "184040.692500", "184041.152500", "184041.612500", "184042.072500", "184042.532500", "184042.992500", "184043.452500", "184043.912500", "184044.372500", "184044.832500", "184045.292500", "184045.752500", "184046.212500", "184046.672500", "184047.132500", "184047.592500", "184048.052500", "184048.512500", "184048.972500", "184049.432500", "184049.892500", "184050.352500", "184050.812500", "184051.272500", "184051.732500", "184052.192500", "184052.652500", "184053.112500", "184053.572500", "184054.032500", "184054.492500", "184054.952500", "184055.412500", "184055.872500", "184056.332500", "184056.792500", "184057.252500", "184057.712500", "184058.172500", "184058.632500", "184059.092500", "184059.552500", "184100.012500", "184100.472500", "184100.932500", "184101.392500", "184101.852500", "184102.312500", "184102.772500", "184103.232500", "184103.692500", "184104.152500", "184104.612500", "184105.072500", "184105.532500", "184105.992500", "184106.452500", "184106.912500", "184107.372500", "184107.832500", "184108.292500", "184108.752500", "184109.212500", "184109.672500", "184110.132500", "184110.592500", "184111.052500", "184111.512500", "184111.972500", "184112.432500", "184112.892500", "184113.352500", "184113.812500", "184114.272500", "184114.732500", "184115.192500", "184115.652500", "184116.112500", "184116.572500", "184117.032500", "184117.492500", "184117.952500", "184118.412500", "184118.872500", "184119.332500", "184119.792500", "184120.252500", "184120.712500", "184121.172500", "184121.632500", "184122.092500", "184122.552500", "184123.012500", "184123.472500", "184123.932500", "184124.392500", "184124.852500", "184125.312500", "184125.772500", "184126.232500", "184126.692500", "184127.152500", "184127.612500", "184128.072500", "184128.532500", "184128.992500", "184129.452500", "184129.912500", "184130.372500", "184130.832500", "184131.292500", "184131.752500", "184132.212500", "184132.672500", "184133.132500", "184133.592500", "184134.052500", "184134.512500", "184134.972500", "184135.432500", "184135.892500", "184136.352500", "184136.812500", "184137.272500", "184137.732500", "184138.192500", "184138.652500", "184139.112500", "184139.572500", "184140.032500", "184140.492500", "184140.952500", "184141.412500", "184141.872500", "184142.332500", "184142.792500", "184143.252500", "184143.712500", "184144.172500", "184144.632500", "184145.092500", "184145.552500", "184146.012500", "184146.472500", "184146.932500", "184147.392500", "184147.852500", "184148.312500", "184148.772500", "184149.232500", "184149.692500", "184150.152500", "184150.612500", "184151.072500", "184151.532500", "184151.992500", "184152.452500", "184152.912500", "184153.372500", "184153.832500", "184154.292500", "184154.752500", "184155.212500", "184155.672500", "184156.132500", "184156.592500", "184157.052500", "184157.512500", "184157.972500", "184158.432500", "184158.892500", "184159.352500", "184159.812500", "184200.272500", "184200.732500", "184201.192500", "184201.652500", "184202.112500", "184202.572500", "184203.032500", "184203.492500", "184203.952500", "184204.412500", "184204.872500", "184205.332500", "184205.792500", "184206.252500", "184206.712500", "184207.172500", "184207.632500", "184208.092500", "184208.552500", "184209.012500", "184209.472500", "184209.932500", "184210.392500", "184210.852500", "184211.312500", "184211.772500", "184212.232500", "184212.692500", "184213.152500", "184213.612500", "184214.072500", "184214.532500", "184214.992500", "184215.452500", "184215.912500", "184216.372500", "184216.832500", "184217.292500", "184217.752500", "184218.212500", "184218.672500", "184219.132500", "184219.592500", "184220.052500", "184220.512500", "184220.972500", "184221.432500", "184221.892500", "184222.352500", "184222.812500", "184223.272500", "184223.732500", "184224.192500", "184224.652500", "184225.112500", "184225.572500", "184226.032500", "184226.492500", "184226.952500", "184227.412500", "184227.872500", "184228.332500", "184228.792500", "184229.252500", "184229.712500", "184230.172500", "184230.632500", "184231.092500", "184231.552500", "184232.012500", "184232.472500", "184232.932500", "184233.392500", "184233.852500", "184234.312500", "184234.772500", "184235.232500", "184235.692500", "184236.152500", "184236.612500", "184237.072500", "184237.532500", "184237.992500", "184238.452500", "184238.912500", "184239.372500", "184239.832500", "184240.292500", "184240.752500", "184241.212500", "184241.672500", "184242.132500", "184242.592500", "184243.052500", "184243.512500", "184243.972500", "184244.432500", "184244.892500", "184245.352500", "184245.812500", "184246.272500", "184246.732500", "184247.192500", "184247.652500", "184248.112500", "184248.572500", "184249.032500", "184249.492500", "184249.952500", "184250.412500", "184250.872500", "184251.332500", "184251.792500", "184252.252500", "184252.712500", "184253.172500", "184253.632500", "184254.092500", "184254.552500", "184255.012500", "184255.472500", "184255.932500", "184256.392500", "184256.852500", "184257.312500", "184257.772500", "184258.232500", "184258.692500", "184259.152500", "184259.612500", "184300.072500", "184300.532500", "184300.992500", "184301.452500", "184301.912500", "184302.372500", "184302.832500", "184303.292500", "184303.752500", "184304.212500", "184304.672500", "184305.132500", "184305.592500", "184306.052500", "184306.512500", "184306.972500", "184307.432500", "184307.892500", "184308.352500", "184308.812500", "184309.272500", "184309.732500", "184310.192500", "184310.652500", "184311.112500", "184311.572500", "184312.032500", "184312.492500", "184312.952500", "184313.412500", "184313.872500", "184314.332500", "184314.792500", "184315.252500", "184315.712500", "184316.172500", "184316.632500", "184317.092500", "184317.552500", "184318.012500", "184318.472500", "184318.932500", "184319.392500", "184319.852500", "184320.312500", "184320.772500", "184321.232500", "184321.692500", "184322.152500", "184322.612500", "184323.072500", "184323.532500", "184323.992500", "184324.452500", "184324.912500", "184325.372500", "184325.832500", "184326.292500", "184326.752500", "184327.212500", "184327.672500", "184328.132500", "184328.592500", "184329.052500", "184329.512500", "184329.972500", "184330.432500", "184330.892500", "184331.352500", "184331.812500", "184332.272500", "184332.732500", "184333.192500", "184333.652500", "184334.112500", "184334.572500", "184335.032500", "184335.492500", "184335.952500", "184336.412500", "184336.872500", "184337.332500", "184337.792500", "184338.252500", "184338.712500", "184339.172500", "184339.632500", "184340.092500", "184340.552500", "184341.012500", "184341.472500", "184341.932500", "184342.392500", "184342.852500", "184343.312500", "184343.772500", "184344.232500", "184344.692500", "184345.152500", "184345.612500", "184346.072500", "184346.532500", "184346.992500", "184347.452500", "184347.912500", "184348.372500", "184348.832500", "184349.292500", "184349.752500", "184350.212500", "184350.672500", "184351.132500", "184351.592500", "184352.052500", "184352.512500", "184352.972500", "184353.432500", "184353.892500", "184354.352500", "184354.812500", "184355.272500", "184355.732500", "184356.192500", "184356.652500", "184357.112500", "184357.572500", "184358.032500", "184358.492500", "184358.952500", "184359.412500", "184359.872500", "184400.332500", "184400.792500", "184401.252500", "184401.712500", "184402.172500", "184402.632500", "184403.092500", "184403.552500", "184404.012500", "184404.472500", "184404.932500", "184405.392500", "184405.852500", "184406.312500", "184406.772500", "184407.232500", "184407.692500", "184408.152500", "184408.612500", "184409.072500", "184409.532500", "184409.992500", "184410.452500", "184410.912500", "184411.372500", "184411.832500", "184412.292500", "184412.752500", "184413.212500", "184413.672500", "184414.132500", "184414.592500", "184415.052500", "184415.512500", "184415.972500", "184416.432500", "184416.892500", "184417.352500", "184417.812500", "184418.272500", "184418.732500", "184419.192500", "184419.652500", "184420.112500", "184420.572500", "184421.032500", "184421.492500", "184421.952500", "184422.412500", "184422.872500", "184423.332500", "184423.792500", "184424.252500", "184424.712500", "184425.172500", "184425.632500", "184426.092500", "184426.552500", "184427.012500", "184427.472500", "184427.932500", "184428.392500", "184428.852500", "184429.312500", "184429.772500", "184430.232500", "184430.692500", "184431.152500", "184431.612500", "184432.072500", "184432.532500", "184432.992500", "184433.452500", "184433.912500", "184434.372500", "184434.832500", "184435.292500", "184435.752500", "184436.212500", "184436.672500", "184437.132500", "184437.592500", "184438.052500", "184438.512500", "184438.972500", "184439.432500", "184439.892500", "184440.352500", "184440.812500", "184441.272500", "184441.732500", "184442.192500", "184442.652500", "184443.112500", "184443.572500", "184444.032500", "184444.492500", "184444.952500", "184445.412500", "184445.872500", "184446.332500", "184446.792500", "184447.252500", "184447.712500", "184448.172500", "184448.632500", "184449.092500", "184449.552500", "184450.012500", "184450.472500", "184450.932500", "184451.392500", "184451.852500", "184452.312500", "184452.772500", "184453.232500", "184453.692500", "184454.152500", "184454.612500", "184455.072500", "184455.532500", "184455.992500", "184456.452500", "184456.912500", "184457.372500", "184457.832500", "184458.292500", "184458.752500", "184459.212500", "184459.672500", "184500.132500", "184500.592500", "184501.052500", "184501.512500", "184501.972500", "184502.432500", "184502.892500", "184503.352500", "184503.812500", "184504.272500", "184504.732500", "184505.192500", "184505.652500", "184506.112500", "184506.572500", "184507.032500", "184507.492500", "184507.952500", "184508.412500", "184508.872500", "184509.332500", "184509.792500", "184510.252500", "184510.712500", "184511.172500", "184511.632500", "184512.092500", "184512.552500", "184513.012500", "184513.472500", "184513.932500", "184514.392500", "184514.852500", "184515.312500", "184515.772500", "184516.232500", "184516.692500", "184517.152500", "184517.612500", "184518.072500", "184518.532500", "184518.992500", "184519.452500", "184519.912500", "184520.372500", "184520.832500", "184521.292500", "184521.752500", "184522.212500", "184522.672500", "184523.132500", "184523.592500", "184524.052500", "184524.512500", "184524.972500", "184525.432500", "184525.892500", "184526.352500", "184526.812500", "184527.272500", "184527.732500", "184528.192500", "184528.652500", "184529.112500", "184529.572500", "184530.032500", "184530.492500", "184530.952500", "184531.412500", "184531.872500", "184532.332500", "184532.792500", "184533.252500", "184533.712500", "184534.172500", "184534.632500", "184535.092500", "184535.552500", "184536.012500", "184536.472500", "184536.932500", "184537.392500", "184537.852500", "184538.312500", "184538.772500", "184539.232500", "184539.692500", "184540.152500", "184540.612500", "184541.072500", "184541.532500", "184541.992500", "184542.452500", "184542.912500", "184543.372500", "184543.832500", "184544.292500", "184544.752500", "184545.212500", "184545.672500", "184546.132500", "184546.592500", "184547.052500", "184547.512500", "184547.972500", "184548.432500", "184548.892500", "184549.352500", "184549.812500", "184550.272500", "184550.732500", "184551.192500", "184551.652500", "184552.112500", "184552.572500", "184553.032500", "184553.492500", "184553.952500", "184554.412500", "184554.872500", "184555.332500", "184555.792500", "184556.252500", "184556.712500", "184557.172500", "184557.632500", "184558.092500", "184558.552500", "184559.012500", "184559.472500", "184559.932500", "184600.392500", "184600.852500"],
