{
  "AcquisitionMatrixPE": 82,
  "AcquisitionNumber": 1,
  "AcquisitionTime": "18:23:53.337500",
  "BandwidthPerPixelPhaseEncode": 24.888,
  "BaseResolution": 82,
  "BodyPartExamined": "BRAIN",
  "ConsistencyInfo": "N4_VE11E_LATEST_20181129",
  "ConversionSoftware": "dcm2niix",
  "ConversionSoftwareVersion": "v1.0.20201102",
  "DerivedVendorReportedEchoSpacing": 0.00049,
  "DeviceSerialNumber": "66112",
  "DwellTime": 2e-06,
  "EchoTime": 0.0272,
  "EchoTrainLength": 82,
  "EffectiveEchoSpacing": 0.00049,
  "FlipAngle": 44,
  "ImageComments": "Unaliased MB8/PE3",
  "ImageOrientationPatientDICOM": [0.999133, 0.0250495, 0.033249, -0.0261632, 0.999096, 0.0334942],
  "ImageType": [
    "ORIGINAL",
    "PRIMARY",
    "M",
    "MB",
    "ND",
    "NORM",
    "MOSAIC"
],
  "ImagingFrequency": 123.259,
  "InPlanePhaseEncodingDirectionDICOM": "COL",
  "InstitutionAddress": "Maynard 3,Hanover,NH,US,03755",
  "InstitutionName": "Dartmouth College - PBS",
  "InstitutionalDepartmentName": "Department",
  "MRAcquisitionType": "2D",
  "MagneticFieldStrength": 3,
  "Manufacturer": "Siemens",
  "ManufacturersModelName": "Prisma",
  "Modality": "MR",
  "MultibandAccelerationFactor": 8,
  "PartialFourier": 1,
  "PatientPosition": "HFS",
  "PercentPhaseFOV": 100,
  "PercentSampling": 100,
  "PhaseEncodingDirection": "j-",
  "PhaseEncodingSteps": 82,
  "PhaseResolution": 1,
  "PixelBandwidth": 3050,
  "ProcedureStepDescription": "Wager_Wager^1076_spacetop",
  "ProtocolName": "func_run-03_task-social_acq-ap-mb8",
  "PulseSequenceDetails": "%CustomerSeq%\\cmrr_mbep2d_bold",
  "ReceiveCoilActiveElements": "HEA;HEP",
  "ReceiveCoilName": "Head_32",
  "ReconMatrixPE": 82,
  "RepetitionTime": 0.46,
  "SAR": 0.108059,
  "ScanOptions": "FS",
  "ScanningSequence": "EP",
  "SequenceName": "epfid2d1_82",
  "SequenceVariant": "SK\\SS",
  "SeriesDescription": "func_run-03_task-social_acq-ap-mb8",
  "SeriesNumber": 16,
  "ShimSetting": [4255, -7770, -7254, 240, -17, -60, -177, 12],
  "SliceThickness": 2.7,
  "SliceTiming": [0, 0.2525, 0.0625, 0.315, 0.1275, 0.3775, 0.19, 0, 0.2525, 0.0625, 0.315, 0.1275, 0.3775, 0.19, 0, 0.2525, 0.0625, 0.315, 0.1275, 0.3775, 0.19, 0, 0.2525, 0.0625, 0.315, 0.1275, 0.3775, 0.19, 0, 0.2525, 0.0625, 0.315, 0.1275, 0.3775, 0.19, 0, 0.2525, 0.0625, 0.315, 0.1275, 0.3775, 0.19, 0, 0.2525, 0.0625, 0.315, 0.1275, 0.3775, 0.19, 0, 0.2525, 0.0625, 0.315, 0.1275, 0.3775, 0.19],
  "SoftwareVersions": "syngo MR E11",
  "SpacingBetweenSlices": 2.7,
  "StationName": "AWP66112",
  "TaskName": "social",
  "TotalReadoutTime": 0.03969,
  "TxRefAmp": 256.653,
  "WipMemBlock": "c3ce41f3-4a5f-46c5-8825-1e4f4c5c2a45||Sequence: R016 ve11e/master r/434b28f1; Aug  7 2019 18:53:46 by eja",
  "dcmmeta_affine": [
    [-2.680601119995117, -0.07019394636154175, 0.08742575347423553, 111.6570816040039],
    [-0.0672059878706932, 2.6805026531219482, 0.09270472824573517, -88.20968627929688],
    [0.08920454233884811, -0.08986254036426544, 2.696991443634033, -87.2504653930664],
    [0.0, 0.0, 0.0, 1.0]
],
  "dcmmeta_reorient_transform": [
    [0.0, -1.0, 0.0, 81.0],
    [1.0, 0.0, 0.0, 0.0],
    [0.0, 0.0, 1.0, 0.0],
    [0.0, 0.0, 0.0, 1.0]
],
  "dcmmeta_shape": [82, 82, 56, 872],
  "dcmmeta_slice_dim": 2,
  "dcmmeta_version": 0.6,
  "global": {
    "const": {
      "AccessionNumber": "A004325",
      "AcquisitionMatrix": [82, 0, 0, 82],
      "AngioFlag": "N",
      "BitsAllocated": 16,
      "BitsStored": 16,
      "BodyPartExamined": "BRAIN",
      "Columns": 656,
      "EchoNumbers": 1,
      "EchoTime": 27.2,
      "EchoTrainLength": 82,
      "FlipAngle": 44.0,
      "HighBit": 15,
      "ImageOrientationPatient": [0.99913313855803, 0.02504950511633, 0.03324896582774, -0.0261631985189, 0.99909640389848, 0.03349421980575],
      "ImagePositionPatient": [-855.15824404738, -917.5033957857, -145.92158868113],
      "ImageType": [
        "ORIGINAL",
        "PRIMARY",
        "M",
        "MB",
        "ND",
        "NORM",
        "MOSAIC"
],
      "ImagedNucleus": "1H",
      "ImagingFrequency": 123.259141,
      "InPlanePhaseEncodingDirection": "COL",
      "MRAcquisitionType": "2D",
      "MagneticFieldStrength": 3.0,
      "Manufacturer": "SIEMENS",
      "ManufacturerModelName": "Prisma",
      "Modality": "MR",
      "NumberOfAverages": 1.0,
      "NumberOfPhaseEncodingSteps": 82,
      "PercentPhaseFieldOfView": 100.0,
      "PercentSampling": 100.0,
      "PerformedProcedureStepStartTime": "173831.830000",
      "PhotometricInterpretation": "MONOCHROME2",
      "PixelBandwidth": 3050.0,
      "PixelRepresentation": 0,
      "PixelSpacing": [2.6829268932343, 2.6829268932343],
      "ProtocolName": "func_run-03_task-social_acq-ap-mb8",
      "RepetitionTime": 460.0,
      "Rows": 656,
      "SAR": 0.10805893084056,
      "SamplesPerPixel": 1,
      "ScanOptions": "FS",
      "ScanningSequence": "EP",
      "SequenceName": "epfid2d1_82",
      "SequenceVariant": [
        "SK",
        "SS"
],
      "SeriesDescription": "func_run-03_task-social_acq-ap-mb8",
      "SeriesNumber": 16,
      "SeriesTime": "182418.270000",
      "SliceLocation": -86.566486246518,
      "SliceThickness": 2.7000000476837,
      "SmallestImagePixelValue": 0,
      "SoftwareVersions": "syngo MR E11",
      "SpacingBetweenSlices": 2.6999999909394,
      "SpecificCharacterSet": "ISO_IR 100",
      "StudyID": "1",
      "StudyTime": "173831.778000",
      "TransmitCoilName": "Body",
      "VariableFlipAngleFlag": "N",
      "WindowCenterWidthExplanation": "Algo1"
    },
    "slices": {}
  },
  "time": {
    "samples": {
      "AcquisitionNumber": [1, 2, 3, 4, 5, 6, 7, 8, 9, 10, 11, 12, 13, 14, 15, 16, 17, 18, 19, 20, 21, 22, 23, 24, 25, 26, 27, 28, 29, 30, 31, 32, 33, 34, 35, 36, 37, 38, 39, 40, 41, 42, 43, 44, 45, 46, 47, 48, 49, 50, 51, 52, 53, 54, 55, 56, 57, 58, 59, 60, 61, 62, 63, 64, 65, 66, 67, 68, 69, 70, 71, 72, 73, 74, 75, 76, 77, 78, 79, 80, 81, 82, 83, 84, 85, 86, 87, 88, 89, 90, 91, 92, 93, 94, 95, 96, 97, 98, 99, 100, 101, 102, 103, 104, 105, 106, 107, 108, 109, 110, 111, 112, 113, 114, 115, 116, 117, 118, 119, 120, 121, 122, 123, 124, 125, 126, 127, 128, 129, 130, 131, 132, 133, 134, 135, 136, 137, 138, 139, 140, 141, 142, 143, 144, 145, 146, 147, 148, 149, 150, 151, 152, 153, 154, 155, 156, 157, 158, 159, 160, 161, 162, 163, 164, 165, 166, 167, 168, 169, 170, 171, 172, 173, 174, 175, 176, 177, 178, 179, 180, 181, 182, 183, 184, 185, 186, 187, 188, 189, 190, 191, 192, 193, 194, 195, 196, 197, 198, 199, 200, 201, 202, 203, 204, 205, 206, 207, 208, 209, 210, 211, 212, 213, 214, 215, 216, 217, 218, 219, 220, 221, 222, 223, 224, 225, 226, 227, 228, 229, 230, 231, 232, 233, 234, 235, 236, 237, 238, 239, 240, 241, 242, 243, 244, 245, 246, 247, 248, 249, 250, 251, 252, 253, 254, 255, 256, 257, 258, 259, 260, 261, 262, 263, 264, 265, 266, 267, 268, 269, 270, 271, 272, 273, 274, 275, 276, 277, 278, 279, 280, 281, 282, 283, 284, 285, 286, 287, 288, 289, 290, 291, 292, 293, 294, 295, 296, 297, 298, 299, 300, 301, 302, 303, 304, 305, 306, 307, 308, 309, 310, 311, 312, 313, 314, 315, 316, 317, 318, 319, 320, 321, 322, 323, 324, 325, 326, 327, 328, 329, 330, 331, 332, 333, 334, 335, 336, 337, 338, 339, 340, 341, 342, 343, 344, 345, 346, 347, 348, 349, 350, 351, 352, 353, 354, 355, 356, 357, 358, 359, 360, 361, 362, 363, 364, 365, 366, 367, 368, 369, 370, 371, 372, 373, 374, 375, 376, 377, 378, 379, 380, 381, 382, 383, 384, 385, 386, 387, 388, 389, 390, 391, 392, 393, 394, 395, 396, 397, 398, 399, 400, 401, 402, 403, 404, 405, 406, 407, 408, 409, 410, 411, 412, 413, 414, 415, 416, 417, 418, 419, 420, 421, 422, 423, 424, 425, 426, 427, 428, 429, 430, 431, 432, 433, 434, 435, 436, 437, 438, 439, 440, 441, 442, 443, 444, 445, 446, 447, 448, 449, 450, 451, 452, 453, 454, 455, 456, 457, 458, 459, 460, 461, 462, 463, 464, 465, 466, 467, 468, 469, 470, 471, 472, 473, 474, 475, 476, 477, 478, 479, 480, 481, 482, 483, 484, 485, 486, 487, 488, 489, 490, 491, 492, 493, 494, 495, 496, 497, 498, 499, 500, 501, 502, 503, 504, 505, 506, 507, 508, 509, 510, 511, 512, 513, 514, 515, 516, 517, 518, 519, 520, 521, 522, 523, 524, 525, 526, 527, 528, 529, 530, 531, 532, 533, 534, 535, 536, 537, 538, 539, 540, 541, 542, 543, 544, 545, 546, 547, 548, 549, 550, 551, 552, 553, 554, 555, 556, 557, 558, 559, 560, 561, 562, 563, 564, 565, 566, 567, 568, 569, 570, 571, 572, 573, 574, 575, 576, 577, 578, 579, 580, 581, 582, 583, 584, 585, 586, 587, 588, 589, 590, 591, 592, 593, 594, 595, 596, 597, 598, 599, 600, 601, 602, 603, 604, 605, 606, 607, 608, 609, 610, 611, 612, 613, 614, 615, 616, 617, 618, 619, 620, 621, 622, 623, 624, 625, 626, 627, 628, 629, 630, 631, 632, 633, 634, 635, 636, 637, 638, 639, 640, 641, 642, 643, 644, 645, 646, 647, 648, 649, 650, 651, 652, 653, 654, 655, 656, 657, 658, 659, 660, 661, 662, 663, 664, 665, 666, 667, 668, 669, 670, 671, 672, 673, 674, 675, 676, 677, 678, 679, 680, 681, 682, 683, 684, 685, 686, 687, 688, 689, 690, 691, 692, 693, 694, 695, 696, 697, 698, 699, 700, 701, 702, 703, 704, 705, 706, 707, 708, 709, 710, 711, 712, 713, 714, 715, 716, 717, 718, 719, 720, 721, 722, 723, 724, 725, 726, 727, 728, 729, 730, 731, 732, 733, 734, 735, 736, 737, 738, 739, 740, 741, 742, 743, 744, 745, 746, 747, 748, 749, 750, 751, 752, 753, 754, 755, 756, 757, 758, 759, 760, 761, 762, 763, 764, 765, 766, 767, 768, 769, 770, 771, 772, 773, 774, 775, 776, 777, 778, 779, 780, 781, 782, 783, 784, 785, 786, 787, 788, 789, 790, 791, 792, 793, 794, 795, 796, 797, 798, 799, 800, 801, 802, 803, 804, 805, 806, 807, 808, 809, 810, 811, 812, 813, 814, 815, 816, 817, 818, 819, 820, 821, 822, 823, 824, 825, 826, 827, 828, 829, 830, 831, 832, 833, 834, 835, 836, 837, 838, 839, 840, 841, 842, 843, 844, 845, 846, 847, 848, 849, 850, 851, 852, 853, 854, 855, 856, 857, 858, 859, 860, 861, 862, 863, 864, 865, 866, 867, 868, 869, 870, 871, 872],
      "AcquisitionTime": ["182353.337500", "182353.797500", "182354.257500", "182354.717500", "182355.177500", "182355.637500", "182356.097500", "182356.557500", "182357.017500", "182357.477500", "182357.937500", "182358.397500", "182358.857500", "182359.317500", "182359.777500", "182400.237500", "182400.697500", "182401.157500", "182401.617500", "182402.077500", "182402.537500", "182402.997500", "182403.457500", "182403.917500", "182404.377500", "182404.837500", "182405.297500", "182405.757500", "182406.217500", "182406.677500", "182407.137500", "182407.597500", "182408.057500", "182408.517500", "182408.977500", "182409.437500", "182409.897500", "182410.357500", "182410.817500", "182411.277500", "182411.737500", "182412.197500", "182412.657500", "182413.117500", "182413.577500", "182414.037500", "182414.497500", "182414.957500", "182415.417500", "182415.877500", "182416.337500", "182416.797500", "182417.257500", "182417.717500", "182418.177500", "182418.637500", "182419.097500", "182419.557500", "182420.017500", "182420.477500", "182420.937500", "182421.397500", "182421.857500", "182422.317500", "182422.777500", "182423.237500", "182423.697500", "182424.157500", "182424.617500", "182425.077500", "182425.537500", "182425.997500", "182426.457500", "182426.917500", "182427.377500", "182427.837500", "182428.297500", "182428.757500", "182429.217500", "182429.677500", "182430.137500", "182430.597500", "182431.057500", "182431.517500", "182431.977500", "182432.437500", "182432.897500", "182433.357500", "182433.817500", "182434.277500", "182434.737500", "182435.197500", "182435.657500", "182436.117500", "182436.577500", "182437.037500", "182437.497500", "182437.957500", "182438.417500", "182438.877500", "182439.337500", "182439.797500", "182440.257500", "182440.717500", "182441.177500", "182441.637500", "182442.097500", "182442.557500", "182443.017500", "182443.477500", "182443.937500", "182444.397500", "182444.857500", "182445.317500", "182445.777500", "182446.237500", "182446.697500", "182447.157500", "182447.617500", "182448.077500", "182448.537500", "182448.997500", "182449.457500", "182449.917500", "182450.377500", "182450.837500", "182451.297500", "182451.757500", "182452.217500", "182452.677500", "182453.137500", "182453.597500", "182454.057500", "182454.517500", "182454.977500", "182455.437500", "182455.897500", "182456.357500", "182456.817500", "182457.277500", "182457.737500", "182458.197500", "182458.657500", "182459.117500", "182459.577500", "182500.037500", "182500.497500", "182500.957500", "182501.417500", "182501.877500", "182502.337500", "182502.797500", "182503.257500", "182503.717500", "182504.177500", "182504.637500", "182505.097500", "182505.557500", "182506.017500", "182506.477500", "182506.937500", "182507.397500", "182507.857500", "182508.317500", "182508.777500", "182509.237500", "182509.697500", "182510.157500", "182510.617500", "182511.077500", "182511.537500", "182511.997500", "182512.457500", "182512.917500", "182513.377500", "182513.837500", "182514.297500", "182514.757500", "182515.217500", "182515.677500", "182516.137500", "182516.597500", "182517.057500", "182517.517500", "182517.977500", "182518.437500", "182518.897500", "182519.357500", "182519.817500", "182520.277500", "182520.737500", "182521.197500", "182521.657500", "182522.117500", "182522.577500", "182523.037500", "182523.497500", "182523.957500", "182524.417500", "182524.877500", "182525.337500", "182525.797500", "182526.257500", "182526.717500", "182527.177500", "182527.637500", "182528.097500", "182528.557500", "182529.017500", "182529.477500", "182529.937500", "182530.397500", "182530.857500", "182531.317500", "182531.777500", "182532.237500", "182532.697500", "182533.157500", "182533.617500", "182534.077500", "182534.537500", "182534.997500", "182535.457500", "182535.917500", "182536.377500", "182536.837500", "182537.297500", "182537.757500", "182538.217500", "182538.677500", "182539.137500", "182539.597500", "182540.057500", "182540.517500", "182540.977500", "182541.437500", "182541.897500", "182542.357500", "182542.817500", "182543.277500", "182543.737500", "182544.197500", "182544.657500", "182545.117500", "182545.577500", "182546.037500", "182546.497500", "182546.957500", "182547.417500", "182547.877500", "182548.337500", "182548.797500", "182549.257500", "182549.717500", "182550.177500", "182550.637500", "182551.097500", "182551.557500", "182552.017500", "182552.477500", "182552.937500", "182553.397500", "182553.857500", "182554.317500", "182554.777500", "182555.237500", "182555.697500", "182556.157500", "182556.617500", "182557.077500", "182557.537500", "182557.997500", "182558.457500", "182558.917500", "182559.377500", "182559.837500", "182600.297500", "182600.757500", "182601.217500", "182601.677500", "182602.137500", "182602.597500", "182603.057500", "182603.517500", "182603.977500", "182604.437500", "182604.897500", "182605.357500", "182605.817500", "182606.277500", "182606.737500", "182607.197500", "182607.657500", "182608.117500", "182608.577500", "182609.037500", "182609.497500", "182609.957500", "182610.417500", "182610.877500", "182611.337500", "182611.797500", "182612.257500", "182612.717500", "182613.177500", "182613.637500", "182614.097500", "182614.557500", "182615.017500", "182615.477500", "182615.937500", "182616.397500", "182616.857500", "182617.317500", "182617.777500", "182618.237500", "182618.697500", "182619.157500", "182619.617500", "182620.077500", "182620.537500", "182620.997500", "182621.457500", "182621.917500", "182622.377500", "182622.837500", "182623.297500", "182623.757500", "182624.217500", "182624.677500", "182625.137500", "182625.597500", "182626.057500", "182626.517500", "182626.977500", "182627.437500", "182627.897500", "182628.357500", "182628.817500", "182629.277500", "182629.737500", "182630.197500", "182630.657500", "182631.117500", "182631.577500", "182632.037500", "182632.497500", "182632.957500", "182633.417500", "182633.877500", "182634.337500", "182634.797500", "182635.257500", "182635.717500", "182636.177500", "182636.637500", "182637.097500", "182637.557500", "182638.017500", "182638.477500", "182638.937500", "182639.397500", "182639.857500", "182640.317500", "182640.777500", "182641.237500", "182641.697500", "182642.157500", "182642.617500", "182643.077500", "182643.537500", "182643.997500", "182644.457500", "182644.917500", "182645.377500", "182645.837500", "182646.297500", "182646.757500", "182647.217500", "182647.677500", "182648.137500", "182648.597500", "182649.057500", "182649.517500", "182649.977500", "182650.437500", "182650.897500", "182651.357500", "182651.817500", "182652.277500", "182652.737500", "182653.197500", "182653.657500", "182654.117500", "182654.577500", "182655.037500", "182655.497500", "182655.957500", "182656.417500", "182656.877500", "182657.337500", "182657.797500", "182658.257500", "182658.717500", "182659.177500", "182659.637500", "182700.097500", "182700.557500", "182701.017500", "182701.477500", "182701.937500", "182702.397500", "182702.857500", "182703.317500", "182703.777500", "182704.237500", "182704.697500", "182705.157500", "182705.617500", "182706.077500", "182706.537500", "182706.997500", "182707.457500", "182707.917500", "182708.377500", "182708.837500", "182709.297500", "182709.757500", "182710.217500", "182710.677500", "182711.137500", "182711.597500", "182712.057500", "182712.517500", "182712.977500", "182713.437500", "182713.897500", "182714.357500", "182714.817500", "182715.277500", "182715.737500", "182716.197500", "182716.657500", "182717.117500", "182717.577500", "182718.037500", "182718.497500", "182718.957500", "182719.417500", "182719.877500", "182720.337500", "182720.797500", "182721.257500", "182721.717500", "182722.177500", "182722.637500", "182723.097500", "182723.557500", "182724.017500", "182724.477500", "182724.937500", "182725.397500", "182725.857500", "182726.317500", "182726.777500", "182727.237500", "182727.697500", "182728.157500", "182728.617500", "182729.077500", "182729.537500", "182729.997500", "182730.457500", "182730.917500", "182731.377500", "182731.837500", "182732.297500", "182732.757500", "182733.217500", "182733.677500", "182734.137500", "182734.597500", "182735.057500", "182735.517500", "182735.977500", "182736.437500", "182736.897500", "182737.357500", "182737.817500", "182738.277500", "182738.737500", "182739.197500", "182739.657500", "182740.117500", "182740.577500", "182741.037500", "182741.497500", "182741.957500", "182742.417500", "182742.877500", "182743.337500", "182743.797500", "182744.257500", "182744.717500", "182745.177500", "182745.637500", "182746.097500", "182746.557500", "182747.017500", "182747.477500", "182747.937500", "182748.397500", "182748.857500", "182749.317500", "182749.777500", "182750.237500", "182750.697500", "182751.157500", "182751.617500", "182752.077500", "182752.537500", "182752.997500", "182753.457500", "182753.917500", "182754.377500", "182754.837500", "182755.297500", "182755.757500", "182756.217500", "182756.677500", "182757.137500", "182757.597500", "182758.057500", "182758.517500", "182758.977500", "182759.437500", "182759.897500", "182800.357500", "182800.817500", "182801.277500", "182801.737500", "182802.197500", "182802.657500", "182803.117500", "182803.577500", "182804.037500", "182804.497500", "182804.957500", "182805.417500", "182805.877500", "182806.337500", "182806.797500", "182807.257500", "182807.717500", "182808.177500", "182808.637500", "182809.097500", "182809.557500", "182810.017500", "182810.477500", "182810.937500", "182811.397500", "182811.857500", "182812.317500", "182812.777500", "182813.237500", "182813.697500", "182814.157500", "182814.617500", "182815.077500", "182815.537500", "182815.997500", "182816.457500", "182816.917500", "182817.377500", "182817.837500", "182818.297500", "182818.757500", "182819.217500", "182819.677500", "182820.137500", "182820.597500", "182821.057500", "182821.517500", "182821.977500", "182822.437500", "182822.897500", "182823.357500", "182823.817500", "182824.277500", "182824.737500", "182825.197500", "182825.657500", "182826.117500", "182826.577500", "182827.037500", "182827.497500", "182827.957500", "182828.417500", "182828.877500", "182829.337500", "182829.797500", "182830.257500", "182830.717500", "182831.177500", "182831.637500", "182832.097500", "182832.557500", "182833.017500", "182833.477500", "182833.937500", "182834.397500", "182834.857500", "182835.317500", "182835.777500", "182836.237500", "182836.697500", "182837.157500", "182837.617500", "182838.077500", "182838.537500", "182838.997500", "182839.457500", "182839.917500", "182840.377500", "182840.837500", "182841.297500", "182841.757500", "182842.217500", "182842.677500", "182843.137500", "182843.597500", "182844.057500", "182844.517500", "182844.977500", "182845.437500", "182845.897500", "182846.357500", "182846.817500", "182847.277500", "182847.737500", "182848.197500", "182848.657500", "182849.117500", "182849.577500", "182850.037500", "182850.497500", "182850.957500", "182851.417500", "182851.877500", "182852.337500", "182852.797500", "182853.257500", "182853.717500", "182854.177500", "182854.637500", "182855.097500", "182855.557500", "182856.017500", "182856.477500", "182856.937500", "182857.397500", "182857.857500", "182858.317500", "182858.777500", "182859.237500", "182859.697500", "182900.157500", "182900.617500", "182901.077500", "182901.537500", "182901.997500", "182902.457500", "182902.917500", "182903.377500", "182903.837500", "182904.297500", "182904.757500", "182905.217500", "182905.677500", "182906.137500", "182906.597500", "182907.057500", "182907.517500", "182907.977500", "182908.437500", "182908.897500", "182909.357500", "182909.817500", "182910.277500", "182910.737500", "182911.197500", "182911.657500", "182912.117500", "182912.577500", "182913.037500", "182913.497500", "182913.957500", "182914.417500", "182914.877500", "182915.337500", "182915.797500", "182916.257500", "182916.717500", "182917.177500", "182917.637500", "182918.097500", "182918.557500", "182919.017500", "182919.477500", "182919.937500", "182920.397500", "182920.857500", "182921.317500", "182921.777500", "182922.237500", "182922.697500", "182923.157500", "182923.617500", "182924.077500", "182924.537500", "182924.997500", "182925.457500", "182925.917500", "182926.377500", "182926.837500", "182927.297500", "182927.757500", "182928.217500", "182928.677500", "182929.137500", "182929.597500", "182930.057500", "182930.517500", "182930.977500", "182931.437500", "182931.897500", "182932.357500", "182932.817500", "182933.277500", "182933.737500", "182934.197500", "182934.657500", "182935.117500", "182935.577500", "182936.037500", "182936.497500", "182936.957500", "182937.417500", "182937.877500", "182938.337500", "182938.797500", "182939.257500", "182939.717500", "182940.177500", "182940.637500", "182941.097500", "182941.557500", "182942.017500", "182942.477500", "182942.937500", "182943.397500", "182943.857500", "182944.317500", "182944.777500", "182945.237500", "182945.697500", "182946.157500", "182946.617500", "182947.077500", "182947.537500", "182947.997500", "182948.457500", "182948.917500", "182949.377500", "182949.837500", "182950.297500", "182950.757500", "182951.217500", "182951.677500", "182952.137500", "182952.597500", "182953.057500", "182953.517500", "182953.977500", "182954.437500", "182954.897500", "182955.357500", "182955.817500", "182956.277500", "182956.737500", "182957.197500", "182957.657500", "182958.117500", "182958.577500", "182959.037500", "182959.497500", "182959.957500", "183000.417500", "183000.877500", "183001.337500", "183001.797500", "183002.257500", "183002.717500", "183003.177500", "183003.637500", "183004.097500", "183004.557500", "183005.017500", "183005.477500", "183005.937500", "183006.397500", "183006.857500", "183007.317500", "183007.777500", "183008.237500", "183008.697500", "183009.157500", "183009.617500", "183010.077500", "183010.537500", "183010.997500", "183011.457500", "183011.917500", "183012.377500", "183012.837500", "183013.297500", "183013.757500", "183014.217500", "183014.677500", "183015.137500", "183015.597500", "183016.057500", "183016.517500", "183016.977500", "183017.437500", "183017.897500", "183018.357500", "183018.817500", "183019.277500", "183019.737500", "183020.197500", "183020.657500", "183021.117500", "183021.577500", "183022.037500", "183022.497500", "183022.957500", "183023.417500", "183023.877500", "183024.337500", "183024.797500", "183025.257500", "183025.717500", "183026.177500", "183026.637500", "183027.097500", "183027.557500", "183028.017500", "183028.477500", "183028.937500", "183029.397500", "183029.857500", "183030.317500", "183030.777500", "183031.237500", "183031.697500", "183032.157500", "183032.617500", "183033.077500", "183033.537500", "183033.997500"],
