{
  "AcquisitionMatrixPE": 82,
  "AcquisitionNumber": 1,
  "AcquisitionTime": "18:31:0.237500",
  "BandwidthPerPixelPhaseEncode": 24.888,
  "BaseResolution": 82,
  "BodyPartExamined": "BRAIN",
  "ConsistencyInfo": "N4_VE11E_LATEST_20181129",
  "ConversionSoftware": "dcm2niix",
  "ConversionSoftwareVersion": "v1.0.20201102",
  "DerivedVendorReportedEchoSpacing": 0.00049,
  "DeviceSerialNumber": "66112",
  "DwellTime": 2e-06,
  "EchoTime": 0.0272,
  "EchoTrainLength": 82,
  "EffectiveEchoSpacing": 0.00049,
  "FlipAngle": 44,
  "ImageComments": "Unaliased MB8/PE3",
  "ImageOrientationPatientDICOM": [0.999133, 0.0250495, 0.033249, -0.0261632, 0.999096, 0.0334942],
  "ImageType": [
    "ORIGINAL",
    "PRIMARY",
    "M",
    "MB",
    "ND",
    "NORM",
    "MOSAIC"
],
  "ImagingFrequency": 123.259,
  "InPlanePhaseEncodingDirectionDICOM": "COL",
  "InstitutionAddress": "Maynard 3,Hanover,NH,US,03755",
  "InstitutionName": "Dartmouth College - PBS",
  "InstitutionalDepartmentName": "Department",
  "MRAcquisitionType": "2D",
  "MagneticFieldStrength": 3,
  "Manufacturer": "Siemens",
  "ManufacturersModelName": "Prisma",
  "Modality": "MR",
  "MultibandAccelerationFactor": 8,
  "PartialFourier": 1,
  "PatientPosition": "HFS",
  "PercentPhaseFOV": 100,
  "PercentSampling": 100,
  "PhaseEncodingDirection": "j-",
  "PhaseEncodingSteps": 82,
  "PhaseResolution": 1,
  "PixelBandwidth": 3050,
  "ProcedureStepDescription": "Wager_Wager^1076_spacetop",
  "ProtocolName": "func_run-04_task-social_acq-ap-mb8",
  "PulseSequenceDetails": "%CustomerSeq%\\cmrr_mbep2d_bold",
  "ReceiveCoilActiveElements": "HEA;HEP",
  "ReceiveCoilName": "Head_32",
  "ReconMatrixPE": 82,
  "RepetitionTime": 0.46,
  "SAR": 0.108059,
  "ScanOptions": "FS",
  "ScanningSequence": "EP",
  "SequenceName": "epfid2d1_82",
  "SequenceVariant": "SK\\SS",
  "SeriesDescription": "func_run-04_task-social_acq-ap-mb8",
  "SeriesNumber": 18,
  "ShimSetting": [4255, -7770, -7254, 240, -17, -60, -177, 12],
  "SliceThickness": 2.7,
  "SliceTiming": [0, 0.2525, 0.0625, 0.315, 0.1275, 0.3775, 0.19, 0, 0.2525, 0.0625, 0.315, 0.1275, 0.3775, 0.19, 0, 0.2525, 0.0625, 0.315, 0.1275, 0.3775, 0.19, 0, 0.2525, 0.0625, 0.315, 0.1275, 0.3775, 0.19, 0, 0.2525, 0.0625, 0.315, 0.1275, 0.3775, 0.19, 0, 0.2525, 0.0625, 0.315, 0.1275, 0.3775, 0.19, 0, 0.2525, 0.0625, 0.315, 0.1275, 0.3775, 0.19, 0, 0.2525, 0.0625, 0.315, 0.1275, 0.3775, 0.19],
  "SoftwareVersions": "syngo MR E11",
  "SpacingBetweenSlices": 2.7,
  "StationName": "AWP66112",
  "TaskName": "social",
  "TotalReadoutTime": 0.03969,
  "TxRefAmp": 256.653,
  "WipMemBlock": "51d769c9-cd9f-433d-bc28-cf963975d8b8||Sequence: R016 ve11e/master r/434b28f1; Aug  7 2019 18:53:46 by eja",
  "dcmmeta_affine": [
    [-2.680601119995117, -0.07019394636154175, 0.08742575347423553, 111.6570816040039],
    [-0.0672059878706932, 2.6805026531219482, 0.09270472824573517, -88.20968627929688],
    [0.08920454233884811, -0.08986254036426544, 2.696991443634033, -87.2504653930664],
    [0.0, 0.0, 0.0, 1.0]
],
  "dcmmeta_reorient_transform": [
    [0.0, -1.0, 0.0, 81.0],
    [1.0, 0.0, 0.0, 0.0],
    [0.0, 0.0, 1.0, 0.0],
    [0.0, 0.0, 0.0, 1.0]
],
  "dcmmeta_shape": [82, 82, 56, 872],
  "dcmmeta_slice_dim": 2,
  "dcmmeta_version": 0.6,
  "global": {
    "const": {
      "AccessionNumber": "A004325",
      "AcquisitionMatrix": [82, 0, 0, 82],
      "AngioFlag": "N",
      "BitsAllocated": 16,
      "BitsStored": 16,
      "BodyPartExamined": "BRAIN",
      "Columns": 656,
      "EchoNumbers": 1,
      "EchoTime": 27.2,
      "EchoTrainLength": 82,
      "FlipAngle": 44.0,
      "HighBit": 15,
      "ImageOrientationPatient": [0.99913313855803, 0.02504950511633, 0.03324896582774, -0.0261631985189, 0.99909640389848, 0.03349421980575],
      "ImagePositionPatient": [-855.15824404738, -917.5033957857, -145.92158868113],
      "ImageType": [
        "ORIGINAL",
        "PRIMARY",
        "M",
        "MB",
        "ND",
        "NORM",
        "MOSAIC"
],
      "ImagedNucleus": "1H",
      "ImagingFrequency": 123.259143,
      "InPlanePhaseEncodingDirection": "COL",
      "MRAcquisitionType": "2D",
      "MagneticFieldStrength": 3.0,
      "Manufacturer": "SIEMENS",
      "ManufacturerModelName": "Prisma",
      "Modality": "MR",
      "NumberOfAverages": 1.0,
      "NumberOfPhaseEncodingSteps": 82,
      "PercentPhaseFieldOfView": 100.0,
      "PercentSampling": 100.0,
      "PerformedProcedureStepStartTime": "173831.830000",
      "PhotometricInterpretation": "MONOCHROME2",
      "PixelBandwidth": 3050.0,
      "PixelRepresentation": 0,
      "PixelSpacing": [2.6829268932343, 2.6829268932343],
      "ProtocolName": "func_run-04_task-social_acq-ap-mb8",
      "RepetitionTime": 460.0,
      "Rows": 656,
      "SAR": 0.10805893084056,
      "SamplesPerPixel": 1,
      "ScanOptions": "FS",
      "ScanningSequence": "EP",
      "SequenceName": "epfid2d1_82",
      "SequenceVariant": [
        "SK",
        "SS"
],
      "SeriesDescription": "func_run-04_task-social_acq-ap-mb8",
      "SeriesNumber": 18,
      "SeriesTime": "183118.318000",
      "SliceLocation": -86.566486246518,
      "SliceThickness": 2.7000000476837,
      "SmallestImagePixelValue": 0,
      "SoftwareVersions": "syngo MR E11",
      "SpacingBetweenSlices": 2.6999999909394,
      "SpecificCharacterSet": "ISO_IR 100",
      "StudyID": "1",
      "StudyTime": "173831.778000",
      "TransmitCoilName": "Body",
      "VariableFlipAngleFlag": "N",
      "WindowCenterWidthExplanation": "Algo1"
    },
    "slices": {}
  },
  "time": {
    "samples": {
      "AcquisitionNumber": [1, 2, 3, 4, 5, 6, 7, 8, 9, 10, 11, 12, 13, 14, 15, 16, 17, 18, 19, 20, 21, 22, 23, 24, 25, 26, 27, 28, 29, 30, 31, 32, 33, 34, 35, 36, 37, 38, 39, 40, 41, 42, 43, 44, 45, 46, 47, 48, 49, 50, 51, 52, 53, 54, 55, 56, 57, 58, 59, 60, 61, 62, 63, 64, 65, 66, 67, 68, 69, 70, 71, 72, 73, 74, 75, 76, 77, 78, 79, 80, 81, 82, 83, 84, 85, 86, 87, 88, 89, 90, 91, 92, 93, 94, 95, 96, 97, 98, 99, 100, 101, 102, 103, 104, 105, 106, 107, 108, 109, 110, 111, 112, 113, 114, 115, 116, 117, 118, 119, 120, 121, 122, 123, 124, 125, 126, 127, 128, 129, 130, 131, 132, 133, 134, 135, 136, 137, 138, 139, 140, 141, 142, 143, 144, 145, 146, 147, 148, 149, 150, 151, 152, 153, 154, 155, 156, 157, 158, 159, 160, 161, 162, 163, 164, 165, 166, 167, 168, 169, 170, 171, 172, 173, 174, 175, 176, 177, 178, 179, 180, 181, 182, 183, 184, 185, 186, 187, 188, 189, 190, 191, 192, 193, 194, 195, 196, 197, 198, 199, 200, 201, 202, 203, 204, 205, 206, 207, 208, 209, 210, 211, 212, 213, 214, 215, 216, 217, 218, 219, 220, 221, 222, 223, 224, 225, 226, 227, 228, 229, 230, 231, 232, 233, 234, 235, 236, 237, 238, 239, 240, 241, 242, 243, 244, 245, 246, 247, 248, 249, 250, 251, 252, 253, 254, 255, 256, 257, 258, 259, 260, 261, 262, 263, 264, 265, 266, 267, 268, 269, 270, 271, 272, 273, 274, 275, 276, 277, 278, 279, 280, 281, 282, 283, 284, 285, 286, 287, 288, 289, 290, 291, 292, 293, 294, 295, 296, 297, 298, 299, 300, 301, 302, 303, 304, 305, 306, 307, 308, 309, 310, 311, 312, 313, 314, 315, 316, 317, 318, 319, 320, 321, 322, 323, 324, 325, 326, 327, 328, 329, 330, 331, 332, 333, 334, 335, 336, 337, 338, 339, 340, 341, 342, 343, 344, 345, 346, 347, 348, 349, 350, 351, 352, 353, 354, 355, 356, 357, 358, 359, 360, 361, 362, 363, 364, 365, 366, 367, 368, 369, 370, 371, 372, 373, 374, 375, 376, 377, 378, 379, 380, 381, 382, 383, 384, 385, 386, 387, 388, 389, 390, 391, 392, 393, 394, 395, 396, 397, 398, 399, 400, 401, 402, 403, 404, 405, 406, 407, 408, 409, 410, 411, 412, 413, 414, 415, 416, 417, 418, 419, 420, 421, 422, 423, 424, 425, 426, 427, 428, 429, 430, 431, 432, 433, 434, 435, 436, 437, 438, 439, 440, 441, 442, 443, 444, 445, 446, 447, 448, 449, 450, 451, 452, 453, 454, 455, 456, 457, 458, 459, 460, 461, 462, 463, 464, 465, 466, 467, 468, 469, 470, 471, 472, 473, 474, 475, 476, 477, 478, 479, 480, 481, 482, 483, 484, 485, 486, 487, 488, 489, 490, 491, 492, 493, 494, 495, 496, 497, 498, 499, 500, 501, 502, 503, 504, 505, 506, 507, 508, 509, 510, 511, 512, 513, 514, 515, 516, 517, 518, 519, 520, 521, 522, 523, 524, 525, 526, 527, 528, 529, 530, 531, 532, 533, 534, 535, 536, 537, 538, 539, 540, 541, 542, 543, 544, 545, 546, 547, 548, 549, 550, 551, 552, 553, 554, 555, 556, 557, 558, 559, 560, 561, 562, 563, 564, 565, 566, 567, 568, 569, 570, 571, 572, 573, 574, 575, 576, 577, 578, 579, 580, 581, 582, 583, 584, 585, 586, 587, 588, 589, 590, 591, 592, 593, 594, 595, 596, 597, 598, 599, 600, 601, 602, 603, 604, 605, 606, 607, 608, 609, 610, 611, 612, 613, 614, 615, 616, 617, 618, 619, 620, 621, 622, 623, 624, 625, 626, 627, 628, 629, 630, 631, 632, 633, 634, 635, 636, 637, 638, 639, 640, 641, 642, 643, 644, 645, 646, 647, 648, 649, 650, 651, 652, 653, 654, 655, 656, 657, 658, 659, 660, 661, 662, 663, 664, 665, 666, 667, 668, 669, 670, 671, 672, 673, 674, 675, 676, 677, 678, 679, 680, 681, 682, 683, 684, 685, 686, 687, 688, 689, 690, 691, 692, 693, 694, 695, 696, 697, 698, 699, 700, 701, 702, 703, 704, 705, 706, 707, 708, 709, 710, 711, 712, 713, 714, 715, 716, 717, 718, 719, 720, 721, 722, 723, 724, 725, 726, 727, 728, 729, 730, 731, 732, 733, 734, 735, 736, 737, 738, 739, 740, 741, 742, 743, 744, 745, 746, 747, 748, 749, 750, 751, 752, 753, 754, 755, 756, 757, 758, 759, 760, 761, 762, 763, 764, 765, 766, 767, 768, 769, 770, 771, 772, 773, 774, 775, 776, 777, 778, 779, 780, 781, 782, 783, 784, 785, 786, 787, 788, 789, 790, 791, 792, 793, 794, 795, 796, 797, 798, 799, 800, 801, 802, 803, 804, 805, 806, 807, 808, 809, 810, 811, 812, 813, 814, 815, 816, 817, 818, 819, 820, 821, 822, 823, 824, 825, 826, 827, 828, 829, 830, 831, 832, 833, 834, 835, 836, 837, 838, 839, 840, 841, 842, 843, 844, 845, 846, 847, 848, 849, 850, 851, 852, 853, 854, 855, 856, 857, 858, 859, 860, 861, 862, 863, 864, 865, 866, 867, 868, 869, 870, 871, 872],
      "AcquisitionTime": ["183100.237500", "183100.697500", "183101.157500", "183101.617500", "183102.077500", "183102.537500", "183102.997500", "183103.457500", "183103.917500", "183104.377500", "183104.837500", "183105.297500", "183105.757500", "183106.217500", "183106.677500", "183107.137500", "183107.597500", "183108.057500", "183108.517500", "183108.977500", "183109.437500", "183109.897500", "183110.357500", "183110.817500", "183111.277500", "183111.737500", "183112.197500", "183112.657500", "183113.117500", "183113.577500", "183114.037500", "183114.497500", "183114.957500", "183115.417500", "183115.877500", "183116.337500", "183116.797500", "183117.257500", "183117.717500", "183118.177500", "183118.637500", "183119.097500", "183119.557500", "183120.017500", "183120.477500", "183120.937500", "183121.397500", "183121.857500", "183122.317500", "183122.777500", "183123.237500", "183123.697500", "183124.157500", "183124.617500", "183125.077500", "183125.537500", "183125.997500", "183126.457500", "183126.917500", "183127.377500", "183127.837500", "183128.297500", "183128.757500", "183129.217500", "183129.677500", "183130.137500", "183130.597500", "183131.057500", "183131.517500", "183131.977500", "183132.437500", "183132.897500", "183133.357500", "183133.817500", "183134.277500", "183134.737500", "183135.197500", "183135.657500", "183136.117500", "183136.577500", "183137.037500", "183137.497500", "183137.957500", "183138.417500", "183138.877500", "183139.337500", "183139.797500", "183140.257500", "183140.717500", "183141.177500", "183141.637500", "183142.097500", "183142.557500", "183143.017500", "183143.477500", "183143.937500", "183144.397500", "183144.857500", "183145.317500", "183145.777500", "183146.237500", "183146.697500", "183147.157500", "183147.617500", "183148.077500", "183148.537500", "183148.997500", "183149.457500", "183149.917500", "183150.377500", "183150.837500", "183151.297500", "183151.757500", "183152.217500", "183152.677500", "183153.137500", "183153.597500", "183154.057500", "183154.517500", "183154.977500", "183155.437500", "183155.897500", "183156.357500", "183156.817500", "183157.277500", "183157.737500", "183158.197500", "183158.657500", "183159.117500", "183159.577500", "183200.037500", "183200.497500", "183200.957500", "183201.417500", "183201.877500", "183202.337500", "183202.797500", "183203.257500", "183203.717500", "183204.177500", "183204.637500", "183205.097500", "183205.557500", "183206.017500", "183206.477500", "183206.937500", "183207.397500", "183207.857500", "183208.317500", "183208.777500", "183209.237500", "183209.697500", "183210.157500", "183210.617500", "183211.077500", "183211.537500", "183211.997500", "183212.457500", "183212.917500", "183213.377500", "183213.837500", "183214.297500", "183214.757500", "183215.217500", "183215.677500", "183216.137500", "183216.597500", "183217.057500", "183217.517500", "183217.977500", "183218.437500", "183218.897500", "183219.357500", "183219.817500", "183220.277500", "183220.737500", "183221.197500", "183221.657500", "183222.117500", "183222.577500", "183223.037500", "183223.497500", "183223.957500", "183224.417500", "183224.877500", "183225.337500", "183225.797500", "183226.257500", "183226.717500", "183227.177500", "183227.637500", "183228.097500", "183228.557500", "183229.017500", "183229.477500", "183229.937500", "183230.397500", "183230.857500", "183231.317500", "183231.777500", "183232.237500", "183232.697500", "183233.157500", "183233.617500", "183234.077500", "183234.537500", "183234.997500", "183235.457500", "183235.917500", "183236.377500", "183236.837500", "183237.297500", "183237.757500", "183238.217500", "183238.677500", "183239.137500", "183239.597500", "183240.057500", "183240.517500", "183240.977500", "183241.437500", "183241.897500", "183242.357500", "183242.817500", "183243.277500", "183243.737500", "183244.197500", "183244.657500", "183245.117500", "183245.577500", "183246.037500", "183246.497500", "183246.957500", "183247.417500", "183247.877500", "183248.337500", "183248.797500", "183249.257500", "183249.717500", "183250.177500", "183250.637500", "183251.097500", "183251.557500", "183252.017500", "183252.477500", "183252.937500", "183253.397500", "183253.857500", "183254.317500", "183254.777500", "183255.237500", "183255.697500", "183256.157500", "183256.617500", "183257.077500", "183257.537500", "183257.997500", "183258.457500", "183258.917500", "183259.377500", "183259.837500", "183300.297500", "183300.757500", "183301.217500", "183301.677500", "183302.137500", "183302.597500", "183303.057500", "183303.517500", "183303.977500", "183304.437500", "183304.897500", "183305.357500", "183305.817500", "183306.277500", "183306.737500", "183307.197500", "183307.657500", "183308.117500", "183308.577500", "183309.037500", "183309.497500", "183309.957500", "183310.417500", "183310.877500", "183311.337500", "183311.797500", "183312.257500", "183312.717500", "183313.177500", "183313.637500", "183314.097500", "183314.557500", "183315.017500", "183315.477500", "183315.937500", "183316.397500", "183316.857500", "183317.317500", "183317.777500", "183318.237500", "183318.697500", "183319.157500", "183319.617500", "183320.077500", "183320.537500", "183320.997500", "183321.457500", "183321.917500", "183322.377500", "183322.837500", "183323.297500", "183323.757500", "183324.217500", "183324.677500", "183325.137500", "183325.597500", "183326.057500", "183326.517500", "183326.977500", "183327.437500", "183327.897500", "183328.357500", "183328.817500", "183329.277500", "183329.737500", "183330.197500", "183330.657500", "183331.117500", "183331.577500", "183332.037500", "183332.497500", "183332.957500", "183333.417500", "183333.877500", "183334.337500", "183334.797500", "183335.257500", "183335.717500", "183336.177500", "183336.637500", "183337.097500", "183337.557500", "183338.017500", "183338.477500", "183338.937500", "183339.397500", "183339.857500", "183340.317500", "183340.777500", "183341.237500", "183341.697500", "183342.157500", "183342.617500", "183343.077500", "183343.537500", "183343.997500", "183344.457500", "183344.917500", "183345.377500", "183345.837500", "183346.297500", "183346.757500", "183347.217500", "183347.677500", "183348.137500", "183348.597500", "183349.057500", "183349.517500", "183349.977500", "183350.437500", "183350.897500", "183351.357500", "183351.817500", "183352.277500", "183352.737500", "183353.197500", "183353.657500", "183354.117500", "183354.577500", "183355.037500", "183355.497500", "183355.957500", "183356.417500", "183356.877500", "183357.337500", "183357.797500", "183358.257500", "183358.717500", "183359.177500", "183359.637500", "183400.097500", "183400.557500", "183401.017500", "183401.477500", "183401.937500", "183402.397500", "183402.857500", "183403.317500", "183403.777500", "183404.237500", "183404.697500", "183405.157500", "183405.617500", "183406.077500", "183406.537500", "183406.997500", "183407.457500", "183407.917500", "183408.377500", "183408.837500", "183409.297500", "183409.757500", "183410.217500", "183410.677500", "183411.137500", "183411.597500", "183412.057500", "183412.517500", "183412.977500", "183413.437500", "183413.897500", "183414.357500", "183414.817500", "183415.277500", "183415.737500", "183416.197500", "183416.657500", "183417.117500", "183417.577500", "183418.037500", "183418.497500", "183418.957500", "183419.417500", "183419.877500", "183420.337500", "183420.797500", "183421.257500", "183421.717500", "183422.177500", "183422.637500", "183423.097500", "183423.557500", "183424.017500", "183424.477500", "183424.937500", "183425.397500", "183425.857500", "183426.317500", "183426.777500", "183427.237500", "183427.697500", "183428.157500", "183428.617500", "183429.077500", "183429.537500", "183429.997500", "183430.457500", "183430.917500", "183431.377500", "183431.837500", "183432.297500", "183432.757500", "183433.217500", "183433.677500", "183434.137500", "183434.597500", "183435.057500", "183435.517500", "183435.977500", "183436.437500", "183436.897500", "183437.357500", "183437.817500", "183438.277500", "183438.737500", "183439.197500", "183439.657500", "183440.117500", "183440.577500", "183441.037500", "183441.497500", "183441.957500", "183442.417500", "183442.877500", "183443.337500", "183443.797500", "183444.257500", "183444.717500", "183445.177500", "183445.637500", "183446.097500", "183446.557500", "183447.017500", "183447.477500", "183447.937500", "183448.397500", "183448.857500", "183449.317500", "183449.777500", "183450.237500", "183450.697500", "183451.157500", "183451.617500", "183452.077500", "183452.537500", "183452.997500", "183453.457500", "183453.917500", "183454.377500", "183454.837500", "183455.297500", "183455.757500", "183456.217500", "183456.677500", "183457.137500", "183457.597500", "183458.057500", "183458.517500", "183458.977500", "183459.437500", "183459.897500", "183500.357500", "183500.817500", "183501.277500", "183501.737500", "183502.197500", "183502.657500", "183503.117500", "183503.577500", "183504.037500", "183504.497500", "183504.957500", "183505.417500", "183505.877500", "183506.337500", "183506.797500", "183507.257500", "183507.717500", "183508.177500", "183508.637500", "183509.097500", "183509.557500", "183510.017500", "183510.477500", "183510.937500", "183511.397500", "183511.857500", "183512.317500", "183512.777500", "183513.237500", "183513.697500", "183514.157500", "183514.617500", "183515.077500", "183515.537500", "183515.997500", "183516.457500", "183516.917500", "183517.377500", "183517.837500", "183518.297500", "183518.757500", "183519.217500", "183519.677500", "183520.137500", "183520.597500", "183521.057500", "183521.517500", "183521.977500", "183522.437500", "183522.897500", "183523.357500", "183523.817500", "183524.277500", "183524.737500", "183525.197500", "183525.657500", "183526.117500", "183526.577500", "183527.037500", "183527.497500", "183527.957500", "183528.417500", "183528.877500", "183529.337500", "183529.797500", "183530.257500", "183530.717500", "183531.177500", "183531.637500", "183532.097500", "183532.557500", "183533.017500", "183533.477500", "183533.937500", "183534.397500", "183534.857500", "183535.317500", "183535.777500", "183536.237500", "183536.697500", "183537.157500", "183537.617500", "183538.077500", "183538.537500", "183538.997500", "183539.457500", "183539.917500", "183540.377500", "183540.837500", "183541.297500", "183541.757500", "183542.217500", "183542.677500", "183543.137500", "183543.597500", "183544.057500", "183544.517500", "183544.977500", "183545.437500", "183545.897500", "183546.357500", "183546.817500", "183547.277500", "183547.737500", "183548.197500", "183548.657500", "183549.117500", "183549.577500", "183550.037500", "183550.497500", "183550.957500", "183551.417500", "183551.877500", "183552.337500", "183552.797500", "183553.257500", "183553.717500", "183554.177500", "183554.637500", "183555.097500", "183555.557500", "183556.017500", "183556.477500", "183556.937500", "183557.397500", "183557.857500", "183558.317500", "183558.777500", "183559.237500", "183559.697500", "183600.157500", "183600.617500", "183601.077500", "183601.537500", "183601.997500", "183602.457500", "183602.917500", "183603.377500", "183603.837500", "183604.297500", "183604.757500", "183605.217500", "183605.677500", "183606.137500", "183606.597500", "183607.057500", "183607.517500", "183607.977500", "183608.437500", "183608.897500", "183609.357500", "183609.817500", "183610.277500", "183610.737500", "183611.197500", "183611.657500", "183612.117500", "183612.577500", "183613.037500", "183613.497500", "183613.957500", "183614.417500", "183614.877500", "183615.337500", "183615.797500", "183616.257500", "183616.717500", "183617.177500", "183617.637500", "183618.097500", "183618.557500", "183619.017500", "183619.477500", "183619.937500", "183620.397500", "183620.857500", "183621.317500", "183621.777500", "183622.237500", "183622.697500", "183623.157500", "183623.617500", "183624.077500", "183624.537500", "183624.997500", "183625.457500", "183625.917500", "183626.377500", "183626.837500", "183627.297500", "183627.757500", "183628.217500", "183628.677500", "183629.137500", "183629.597500", "183630.057500", "183630.517500", "183630.977500", "183631.437500", "183631.897500", "183632.357500", "183632.817500", "183633.277500", "183633.737500", "183634.197500", "183634.657500", "183635.117500", "183635.577500", "183636.037500", "183636.497500", "183636.957500", "183637.417500", "183637.877500", "183638.337500", "183638.797500", "183639.257500", "183639.717500", "183640.177500", "183640.637500", "183641.097500", "183641.557500", "183642.017500", "183642.477500", "183642.937500", "183643.397500", "183643.857500", "183644.317500", "183644.777500", "183645.237500", "183645.697500", "183646.157500", "183646.617500", "183647.077500", "183647.537500", "183647.997500", "183648.457500", "183648.917500", "183649.377500", "183649.837500", "183650.297500", "183650.757500", "183651.217500", "183651.677500", "183652.137500", "183652.597500", "183653.057500", "183653.517500", "183653.977500", "183654.437500", "183654.897500", "183655.357500", "183655.817500", "183656.277500", "183656.737500", "183657.197500", "183657.657500", "183658.117500", "183658.577500", "183659.037500", "183659.497500", "183659.957500", "183700.417500", "183700.877500", "183701.337500", "183701.797500", "183702.257500", "183702.717500", "183703.177500", "183703.637500", "183704.097500", "183704.557500", "183705.017500", "183705.477500", "183705.937500", "183706.397500", "183706.857500", "183707.317500", "183707.777500", "183708.237500", "183708.697500", "183709.157500", "183709.617500", "183710.077500", "183710.537500", "183710.997500", "183711.457500", "183711.917500", "183712.377500", "183712.837500", "183713.297500", "183713.757500", "183714.217500", "183714.677500", "183715.137500", "183715.597500", "183716.057500", "183716.517500", "183716.977500", "183717.437500", "183717.897500", "183718.357500", "183718.817500", "183719.277500", "183719.737500", "183720.197500", "183720.657500", "183721.117500", "183721.577500", "183722.037500", "183722.497500", "183722.957500", "183723.417500", "183723.877500", "183724.337500", "183724.797500", "183725.257500", "183725.717500", "183726.177500", "183726.637500", "183727.097500", "183727.557500", "183728.017500", "183728.477500", "183728.937500", "183729.397500", "183729.857500", "183730.317500", "183730.777500", "183731.237500", "183731.697500", "183732.157500", "183732.617500", "183733.077500", "183733.537500", "183733.997500", "183734.457500", "183734.917500", "183735.377500", "183735.837500", "183736.297500", "183736.757500", "183737.217500", "183737.677500", "183738.137500", "183738.597500", "183739.057500", "183739.517500", "183739.977500", "183740.437500", "183740.897500"],
