{
  "AcquisitionMatrixPE": 82,
  "AcquisitionNumber": 1,
  "AcquisitionTime": "15:16:37.187500",
  "BandwidthPerPixelPhaseEncode": 24.888,
  "BaseResolution": 82,
  "BodyPartExamined": "BRAIN",
  "ConsistencyInfo": "N4_VE11C_LATEST_20160120",
  "ConversionSoftware": "dcm2niix",
  "ConversionSoftwareVersion": "v1.0.20201102",
  "DerivedVendorReportedEchoSpacing": 0.00049,
  "DeviceSerialNumber": "66112",
  "DwellTime": 2e-06,
  "EchoTime": 0.0272,
  "EchoTrainLength": 82,
  "EffectiveEchoSpacing": 0.00049,
  "FlipAngle": 44,
  "ImageComments": "Unaliased MB8/PE3",
  "ImageOrientationPatientDICOM": [0.997626, 0.0676043, 0.0131461, -0.0683612, 0.995212, 0.069853],
  "ImageType": [
    "ORIGINAL",
    "PRIMARY",
    "M",
    "MB",
    "ND",
    "NORM",
    "MOSAIC"
],
  "ImagingFrequency": 123.252,
  "InPlanePhaseEncodingDirectionDICOM": "COL",
  "InstitutionAddress": "Maynard 3,Hanover,NH,US,03755",
  "InstitutionName": "dartmouth_brain_imaging_center",
  "InstitutionalDepartmentName": "Department",
  "MRAcquisitionType": "2D",
  "MagneticFieldStrength": 3,
  "Manufacturer": "Siemens",
  "ManufacturersModelName": "Prisma",
  "Modality": "MR",
  "MultibandAccelerationFactor": 8,
  "PartialFourier": 1,
  "PatientPosition": "HFS",
  "PercentPhaseFOV": 100,
  "PercentSampling": 100,
  "PhaseEncodingDirection": "j-",
  "PhaseEncodingSteps": 82,
  "PhaseResolution": 1,
  "PixelBandwidth": 3050,
  "ProcedureStepDescription": "Wager_Wager^1076_spacetop",
  "ProtocolName": "func_run-01_task-social_acq-ap-mb8",
  "PulseSequenceDetails": "%CustomerSeq%\\cmrr_mbep2d_bold",
  "ReceiveCoilActiveElements": "HEA;HEP",
  "ReceiveCoilName": "Head_32",
  "ReconMatrixPE": 82,
  "RepetitionTime": 0.46,
  "SAR": 0.105804,
  "ScanOptions": "FS",
  "ScanningSequence": "EP",
  "SequenceName": "epfid2d1_82",
  "SequenceVariant": "SK\\SS",
  "SeriesDescription": "func_run-01_task-social_acq-ap-mb8",
  "SeriesNumber": 12,
  "ShimSetting": [4156, -7781, -7174, 565, -33, -216, -86, 73],
  "SliceThickness": 2.7,
  "SliceTiming": [0, 0.25, 0.0625, 0.315, 0.125, 0.3775, 0.1875, 0, 0.25, 0.0625, 0.315, 0.125, 0.3775, 0.1875, 0, 0.25, 0.0625, 0.315, 0.125, 0.3775, 0.1875, 0, 0.25, 0.0625, 0.315, 0.125, 0.3775, 0.1875, 0, 0.25, 0.0625, 0.315, 0.125, 0.3775, 0.1875, 0, 0.25, 0.0625, 0.315, 0.125, 0.3775, 0.1875, 0, 0.25, 0.0625, 0.315, 0.125, 0.3775, 0.1875, 0, 0.25, 0.0625, 0.315, 0.125, 0.3775, 0.1875],
  "SoftwareVersions": "syngo MR E11",
  "SpacingBetweenSlices": 2.7,
  "StationName": "AWP66112",
  "TaskName": "social",
  "TotalReadoutTime": 0.03969,
  "TxRefAmp": 251.157,
  "WipMemBlock": "d0d7872a-5fee-48b4-8a3b-61041be5411a||Sequence: R016 ve11c/master r/e634e98; Dec 19 2017 11:00:25 by eja",
  "dcmmeta_affine": [
    [-2.6765565872192383, -0.18340805172920227, 0.022574180737137794, 117.70127868652344],
    [-0.18137726187705994, 2.670081615447998, 0.19058163464069366, -87.66722869873047],
    [0.03527004271745682, -0.1874103993177414, 2.6931707859039307, -47.477108001708984],
    [0.0, 0.0, 0.0, 1.0]
],
  "dcmmeta_reorient_transform": [
    [0.0, -1.0, 0.0, 81.0],
    [1.0, 0.0, 0.0, 0.0],
    [0.0, 0.0, 1.0, 0.0],
    [0.0, 0.0, 0.0, 1.0]
],
  "dcmmeta_shape": [82, 82, 56, 872],
  "dcmmeta_slice_dim": 2,
  "dcmmeta_version": 0.6,
  "global": {
    "const": {
      "AccessionNumber": "A003496",
      "AcquisitionMatrix": [82, 0, 0, 82],
      "AngioFlag": "N",
      "BitsAllocated": 16,
      "BitsStored": 16,
      "BodyPartExamined": "BRAIN",
      "Columns": 656,
      "EchoNumbers": 1,
      "EchoTime": 27.2,
      "EchoTrainLength": 82,
      "FlipAngle": 44.0,
      "HighBit": 15,
      "ImageOrientationPatient": [0.99762560383811, 0.06760424888297, 0.01314610587275, -0.0683611839067, 0.99521219418893, 0.0698529675285],
      "ImagePositionPatient": [-818.37884647185, -946.9780619042, -126.56664071071],
      "ImageType": [
        "ORIGINAL",
        "PRIMARY",
        "M",
        "MB",
        "ND",
        "NORM",
        "MOSAIC"
],
      "ImagedNucleus": "1H",
      "ImagingFrequency": 123.252116,
      "InPlanePhaseEncodingDirection": "COL",
      "MRAcquisitionType": "2D",
      "MagneticFieldStrength": 3.0,
      "Manufacturer": "SIEMENS",
      "ManufacturerModelName": "Prisma",
      "Modality": "MR",
      "NumberOfAverages": 1.0,
      "NumberOfPhaseEncodingSteps": 82,
      "PercentPhaseFieldOfView": 100.0,
      "PercentSampling": 100.0,
      "PerformedProcedureStepStartTime": "115920.336000",
      "PhotometricInterpretation": "MONOCHROME2",
      "PixelBandwidth": 3050.0,
      "PixelRepresentation": 0,
      "PixelSpacing": [2.6829268932343, 2.6829268932343],
      "ProtocolName": "func_run-01_task-social_acq-ap-mb8",
      "RepetitionTime": 460.0,
      "Rows": 656,
      "SAR": 0.10580368938758,
      "SamplesPerPixel": 1,
      "ScanOptions": "FS",
      "ScanningSequence": "EP",
      "SequenceName": "epfid2d1_82",
      "SequenceVariant": [
        "SK",
        "SS"
],
      "SeriesDescription": "func_run-01_task-social_acq-ap-mb8",
      "SeriesNumber": 12,
      "SeriesTime": "151653.750000",
      "SliceLocation": -52.561007511512,
      "SliceThickness": 2.7000000476837,
      "SmallestImagePixelValue": 0,
      "SoftwareVersions": "syngo MR E11",
      "SpacingBetweenSlices": 2.6999999749631,
      "SpecificCharacterSet": "ISO_IR 100",
      "StudyID": "1",
      "StudyTime": "115920.207000",
      "TransmitCoilName": "Body",
      "VariableFlipAngleFlag": "N",
      "WindowCenterWidthExplanation": "Algo1",
      "dBdt": 0.0},
    "slices": {}
  },
  "time": {
    "samples": {
      "AcquisitionNumber": [1, 2, 3, 4, 5, 6, 7, 8, 9, 10, 11, 12, 13, 14, 15, 16, 17, 18, 19, 20, 21, 22, 23, 24, 25, 26, 27, 28, 29, 30, 31, 32, 33, 34, 35, 36, 37, 38, 39, 40, 41, 42, 43, 44, 45, 46, 47, 48, 49, 50, 51, 52, 53, 54, 55, 56, 57, 58, 59, 60, 61, 62, 63, 64, 65, 66, 67, 68, 69, 70, 71, 72, 73, 74, 75, 76, 77, 78, 79, 80, 81, 82, 83, 84, 85, 86, 87, 88, 89, 90, 91, 92, 93, 94, 95, 96, 97, 98, 99, 100, 101, 102, 103, 104, 105, 106, 107, 108, 109, 110, 111, 112, 113, 114, 115, 116, 117, 118, 119, 120, 121, 122, 123, 124, 125, 126, 127, 128, 129, 130, 131, 132, 133, 134, 135, 136, 137, 138, 139, 140, 141, 142, 143, 144, 145, 146, 147, 148, 149, 150, 151, 152, 153, 154, 155, 156, 157, 158, 159, 160, 161, 162, 163, 164, 165, 166, 167, 168, 169, 170, 171, 172, 173, 174, 175, 176, 177, 178, 179, 180, 181, 182, 183, 184, 185, 186, 187, 188, 189, 190, 191, 192, 193, 194, 195, 196, 197, 198, 199, 200, 201, 202, 203, 204, 205, 206, 207, 208, 209, 210, 211, 212, 213, 214, 215, 216, 217, 218, 219, 220, 221, 222, 223, 224, 225, 226, 227, 228, 229, 230, 231, 232, 233, 234, 235, 236, 237, 238, 239, 240, 241, 242, 243, 244, 245, 246, 247, 248, 249, 250, 251, 252, 253, 254, 255, 256, 257, 258, 259, 260, 261, 262, 263, 264, 265, 266, 267, 268, 269, 270, 271, 272, 273, 274, 275, 276, 277, 278, 279, 280, 281, 282, 283, 284, 285, 286, 287, 288, 289, 290, 291, 292, 293, 294, 295, 296, 297, 298, 299, 300, 301, 302, 303, 304, 305, 306, 307, 308, 309, 310, 311, 312, 313, 314, 315, 316, 317, 318, 319, 320, 321, 322, 323, 324, 325, 326, 327, 328, 329, 330, 331, 332, 333, 334, 335, 336, 337, 338, 339, 340, 341, 342, 343, 344, 345, 346, 347, 348, 349, 350, 351, 352, 353, 354, 355, 356, 357, 358, 359, 360, 361, 362, 363, 364, 365, 366, 367, 368, 369, 370, 371, 372, 373, 374, 375, 376, 377, 378, 379, 380, 381, 382, 383, 384, 385, 386, 387, 388, 389, 390, 391, 392, 393, 394, 395, 396, 397, 398, 399, 400, 401, 402, 403, 404, 405, 406, 407, 408, 409, 410, 411, 412, 413, 414, 415, 416, 417, 418, 419, 420, 421, 422, 423, 424, 425, 426, 427, 428, 429, 430, 431, 432, 433, 434, 435, 436, 437, 438, 439, 440, 441, 442, 443, 444, 445, 446, 447, 448, 449, 450, 451, 452, 453, 454, 455, 456, 457, 458, 459, 460, 461, 462, 463, 464, 465, 466, 467, 468, 469, 470, 471, 472, 473, 474, 475, 476, 477, 478, 479, 480, 481, 482, 483, 484, 485, 486, 487, 488, 489, 490, 491, 492, 493, 494, 495, 496, 497, 498, 499, 500, 501, 502, 503, 504, 505, 506, 507, 508, 509, 510, 511, 512, 513, 514, 515, 516, 517, 518, 519, 520, 521, 522, 523, 524, 525, 526, 527, 528, 529, 530, 531, 532, 533, 534, 535, 536, 537, 538, 539, 540, 541, 542, 543, 544, 545, 546, 547, 548, 549, 550, 551, 552, 553, 554, 555, 556, 557, 558, 559, 560, 561, 562, 563, 564, 565, 566, 567, 568, 569, 570, 571, 572, 573, 574, 575, 576, 577, 578, 579, 580, 581, 582, 583, 584, 585, 586, 587, 588, 589, 590, 591, 592, 593, 594, 595, 596, 597, 598, 599, 600, 601, 602, 603, 604, 605, 606, 607, 608, 609, 610, 611, 612, 613, 614, 615, 616, 617, 618, 619, 620, 621, 622, 623, 624, 625, 626, 627, 628, 629, 630, 631, 632, 633, 634, 635, 636, 637, 638, 639, 640, 641, 642, 643, 644, 645, 646, 647, 648, 649, 650, 651, 652, 653, 654, 655, 656, 657, 658, 659, 660, 661, 662, 663, 664, 665, 666, 667, 668, 669, 670, 671, 672, 673, 674, 675, 676, 677, 678, 679, 680, 681, 682, 683, 684, 685, 686, 687, 688, 689, 690, 691, 692, 693, 694, 695, 696, 697, 698, 699, 700, 701, 702, 703, 704, 705, 706, 707, 708, 709, 710, 711, 712, 713, 714, 715, 716, 717, 718, 719, 720, 721, 722, 723, 724, 725, 726, 727, 728, 729, 730, 731, 732, 733, 734, 735, 736, 737, 738, 739, 740, 741, 742, 743, 744, 745, 746, 747, 748, 749, 750, 751, 752, 753, 754, 755, 756, 757, 758, 759, 760, 761, 762, 763, 764, 765, 766, 767, 768, 769, 770, 771, 772, 773, 774, 775, 776, 777, 778, 779, 780, 781, 782, 783, 784, 785, 786, 787, 788, 789, 790, 791, 792, 793, 794, 795, 796, 797, 798, 799, 800, 801, 802, 803, 804, 805, 806, 807, 808, 809, 810, 811, 812, 813, 814, 815, 816, 817, 818, 819, 820, 821, 822, 823, 824, 825, 826, 827, 828, 829, 830, 831, 832, 833, 834, 835, 836, 837, 838, 839, 840, 841, 842, 843, 844, 845, 846, 847, 848, 849, 850, 851, 852, 853, 854, 855, 856, 857, 858, 859, 860, 861, 862, 863, 864, 865, 866, 867, 868, 869, 870, 871, 872],
      "AcquisitionTime": ["151637.187500", "151637.647500", "151638.107500", "151638.567500", "151639.027500", "151639.487500", "151639.947500", "151640.407500", "151640.867500", "151641.327500", "151641.787500", "151642.247500", "151642.707500", "151643.167500", "151643.627500", "151644.087500", "151644.547500", "151645.007500", "151645.467500", "151645.927500", "151646.387500", "151646.847500", "151647.307500", "151647.767500", "151648.227500", "151648.687500", "151649.147500", "151649.607500", "151650.067500", "151650.527500", "151650.987500", "151651.447500", "151651.907500", "151652.367500", "151652.827500", "151653.287500", "151653.747500", "151654.207500", "151654.667500", "151655.127500", "151655.587500", "151656.047500", "151656.507500", "151656.967500", "151657.427500", "151657.887500", "151658.347500", "151658.807500", "151659.267500", "151659.727500", "151700.187500", "151700.647500", "151701.107500", "151701.567500", "151702.027500", "151702.487500", "151702.947500", "151703.407500", "151703.867500", "151704.327500", "151704.787500", "151705.247500", "151705.707500", "151706.167500", "151706.627500", "151707.087500", "151707.547500", "151708.007500", "151708.467500", "151708.927500", "151709.387500", "151709.847500", "151710.307500", "151710.767500", "151711.227500", "151711.687500", "151712.147500", "151712.607500", "151713.067500", "151713.527500", "151713.987500", "151714.447500", "151714.907500", "151715.367500", "151715.827500", "151716.287500", "151716.747500", "151717.207500", "151717.667500", "151718.127500", "151718.587500", "151719.047500", "151719.507500", "151719.967500", "151720.427500", "151720.887500", "151721.347500", "151721.807500", "151722.267500", "151722.727500", "151723.187500", "151723.647500", "151724.107500", "151724.567500", "151725.027500", "151725.487500", "151725.947500", "151726.407500", "151726.867500", "151727.327500", "151727.787500", "151728.247500", "151728.707500", "151729.167500", "151729.627500", "151730.087500", "151730.547500", "151731.007500", "151731.467500", "151731.927500", "151732.387500", "151732.847500", "151733.307500", "151733.767500", "151734.227500", "151734.687500", "151735.147500", "151735.607500", "151736.067500", "151736.527500", "151736.987500", "151737.447500", "151737.907500", "151738.367500", "151738.827500", "151739.287500", "151739.747500", "151740.207500", "151740.667500", "151741.127500", "151741.587500", "151742.047500", "151742.507500", "151742.967500", "151743.427500", "151743.887500", "151744.347500", "151744.807500", "151745.267500", "151745.727500", "151746.187500", "151746.647500", "151747.107500", "151747.567500", "151748.027500", "151748.487500", "151748.947500", "151749.407500", "151749.867500", "151750.327500", "151750.787500", "151751.247500", "151751.707500", "151752.167500", "151752.627500", "151753.087500", "151753.547500", "151754.007500", "151754.467500", "151754.927500", "151755.387500", "151755.847500", "151756.307500", "151756.767500", "151757.227500", "151757.687500", "151758.147500", "151758.607500", "151759.067500", "151759.527500", "151759.987500", "151800.447500", "151800.907500", "151801.367500", "151801.827500", "151802.287500", "151802.747500", "151803.207500", "151803.667500", "151804.127500", "151804.587500", "151805.047500", "151805.507500", "151805.967500", "151806.427500", "151806.887500", "151807.347500", "151807.807500", "151808.267500", "151808.727500", "151809.187500", "151809.647500", "151810.107500", "151810.567500", "151811.027500", "151811.487500", "151811.947500", "151812.407500", "151812.867500", "151813.327500", "151813.787500", "151814.247500", "151814.707500", "151815.167500", "151815.627500", "151816.087500", "151816.547500", "151817.007500", "151817.467500", "151817.927500", "151818.387500", "151818.847500", "151819.307500", "151819.767500", "151820.227500", "151820.687500", "151821.147500", "151821.607500", "151822.067500", "151822.527500", "151822.987500", "151823.447500", "151823.907500", "151824.367500", "151824.827500", "151825.287500", "151825.747500", "151826.207500", "151826.667500", "151827.127500", "151827.587500", "151828.047500", "151828.507500", "151828.967500", "151829.427500", "151829.887500", "151830.347500", "151830.807500", "151831.267500", "151831.727500", "151832.187500", "151832.647500", "151833.107500", "151833.567500", "151834.027500", "151834.487500", "151834.947500", "151835.407500", "151835.867500", "151836.327500", "151836.787500", "151837.247500", "151837.707500", "151838.167500", "151838.627500", "151839.087500", "151839.547500", "151840.007500", "151840.467500", "151840.927500", "151841.387500", "151841.847500", "151842.307500", "151842.767500", "151843.227500", "151843.687500", "151844.147500", "151844.607500", "151845.067500", "151845.527500", "151845.987500", "151846.447500", "151846.907500", "151847.367500", "151847.827500", "151848.287500", "151848.747500", "151849.207500", "151849.667500", "151850.127500", "151850.587500", "151851.047500", "151851.507500", "151851.967500", "151852.427500", "151852.887500", "151853.347500", "151853.807500", "151854.267500", "151854.727500", "151855.187500", "151855.647500", "151856.107500", "151856.567500", "151857.027500", "151857.487500", "151857.947500", "151858.407500", "151858.867500", "151859.327500", "151859.787500", "151900.247500", "151900.707500", "151901.167500", "151901.627500", "151902.087500", "151902.547500", "151903.007500", "151903.467500", "151903.927500", "151904.387500", "151904.847500", "151905.307500", "151905.767500", "151906.227500", "151906.687500", "151907.147500", "151907.607500", "151908.067500", "151908.527500", "151908.987500", "151909.447500", "151909.907500", "151910.367500", "151910.827500", "151911.287500", "151911.747500", "151912.207500", "151912.667500", "151913.127500", "151913.587500", "151914.047500", "151914.507500", "151914.967500", "151915.427500", "151915.887500", "151916.347500", "151916.807500", "151917.267500", "151917.727500", "151918.187500", "151918.647500", "151919.107500", "151919.567500", "151920.027500", "151920.487500", "151920.947500", "151921.407500", "151921.867500", "151922.327500", "151922.787500", "151923.247500", "151923.707500", "151924.167500", "151924.627500", "151925.087500", "151925.547500", "151926.007500", "151926.467500", "151926.927500", "151927.387500", "151927.847500", "151928.307500", "151928.767500", "151929.227500", "151929.687500", "151930.147500", "151930.607500", "151931.067500", "151931.527500", "151931.987500", "151932.447500", "151932.907500", "151933.367500", "151933.827500", "151934.287500", "151934.747500", "151935.207500", "151935.667500", "151936.127500", "151936.587500", "151937.047500", "151937.507500", "151937.967500", "151938.427500", "151938.887500", "151939.347500", "151939.807500", "151940.267500", "151940.727500", "151941.187500", "151941.647500", "151942.107500", "151942.567500", "151943.027500", "151943.487500", "151943.947500", "151944.407500", "151944.867500", "151945.327500", "151945.787500", "151946.247500", "151946.707500", "151947.167500", "151947.627500", "151948.087500", "151948.547500", "151949.007500", "151949.467500", "151949.927500", "151950.387500", "151950.847500", "151951.307500", "151951.767500", "151952.227500", "151952.687500", "151953.147500", "151953.607500", "151954.067500", "151954.527500", "151954.987500", "151955.447500", "151955.907500", "151956.367500", "151956.827500", "151957.287500", "151957.747500", "151958.207500", "151958.667500", "151959.127500", "151959.587500", "152000.047500", "152000.507500", "152000.967500", "152001.427500", "152001.887500", "152002.347500", "152002.807500", "152003.267500", "152003.727500", "152004.187500", "152004.647500", "152005.107500", "152005.567500", "152006.027500", "152006.487500", "152006.947500", "152007.407500", "152007.867500", "152008.327500", "152008.787500", "152009.247500", "152009.707500", "152010.167500", "152010.627500", "152011.087500", "152011.547500", "152012.007500", "152012.467500", "152012.927500", "152013.387500", "152013.847500", "152014.307500", "152014.767500", "152015.227500", "152015.687500", "152016.147500", "152016.607500", "152017.067500", "152017.527500", "152017.987500", "152018.447500", "152018.907500", "152019.367500", "152019.827500", "152020.287500", "152020.747500", "152021.207500", "152021.667500", "152022.127500", "152022.587500", "152023.047500", "152023.507500", "152023.967500", "152024.427500", "152024.887500", "152025.347500", "152025.807500", "152026.267500", "152026.727500", "152027.187500", "152027.647500", "152028.107500", "152028.567500", "152029.027500", "152029.487500", "152029.947500", "152030.407500", "152030.867500", "152031.327500", "152031.787500", "152032.247500", "152032.707500", "152033.167500", "152033.627500", "152034.087500", "152034.547500", "152035.007500", "152035.467500", "152035.927500", "152036.387500", "152036.847500", "152037.307500", "152037.767500", "152038.227500", "152038.687500", "152039.147500", "152039.607500", "152040.067500", "152040.527500", "152040.987500", "152041.447500", "152041.907500", "152042.367500", "152042.827500", "152043.287500", "152043.747500", "152044.207500", "152044.667500", "152045.127500", "152045.587500", "152046.047500", "152046.507500", "152046.967500", "152047.427500", "152047.887500", "152048.347500", "152048.807500", "152049.267500", "152049.727500", "152050.187500", "152050.647500", "152051.107500", "152051.567500", "152052.027500", "152052.487500", "152052.947500", "152053.407500", "152053.867500", "152054.327500", "152054.787500", "152055.247500", "152055.707500", "152056.167500", "152056.627500", "152057.087500", "152057.547500", "152058.007500", "152058.467500", "152058.927500", "152059.387500", "152059.847500", "152100.307500", "152100.767500", "152101.227500", "152101.687500", "152102.147500", "152102.607500", "152103.067500", "152103.527500", "152103.987500", "152104.447500", "152104.907500", "152105.367500", "152105.827500", "152106.287500", "152106.747500", "152107.207500", "152107.667500", "152108.127500", "152108.587500", "152109.047500", "152109.507500", "152109.967500", "152110.427500", "152110.887500", "152111.347500", "152111.807500", "152112.267500", "152112.727500", "152113.187500", "152113.647500", "152114.107500", "152114.567500", "152115.027500", "152115.487500", "152115.947500", "152116.407500", "152116.867500", "152117.327500", "152117.787500", "152118.247500", "152118.707500", "152119.167500", "152119.627500", "152120.087500", "152120.547500", "152121.007500", "152121.467500", "152121.927500", "152122.387500", "152122.847500", "152123.307500", "152123.767500", "152124.227500", "152124.687500", "152125.147500", "152125.607500", "152126.067500", "152126.527500", "152126.987500", "152127.447500", "152127.907500", "152128.367500", "152128.827500", "152129.287500", "152129.747500", "152130.207500", "152130.667500", "152131.127500", "152131.587500", "152132.047500", "152132.507500", "152132.967500", "152133.427500", "152133.887500", "152134.347500", "152134.807500", "152135.267500", "152135.727500", "152136.187500", "152136.647500", "152137.107500", "152137.567500", "152138.027500", "152138.487500", "152138.947500", "152139.407500", "152139.867500", "152140.327500", "152140.787500", "152141.247500", "152141.707500", "152142.167500", "152142.627500", "152143.087500", "152143.547500", "152144.007500", "152144.467500", "152144.927500", "152145.387500", "152145.847500", "152146.307500", "152146.767500", "152147.227500", "152147.687500", "152148.147500", "152148.607500", "152149.067500", "152149.527500", "152149.987500", "152150.447500", "152150.907500", "152151.367500", "152151.827500", "152152.287500", "152152.747500", "152153.207500", "152153.667500", "152154.127500", "152154.587500", "152155.047500", "152155.507500", "152155.967500", "152156.427500", "152156.887500", "152157.347500", "152157.807500", "152158.267500", "152158.727500", "152159.187500", "152159.647500", "152200.107500", "152200.567500", "152201.027500", "152201.487500", "152201.947500", "152202.407500", "152202.867500", "152203.327500", "152203.787500", "152204.247500", "152204.707500", "152205.167500", "152205.627500", "152206.087500", "152206.547500", "152207.007500", "152207.467500", "152207.927500", "152208.387500", "152208.847500", "152209.307500", "152209.767500", "152210.227500", "152210.687500", "152211.147500", "152211.607500", "152212.067500", "152212.527500", "152212.987500", "152213.447500", "152213.907500", "152214.367500", "152214.827500", "152215.287500", "152215.747500", "152216.207500", "152216.667500", "152217.127500", "152217.587500", "152218.047500", "152218.507500", "152218.967500", "152219.427500", "152219.887500", "152220.347500", "152220.807500", "152221.267500", "152221.727500", "152222.187500", "152222.647500", "152223.107500", "152223.567500", "152224.027500", "152224.487500", "152224.947500", "152225.407500", "152225.867500", "152226.327500", "152226.787500", "152227.247500", "152227.707500", "152228.167500", "152228.627500", "152229.087500", "152229.547500", "152230.007500", "152230.467500", "152230.927500", "152231.387500", "152231.847500", "152232.307500", "152232.767500", "152233.227500", "152233.687500", "152234.147500", "152234.607500", "152235.067500", "152235.527500", "152235.987500", "152236.447500", "152236.907500", "152237.367500", "152237.827500", "152238.287500", "152238.747500", "152239.207500", "152239.667500", "152240.127500", "152240.587500", "152241.047500", "152241.507500", "152241.967500", "152242.427500", "152242.887500", "152243.347500", "152243.807500", "152244.267500", "152244.727500", "152245.187500", "152245.647500", "152246.107500", "152246.567500", "152247.027500", "152247.487500", "152247.947500", "152248.407500", "152248.867500", "152249.327500", "152249.787500", "152250.247500", "152250.707500", "152251.167500", "152251.627500", "152252.087500", "152252.547500", "152253.007500", "152253.467500", "152253.927500", "152254.387500", "152254.847500", "152255.307500", "152255.767500", "152256.227500", "152256.687500", "152257.147500", "152257.607500", "152258.067500", "152258.527500", "152258.987500", "152259.447500", "152259.907500", "152300.367500", "152300.827500", "152301.287500", "152301.747500", "152302.207500", "152302.667500", "152303.127500", "152303.587500", "152304.047500", "152304.507500", "152304.967500", "152305.427500", "152305.887500", "152306.347500", "152306.807500", "152307.267500", "152307.727500", "152308.187500", "152308.647500", "152309.107500", "152309.567500", "152310.027500", "152310.487500", "152310.947500", "152311.407500", "152311.867500", "152312.327500", "152312.787500", "152313.247500", "152313.707500", "152314.167500", "152314.627500", "152315.087500", "152315.547500", "152316.007500", "152316.467500", "152316.927500", "152317.387500", "152317.847500"],
