{
  "AcquisitionMatrixPE": 82,
  "AcquisitionNumber": 1,
  "AcquisitionTime": "15:30:41.680000",
  "BandwidthPerPixelPhaseEncode": 24.888,
  "BaseResolution": 82,
  "BodyPartExamined": "BRAIN",
  "ConsistencyInfo": "N4_VE11C_LATEST_20160120",
  "ConversionSoftware": "dcm2niix",
  "ConversionSoftwareVersion": "v1.0.20201102",
  "DerivedVendorReportedEchoSpacing": 0.00049,
  "DeviceSerialNumber": "66112",
  "DwellTime": 2e-06,
  "EchoTime": 0.0272,
  "EchoTrainLength": 82,
  "EffectiveEchoSpacing": 0.00049,
  "FlipAngle": 44,
  "ImageComments": "Unaliased MB8/PE3",
  "ImageOrientationPatientDICOM": [0.997626, 0.0676043, 0.0131461, -0.0683612, 0.995212, 0.069853],
  "ImageType": [
    "ORIGINAL",
    "PRIMARY",
    "M",
    "MB",
    "ND",
    "NORM",
    "MOSAIC"
],
  "ImagingFrequency": 123.252,
  "InPlanePhaseEncodingDirectionDICOM": "COL",
  "InstitutionAddress": "Maynard 3,Hanover,NH,US,03755",
  "InstitutionName": "dartmouth_brain_imaging_center",
  "InstitutionalDepartmentName": "Department",
  "MRAcquisitionType": "2D",
  "MagneticFieldStrength": 3,
  "Manufacturer": "Siemens",
  "ManufacturersModelName": "Prisma",
  "Modality": "MR",
  "MultibandAccelerationFactor": 8,
  "PartialFourier": 1,
  "PatientPosition": "HFS",
  "PercentPhaseFOV": 100,
  "PercentSampling": 100,
  "PhaseEncodingDirection": "j-",
  "PhaseEncodingSteps": 82,
  "PhaseResolution": 1,
  "PixelBandwidth": 3050,
  "ProcedureStepDescription": "Wager_Wager^1076_spacetop",
  "ProtocolName": "func_run-03_task-social_acq-ap-mb8",
  "PulseSequenceDetails": "%CustomerSeq%\\cmrr_mbep2d_bold",
  "ReceiveCoilActiveElements": "HEA;HEP",
  "ReceiveCoilName": "Head_32",
  "ReconMatrixPE": 82,
  "RepetitionTime": 0.46,
  "SAR": 0.105804,
  "ScanOptions": "FS",
  "ScanningSequence": "EP",
  "SequenceName": "epfid2d1_82",
  "SequenceVariant": "SK\\SS",
  "SeriesDescription": "func_run-03_task-social_acq-ap-mb8",
  "SeriesNumber": 16,
  "ShimSetting": [4156, -7781, -7174, 565, -33, -216, -86, 73],
  "SliceThickness": 2.7,
  "SliceTiming": [0, 0.25, 0.0625, 0.3125, 0.125, 0.375, 0.1875, 0, 0.25, 0.0625, 0.3125, 0.125, 0.375, 0.1875, 0, 0.25, 0.0625, 0.3125, 0.125, 0.375, 0.1875, 0, 0.25, 0.0625, 0.3125, 0.125, 0.375, 0.1875, 0, 0.25, 0.0625, 0.3125, 0.125, 0.375, 0.1875, 0, 0.25, 0.0625, 0.3125, 0.125, 0.375, 0.1875, 0, 0.25, 0.0625, 0.3125, 0.125, 0.375, 0.1875, 0, 0.25, 0.0625, 0.3125, 0.125, 0.375, 0.1875],
  "SoftwareVersions": "syngo MR E11",
  "SpacingBetweenSlices": 2.7,
  "StationName": "AWP66112",
  "TaskName": "social",
  "TotalReadoutTime": 0.03969,
  "TxRefAmp": 251.157,
  "WipMemBlock": "69b46d7e-5d37-4567-8670-23d1f3fe9d91||Sequence: R016 ve11c/master r/e634e98; Dec 19 2017 11:00:25 by eja",
  "dcmmeta_affine": [
    [-2.6765565872192383, -0.18340805172920227, 0.022574180737137794, 117.70127868652344],
    [-0.18137726187705994, 2.670081615447998, 0.19058163464069366, -87.66722869873047],
    [0.03527004271745682, -0.1874103993177414, 2.6931707859039307, -47.477108001708984],
    [0.0, 0.0, 0.0, 1.0]
],
  "dcmmeta_reorient_transform": [
    [0.0, -1.0, 0.0, 81.0],
    [1.0, 0.0, 0.0, 0.0],
    [0.0, 0.0, 1.0, 0.0],
    [0.0, 0.0, 0.0, 1.0]
],
  "dcmmeta_shape": [82, 82, 56, 872],
  "dcmmeta_slice_dim": 2,
  "dcmmeta_version": 0.6,
  "global": {
    "const": {
      "AccessionNumber": "A003496",
      "AcquisitionMatrix": [82, 0, 0, 82],
      "AngioFlag": "N",
      "BitsAllocated": 16,
      "BitsStored": 16,
      "BodyPartExamined": "BRAIN",
      "Columns": 656,
      "EchoNumbers": 1,
      "EchoTime": 27.2,
      "EchoTrainLength": 82,
      "FlipAngle": 44.0,
      "HighBit": 15,
      "ImageOrientationPatient": [0.99762560383811, 0.06760424888297, 0.01314610587275, -0.0683611839067, 0.99521219418893, 0.0698529675285],
      "ImagePositionPatient": [-818.37884647185, -946.9780619042, -126.56664071071],
      "ImageType": [
        "ORIGINAL",
        "PRIMARY",
        "M",
        "MB",
        "ND",
        "NORM",
        "MOSAIC"
],
      "ImagedNucleus": "1H",
      "ImagingFrequency": 123.252134,
      "InPlanePhaseEncodingDirection": "COL",
      "MRAcquisitionType": "2D",
      "MagneticFieldStrength": 3.0,
      "Manufacturer": "SIEMENS",
      "ManufacturerModelName": "Prisma",
      "Modality": "MR",
      "NumberOfAverages": 1.0,
      "NumberOfPhaseEncodingSteps": 82,
      "PercentPhaseFieldOfView": 100.0,
      "PercentSampling": 100.0,
      "PerformedProcedureStepStartTime": "115920.336000",
      "PhotometricInterpretation": "MONOCHROME2",
      "PixelBandwidth": 3050.0,
      "PixelRepresentation": 0,
      "PixelSpacing": [2.6829268932343, 2.6829268932343],
      "ProtocolName": "func_run-03_task-social_acq-ap-mb8",
      "RepetitionTime": 460.0,
      "Rows": 656,
      "SAR": 0.10580368938758,
      "SamplesPerPixel": 1,
      "ScanOptions": "FS",
      "ScanningSequence": "EP",
      "SequenceName": "epfid2d1_82",
      "SequenceVariant": [
        "SK",
        "SS"
],
      "SeriesDescription": "func_run-03_task-social_acq-ap-mb8",
      "SeriesNumber": 16,
      "SeriesTime": "153053.882000",
      "SliceLocation": -52.561007511512,
      "SliceThickness": 2.7000000476837,
      "SmallestImagePixelValue": 0,
      "SoftwareVersions": "syngo MR E11",
      "SpacingBetweenSlices": 2.6999999749631,
      "SpecificCharacterSet": "ISO_IR 100",
      "StudyID": "1",
      "StudyTime": "115920.207000",
      "TransmitCoilName": "Body",
      "VariableFlipAngleFlag": "N",
      "WindowCenterWidthExplanation": "Algo1",
      "dBdt": 0.0},
    "slices": {}
  },
  "time": {
    "samples": {
      "AcquisitionNumber": [1, 2, 3, 4, 5, 6, 7, 8, 9, 10, 11, 12, 13, 14, 15, 16, 17, 18, 19, 20, 21, 22, 23, 24, 25, 26, 27, 28, 29, 30, 31, 32, 33, 34, 35, 36, 37, 38, 39, 40, 41, 42, 43, 44, 45, 46, 47, 48, 49, 50, 51, 52, 53, 54, 55, 56, 57, 58, 59, 60, 61, 62, 63, 64, 65, 66, 67, 68, 69, 70, 71, 72, 73, 74, 75, 76, 77, 78, 79, 80, 81, 82, 83, 84, 85, 86, 87, 88, 89, 90, 91, 92, 93, 94, 95, 96, 97, 98, 99, 100, 101, 102, 103, 104, 105, 106, 107, 108, 109, 110, 111, 112, 113, 114, 115, 116, 117, 118, 119, 120, 121, 122, 123, 124, 125, 126, 127, 128, 129, 130, 131, 132, 133, 134, 135, 136, 137, 138, 139, 140, 141, 142, 143, 144, 145, 146, 147, 148, 149, 150, 151, 152, 153, 154, 155, 156, 157, 158, 159, 160, 161, 162, 163, 164, 165, 166, 167, 168, 169, 170, 171, 172, 173, 174, 175, 176, 177, 178, 179, 180, 181, 182, 183, 184, 185, 186, 187, 188, 189, 190, 191, 192, 193, 194, 195, 196, 197, 198, 199, 200, 201, 202, 203, 204, 205, 206, 207, 208, 209, 210, 211, 212, 213, 214, 215, 216, 217, 218, 219, 220, 221, 222, 223, 224, 225, 226, 227, 228, 229, 230, 231, 232, 233, 234, 235, 236, 237, 238, 239, 240, 241, 242, 243, 244, 245, 246, 247, 248, 249, 250, 251, 252, 253, 254, 255, 256, 257, 258, 259, 260, 261, 262, 263, 264, 265, 266, 267, 268, 269, 270, 271, 272, 273, 274, 275, 276, 277, 278, 279, 280, 281, 282, 283, 284, 285, 286, 287, 288, 289, 290, 291, 292, 293, 294, 295, 296, 297, 298, 299, 300, 301, 302, 303, 304, 305, 306, 307, 308, 309, 310, 311, 312, 313, 314, 315, 316, 317, 318, 319, 320, 321, 322, 323, 324, 325, 326, 327, 328, 329, 330, 331, 332, 333, 334, 335, 336, 337, 338, 339, 340, 341, 342, 343, 344, 345, 346, 347, 348, 349, 350, 351, 352, 353, 354, 355, 356, 357, 358, 359, 360, 361, 362, 363, 364, 365, 366, 367, 368, 369, 370, 371, 372, 373, 374, 375, 376, 377, 378, 379, 380, 381, 382, 383, 384, 385, 386, 387, 388, 389, 390, 391, 392, 393, 394, 395, 396, 397, 398, 399, 400, 401, 402, 403, 404, 405, 406, 407, 408, 409, 410, 411, 412, 413, 414, 415, 416, 417, 418, 419, 420, 421, 422, 423, 424, 425, 426, 427, 428, 429, 430, 431, 432, 433, 434, 435, 436, 437, 438, 439, 440, 441, 442, 443, 444, 445, 446, 447, 448, 449, 450, 451, 452, 453, 454, 455, 456, 457, 458, 459, 460, 461, 462, 463, 464, 465, 466, 467, 468, 469, 470, 471, 472, 473, 474, 475, 476, 477, 478, 479, 480, 481, 482, 483, 484, 485, 486, 487, 488, 489, 490, 491, 492, 493, 494, 495, 496, 497, 498, 499, 500, 501, 502, 503, 504, 505, 506, 507, 508, 509, 510, 511, 512, 513, 514, 515, 516, 517, 518, 519, 520, 521, 522, 523, 524, 525, 526, 527, 528, 529, 530, 531, 532, 533, 534, 535, 536, 537, 538, 539, 540, 541, 542, 543, 544, 545, 546, 547, 548, 549, 550, 551, 552, 553, 554, 555, 556, 557, 558, 559, 560, 561, 562, 563, 564, 565, 566, 567, 568, 569, 570, 571, 572, 573, 574, 575, 576, 577, 578, 579, 580, 581, 582, 583, 584, 585, 586, 587, 588, 589, 590, 591, 592, 593, 594, 595, 596, 597, 598, 599, 600, 601, 602, 603, 604, 605, 606, 607, 608, 609, 610, 611, 612, 613, 614, 615, 616, 617, 618, 619, 620, 621, 622, 623, 624, 625, 626, 627, 628, 629, 630, 631, 632, 633, 634, 635, 636, 637, 638, 639, 640, 641, 642, 643, 644, 645, 646, 647, 648, 649, 650, 651, 652, 653, 654, 655, 656, 657, 658, 659, 660, 661, 662, 663, 664, 665, 666, 667, 668, 669, 670, 671, 672, 673, 674, 675, 676, 677, 678, 679, 680, 681, 682, 683, 684, 685, 686, 687, 688, 689, 690, 691, 692, 693, 694, 695, 696, 697, 698, 699, 700, 701, 702, 703, 704, 705, 706, 707, 708, 709, 710, 711, 712, 713, 714, 715, 716, 717, 718, 719, 720, 721, 722, 723, 724, 725, 726, 727, 728, 729, 730, 731, 732, 733, 734, 735, 736, 737, 738, 739, 740, 741, 742, 743, 744, 745, 746, 747, 748, 749, 750, 751, 752, 753, 754, 755, 756, 757, 758, 759, 760, 761, 762, 763, 764, 765, 766, 767, 768, 769, 770, 771, 772, 773, 774, 775, 776, 777, 778, 779, 780, 781, 782, 783, 784, 785, 786, 787, 788, 789, 790, 791, 792, 793, 794, 795, 796, 797, 798, 799, 800, 801, 802, 803, 804, 805, 806, 807, 808, 809, 810, 811, 812, 813, 814, 815, 816, 817, 818, 819, 820, 821, 822, 823, 824, 825, 826, 827, 828, 829, 830, 831, 832, 833, 834, 835, 836, 837, 838, 839, 840, 841, 842, 843, 844, 845, 846, 847, 848, 849, 850, 851, 852, 853, 854, 855, 856, 857, 858, 859, 860, 861, 862, 863, 864, 865, 866, 867, 868, 869, 870, 871, 872],
      "AcquisitionTime": ["153041.680000", "153042.140000", "153042.600000", "153043.060000", "153043.520000", "153043.980000", "153044.440000", "153044.900000", "153045.360000", "153045.820000", "153046.280000", "153046.740000", "153047.200000", "153047.660000", "153048.120000", "153048.580000", "153049.040000", "153049.500000", "153049.960000", "153050.420000", "153050.880000", "153051.340000", "153051.800000", "153052.260000", "153052.720000", "153053.180000", "153053.640000", "153054.100000", "153054.560000", "153055.020000", "153055.480000", "153055.940000", "153056.400000", "153056.860000", "153057.320000", "153057.780000", "153058.240000", "153058.700000", "153059.160000", "153059.620000", "153100.080000", "153100.540000", "153101.000000", "153101.460000", "153101.920000", "153102.380000", "153102.840000", "153103.300000", "153103.760000", "153104.220000", "153104.680000", "153105.140000", "153105.600000", "153106.060000", "153106.520000", "153106.980000", "153107.440000", "153107.900000", "153108.360000", "153108.820000", "153109.280000", "153109.740000", "153110.200000", "153110.660000", "153111.120000", "153111.580000", "153112.040000", "153112.500000", "153112.960000", "153113.420000", "153113.880000", "153114.340000", "153114.800000", "153115.260000", "153115.720000", "153116.180000", "153116.640000", "153117.100000", "153117.560000", "153118.020000", "153118.480000", "153118.940000", "153119.400000", "153119.860000", "153120.320000", "153120.780000", "153121.240000", "153121.700000", "153122.160000", "153122.620000", "153123.080000", "153123.540000", "153124.000000", "153124.460000", "153124.920000", "153125.380000", "153125.840000", "153126.300000", "153126.760000", "153127.220000", "153127.680000", "153128.140000", "153128.600000", "153129.060000", "153129.520000", "153129.980000", "153130.440000", "153130.900000", "153131.360000", "153131.820000", "153132.280000", "153132.740000", "153133.200000", "153133.660000", "153134.120000", "153134.580000", "153135.040000", "153135.500000", "153135.960000", "153136.420000", "153136.880000", "153137.340000", "153137.800000", "153138.260000", "153138.720000", "153139.180000", "153139.640000", "153140.100000", "153140.560000", "153141.020000", "153141.480000", "153141.940000", "153142.400000", "153142.860000", "153143.320000", "153143.780000", "153144.240000", "153144.700000", "153145.160000", "153145.620000", "153146.080000", "153146.540000", "153147.000000", "153147.460000", "153147.920000", "153148.380000", "153148.840000", "153149.300000", "153149.760000", "153150.220000", "153150.680000", "153151.140000", "153151.600000", "153152.060000", "153152.520000", "153152.980000", "153153.440000", "153153.900000", "153154.360000", "153154.820000", "153155.280000", "153155.740000", "153156.200000", "153156.660000", "153157.120000", "153157.580000", "153158.040000", "153158.500000", "153158.960000", "153159.420000", "153159.880000", "153200.340000", "153200.800000", "153201.260000", "153201.720000", "153202.180000", "153202.640000", "153203.100000", "153203.560000", "153204.020000", "153204.480000", "153204.940000", "153205.400000", "153205.860000", "153206.320000", "153206.780000", "153207.240000", "153207.700000", "153208.160000", "153208.620000", "153209.080000", "153209.540000", "153210.000000", "153210.460000", "153210.920000", "153211.380000", "153211.840000", "153212.300000", "153212.760000", "153213.220000", "153213.680000", "153214.140000", "153214.600000", "153215.060000", "153215.520000", "153215.980000", "153216.440000", "153216.900000", "153217.360000", "153217.820000", "153218.280000", "153218.740000", "153219.200000", "153219.660000", "153220.120000", "153220.580000", "153221.040000", "153221.500000", "153221.960000", "153222.420000", "153222.880000", "153223.340000", "153223.800000", "153224.260000", "153224.720000", "153225.180000", "153225.640000", "153226.100000", "153226.560000", "153227.020000", "153227.480000", "153227.940000", "153228.400000", "153228.860000", "153229.320000", "153229.780000", "153230.240000", "153230.700000", "153231.160000", "153231.620000", "153232.080000", "153232.540000", "153233.000000", "153233.460000", "153233.920000", "153234.380000", "153234.840000", "153235.300000", "153235.760000", "153236.220000", "153236.680000", "153237.140000", "153237.600000", "153238.060000", "153238.520000", "153238.980000", "153239.440000", "153239.900000", "153240.360000", "153240.820000", "153241.280000", "153241.740000", "153242.200000", "153242.660000", "153243.120000", "153243.580000", "153244.040000", "153244.500000", "153244.960000", "153245.420000", "153245.880000", "153246.340000", "153246.800000", "153247.260000", "153247.720000", "153248.180000", "153248.640000", "153249.100000", "153249.560000", "153250.020000", "153250.480000", "153250.940000", "153251.400000", "153251.860000", "153252.320000", "153252.780000", "153253.240000", "153253.700000", "153254.160000", "153254.620000", "153255.080000", "153255.540000", "153256.000000", "153256.460000", "153256.920000", "153257.380000", "153257.840000", "153258.300000", "153258.760000", "153259.220000", "153259.680000", "153300.140000", "153300.600000", "153301.060000", "153301.520000", "153301.980000", "153302.440000", "153302.900000", "153303.360000", "153303.820000", "153304.280000", "153304.740000", "153305.200000", "153305.660000", "153306.120000", "153306.580000", "153307.040000", "153307.500000", "153307.960000", "153308.420000", "153308.880000", "153309.340000", "153309.800000", "153310.260000", "153310.720000", "153311.180000", "153311.640000", "153312.100000", "153312.560000", "153313.020000", "153313.480000", "153313.940000", "153314.400000", "153314.860000", "153315.320000", "153315.780000", "153316.240000", "153316.700000", "153317.160000", "153317.620000", "153318.080000", "153318.540000", "153319.000000", "153319.460000", "153319.920000", "153320.380000", "153320.840000", "153321.300000", "153321.760000", "153322.220000", "153322.680000", "153323.140000", "153323.600000", "153324.060000", "153324.520000", "153324.980000", "153325.440000", "153325.900000", "153326.360000", "153326.820000", "153327.280000", "153327.740000", "153328.200000", "153328.660000", "153329.120000", "153329.580000", "153330.040000", "153330.500000", "153330.960000", "153331.420000", "153331.880000", "153332.340000", "153332.800000", "153333.260000", "153333.720000", "153334.180000", "153334.640000", "153335.100000", "153335.560000", "153336.020000", "153336.480000", "153336.940000", "153337.400000", "153337.860000", "153338.320000", "153338.780000", "153339.240000", "153339.700000", "153340.160000", "153340.620000", "153341.080000", "153341.540000", "153342.000000", "153342.460000", "153342.920000", "153343.380000", "153343.840000", "153344.300000", "153344.760000", "153345.220000", "153345.680000", "153346.140000", "153346.600000", "153347.060000", "153347.520000", "153347.980000", "153348.440000", "153348.900000", "153349.360000", "153349.820000", "153350.280000", "153350.740000", "153351.200000", "153351.660000", "153352.120000", "153352.580000", "153353.040000", "153353.500000", "153353.960000", "153354.420000", "153354.880000", "153355.340000", "153355.800000", "153356.260000", "153356.720000", "153357.180000", "153357.640000", "153358.100000", "153358.560000", "153359.020000", "153359.480000", "153359.940000", "153400.400000", "153400.860000", "153401.320000", "153401.780000", "153402.240000", "153402.700000", "153403.160000", "153403.620000", "153404.080000", "153404.540000", "153405.000000", "153405.460000", "153405.920000", "153406.380000", "153406.840000", "153407.300000", "153407.760000", "153408.220000", "153408.680000", "153409.140000", "153409.600000", "153410.060000", "153410.520000", "153410.980000", "153411.440000", "153411.900000", "153412.360000", "153412.820000", "153413.280000", "153413.740000", "153414.200000", "153414.660000", "153415.120000", "153415.580000", "153416.040000", "153416.500000", "153416.960000", "153417.420000", "153417.880000", "153418.340000", "153418.800000", "153419.260000", "153419.720000", "153420.180000", "153420.640000", "153421.100000", "153421.560000", "153422.020000", "153422.480000", "153422.940000", "153423.400000", "153423.860000", "153424.320000", "153424.780000", "153425.240000", "153425.700000", "153426.160000", "153426.620000", "153427.080000", "153427.540000", "153428.000000", "153428.460000", "153428.920000", "153429.380000", "153429.840000", "153430.300000", "153430.760000", "153431.220000", "153431.680000", "153432.140000", "153432.600000", "153433.060000", "153433.520000", "153433.980000", "153434.440000", "153434.900000", "153435.360000", "153435.820000", "153436.280000", "153436.740000", "153437.200000", "153437.660000", "153438.120000", "153438.580000", "153439.040000", "153439.500000", "153439.960000", "153440.420000", "153440.880000", "153441.340000", "153441.800000", "153442.260000", "153442.720000", "153443.180000", "153443.640000", "153444.100000", "153444.560000", "153445.020000", "153445.480000", "153445.940000", "153446.400000", "153446.860000", "153447.320000", "153447.780000", "153448.240000", "153448.700000", "153449.160000", "153449.620000", "153450.080000", "153450.540000", "153451.000000", "153451.460000", "153451.920000", "153452.380000", "153452.840000", "153453.300000", "153453.760000", "153454.220000", "153454.680000", "153455.140000", "153455.600000", "153456.060000", "153456.520000", "153456.980000", "153457.440000", "153457.900000", "153458.360000", "153458.820000", "153459.280000", "153459.740000", "153500.200000", "153500.660000", "153501.120000", "153501.580000", "153502.040000", "153502.500000", "153502.960000", "153503.420000", "153503.880000", "153504.340000", "153504.800000", "153505.260000", "153505.720000", "153506.180000", "153506.640000", "153507.100000", "153507.560000", "153508.020000", "153508.480000", "153508.940000", "153509.400000", "153509.860000", "153510.320000", "153510.780000", "153511.240000", "153511.700000", "153512.160000", "153512.620000", "153513.080000", "153513.540000", "153514.000000", "153514.460000", "153514.920000", "153515.380000", "153515.840000", "153516.300000", "153516.760000", "153517.220000", "153517.680000", "153518.140000", "153518.600000", "153519.060000", "153519.520000", "153519.980000", "153520.440000", "153520.900000", "153521.360000", "153521.820000", "153522.280000", "153522.740000", "153523.200000", "153523.660000", "153524.120000", "153524.580000", "153525.040000", "153525.500000", "153525.960000", "153526.420000", "153526.880000", "153527.340000", "153527.800000", "153528.260000", "153528.720000", "153529.180000", "153529.640000", "153530.100000", "153530.560000", "153531.020000", "153531.480000", "153531.940000", "153532.400000", "153532.860000", "153533.320000", "153533.780000", "153534.240000", "153534.700000", "153535.160000", "153535.620000", "153536.080000", "153536.540000", "153537.000000", "153537.460000", "153537.920000", "153538.380000", "153538.840000", "153539.300000", "153539.760000", "153540.220000", "153540.680000", "153541.140000", "153541.600000", "153542.060000", "153542.520000", "153542.980000", "153543.440000", "153543.900000", "153544.360000", "153544.820000", "153545.280000", "153545.740000", "153546.200000", "153546.660000", "153547.120000", "153547.580000", "153548.040000", "153548.500000", "153548.960000", "153549.420000", "153549.880000", "153550.340000", "153550.800000", "153551.260000", "153551.720000", "153552.180000", "153552.640000", "153553.100000", "153553.560000", "153554.020000", "153554.480000", "153554.940000", "153555.400000", "153555.860000", "153556.320000", "153556.780000", "153557.240000", "153557.700000", "153558.160000", "153558.620000", "153559.080000", "153559.540000", "153600.000000", "153600.460000", "153600.920000", "153601.380000", "153601.840000", "153602.300000", "153602.760000", "153603.220000", "153603.680000", "153604.140000", "153604.600000", "153605.060000", "153605.520000", "153605.980000", "153606.440000", "153606.900000", "153607.360000", "153607.820000", "153608.280000", "153608.740000", "153609.200000", "153609.660000", "153610.120000", "153610.580000", "153611.040000", "153611.500000", "153611.960000", "153612.420000", "153612.880000", "153613.340000", "153613.800000", "153614.260000", "153614.720000", "153615.180000", "153615.640000", "153616.100000", "153616.560000", "153617.020000", "153617.480000", "153617.940000", "153618.400000", "153618.860000", "153619.320000", "153619.780000", "153620.240000", "153620.700000", "153621.160000", "153621.620000", "153622.080000", "153622.540000", "153623.000000", "153623.460000", "153623.920000", "153624.380000", "153624.840000", "153625.300000", "153625.760000", "153626.220000", "153626.680000", "153627.140000", "153627.600000", "153628.060000", "153628.520000", "153628.980000", "153629.440000", "153629.900000", "153630.360000", "153630.820000", "153631.280000", "153631.740000", "153632.200000", "153632.660000", "153633.120000", "153633.580000", "153634.040000", "153634.500000", "153634.960000", "153635.420000", "153635.880000", "153636.340000", "153636.800000", "153637.260000", "153637.720000", "153638.180000", "153638.640000", "153639.100000", "153639.560000", "153640.020000", "153640.480000", "153640.940000", "153641.400000", "153641.860000", "153642.320000", "153642.780000", "153643.240000", "153643.700000", "153644.160000", "153644.620000", "153645.080000", "153645.540000", "153646.000000", "153646.460000", "153646.920000", "153647.380000", "153647.840000", "153648.300000", "153648.760000", "153649.220000", "153649.680000", "153650.140000", "153650.600000", "153651.060000", "153651.520000", "153651.980000", "153652.440000", "153652.900000", "153653.360000", "153653.820000", "153654.280000", "153654.740000", "153655.200000", "153655.660000", "153656.120000", "153656.580000", "153657.040000", "153657.500000", "153657.960000", "153658.420000", "153658.880000", "153659.340000", "153659.800000", "153700.260000", "153700.720000", "153701.180000", "153701.640000", "153702.100000", "153702.560000", "153703.020000", "153703.480000", "153703.940000", "153704.400000", "153704.860000", "153705.320000", "153705.780000", "153706.240000", "153706.700000", "153707.160000", "153707.620000", "153708.080000", "153708.540000", "153709.000000", "153709.460000", "153709.920000", "153710.380000", "153710.840000", "153711.300000", "153711.760000", "153712.220000", "153712.680000", "153713.140000", "153713.600000", "153714.060000", "153714.520000", "153714.980000", "153715.440000", "153715.900000", "153716.360000", "153716.820000", "153717.280000", "153717.740000", "153718.200000", "153718.660000", "153719.120000", "153719.580000", "153720.040000", "153720.500000", "153720.960000", "153721.420000", "153721.880000", "153722.340000"],
