{
  "AcquisitionMatrixPE": 82,
  "AcquisitionNumber": 1,
  "AcquisitionTime": "16:24:4.217500",
  "BandwidthPerPixelPhaseEncode": 24.888,
  "BaseResolution": 82,
  "BodyPartExamined": "BRAIN",
  "ConsistencyInfo": "N4_VE11C_LATEST_20160120",
  "ConversionSoftware": "dcm2niix",
  "ConversionSoftwareVersion": "v1.0.20201102",
  "DerivedVendorReportedEchoSpacing": 0.00049,
  "DeviceSerialNumber": "66112",
  "DwellTime": 2e-06,
  "EchoTime": 0.0272,
  "EchoTrainLength": 82,
  "EffectiveEchoSpacing": 0.00049,
  "FlipAngle": 44,
  "ImageComments": "Unaliased MB8/PE3",
  "ImageOrientationPatientDICOM": [0.998714, 0.0482352, 0.0156244, -0.0458753, 0.990883, -0.12667],
  "ImageType": [
    "ORIGINAL",
    "PRIMARY",
    "M",
    "MB",
    "ND",
    "NORM",
    "MOSAIC"
],
  "ImagingFrequency": 123.252,
  "InPlanePhaseEncodingDirectionDICOM": "COL",
  "InstitutionAddress": "Maynard 3,Hanover,NH,US,03755",
  "InstitutionName": "dartmouth_brain_imaging_center",
  "InstitutionalDepartmentName": "Department",
  "MRAcquisitionType": "2D",
  "MagneticFieldStrength": 3,
  "Manufacturer": "Siemens",
  "ManufacturersModelName": "Prisma",
  "Modality": "MR",
  "MultibandAccelerationFactor": 8,
  "PartialFourier": 1,
  "PatientPosition": "HFS",
  "PercentPhaseFOV": 100,
  "PercentSampling": 100,
  "PhaseEncodingDirection": "j-",
  "PhaseEncodingSteps": 82,
  "PhaseResolution": 1,
  "PixelBandwidth": 3050,
  "ProcedureStepDescription": "Wager_Wager^1076_spacetop",
  "ProtocolName": "func_run-03_task-alignvideo_acq-ap-mb8",
  "PulseSequenceDetails": "%CustomerSeq%\\cmrr_mbep2d_bold",
  "ReceiveCoilActiveElements": "HEA;HEP",
  "ReceiveCoilName": "Head_32",
  "ReconMatrixPE": 82,
  "RepetitionTime": 0.46,
  "SAR": 0.105897,
  "ScanOptions": "FS",
  "ScanningSequence": "EP",
  "SequenceName": "epfid2d1_82",
  "SequenceVariant": "SK\\SS",
  "SeriesDescription": "func_run-03_task-alignvideo_acq-ap-mb8",
  "SeriesNumber": 34,
  "ShimSetting": [4154, -7785, -7161, 606, -44, -223, -95, 75],
  "SliceThickness": 2.7,
  "SliceTiming": [0, 0.2525, 0.0625, 0.315, 0.125, 0.3775, 0.19, 0, 0.2525, 0.0625, 0.315, 0.125, 0.3775, 0.19, 0, 0.2525, 0.0625, 0.315, 0.125, 0.3775, 0.19, 0, 0.2525, 0.0625, 0.315, 0.125, 0.3775, 0.19, 0, 0.2525, 0.0625, 0.315, 0.125, 0.3775, 0.19, 0, 0.2525, 0.0625, 0.315, 0.125, 0.3775, 0.19, 0, 0.2525, 0.0625, 0.315, 0.125, 0.3775, 0.19, 0, 0.2525, 0.0625, 0.315, 0.125, 0.3775, 0.19],
  "SoftwareVersions": "syngo MR E11",
  "SpacingBetweenSlices": 2.7,
  "StationName": "AWP66112",
  "TaskName": "alignvideo",
  "TotalReadoutTime": 0.03969,
  "TxRefAmp": 251.157,
  "WipMemBlock": "c9f003c9-c4ee-4a98-b9ad-31b36db5a567||Sequence: R016 ve11c/master r/e634e98; Dec 19 2017 11:00:25 by eja",
  "dcmmeta_affine": [
    [-2.679476022720337, -0.12308013439178467, 0.05829827859997749, 114.46735382080078],
    [-0.12941153347492218, 2.658468008041382, -0.33963480591773987, -75.1009292602539],
    [0.04191919043660164, 0.3398473262786865, 2.6779189109802246, -67.03326416015625],
    [0.0, 0.0, 0.0, 1.0]
],
  "dcmmeta_reorient_transform": [
    [0.0, -1.0, 0.0, 81.0],
    [1.0, 0.0, 0.0, 0.0],
    [0.0, 0.0, 1.0, 0.0],
    [0.0, 0.0, 0.0, 1.0]
],
  "dcmmeta_shape": [82, 82, 56, 1016],
  "dcmmeta_slice_dim": 2,
  "dcmmeta_version": 0.6,
  "global": {
    "const": {
      "AccessionNumber": "A003496",
      "AcquisitionMatrix": [82, 0, 0, 82],
      "AngioFlag": "N",
      "BitsAllocated": 16,
      "BitsStored": 16,
      "BodyPartExamined": "BRAIN",
      "Columns": 656,
      "EchoNumbers": 1,
      "EchoTime": 27.2,
      "EchoTrainLength": 82,
      "FlipAngle": 44.0,
      "HighBit": 15,
      "ImageOrientationPatient": [0.99871379405949, 0.04823520404442, 0.01562442466412, -0.0458753205345, 0.9908834818877, -0.126670360732],
      "ImagePositionPatient": [-838.18350176966, -940.35638451975, 45.999742018043],
      "ImageType": [
        "ORIGINAL",
        "PRIMARY",
        "M",
        "MB",
        "ND",
        "NORM",
        "MOSAIC"
],
      "ImagedNucleus": "1H",
      "ImagingFrequency": 123.252184,
      "InPlanePhaseEncodingDirection": "COL",
      "MRAcquisitionType": "2D",
      "MagneticFieldStrength": 3.0,
      "Manufacturer": "SIEMENS",
      "ManufacturerModelName": "Prisma",
      "Modality": "MR",
      "NumberOfAverages": 1.0,
      "NumberOfPhaseEncodingSteps": 82,
      "PercentPhaseFieldOfView": 100.0,
      "PercentSampling": 100.0,
      "PerformedProcedureStepStartTime": "115920.336000",
      "PhotometricInterpretation": "MONOCHROME2",
      "PixelBandwidth": 3050.0,
      "PixelRepresentation": 0,
      "PixelSpacing": [2.6829268932343, 2.6829268932343],
      "ProtocolName": "func_run-03_task-alignvideo_acq-ap-mb8",
      "RepetitionTime": 460.0,
      "Rows": 656,
      "SAR": 0.10589698058226,
      "SamplesPerPixel": 1,
      "ScanOptions": "FS",
      "ScanningSequence": "EP",
      "SequenceName": "epfid2d1_82",
      "SequenceVariant": [
        "SK",
        "SS"
],
      "SeriesDescription": "func_run-03_task-alignvideo_acq-ap-mb8",
      "SeriesNumber": 34,
      "SeriesTime": "162433.895000",
      "SliceLocation": -54.566483536517,
      "SliceThickness": 2.7000000476837,
      "SmallestImagePixelValue": 0,
      "SoftwareVersions": "syngo MR E11",
      "SpacingBetweenSlices": 2.7000000570564,
      "SpecificCharacterSet": "ISO_IR 100",
      "StudyID": "1",
      "StudyTime": "115920.207000",
      "TransmitCoilName": "Body",
      "VariableFlipAngleFlag": "N",
      "WindowCenterWidthExplanation": "Algo1",
      "dBdt": 0.0},
    "slices": {}
  },
  "time": {
    "samples": {
      "AcquisitionNumber": [1, 2, 3, 4, 5, 6, 7, 8, 9, 10, 11, 12, 13, 14, 15, 16, 17, 18, 19, 20, 21, 22, 23, 24, 25, 26, 27, 28, 29, 30, 31, 32, 33, 34, 35, 36, 37, 38, 39, 40, 41, 42, 43, 44, 45, 46, 47, 48, 49, 50, 51, 52, 53, 54, 55, 56, 57, 58, 59, 60, 61, 62, 63, 64, 65, 66, 67, 68, 69, 70, 71, 72, 73, 74, 75, 76, 77, 78, 79, 80, 81, 82, 83, 84, 85, 86, 87, 88, 89, 90, 91, 92, 93, 94, 95, 96, 97, 98, 99, 100, 101, 102, 103, 104, 105, 106, 107, 108, 109, 110, 111, 112, 113, 114, 115, 116, 117, 118, 119, 120, 121, 122, 123, 124, 125, 126, 127, 128, 129, 130, 131, 132, 133, 134, 135, 136, 137, 138, 139, 140, 141, 142, 143, 144, 145, 146, 147, 148, 149, 150, 151, 152, 153, 154, 155, 156, 157, 158, 159, 160, 161, 162, 163, 164, 165, 166, 167, 168, 169, 170, 171, 172, 173, 174, 175, 176, 177, 178, 179, 180, 181, 182, 183, 184, 185, 186, 187, 188, 189, 190, 191, 192, 193, 194, 195, 196, 197, 198, 199, 200, 201, 202, 203, 204, 205, 206, 207, 208, 209, 210, 211, 212, 213, 214, 215, 216, 217, 218, 219, 220, 221, 222, 223, 224, 225, 226, 227, 228, 229, 230, 231, 232, 233, 234, 235, 236, 237, 238, 239, 240, 241, 242, 243, 244, 245, 246, 247, 248, 249, 250, 251, 252, 253, 254, 255, 256, 257, 258, 259, 260, 261, 262, 263, 264, 265, 266, 267, 268, 269, 270, 271, 272, 273, 274, 275, 276, 277, 278, 279, 280, 281, 282, 283, 284, 285, 286, 287, 288, 289, 290, 291, 292, 293, 294, 295, 296, 297, 298, 299, 300, 301, 302, 303, 304, 305, 306, 307, 308, 309, 310, 311, 312, 313, 314, 315, 316, 317, 318, 319, 320, 321, 322, 323, 324, 325, 326, 327, 328, 329, 330, 331, 332, 333, 334, 335, 336, 337, 338, 339, 340, 341, 342, 343, 344, 345, 346, 347, 348, 349, 350, 351, 352, 353, 354, 355, 356, 357, 358, 359, 360, 361, 362, 363, 364, 365, 366, 367, 368, 369, 370, 371, 372, 373, 374, 375, 376, 377, 378, 379, 380, 381, 382, 383, 384, 385, 386, 387, 388, 389, 390, 391, 392, 393, 394, 395, 396, 397, 398, 399, 400, 401, 402, 403, 404, 405, 406, 407, 408, 409, 410, 411, 412, 413, 414, 415, 416, 417, 418, 419, 420, 421, 422, 423, 424, 425, 426, 427, 428, 429, 430, 431, 432, 433, 434, 435, 436, 437, 438, 439, 440, 441, 442, 443, 444, 445, 446, 447, 448, 449, 450, 451, 452, 453, 454, 455, 456, 457, 458, 459, 460, 461, 462, 463, 464, 465, 466, 467, 468, 469, 470, 471, 472, 473, 474, 475, 476, 477, 478, 479, 480, 481, 482, 483, 484, 485, 486, 487, 488, 489, 490, 491, 492, 493, 494, 495, 496, 497, 498, 499, 500, 501, 502, 503, 504, 505, 506, 507, 508, 509, 510, 511, 512, 513, 514, 515, 516, 517, 518, 519, 520, 521, 522, 523, 524, 525, 526, 527, 528, 529, 530, 531, 532, 533, 534, 535, 536, 537, 538, 539, 540, 541, 542, 543, 544, 545, 546, 547, 548, 549, 550, 551, 552, 553, 554, 555, 556, 557, 558, 559, 560, 561, 562, 563, 564, 565, 566, 567, 568, 569, 570, 571, 572, 573, 574, 575, 576, 577, 578, 579, 580, 581, 582, 583, 584, 585, 586, 587, 588, 589, 590, 591, 592, 593, 594, 595, 596, 597, 598, 599, 600, 601, 602, 603, 604, 605, 606, 607, 608, 609, 610, 611, 612, 613, 614, 615, 616, 617, 618, 619, 620, 621, 622, 623, 624, 625, 626, 627, 628, 629, 630, 631, 632, 633, 634, 635, 636, 637, 638, 639, 640, 641, 642, 643, 644, 645, 646, 647, 648, 649, 650, 651, 652, 653, 654, 655, 656, 657, 658, 659, 660, 661, 662, 663, 664, 665, 666, 667, 668, 669, 670, 671, 672, 673, 674, 675, 676, 677, 678, 679, 680, 681, 682, 683, 684, 685, 686, 687, 688, 689, 690, 691, 692, 693, 694, 695, 696, 697, 698, 699, 700, 701, 702, 703, 704, 705, 706, 707, 708, 709, 710, 711, 712, 713, 714, 715, 716, 717, 718, 719, 720, 721, 722, 723, 724, 725, 726, 727, 728, 729, 730, 731, 732, 733, 734, 735, 736, 737, 738, 739, 740, 741, 742, 743, 744, 745, 746, 747, 748, 749, 750, 751, 752, 753, 754, 755, 756, 757, 758, 759, 760, 761, 762, 763, 764, 765, 766, 767, 768, 769, 770, 771, 772, 773, 774, 775, 776, 777, 778, 779, 780, 781, 782, 783, 784, 785, 786, 787, 788, 789, 790, 791, 792, 793, 794, 795, 796, 797, 798, 799, 800, 801, 802, 803, 804, 805, 806, 807, 808, 809, 810, 811, 812, 813, 814, 815, 816, 817, 818, 819, 820, 821, 822, 823, 824, 825, 826, 827, 828, 829, 830, 831, 832, 833, 834, 835, 836, 837, 838, 839, 840, 841, 842, 843, 844, 845, 846, 847, 848, 849, 850, 851, 852, 853, 854, 855, 856, 857, 858, 859, 860, 861, 862, 863, 864, 865, 866, 867, 868, 869, 870, 871, 872, 873, 874, 875, 876, 877, 878, 879, 880, 881, 882, 883, 884, 885, 886, 887, 888, 889, 890, 891, 892, 893, 894, 895, 896, 897, 898, 899, 900, 901, 902, 903, 904, 905, 906, 907, 908, 909, 910, 911, 912, 913, 914, 915, 916, 917, 918, 919, 920, 921, 922, 923, 924, 925, 926, 927, 928, 929, 930, 931, 932, 933, 934, 935, 936, 937, 938, 939, 940, 941, 942, 943, 944, 945, 946, 947, 948, 949, 950, 951, 952, 953, 954, 955, 956, 957, 958, 959, 960, 961, 962, 963, 964, 965, 966, 967, 968, 969, 970, 971, 972, 973, 974, 975, 976, 977, 978, 979, 980, 981, 982, 983, 984, 985, 986, 987, 988, 989, 990, 991, 992, 993, 994, 995, 996, 997, 998, 999, 1000, 1001, 1002, 1003, 1004, 1005, 1006, 1007, 1008, 1009, 1010, 1011, 1012, 1013, 1014, 1015, 1016],
      "AcquisitionTime": ["162404.217500", "162404.677500", "162405.137500", "162405.597500", "162406.057500", "162406.517500", "162406.977500", "162407.437500", "162407.897500", "162408.357500", "162408.817500", "162409.277500", "162409.737500", "162410.197500", "162410.657500", "162411.117500", "162411.577500", "162412.037500", "162412.497500", "162412.957500", "162413.417500", "162413.877500", "162414.337500", "162414.797500", "162415.257500", "162415.717500", "162416.177500", "162416.637500", "162417.097500", "162417.557500", "162418.017500", "162418.477500", "162418.937500", "162419.397500", "162419.857500", "162420.317500", "162420.777500", "162421.237500", "162421.697500", "162422.157500", "162422.617500", "162423.077500", "162423.537500", "162423.997500", "162424.457500", "162424.917500", "162425.377500", "162425.837500", "162426.297500", "162426.757500", "162427.217500", "162427.677500", "162428.137500", "162428.597500", "162429.057500", "162429.517500", "162429.977500", "162430.437500", "162430.897500", "162431.357500", "162431.817500", "162432.277500", "162432.737500", "162433.197500", "162433.657500", "162434.117500", "162434.577500", "162435.037500", "162435.497500", "162435.957500", "162436.417500", "162436.877500", "162437.337500", "162437.797500", "162438.257500", "162438.717500", "162439.177500", "162439.637500", "162440.097500", "162440.557500", "162441.017500", "162441.477500", "162441.937500", "162442.397500", "162442.857500", "162443.317500", "162443.777500", "162444.237500", "162444.697500", "162445.157500", "162445.617500", "162446.077500", "162446.537500", "162446.997500", "162447.457500", "162447.917500", "162448.377500", "162448.837500", "162449.297500", "162449.757500", "162450.217500", "162450.677500", "162451.137500", "162451.597500", "162452.057500", "162452.517500", "162452.977500", "162453.437500", "162453.897500", "162454.357500", "162454.817500", "162455.277500", "162455.737500", "162456.197500", "162456.657500", "162457.117500", "162457.577500", "162458.037500", "162458.497500", "162458.957500", "162459.417500", "162459.877500", "162500.337500", "162500.797500", "162501.257500", "162501.717500", "162502.177500", "162502.637500", "162503.097500", "162503.557500", "162504.017500", "162504.477500", "162504.937500", "162505.397500", "162505.857500", "162506.317500", "162506.777500", "162507.237500", "162507.697500", "162508.157500", "162508.617500", "162509.077500", "162509.537500", "162509.997500", "162510.457500", "162510.917500", "162511.377500", "162511.837500", "162512.297500", "162512.757500", "162513.217500", "162513.677500", "162514.137500", "162514.597500", "162515.057500", "162515.517500", "162515.977500", "162516.437500", "162516.897500", "162517.357500", "162517.817500", "162518.277500", "162518.737500", "162519.197500", "162519.657500", "162520.117500", "162520.577500", "162521.037500", "162521.497500", "162521.957500", "162522.417500", "162522.877500", "162523.337500", "162523.797500", "162524.257500", "162524.717500", "162525.177500", "162525.637500", "162526.097500", "162526.557500", "162527.017500", "162527.477500", "162527.937500", "162528.397500", "162528.857500", "162529.317500", "162529.777500", "162530.237500", "162530.697500", "162531.157500", "162531.617500", "162532.077500", "162532.537500", "162532.997500", "162533.457500", "162533.917500", "162534.377500", "162534.837500", "162535.297500", "162535.757500", "162536.217500", "162536.677500", "162537.137500", "162537.597500", "162538.057500", "162538.517500", "162538.977500", "162539.437500", "162539.897500", "162540.357500", "162540.817500", "162541.277500", "162541.737500", "162542.197500", "162542.657500", "162543.117500", "162543.577500", "162544.037500", "162544.497500", "162544.957500", "162545.417500", "162545.877500", "162546.337500", "162546.797500", "162547.257500", "162547.717500", "162548.177500", "162548.637500", "162549.097500", "162549.557500", "162550.017500", "162550.477500", "162550.937500", "162551.397500", "162551.857500", "162552.317500", "162552.777500", "162553.237500", "162553.697500", "162554.157500", "162554.617500", "162555.077500", "162555.537500", "162555.997500", "162556.457500", "162556.917500", "162557.377500", "162557.837500", "162558.297500", "162558.757500", "162559.217500", "162559.677500", "162600.137500", "162600.597500", "162601.057500", "162601.517500", "162601.977500", "162602.437500", "162602.897500", "162603.357500", "162603.817500", "162604.277500", "162604.737500", "162605.197500", "162605.657500", "162606.117500", "162606.577500", "162607.037500", "162607.497500", "162607.957500", "162608.417500", "162608.877500", "162609.337500", "162609.797500", "162610.257500", "162610.717500", "162611.177500", "162611.637500", "162612.097500", "162612.557500", "162613.017500", "162613.477500", "162613.937500", "162614.397500", "162614.857500", "162615.317500", "162615.777500", "162616.237500", "162616.697500", "162617.157500", "162617.617500", "162618.077500", "162618.537500", "162618.997500", "162619.457500", "162619.917500", "162620.377500", "162620.837500", "162621.297500", "162621.757500", "162622.217500", "162622.677500", "162623.137500", "162623.597500", "162624.057500", "162624.517500", "162624.977500", "162625.437500", "162625.897500", "162626.357500", "162626.817500", "162627.277500", "162627.737500", "162628.197500", "162628.657500", "162629.117500", "162629.577500", "162630.037500", "162630.497500", "162630.957500", "162631.417500", "162631.877500", "162632.337500", "162632.797500", "162633.257500", "162633.717500", "162634.177500", "162634.637500", "162635.097500", "162635.557500", "162636.017500", "162636.477500", "162636.937500", "162637.397500", "162637.857500", "162638.317500", "162638.777500", "162639.237500", "162639.697500", "162640.157500", "162640.617500", "162641.077500", "162641.537500", "162641.997500", "162642.457500", "162642.917500", "162643.377500", "162643.837500", "162644.297500", "162644.757500", "162645.217500", "162645.677500", "162646.137500", "162646.597500", "162647.057500", "162647.517500", "162647.977500", "162648.437500", "162648.897500", "162649.357500", "162649.817500", "162650.277500", "162650.737500", "162651.197500", "162651.657500", "162652.117500", "162652.577500", "162653.037500", "162653.497500", "162653.957500", "162654.417500", "162654.877500", "162655.337500", "162655.797500", "162656.257500", "162656.717500", "162657.177500", "162657.637500", "162658.097500", "162658.557500", "162659.017500", "162659.477500", "162659.937500", "162700.397500", "162700.857500", "162701.317500", "162701.777500", "162702.237500", "162702.697500", "162703.157500", "162703.617500", "162704.077500", "162704.537500", "162704.997500", "162705.457500", "162705.917500", "162706.377500", "162706.837500", "162707.297500", "162707.757500", "162708.217500", "162708.677500", "162709.137500", "162709.597500", "162710.057500", "162710.517500", "162710.977500", "162711.437500", "162711.897500", "162712.357500", "162712.817500", "162713.277500", "162713.737500", "162714.197500", "162714.657500", "162715.117500", "162715.577500", "162716.037500", "162716.497500", "162716.957500", "162717.417500", "162717.877500", "162718.337500", "162718.797500", "162719.257500", "162719.717500", "162720.177500", "162720.637500", "162721.097500", "162721.557500", "162722.017500", "162722.477500", "162722.937500", "162723.397500", "162723.857500", "162724.317500", "162724.777500", "162725.237500", "162725.697500", "162726.157500", "162726.617500", "162727.077500", "162727.537500", "162727.997500", "162728.457500", "162728.917500", "162729.377500", "162729.837500", "162730.297500", "162730.757500", "162731.217500", "162731.677500", "162732.137500", "162732.597500", "162733.057500", "162733.517500", "162733.977500", "162734.437500", "162734.897500", "162735.357500", "162735.817500", "162736.277500", "162736.737500", "162737.197500", "162737.657500", "162738.117500", "162738.577500", "162739.037500", "162739.497500", "162739.957500", "162740.417500", "162740.877500", "162741.337500", "162741.797500", "162742.257500", "162742.717500", "162743.177500", "162743.637500", "162744.097500", "162744.557500", "162745.017500", "162745.477500", "162745.937500", "162746.397500", "162746.857500", "162747.317500", "162747.777500", "162748.237500", "162748.697500", "162749.157500", "162749.617500", "162750.077500", "162750.537500", "162750.997500", "162751.457500", "162751.917500", "162752.377500", "162752.837500", "162753.297500", "162753.757500", "162754.217500", "162754.677500", "162755.137500", "162755.597500", "162756.057500", "162756.517500", "162756.977500", "162757.437500", "162757.897500", "162758.357500", "162758.817500", "162759.277500", "162759.737500", "162800.197500", "162800.657500", "162801.117500", "162801.577500", "162802.037500", "162802.497500", "162802.957500", "162803.417500", "162803.877500", "162804.337500", "162804.797500", "162805.257500", "162805.717500", "162806.177500", "162806.637500", "162807.097500", "162807.557500", "162808.017500", "162808.477500", "162808.937500", "162809.397500", "162809.857500", "162810.317500", "162810.777500", "162811.237500", "162811.697500", "162812.157500", "162812.617500", "162813.077500", "162813.537500", "162813.997500", "162814.457500", "162814.917500", "162815.377500", "162815.837500", "162816.297500", "162816.757500", "162817.217500", "162817.677500", "162818.137500", "162818.597500", "162819.057500", "162819.517500", "162819.977500", "162820.437500", "162820.897500", "162821.357500", "162821.817500", "162822.277500", "162822.737500", "162823.197500", "162823.657500", "162824.117500", "162824.577500", "162825.037500", "162825.497500", "162825.957500", "162826.417500", "162826.877500", "162827.337500", "162827.797500", "162828.257500", "162828.717500", "162829.177500", "162829.637500", "162830.097500", "162830.557500", "162831.017500", "162831.477500", "162831.937500", "162832.397500", "162832.857500", "162833.317500", "162833.777500", "162834.237500", "162834.697500", "162835.157500", "162835.617500", "162836.077500", "162836.537500", "162836.997500", "162837.457500", "162837.917500", "162838.377500", "162838.837500", "162839.297500", "162839.757500", "162840.217500", "162840.677500", "162841.137500", "162841.597500", "162842.057500", "162842.517500", "162842.977500", "162843.437500", "162843.897500", "162844.357500", "162844.817500", "162845.277500", "162845.737500", "162846.197500", "162846.657500", "162847.117500", "162847.577500", "162848.037500", "162848.497500", "162848.957500", "162849.417500", "162849.877500", "162850.337500", "162850.797500", "162851.257500", "162851.717500", "162852.177500", "162852.637500", "162853.097500", "162853.557500", "162854.017500", "162854.477500", "162854.937500", "162855.397500", "162855.857500", "162856.317500", "162856.777500", "162857.237500", "162857.697500", "162858.157500", "162858.617500", "162859.077500", "162859.537500", "162859.997500", "162900.457500", "162900.917500", "162901.377500", "162901.837500", "162902.297500", "162902.757500", "162903.217500", "162903.677500", "162904.137500", "162904.597500", "162905.057500", "162905.517500", "162905.977500", "162906.437500", "162906.897500", "162907.357500", "162907.817500", "162908.277500", "162908.737500", "162909.197500", "162909.657500", "162910.117500", "162910.577500", "162911.037500", "162911.497500", "162911.957500", "162912.417500", "162912.877500", "162913.337500", "162913.797500", "162914.257500", "162914.717500", "162915.177500", "162915.637500", "162916.097500", "162916.557500", "162917.017500", "162917.477500", "162917.937500", "162918.397500", "162918.857500", "162919.317500", "162919.777500", "162920.237500", "162920.697500", "162921.157500", "162921.617500", "162922.077500", "162922.537500", "162922.997500", "162923.457500", "162923.917500", "162924.377500", "162924.837500", "162925.297500", "162925.757500", "162926.217500", "162926.677500", "162927.137500", "162927.597500", "162928.057500", "162928.517500", "162928.977500", "162929.437500", "162929.897500", "162930.357500", "162930.817500", "162931.277500", "162931.737500", "162932.197500", "162932.657500", "162933.117500", "162933.577500", "162934.037500", "162934.497500", "162934.957500", "162935.417500", "162935.877500", "162936.337500", "162936.797500", "162937.257500", "162937.717500", "162938.177500", "162938.637500", "162939.097500", "162939.557500", "162940.017500", "162940.477500", "162940.937500", "162941.397500", "162941.857500", "162942.317500", "162942.777500", "162943.237500", "162943.697500", "162944.157500", "162944.617500", "162945.077500", "162945.537500", "162945.997500", "162946.457500", "162946.917500", "162947.377500", "162947.837500", "162948.297500", "162948.757500", "162949.217500", "162949.677500", "162950.137500", "162950.597500", "162951.057500", "162951.517500", "162951.977500", "162952.437500", "162952.897500", "162953.357500", "162953.817500", "162954.277500", "162954.737500", "162955.197500", "162955.657500", "162956.117500", "162956.577500", "162957.037500", "162957.497500", "162957.957500", "162958.417500", "162958.877500", "162959.337500", "162959.797500", "163000.257500", "163000.717500", "163001.177500", "163001.637500", "163002.097500", "163002.557500", "163003.017500", "163003.477500", "163003.937500", "163004.397500", "163004.857500", "163005.317500", "163005.777500", "163006.237500", "163006.697500", "163007.157500", "163007.617500", "163008.077500", "163008.537500", "163008.997500", "163009.457500", "163009.917500", "163010.377500", "163010.837500", "163011.297500", "163011.757500", "163012.217500", "163012.677500", "163013.137500", "163013.597500", "163014.057500", "163014.517500", "163014.977500", "163015.437500", "163015.897500", "163016.357500", "163016.817500", "163017.277500", "163017.737500", "163018.197500", "163018.657500", "163019.117500", "163019.577500", "163020.037500", "163020.497500", "163020.957500", "163021.417500", "163021.877500", "163022.337500", "163022.797500", "163023.257500", "163023.717500", "163024.177500", "163024.637500", "163025.097500", "163025.557500", "163026.017500", "163026.477500", "163026.937500", "163027.397500", "163027.857500", "163028.317500", "163028.777500", "163029.237500", "163029.697500", "163030.157500", "163030.617500", "163031.077500", "163031.537500", "163031.997500", "163032.457500", "163032.917500", "163033.377500", "163033.837500", "163034.297500", "163034.757500", "163035.217500", "163035.677500", "163036.137500", "163036.597500", "163037.057500", "163037.517500", "163037.977500", "163038.437500", "163038.897500", "163039.357500", "163039.817500", "163040.277500", "163040.737500", "163041.197500", "163041.657500", "163042.117500", "163042.577500", "163043.037500", "163043.497500", "163043.957500", "163044.417500", "163044.877500", "163045.337500", "163045.797500", "163046.257500", "163046.717500", "163047.177500", "163047.637500", "163048.097500", "163048.557500", "163049.017500", "163049.477500", "163049.937500", "163050.397500", "163050.857500", "163051.317500", "163051.777500", "163052.237500", "163052.697500", "163053.157500", "163053.617500", "163054.077500", "163054.537500", "163054.997500", "163055.457500", "163055.917500", "163056.377500", "163056.837500", "163057.297500", "163057.757500", "163058.217500", "163058.677500", "163059.137500", "163059.597500", "163100.057500", "163100.517500", "163100.977500", "163101.437500", "163101.897500", "163102.357500", "163102.817500", "163103.277500", "163103.737500", "163104.197500", "163104.657500", "163105.117500", "163105.577500", "163106.037500", "163106.497500", "163106.957500", "163107.417500", "163107.877500", "163108.337500", "163108.797500", "163109.257500", "163109.717500", "163110.177500", "163110.637500", "163111.097500", "163111.557500", "163112.017500", "163112.477500", "163112.937500", "163113.397500", "163113.857500", "163114.317500", "163114.777500", "163115.237500", "163115.697500", "163116.157500", "163116.617500", "163117.077500", "163117.537500", "163117.997500", "163118.457500", "163118.917500", "163119.377500", "163119.837500", "163120.297500", "163120.757500", "163121.217500", "163121.677500", "163122.137500", "163122.597500", "163123.057500", "163123.517500", "163123.977500", "163124.437500", "163124.897500", "163125.357500", "163125.817500", "163126.277500", "163126.737500", "163127.197500", "163127.657500", "163128.117500", "163128.577500", "163129.037500", "163129.497500", "163129.957500", "163130.417500", "163130.877500", "163131.337500", "163131.797500", "163132.257500", "163132.717500", "163133.177500", "163133.637500", "163134.097500", "163134.557500", "163135.017500", "163135.477500", "163135.937500", "163136.397500", "163136.857500", "163137.317500", "163137.777500", "163138.237500", "163138.697500", "163139.157500", "163139.617500", "163140.077500", "163140.537500", "163140.997500", "163141.457500", "163141.917500", "163142.377500", "163142.837500", "163143.297500", "163143.757500", "163144.217500", "163144.677500", "163145.137500", "163145.597500", "163146.057500", "163146.517500", "163146.977500", "163147.437500", "163147.897500", "163148.357500", "163148.817500", "163149.277500", "163149.737500", "163150.197500", "163150.657500", "163151.117500"],
