{
  "AcquisitionMatrixPE": 140,
  "AcquisitionNumber": 1,
  "AcquisitionTime": "10:02:25.052500",
  "BandwidthPerPixelPhaseEncode": 10.352,
  "BaseResolution": 140,
  "BodyPartExamined": "BRAIN",
  "ConsistencyInfo": "N4_VE11C_LATEST_20160120",
  "ConversionSoftware": "dcm2niix",
  "ConversionSoftwareVersion": "v1.0.20201102",
  "DerivedVendorReportedEchoSpacing": 0.000689998,
  "DeviceSerialNumber": "66112",
  "DiffusionScheme": "Monopolar",
  "DwellTime": 2.1e-06,
  "EchoTime": 0.088,
  "EchoTrainLength": 105,
  "EffectiveEchoSpacing": 0.000689998,
  "FlipAngle": 90,
  "ImageComments": "Unaliased MB3/PE3",
  "ImageOrientationPatientDICOM": [0.997015, -0.0503703, 0.0585213, 0.0308099, 0.954491, 0.296645],
  "ImageType": [
    "ORIGINAL",
    "PRIMARY",
    "DIFFUSION",
    "NONE",
    "MB",
    "ND"
],
  "ImagingFrequency": 123.252,
  "InPlanePhaseEncodingDirectionDICOM": "COL",
  "InstitutionAddress": "Maynard 3,Hanover,NH,US,03755",
  "InstitutionName": "Dartmouth College - PBS",
  "InstitutionalDepartmentName": "Department",
  "IntendedFor": [
    "ses-01/dwi/sub-0020_ses-01_acq-96dirX6b0Xmb_dwi.nii.gz"
],
  "MRAcquisitionType": "2D",
  "MagneticFieldStrength": 3,
  "Manufacturer": "Siemens",
  "ManufacturersModelName": "Prisma",
  "Modality": "MR",
  "MultibandAccelerationFactor": 3,
  "PartialFourier": 0.75,
  "PatientPosition": "HFS",
  "PercentPhaseFOV": 100,
  "PercentSampling": 100,
  "PhaseEncodingDirection": "j-",
  "PhaseEncodingSteps": 105,
  "PhaseResolution": 1,
  "PixelBandwidth": 1700,
  "ProcedureStepDescription": "Wager_Wager^1076_spacetop",
  "ProtocolName": "dwi_acq-discorr-AP",
  "PulseSequenceDetails": "%CustomerSeq%\\cmrr_mbep2d_diff",
  "ReceiveCoilActiveElements": "HEA;HEP",
  "ReceiveCoilName": "Head_32",
  "ReconMatrixPE": 140,
  "RepetitionTime": 4.1,
  "SAR": 0.137463,
  "ScanOptions": "PFP\\FS",
  "ScanningSequence": "EP",
  "SequenceName": "ep_b0",
  "SequenceVariant": "SK\\SS",
  "SeriesDescription": "dwi_acq-discorr-AP",
  "SeriesNumber": 7,
  "ShimSetting": [4165, -7775, -7224, 559, -64, -238, 123, 58],
  "SliceThickness": 1.7,
  "SliceTiming": [0, 2.10938, 0.14844, 2.26562, 0.29688, 2.41406, 0.45312, 2.57031, 0.60156, 2.71875, 0.75, 2.86719, 0.90625, 3.02344, 1.05469, 3.17188, 1.21094, 3.32031, 1.35938, 3.47656, 1.50781, 3.625, 1.66406, 3.77344, 1.8125, 3.92969, 1.96094, 0, 2.10938, 0.14844, 2.26562, 0.29688, 2.41406, 0.45312, 2.57031, 0.60156, 2.71875, 0.75, 2.86719, 0.90625, 3.02344, 1.05469, 3.17188, 1.21094, 3.32031, 1.35938, 3.47656, 1.50781, 3.625, 1.66406, 3.77344, 1.8125, 3.92969, 1.96094, 0, 2.10938, 0.14844, 2.26562, 0.29688, 2.41406, 0.45312, 2.57031, 0.60156, 2.71875, 0.75, 2.86719, 0.90625, 3.02344, 1.05469, 3.17188, 1.21094, 3.32031, 1.35938, 3.47656, 1.50781, 3.625, 1.66406, 3.77344, 1.8125, 3.92969, 1.96094],
  "SoftwareVersions": "syngo MR E11",
  "SpacingBetweenSlices": 1.7,
  "StationName": "AWP66112",
  "TotalReadoutTime": 0.0959097,
  "TxRefAmp": 245.349,
  "WipMemBlock": "ab3f5a44-649e-4bbd-8c52-0f3f71e76222||Sequence: R016 ve11c/master r/e634e98; Dec 19 2017 11:11:25 by eja",
  "dcmmeta_affine": [
    [-1.7091678380966187, 0.052817005664110184, 0.1203603744506836, 116.89176940917969],
    [0.08634911477565765, 1.6362698078155518, 0.499725341796875, -109.23199462890625],
    [0.10032228380441666, -0.50853431224823, 1.6204299926757812, -16.518051147460938],
    [0.0, 0.0, 0.0, 1.0]
],
  "dcmmeta_reorient_transform": [
    [0.0, -1.0, 0.0, 139.0],
    [1.0, 0.0, 0.0, 0.0],
    [0.0, 0.0, -1.0, 80.0],
    [0.0, 0.0, 0.0, 1.0]
],
  "dcmmeta_shape": [140, 140, 81],
  "dcmmeta_slice_dim": 2,
  "dcmmeta_version": 0.6,
  "global": {
    "const": {
      "AccessionNumber": "A003533",
      "AcquisitionMatrix": [140, 0, 0, 140],
      "AcquisitionNumber": 1,
      "AngioFlag": "N",
      "BitsAllocated": 16,
      "BitsStored": 16,
      "BodyPartExamined": "BRAIN",
      "Columns": 140,
      "EchoNumbers": 1,
      "EchoTime": 88.0,
      "EchoTrainLength": 105,
      "FlipAngle": 90.0,
      "HighBit": 15,
      "ImageOrientationPatient": [0.99701458614074, -0.0503703169639, 0.05852133108162, 0.03080991886977, 0.95449069717231, 0.29664500317847],
      "ImageType": [
        "ORIGINAL",
        "PRIMARY",
        "DIFFUSION",
        "NONE",
        "MB",
        "ND"
],
      "ImagedNucleus": "1H",
      "ImagingFrequency": 123.252105,
      "InPlanePhaseEncodingDirection": "COL",
      "MRAcquisitionType": "2D",
      "MagneticFieldStrength": 3.0,
      "Manufacturer": "SIEMENS",
      "ManufacturerModelName": "Prisma",
      "Modality": "MR",
      "NumberOfAverages": 1.0,
      "NumberOfPhaseEncodingSteps": 105,
      "PercentPhaseFieldOfView": 100.0,
      "PercentSampling": 100.0,
      "PerformedProcedureStepStartTime": "082552.983000",
      "PhotometricInterpretation": "MONOCHROME2",
      "PixelBandwidth": 1700.0,
      "PixelRepresentation": 0,
      "PixelSpacing": [1.7142857313156, 1.7142857313156],
      "ProtocolName": "dwi_acq-discorr-AP",
      "RepetitionTime": 4100.0,
      "Rows": 140,
      "SAR": 0.13746267213451,
      "SamplesPerPixel": 1,
      "ScanOptions": [
        "PFP",
        "FS"
],
      "ScanningSequence": "EP",
      "SequenceName": "ep_b0",
      "SequenceVariant": [
        "SK",
        "SS"
],
      "SeriesDescription": "dwi_acq-discorr-AP",
      "SeriesNumber": 7,
      "SeriesTime": "100229.795000",
      "SliceThickness": 1.7000000476837,
      "SmallestImagePixelValue": 0,
      "SoftwareVersions": "syngo MR E11",
      "SpacingBetweenSlices": 1.7,
      "SpecificCharacterSet": "ISO_IR 100",
      "StudyID": "1",
      "StudyTime": "082552.898000",
      "TransmitCoilName": "Body",
      "VariableFlipAngleFlag": "N",
      "WindowCenterWidthExplanation": "Algo1",
      "dBdt": 0.0},
    "slices": {
      "AcquisitionTime": ["100225.052500", "100227.167500", "100225.205000", "100227.320000", "100225.355000", "100227.470000", "100225.507500", "100227.622500", "100225.657500", "100227.772500", "100225.807500", "100227.925000", "100225.960000", "100228.075000", "100226.110000", "100228.225000", "100226.262500", "100228.377500", "100226.412500", "100228.527500", "100226.565000", "100228.680000", "100226.715000", "100228.830000", "100226.865000", "100228.982500", "100227.017500", "100225.052500", "100227.167500", "100225.205000", "100227.320000", "100225.355000", "100227.470000", "100225.507500", "100227.622500", "100225.657500", "100227.772500", "100225.807500", "100227.925000", "100225.960000", "100228.075000", "100226.110000", "100228.225000", "100226.262500", "100228.377500", "100226.412500", "100228.527500", "100226.565000", "100228.680000", "100226.715000", "100228.830000", "100226.865000", "100228.982500", "100227.017500", "100225.052500", "100227.167500", "100225.205000", "100227.320000", "100225.355000", "100227.470000", "100225.507500", "100227.622500", "100225.657500", "100227.772500", "100225.807500", "100227.925000", "100225.960000", "100228.075000", "100226.110000", "100228.225000", "100226.262500", "100228.377500", "100226.412500", "100228.527500", "100226.565000", "100228.680000", "100226.715000", "100228.830000", "100226.865000", "100228.982500", "100227.017500"],
      "ContentTime": ["100229.802000", "100229.903000", "100229.811000", "100229.910000", "100229.817000", "100229.916000", "100229.828000", "100229.922000", "100229.835000", "100229.930000", "100229.841000", "100229.936000", "100229.848000", "100229.943000", "100229.856000", "100229.949000", "100229.862000", "100229.956000", "100229.868000", "100229.962000", "100229.875000", "100229.968000", "100229.881000", "100229.975000", "100229.888000", "100229.981000", "100229.897000", "100229.806000", "100229.905000", "100229.813000", "100229.912000", "100229.820000", "100229.918000", "100229.831000", "100229.925000", "100229.837000", "100229.932000", "100229.844000", "100229.938000", "100229.850000", "100229.945000", "100229.858000", "100229.951000", "100229.864000", "100229.958000", "100229.870000", "100229.964000", "100229.877000", "100229.970000", "100229.884000", "100229.977000", "100229.893000", "100229.983000", "100229.899000", "100229.809000", "100229.907000", "100229.815000", "100229.914000", "100229.822000", "100229.920000", "100229.833000", "100229.927000", "100229.839000", "100229.934000", "100229.846000", "100229.940000", "100229.853000", "100229.947000", "100229.860000", "100229.953000", "100229.866000", "100229.960000", "100229.873000", "100229.966000", "100229.879000", "100229.972000", "100229.886000", "100229.979000", "100229.895000", "100229.985000", "100229.901000"],
      "CsaImage.ICE_Dims": [
        "X_1_1_1_1_1_1_1_1_1_1_1_25",
        "X_1_1_1_1_1_1_42_1_1_2_1_25",
        "X_1_1_1_1_1_1_2_1_1_3_1_25",
        "X_1_1_1_1_1_1_43_1_1_4_1_25",
        "X_1_1_1_1_1_1_3_1_1_5_1_25",
        "X_1_1_1_1_1_1_44_1_1_6_1_25",
        "X_1_1_1_1_1_1_4_1_1_7_1_25",
        "X_1_1_1_1_1_1_45_1_1_8_1_25",
        "X_1_1_1_1_1_1_5_1_1_9_1_25",
        "X_1_1_1_1_1_1_46_1_1_10_1_25",
        "X_1_1_1_1_1_1_6_1_1_11_1_25",
        "X_1_1_1_1_1_1_47_1_1_12_1_25",
        "X_1_1_1_1_1_1_7_1_1_13_1_25",
        "X_1_1_1_1_1_1_48_1_1_14_1_25",
        "X_1_1_1_1_1_1_8_1_1_15_1_25",
        "X_1_1_1_1_1_1_49_1_1_16_1_25",
        "X_1_1_1_1_1_1_9_1_1_17_1_25",
        "X_1_1_1_1_1_1_50_1_1_18_1_25",
        "X_1_1_1_1_1_1_10_1_1_19_1_25",
        "X_1_1_1_1_1_1_51_1_1_20_1_25",
        "X_1_1_1_1_1_1_11_1_1_21_1_25",
        "X_1_1_1_1_1_1_52_1_1_22_1_25",
        "X_1_1_1_1_1_1_12_1_1_23_1_25",
        "X_1_1_1_1_1_1_53_1_1_24_1_25",
        "X_1_1_1_1_1_1_13_1_1_25_1_25",
        "X_1_1_1_1_1_1_54_1_1_26_1_25",
        "X_1_1_1_1_1_1_14_1_1_27_1_25",
        "X_1_1_1_1_1_1_55_1_1_28_1_25",
        "X_1_1_1_1_1_1_15_1_1_29_1_25",
        "X_1_1_1_1_1_1_56_1_1_30_1_25",
        "X_1_1_1_1_1_1_16_1_1_31_1_25",
        "X_1_1_1_1_1_1_57_1_1_32_1_25",
        "X_1_1_1_1_1_1_17_1_1_33_1_25",
        "X_1_1_1_1_1_1_58_1_1_34_1_25",
        "X_1_1_1_1_1_1_18_1_1_35_1_25",
        "X_1_1_1_1_1_1_59_1_1_36_1_25",
        "X_1_1_1_1_1_1_19_1_1_37_1_25",
        "X_1_1_1_1_1_1_60_1_1_38_1_25",
        "X_1_1_1_1_1_1_20_1_1_39_1_25",
        "X_1_1_1_1_1_1_61_1_1_40_1_25",
        "X_1_1_1_1_1_1_21_1_1_41_1_25",
        "X_1_1_1_1_1_1_62_1_1_42_1_25",
        "X_1_1_1_1_1_1_22_1_1_43_1_25",
        "X_1_1_1_1_1_1_63_1_1_44_1_25",
        "X_1_1_1_1_1_1_23_1_1_45_1_25",
        "X_1_1_1_1_1_1_64_1_1_46_1_25",
        "X_1_1_1_1_1_1_24_1_1_47_1_25",
        "X_1_1_1_1_1_1_65_1_1_48_1_25",
        "X_1_1_1_1_1_1_25_1_1_49_1_25",
        "X_1_1_1_1_1_1_66_1_1_50_1_25",
        "X_1_1_1_1_1_1_26_1_1_51_1_25",
        "X_1_1_1_1_1_1_67_1_1_52_1_25",
        "X_1_1_1_1_1_1_27_1_1_53_1_25",
        "X_1_1_1_1_1_1_68_1_1_54_1_25",
        "X_1_1_1_1_1_1_28_1_1_55_1_25",
        "X_1_1_1_1_1_1_69_1_1_56_1_25",
        "X_1_1_1_1_1_1_29_1_1_57_1_25",
        "X_1_1_1_1_1_1_70_1_1_58_1_25",
        "X_1_1_1_1_1_1_30_1_1_59_1_25",
        "X_1_1_1_1_1_1_71_1_1_60_1_25",
        "X_1_1_1_1_1_1_31_1_1_61_1_25",
        "X_1_1_1_1_1_1_72_1_1_62_1_25",
        "X_1_1_1_1_1_1_32_1_1_63_1_25",
        "X_1_1_1_1_1_1_73_1_1_64_1_25",
        "X_1_1_1_1_1_1_33_1_1_65_1_25",
        "X_1_1_1_1_1_1_74_1_1_66_1_25",
        "X_1_1_1_1_1_1_34_1_1_67_1_25",
        "X_1_1_1_1_1_1_75_1_1_68_1_25",
        "X_1_1_1_1_1_1_35_1_1_69_1_25",
        "X_1_1_1_1_1_1_76_1_1_70_1_25",
        "X_1_1_1_1_1_1_36_1_1_71_1_25",
        "X_1_1_1_1_1_1_77_1_1_72_1_25",
        "X_1_1_1_1_1_1_37_1_1_73_1_25",
        "X_1_1_1_1_1_1_78_1_1_74_1_25",
        "X_1_1_1_1_1_1_38_1_1_75_1_25",
        "X_1_1_1_1_1_1_79_1_1_76_1_25",
        "X_1_1_1_1_1_1_39_1_1_77_1_25",
        "X_1_1_1_1_1_1_80_1_1_78_1_25",
        "X_1_1_1_1_1_1_40_1_1_79_1_25",
        "X_1_1_1_1_1_1_81_1_1_80_1_25",
        "X_1_1_1_1_1_1_41_1_1_81_1_25"
],
      "CsaImage.ProtocolSliceNumber": [0, 1, 2, 3, 4, 5, 6, 7, 8, 9, 10, 11, 12, 13, 14, 15, 16, 17, 18, 19, 20, 21, 22, 23, 24, 25, 26, 27, 28, 29, 30, 31, 32, 33, 34, 35, 36, 37, 38, 39, 40, 41, 42, 43, 44, 45, 46, 47, 48, 49, 50, 51, 52, 53, 54, 55, 56, 57, 58, 59, 60, 61, 62, 63, 64, 65, 66, 67, 68, 69, 70, 71, 72, 73, 74, 75, 76, 77, 78, 79, 80],
      "CsaImage.RFSWDDataType": [
        "predicted",
        "predicted",
        "predicted",
        "predicted",
        "predicted",
        "predicted",
        "predicted",
        "predicted",
        "predicted",
        "predicted",
        "predicted",
        "predicted",
        "predicted",
        "predicted",
        "predicted",
        "predicted",
        "predicted",
        "predicted",
        "predicted",
        "predicted",
        "predicted",
        "predicted",
        "predicted",
        "predicted",
        "predicted",
        "measured",
        "predicted",
        "predicted",
        "predicted",
        "predicted",
        "predicted",
        "predicted",
        "predicted",
        "predicted",
        "predicted",
        "predicted",
        "predicted",
        "predicted",
        "predicted",
        "predicted",
        "predicted",
        "predicted",
        "predicted",
        "predicted",
        "predicted",
        "predicted",
        "predicted",
        "predicted",
        "predicted",
        "predicted",
        "predicted",
        "predicted",
        "measured",
        "predicted",
        "predicted",
        "predicted",
        "predicted",
        "predicted",
        "predicted",
        "predicted",
        "predicted",
        "predicted",
        "predicted",
        "predicted",
        "predicted",
        "predicted",
        "predicted",
        "predicted",
        "predicted",
        "predicted",
        "predicted",
        "predicted",
        "predicted",
        "predicted",
        "predicted",
        "predicted",
        "predicted",
        "predicted",
        "predicted",
        "measured",
        "predicted"
],
      "CsaImage.SlicePosition_PCS": [
        [-124.23334081, -118.2094726, -87.20417761],
        [-124.35370113, -118.7091989, -85.58375143],
        [-124.47406138, -119.20892424, -83.96332144],
        [-124.59442164, -119.70865054, -82.34289526],
        [-124.71478201, -120.20837588, -80.72246526],
        [-124.83514227, -120.70810217, -79.10203909],
        [-124.95550252, -121.20782752, -77.48160909],
        [-125.07586278, -121.70755381, -75.8611791],
        [-125.19622315, -122.20727915, -74.24075292],
        [-125.31658341, -122.70700545, -72.62032484],
        [-125.43694378, -123.20673079, -70.99989675],
        [-125.55730392, -123.70645709, -69.37946867],
        [-125.67766429, -124.20618243, -67.75904058],
        [-125.79802467, -124.70590872, -66.1386125],
        [-125.9183848, -125.20563407, -64.51818441],
        [-126.03874518, -125.70535941, -62.89775442],
        [-126.15910531, -126.20508666, -61.27732633],
        [-126.27946569, -126.704812, -59.65689825],
        [-126.39982606, -127.20453734, -58.03647112],
        [-126.5201862, -127.70426268, -56.41604303],
        [-126.64054657, -128.20398993, -54.79561399],
        [-126.76090695, -128.70371527, -53.17518591],
        [-126.88126708, -129.20344061, -51.55475782],
        [-127.00162746, -129.70316596, -49.93432974],
        [-127.1219876, -130.20289321, -48.31390165],
        [-127.24234797, -130.70261855, -46.69347357],
        [-127.36270834, -131.20234389, -45.07304524],
        [-127.48306872, -131.70206923, -43.45261704],
        [-127.60342909, -132.20179457, -41.83218883],
        [-127.72378899, -132.70152182, -40.21176075],
        [-127.84414937, -133.20124716, -38.59133266],
        [-127.96450974, -133.70097251, -36.9709041],
        [-128.08487011, -134.20069785, -35.35047601],
        [-128.20523049, -134.7004251, -33.73004793],
        [-128.32559039, -135.20015044, -32.10961984],
        [-128.44595076, -135.69987578, -30.48919176],
        [-128.56631113, -136.19960112, -28.86876367],
        [-128.68667151, -136.69932837, -27.24833559],
        [-128.80703188, -137.19905371, -25.62790655],
        [-128.92739226, -137.69877905, -24.00747846],
        [-129.04775216, -138.1985044, -22.38705038],
        [-129.16811253, -138.69823165, -20.76662229],
        [-129.2884729, -139.19795699, -19.14619421],
        [-129.40883328, -139.69768233, -17.52576612],
        [-129.52919365, -140.19740767, -15.90533804],
        [-129.64955355, -140.69713301, -14.28490995],
        [-129.76991393, -141.19685835, -12.66448187],
        [-129.8902743, -141.69658751, -11.04405378],
        [-130.01063467, -142.19631285, -9.4236257],
        [-130.13099505, -142.69603819, -7.8031957],
        [-130.25135542, -143.19576354, -6.18276953],
        [-130.37171532, -143.69548888, -4.56233953],
        [-130.4920757, -144.19521422, -2.94191335],
        [-130.61243607, -144.69493956, -1.32148336],
        [-130.73279644, -145.1946649, 0.29894282],
        [-130.85315682, -145.69439025, 1.91937281],
        [-130.97351672, -146.1941194, 3.53979899],
        [-131.09387709, -146.69384474, 5.16022898],
        [-131.21423747, -147.19357009, 6.78065516],
        [-131.33459784, -147.69329543, 8.40108515],
        [-131.45495821, -148.19302077, 10.02151514],
        [-131.57531859, -148.69274611, 11.64194132],
        [-131.69567896, -149.19247145, 13.26237131],
        [-131.81603934, -149.69219679, 14.88279749],
        [-131.93639876, -150.19192595, 16.50322748],
        [-132.05675913, -150.69165129, 18.12365366],
        [-132.17711951, -151.19137663, 19.74408365],
        [-132.29747988, -151.69110198, 21.36450983],
        [-132.41784026, -152.19082732, 22.98493601],
        [-132.53820063, -152.69055266, 24.605366],
        [-132.65856101, -153.190278, 26.225796],
        [-132.77892138, -153.69000334, 27.84622599],
        [-132.89928175, -154.1897325, 29.46664835],
        [-133.01964213, -154.68945784, 31.08707834],
        [-133.1400025, -155.18918318, 32.70750834],
        [-133.26036192, -155.68890853, 34.32793833],
        [-133.3807223, -156.18863387, 35.94836069],
        [-133.50108267, -156.68835921, 37.56879069],
        [-133.62144305, -157.18808455, 39.18922068],
        [-133.74180342, -157.68780989, 40.80965067],
        [-133.8621638, -158.18753523, 42.43008066]
],
      "CsaImage.TimeAfterStart": [16.4, 18.515, 16.55, 18.6675, 16.7025, 18.8175, 16.8525, 18.97, 17.005, 19.12, 17.155, 19.27, 17.3075, 19.4225, 17.4575, 19.5725, 17.61, 19.725, 17.76, 19.875, 17.91, 20.0275, 18.0625, 20.1775, 18.2125, 20.33, 18.365, 16.4, 18.515, 16.55, 18.6675, 16.7025, 18.8175, 16.8525, 18.97, 17.005, 19.12, 17.155, 19.27, 17.3075, 19.4225, 17.4575, 19.5725, 17.61, 19.725, 17.76, 19.875, 17.91, 20.0275, 18.0625, 20.1775, 18.2125, 20.33, 18.365, 16.4, 18.515, 16.55, 18.6675, 16.7025, 18.8175, 16.8525, 18.97, 17.005, 19.12, 17.155, 19.27, 17.3075, 19.4225, 17.4575, 19.5725, 17.61, 19.725, 17.76, 19.875, 17.91, 20.0275, 18.0625, 20.1775, 18.2125, 20.33, 18.365],
      "ImagePositionPatient": [
        [-124.23334081382, -118.2094726046, -87.204177606135],
        [-124.35370112866, -118.70919890007, -85.583751428157],
        [-124.4740613839, -119.20892424186, -83.963321435481],
        [-124.59442163915, -119.70865053734, -82.342895257502],
        [-124.7147820136, -120.20837587913, -80.722465264827],
        [-124.83514226884, -120.7081021746, -79.102039086848],
        [-124.95550252408, -121.2078275164, -77.481609094172],
        [-125.07586277932, -121.70755381187, -75.861179101497],
        [-125.19622315377, -122.20727915367, -74.240752923518],
        [-125.31658340901, -122.70700544914, -72.620324838191],
        [-125.43694378346, -123.20673079094, -70.999896752864],
        [-125.5573039195, -123.70645708641, -69.379468667537],
        [-125.67766429395, -124.2061824282, -67.759040582209],
        [-125.7980246684, -124.70590872368, -66.138612496882],
        [-125.91838480443, -125.20563406547, -64.518184411555],
        [-126.03874517888, -125.70535940727, -62.897754418879],
        [-126.15910531491, -126.20508665641, -61.277326333552],
        [-126.27946568936, -126.70481199821, -59.656898248225],
        [-126.39982606381, -127.20453734001, -58.036471116572],
        [-126.52018619985, -127.70426268181, -56.416043031245],
        [-126.6405465743, -128.20398993095, -54.795613992244],
        [-126.76090694875, -128.70371527275, -53.175185906917],
        [-126.88126708478, -129.20344061454, -51.554757821589],
        [-127.00162745923, -129.70316595634, -49.934329736262],
        [-127.12198759526, -130.20289320549, -48.313901650935],
        [-127.24234796971, -130.70261854728, -46.693473565608],
        [-127.36270834416, -131.20234388908, -45.073045241862],
        [-127.48306871861, -131.70206923088, -43.452617037326],
        [-127.60342909306, -132.20179457267, -41.832188832789],
        [-127.72378899068, -132.70152182182, -40.211760747462],
        [-127.84414936513, -133.20124716362, -38.591332662135],
        [-127.96450973958, -133.70097250541, -36.970904099971],
        [-128.08487011403, -134.20069784721, -35.350476014644],
        [-128.20523048848, -134.70042509636, -33.730047929316],
        [-128.32559038609, -135.20015043815, -32.109619843989],
        [-128.44595076054, -135.69987577995, -30.489191758662],
        [-128.566311135, -136.19960112175, -28.868763673335],
        [-128.68667150945, -136.69932837089, -27.248335588008],
        [-128.8070318839, -137.19905371269, -25.627906549006],
        [-128.92739225835, -137.69877905449, -24.007478463679],
        [-129.04775215596, -138.19850439628, -22.387050378352],
        [-129.16811253041, -138.69823164543, -20.766622293025],
        [-129.28847290486, -139.19795698723, -19.146194207698],
        [-129.40883327931, -139.69768232902, -17.525766122371],
        [-129.52919365376, -140.19740767082, -15.905338037043],
        [-129.64955355138, -140.69713301262, -14.284909951716],
        [-129.76991392583, -141.19685835441, -12.664481866389],
        [-129.89027430028, -141.69658751091, -11.044053781062],
        [-130.01063467473, -142.1963128527, -9.4236256957349],
        [-130.13099504918, -142.6960381945, -7.8031957030591],
        [-130.25135542363, -143.1957635363, -6.1827695250806],
        [-130.37171532124, -143.69548887809, -4.5623395324048],
        [-130.49207569569, -144.19521421989, -2.9419133544263],
        [-130.61243607015, -144.69493956169, -1.3214833617505],
        [-130.7327964446, -145.19466490349, 0.29894281622801],
        [-130.85315681905, -145.69439024528, 1.9193728089038],
        [-130.97351671666, -146.19411940178, 3.5397989868823],
        [-131.09387709111, -146.69384474357, 5.1602289795581],
        [-131.21423746556, -147.19357008537, 6.7806551575366],
        [-131.33459784001, -147.69329542717, 8.4010851502124],
        [-131.45495821446, -148.19302076896, 10.021515142888],
        [-131.57531858891, -148.69274611076, 11.641941320867],
        [-131.69567896336, -149.19247145256, 13.262371313542],
        [-131.81603933782, -149.69219679435, 14.882797491521],
        [-131.93639875859, -150.19192595085, 16.503227484197],
        [-132.05675913304, -150.69165129265, 18.123653662175],
        [-132.17711950749, -151.19137663444, 19.744083654851],
        [-132.29747988194, -151.69110197624, 21.36450983283],
        [-132.41784025639, -152.19082731804, 22.984936010808],
        [-132.53820063084, -152.69055265983, 24.605366003484],
        [-132.6585610053, -153.19027800163, 26.22579599616],
        [-132.77892137975, -153.69000334343, 27.846225988835],
        [-132.8992817542, -154.18973249992, 29.466648352117],
        [-133.01964212865, -154.68945784172, 31.087078344792],
        [-133.1400025031, -155.18918318351, 32.707508337468],
        [-133.26036192387, -155.68890852531, 34.327938330144],
        [-133.38072229833, -156.18863386711, 35.948360693425],
        [-133.50108267278, -156.6883592089, 37.568790686101],
        [-133.62144304723, -157.1880845507, 39.189220678777],
        [-133.74180342168, -157.6878098925, 40.809650671453],
        [-133.86216379613, -158.1875352343, 42.430080664128]
],
      "InstanceCreationTime": ["100229.802000", "100229.903000", "100229.811000", "100229.910000", "100229.817000", "100229.916000", "100229.828000", "100229.922000", "100229.835000", "100229.930000", "100229.841000", "100229.936000", "100229.848000", "100229.943000", "100229.856000", "100229.949000", "100229.862000", "100229.956000", "100229.868000", "100229.962000", "100229.875000", "100229.968000", "100229.881000", "100229.975000", "100229.888000", "100229.981000", "100229.897000", "100229.806000", "100229.905000", "100229.813000", "100229.912000", "100229.820000", "100229.918000", "100229.831000", "100229.925000", "100229.837000", "100229.932000", "100229.844000", "100229.938000", "100229.850000", "100229.945000", "100229.858000", "100229.951000", "100229.864000", "100229.958000", "100229.870000", "100229.964000", "100229.877000", "100229.970000", "100229.884000", "100229.977000", "100229.893000", "100229.983000", "100229.899000", "100229.809000", "100229.907000", "100229.815000", "100229.914000", "100229.822000", "100229.920000", "100229.833000", "100229.927000", "100229.839000", "100229.934000", "100229.846000", "100229.940000", "100229.853000", "100229.947000", "100229.860000", "100229.953000", "100229.866000", "100229.960000", "100229.873000", "100229.966000", "100229.879000", "100229.972000", "100229.886000", "100229.979000", "100229.895000", "100229.985000", "100229.901000"],
      "InstanceNumber": [1, 2, 3, 4, 5, 6, 7, 8, 9, 10, 11, 12, 13, 14, 15, 16, 17, 18, 19, 20, 21, 22, 23, 24, 25, 26, 27, 28, 29, 30, 31, 32, 33, 34, 35, 36, 37, 38, 39, 40, 41, 42, 43, 44, 45, 46, 47, 48, 49, 50, 51, 52, 53, 54, 55, 56, 57, 58, 59, 60, 61, 62, 63, 64, 65, 66, 67, 68, 69, 70, 71, 72, 73, 74, 75, 76, 77, 78, 79, 80, 81],
      "LargestImagePixelValue": [51988, 21374, 19975, 25106, 33701, 35228, 35939, 32763, 23503, 23629, 22759, 20225, 28328, 38570, 31216, 29970, 37409, 41603, 45413, 42055, 44158, 45849, 49636, 46090, 47517, 47085, 49164, 63248, 62324, 61878, 53265, 37248, 36001, 37039, 48206, 42227, 45319, 50485, 40924, 40301, 59099, 54815, 65535, 65535, 47323, 43352, 52660, 65535, 65535, 55192, 52528, 41087, 47617, 52171, 38024, 40848, 51744, 58339, 37921, 43150, 40623, 48699, 42691, 56457, 45354, 48234, 40592, 57430, 44231, 65535, 50582, 64856, 56916, 62819, 65535, 65535, 65535, 30397, 16093, 17436, 24455],
      "SliceLocation": [-39.578248749317, -37.878250521656, -36.17824894241, -34.478250718968, -32.778249131283, -31.078250907841, -29.378249328595, -27.678247469011, -25.978249517468, -24.278249475955, -22.578249706341, -20.878249673268, -19.178249903654, -17.478249853701, -15.778250100967, -14.078248513281, -12.378248199869, -10.678248430255, -8.9782495696764, -7.2782498169422, -5.5782485776149, -3.8782488080006, -2.1782490552663, -0.478249285652, 1.2217510277595, 2.9217507973738, 4.6217507942471, 6.3217506774909, 8.0217505607346, 9.7217508572661, 11.42175062688, 13.121750851013, 14.821750620627, 16.521750950918, 18.221750686773, 19.921750456387, 21.621750226001, 23.321750556293, 25.021751234943, 26.721751004557, 28.421750740411, 30.121751070703, 31.821750840317, 33.521750609932, 35.221750379546, 36.9217501154, 38.621749885014, 40.321750775983, 42.021750545598, 43.721752133283, 45.421750084826, 47.121751638752, 48.821749590295, 50.52175117798, 52.221749129523, 53.921750717209, 55.621749756346, 57.321751344032, 59.021749295575, 60.721750883261, 62.421752470947, 64.121750422489, 65.821752010175, 67.521749961718, 69.221752603238, 70.921750554781, 72.621752142467, 74.32175009401, 76.021748045552, 77.721749633238, 79.421751220924, 81.12175280861, 82.821748245364, 84.52174983305, 86.221751420736, 87.921752940901, 89.621747256301, 91.321748843987, 93.021750431673, 94.721752019358, 96.421753607044],
      "WindowCenter": [6905.0, 5363.0, 5264.0, 5545.0, 5852.0, 6080.0, 6114.0, 6018.0, 5650.0, 5516.0, 5679.0, 5573.0, 6372.0, 6790.0, 6687.0, 6870.0, 7547.0, 8170.0, 8496.0, 8492.0, 8378.0, 8377.0, 8647.0, 8846.0, 9125.0, 9213.0, 9403.0, 9572.0, 9433.0, 9252.0, 9145.0, 9056.0, 9012.0, 9015.0, 9229.0, 9402.0, 9448.0, 9560.0, 9564.0, 9779.0, 10005.0, 10110.0, 10359.0, 10439.0, 10354.0, 10217.0, 10381.0, 10513.0, 10605.0, 10686.0, 10816.0, 10759.0, 10822.0, 10850.0, 10348.0, 10351.0, 10669.0, 10659.0, 10383.0, 10238.0, 10226.0, 10182.0, 10112.0, 10117.0, 9825.0, 9762.0, 9592.0, 9751.0, 9470.0, 9761.0, 9437.0, 9378.0, 8960.0, 8989.0, 7880.0, 6608.0, 6352.0, 5192.0, 3791.0, 4149.0, 4865.0],
      "WindowWidth": [15057.0, 12098.0, 11682.0, 12082.0, 12675.0, 13083.0, 13198.0, 13008.0, 12286.0, 12209.0, 12569.0, 12570.0, 13941.0, 14956.0, 14850.0, 15296.0, 16677.0, 18132.0, 18838.0, 18742.0, 18474.0, 18348.0, 18872.0, 19317.0, 19847.0, 20164.0, 20672.0, 21117.0, 20786.0, 20104.0, 19759.0, 19442.0, 19216.0, 19301.0, 19845.0, 20136.0, 20233.0, 20437.0, 20513.0, 21026.0, 21499.0, 21755.0, 22491.0, 22661.0, 22387.0, 22025.0, 22580.0, 22975.0, 23317.0, 23275.0, 23470.0, 23194.0, 23322.0, 23327.0, 22213.0, 22345.0, 23249.0, 23187.0, 22475.0, 22120.0, 22169.0, 22203.0, 22158.0, 22136.0, 21496.0, 21317.0, 21001.0, 21328.0, 20689.0, 21467.0, 20750.0, 20699.0, 19524.0, 19762.0, 17927.0, 16243.0, 14767.0, 11254.0, 9214.0, 9555.0, 10633.0]
    }
  }
}