{
  "AcquisitionMatrixPE": 82,
  "AcquisitionNumber": 1,
  "AcquisitionTime": "18:13:9.170000",
  "BandwidthPerPixelPhaseEncode": 24.888,
  "BaseResolution": 82,
  "BodyPartExamined": "BRAIN",
  "ConsistencyInfo": "N4_VE11E_LATEST_20181129",
  "ConversionSoftware": "dcm2niix",
  "ConversionSoftwareVersion": "v1.0.20201102",
  "DerivedVendorReportedEchoSpacing": 0.00049,
  "DeviceSerialNumber": "66112",
  "DwellTime": 2e-06,
  "EchoTime": 0.0272,
  "EchoTrainLength": 82,
  "EffectiveEchoSpacing": 0.00049,
  "FlipAngle": 44,
  "ImageComments": "Unaliased MB8/PE3",
  "ImageOrientationPatientDICOM": [0.999281, 0.0326381, 0.0192735, -0.0308799, 0.99587, -0.0853821],
  "ImageType": [
    "ORIGINAL",
    "PRIMARY",
    "M",
    "MB",
    "ND",
    "NORM",
    "MOSAIC"
],
  "ImagingFrequency": 123.259,
  "InPlanePhaseEncodingDirectionDICOM": "COL",
  "InstitutionAddress": "Maynard 3,Hanover,NH,US,03755",
  "InstitutionName": "Dartmouth College - PBS",
  "InstitutionalDepartmentName": "Department",
  "MRAcquisitionType": "2D",
  "MagneticFieldStrength": 3,
  "Manufacturer": "Siemens",
  "ManufacturersModelName": "Prisma",
  "Modality": "MR",
  "MultibandAccelerationFactor": 8,
  "PartialFourier": 1,
  "PatientPosition": "HFS",
  "PercentPhaseFOV": 100,
  "PercentSampling": 100,
  "PhaseEncodingDirection": "j-",
  "PhaseEncodingSteps": 82,
  "PhaseResolution": 1,
  "PixelBandwidth": 3050,
  "ProcedureStepDescription": "Wager_Wager^1076_spacetop",
  "ProtocolName": "func_run-03_task-social_acq-ap-mb8",
  "PulseSequenceDetails": "%CustomerSeq%\\cmrr_mbep2d_bold",
  "ReceiveCoilActiveElements": "HEA;HEP",
  "ReceiveCoilName": "Head_32",
  "ReconMatrixPE": 82,
  "RepetitionTime": 0.46,
  "SAR": 0.0969096,
  "ScanOptions": "FS",
  "ScanningSequence": "EP",
  "SequenceName": "epfid2d1_82",
  "SequenceVariant": "SK\\SS",
  "SeriesDescription": "func_run-03_task-social_acq-ap-mb8",
  "SeriesNumber": 16,
  "ShimSetting": [4226, -7812, -7187, 140, -161, -198, -140, 75],
  "SliceThickness": 2.7,
  "SliceTiming": [0, 0.25, 0.0625, 0.3125, 0.125, 0.375, 0.1875, 0, 0.25, 0.0625, 0.3125, 0.125, 0.375, 0.1875, 0, 0.25, 0.0625, 0.3125, 0.125, 0.375, 0.1875, 0, 0.25, 0.0625, 0.3125, 0.125, 0.375, 0.1875, 0, 0.25, 0.0625, 0.3125, 0.125, 0.375, 0.1875, 0, 0.25, 0.0625, 0.3125, 0.125, 0.375, 0.1875, 0, 0.25, 0.0625, 0.3125, 0.125, 0.375, 0.1875, 0, 0.25, 0.0625, 0.3125, 0.125, 0.375, 0.1875],
  "SoftwareVersions": "syngo MR E11",
  "SpacingBetweenSlices": 2.7,
  "StationName": "AWP66112",
  "TaskName": "social",
  "TotalReadoutTime": 0.03969,
  "TxRefAmp": 256.026,
  "WipMemBlock": "71a7670c-0c4a-4f0e-9191-c5f161b7da3f||Sequence: R016 ve11e/master r/434b28f1; Aug  7 2019 18:53:46 by eja",
  "dcmmeta_affine": [
    [-2.6809988021850586, -0.08284851163625717, 0.059347763657569885, 114.97864532470703],
    [-0.08756572753190994, 2.6718454360961914, -0.22875916957855225, -81.74394226074219],
    [0.05170951411128044, 0.22907403111457825, 2.6896369457244873, -81.54978942871094],
    [0.0, 0.0, 0.0, 1.0]
],
  "dcmmeta_reorient_transform": [
    [0.0, -1.0, 0.0, 81.0],
    [1.0, 0.0, 0.0, 0.0],
    [0.0, 0.0, 1.0, 0.0],
    [0.0, 0.0, 0.0, 1.0]
],
  "dcmmeta_shape": [82, 82, 56, 872],
  "dcmmeta_slice_dim": 2,
  "dcmmeta_version": 0.6,
  "global": {
    "const": {
      "AccessionNumber": "A004336",
      "AcquisitionMatrix": [82, 0, 0, 82],
      "AngioFlag": "N",
      "BitsAllocated": 16,
      "BitsStored": 16,
      "BodyPartExamined": "BRAIN",
      "Columns": 656,
      "EchoNumbers": 1,
      "EchoTime": 27.2,
      "EchoTrainLength": 82,
      "FlipAngle": 44.0,
      "HighBit": 15,
      "ImageOrientationPatient": [0.9992813831473, 0.0326381328283, 0.0192735461373, -0.0308798995203, 0.99586963109881, -0.0853821390031],
      "ImagePositionPatient": [-853.9370785084, -926.62653431576, -12.091175782682],
      "ImageType": [
        "ORIGINAL",
        "PRIMARY",
        "M",
        "MB",
        "ND",
        "NORM",
        "MOSAIC"
],
      "ImagedNucleus": "1H",
      "ImagingFrequency": 123.25908,
      "InPlanePhaseEncodingDirection": "COL",
      "MRAcquisitionType": "2D",
      "MagneticFieldStrength": 3.0,
      "Manufacturer": "SIEMENS",
      "ManufacturerModelName": "Prisma",
      "Modality": "MR",
      "NumberOfAverages": 1.0,
      "NumberOfPhaseEncodingSteps": 82,
      "PercentPhaseFieldOfView": 100.0,
      "PercentSampling": 100.0,
      "PerformedProcedureStepStartTime": "172020.697000",
      "PhotometricInterpretation": "MONOCHROME2",
      "PixelBandwidth": 3050.0,
      "PixelRepresentation": 0,
      "PixelSpacing": [2.6829268932343, 2.6829268932343],
      "ProtocolName": "func_run-03_task-social_acq-ap-mb8",
      "RepetitionTime": 460.0,
      "Rows": 656,
      "SAR": 0.09690958526581,
      "SamplesPerPixel": 1,
      "ScanOptions": "FS",
      "ScanningSequence": "EP",
      "SequenceName": "epfid2d1_82",
      "SequenceVariant": [
        "SK",
        "SS"
],
      "SeriesDescription": "func_run-03_task-social_acq-ap-mb8",
      "SeriesNumber": 16,
      "SeriesTime": "181328.779000",
      "SliceLocation": -71.783678126231,
      "SliceThickness": 2.7000000476837,
      "SmallestImagePixelValue": 0,
      "SoftwareVersions": "syngo MR E11",
      "SpacingBetweenSlices": 2.7000000815711,
      "SpecificCharacterSet": "ISO_IR 100",
      "StudyID": "3",
      "StudyTime": "172020.636000",
      "TransmitCoilName": "Body",
      "VariableFlipAngleFlag": "N",
      "WindowCenterWidthExplanation": "Algo1"
    },
    "slices": {}
  },
  "time": {
    "samples": {
      "AcquisitionNumber": [1, 2, 3, 4, 5, 6, 7, 8, 9, 10, 11, 12, 13, 14, 15, 16, 17, 18, 19, 20, 21, 22, 23, 24, 25, 26, 27, 28, 29, 30, 31, 32, 33, 34, 35, 36, 37, 38, 39, 40, 41, 42, 43, 44, 45, 46, 47, 48, 49, 50, 51, 52, 53, 54, 55, 56, 57, 58, 59, 60, 61, 62, 63, 64, 65, 66, 67, 68, 69, 70, 71, 72, 73, 74, 75, 76, 77, 78, 79, 80, 81, 82, 83, 84, 85, 86, 87, 88, 89, 90, 91, 92, 93, 94, 95, 96, 97, 98, 99, 100, 101, 102, 103, 104, 105, 106, 107, 108, 109, 110, 111, 112, 113, 114, 115, 116, 117, 118, 119, 120, 121, 122, 123, 124, 125, 126, 127, 128, 129, 130, 131, 132, 133, 134, 135, 136, 137, 138, 139, 140, 141, 142, 143, 144, 145, 146, 147, 148, 149, 150, 151, 152, 153, 154, 155, 156, 157, 158, 159, 160, 161, 162, 163, 164, 165, 166, 167, 168, 169, 170, 171, 172, 173, 174, 175, 176, 177, 178, 179, 180, 181, 182, 183, 184, 185, 186, 187, 188, 189, 190, 191, 192, 193, 194, 195, 196, 197, 198, 199, 200, 201, 202, 203, 204, 205, 206, 207, 208, 209, 210, 211, 212, 213, 214, 215, 216, 217, 218, 219, 220, 221, 222, 223, 224, 225, 226, 227, 228, 229, 230, 231, 232, 233, 234, 235, 236, 237, 238, 239, 240, 241, 242, 243, 244, 245, 246, 247, 248, 249, 250, 251, 252, 253, 254, 255, 256, 257, 258, 259, 260, 261, 262, 263, 264, 265, 266, 267, 268, 269, 270, 271, 272, 273, 274, 275, 276, 277, 278, 279, 280, 281, 282, 283, 284, 285, 286, 287, 288, 289, 290, 291, 292, 293, 294, 295, 296, 297, 298, 299, 300, 301, 302, 303, 304, 305, 306, 307, 308, 309, 310, 311, 312, 313, 314, 315, 316, 317, 318, 319, 320, 321, 322, 323, 324, 325, 326, 327, 328, 329, 330, 331, 332, 333, 334, 335, 336, 337, 338, 339, 340, 341, 342, 343, 344, 345, 346, 347, 348, 349, 350, 351, 352, 353, 354, 355, 356, 357, 358, 359, 360, 361, 362, 363, 364, 365, 366, 367, 368, 369, 370, 371, 372, 373, 374, 375, 376, 377, 378, 379, 380, 381, 382, 383, 384, 385, 386, 387, 388, 389, 390, 391, 392, 393, 394, 395, 396, 397, 398, 399, 400, 401, 402, 403, 404, 405, 406, 407, 408, 409, 410, 411, 412, 413, 414, 415, 416, 417, 418, 419, 420, 421, 422, 423, 424, 425, 426, 427, 428, 429, 430, 431, 432, 433, 434, 435, 436, 437, 438, 439, 440, 441, 442, 443, 444, 445, 446, 447, 448, 449, 450, 451, 452, 453, 454, 455, 456, 457, 458, 459, 460, 461, 462, 463, 464, 465, 466, 467, 468, 469, 470, 471, 472, 473, 474, 475, 476, 477, 478, 479, 480, 481, 482, 483, 484, 485, 486, 487, 488, 489, 490, 491, 492, 493, 494, 495, 496, 497, 498, 499, 500, 501, 502, 503, 504, 505, 506, 507, 508, 509, 510, 511, 512, 513, 514, 515, 516, 517, 518, 519, 520, 521, 522, 523, 524, 525, 526, 527, 528, 529, 530, 531, 532, 533, 534, 535, 536, 537, 538, 539, 540, 541, 542, 543, 544, 545, 546, 547, 548, 549, 550, 551, 552, 553, 554, 555, 556, 557, 558, 559, 560, 561, 562, 563, 564, 565, 566, 567, 568, 569, 570, 571, 572, 573, 574, 575, 576, 577, 578, 579, 580, 581, 582, 583, 584, 585, 586, 587, 588, 589, 590, 591, 592, 593, 594, 595, 596, 597, 598, 599, 600, 601, 602, 603, 604, 605, 606, 607, 608, 609, 610, 611, 612, 613, 614, 615, 616, 617, 618, 619, 620, 621, 622, 623, 624, 625, 626, 627, 628, 629, 630, 631, 632, 633, 634, 635, 636, 637, 638, 639, 640, 641, 642, 643, 644, 645, 646, 647, 648, 649, 650, 651, 652, 653, 654, 655, 656, 657, 658, 659, 660, 661, 662, 663, 664, 665, 666, 667, 668, 669, 670, 671, 672, 673, 674, 675, 676, 677, 678, 679, 680, 681, 682, 683, 684, 685, 686, 687, 688, 689, 690, 691, 692, 693, 694, 695, 696, 697, 698, 699, 700, 701, 702, 703, 704, 705, 706, 707, 708, 709, 710, 711, 712, 713, 714, 715, 716, 717, 718, 719, 720, 721, 722, 723, 724, 725, 726, 727, 728, 729, 730, 731, 732, 733, 734, 735, 736, 737, 738, 739, 740, 741, 742, 743, 744, 745, 746, 747, 748, 749, 750, 751, 752, 753, 754, 755, 756, 757, 758, 759, 760, 761, 762, 763, 764, 765, 766, 767, 768, 769, 770, 771, 772, 773, 774, 775, 776, 777, 778, 779, 780, 781, 782, 783, 784, 785, 786, 787, 788, 789, 790, 791, 792, 793, 794, 795, 796, 797, 798, 799, 800, 801, 802, 803, 804, 805, 806, 807, 808, 809, 810, 811, 812, 813, 814, 815, 816, 817, 818, 819, 820, 821, 822, 823, 824, 825, 826, 827, 828, 829, 830, 831, 832, 833, 834, 835, 836, 837, 838, 839, 840, 841, 842, 843, 844, 845, 846, 847, 848, 849, 850, 851, 852, 853, 854, 855, 856, 857, 858, 859, 860, 861, 862, 863, 864, 865, 866, 867, 868, 869, 870, 871, 872],
      "AcquisitionTime": ["181309.170000", "181309.630000", "181310.090000", "181310.550000", "181311.010000", "181311.470000", "181311.930000", "181312.390000", "181312.850000", "181313.310000", "181313.770000", "181314.230000", "181314.690000", "181315.150000", "181315.610000", "181316.070000", "181316.530000", "181316.990000", "181317.450000", "181317.910000", "181318.370000", "181318.830000", "181319.290000", "181319.750000", "181320.210000", "181320.670000", "181321.130000", "181321.590000", "181322.050000", "181322.510000", "181322.970000", "181323.430000", "181323.890000", "181324.350000", "181324.810000", "181325.270000", "181325.730000", "181326.190000", "181326.650000", "181327.110000", "181327.570000", "181328.030000", "181328.490000", "181328.950000", "181329.410000", "181329.870000", "181330.330000", "181330.790000", "181331.250000", "181331.710000", "181332.170000", "181332.630000", "181333.090000", "181333.550000", "181334.010000", "181334.470000", "181334.930000", "181335.390000", "181335.850000", "181336.310000", "181336.770000", "181337.230000", "181337.690000", "181338.150000", "181338.610000", "181339.070000", "181339.530000", "181339.990000", "181340.450000", "181340.910000", "181341.370000", "181341.830000", "181342.290000", "181342.750000", "181343.210000", "181343.670000", "181344.130000", "181344.590000", "181345.050000", "181345.510000", "181345.970000", "181346.430000", "181346.890000", "181347.350000", "181347.810000", "181348.270000", "181348.730000", "181349.190000", "181349.650000", "181350.110000", "181350.570000", "181351.030000", "181351.490000", "181351.950000", "181352.410000", "181352.870000", "181353.330000", "181353.790000", "181354.250000", "181354.710000", "181355.170000", "181355.630000", "181356.090000", "181356.550000", "181357.010000", "181357.470000", "181357.930000", "181358.390000", "181358.850000", "181359.310000", "181359.770000", "181400.230000", "181400.690000", "181401.150000", "181401.610000", "181402.070000", "181402.530000", "181402.990000", "181403.450000", "181403.910000", "181404.370000", "181404.830000", "181405.290000", "181405.750000", "181406.210000", "181406.670000", "181407.130000", "181407.590000", "181408.050000", "181408.510000", "181408.970000", "181409.430000", "181409.890000", "181410.350000", "181410.810000", "181411.270000", "181411.730000", "181412.190000", "181412.650000", "181413.110000", "181413.570000", "181414.030000", "181414.490000", "181414.950000", "181415.410000", "181415.870000", "181416.330000", "181416.790000", "181417.250000", "181417.710000", "181418.170000", "181418.630000", "181419.090000", "181419.550000", "181420.010000", "181420.470000", "181420.930000", "181421.390000", "181421.850000", "181422.310000", "181422.770000", "181423.230000", "181423.690000", "181424.150000", "181424.610000", "181425.070000", "181425.530000", "181425.990000", "181426.450000", "181426.910000", "181427.370000", "181427.830000", "181428.290000", "181428.750000", "181429.210000", "181429.670000", "181430.130000", "181430.590000", "181431.050000", "181431.510000", "181431.970000", "181432.430000", "181432.890000", "181433.350000", "181433.810000", "181434.270000", "181434.730000", "181435.190000", "181435.650000", "181436.110000", "181436.570000", "181437.030000", "181437.490000", "181437.950000", "181438.410000", "181438.870000", "181439.330000", "181439.790000", "181440.250000", "181440.710000", "181441.170000", "181441.630000", "181442.090000", "181442.550000", "181443.010000", "181443.470000", "181443.930000", "181444.390000", "181444.850000", "181445.310000", "181445.770000", "181446.230000", "181446.690000", "181447.150000", "181447.610000", "181448.070000", "181448.530000", "181448.990000", "181449.450000", "181449.910000", "181450.370000", "181450.830000", "181451.290000", "181451.750000", "181452.210000", "181452.670000", "181453.130000", "181453.590000", "181454.050000", "181454.510000", "181454.970000", "181455.430000", "181455.890000", "181456.350000", "181456.810000", "181457.270000", "181457.730000", "181458.190000", "181458.650000", "181459.110000", "181459.570000", "181500.030000", "181500.490000", "181500.950000", "181501.410000", "181501.870000", "181502.330000", "181502.790000", "181503.250000", "181503.710000", "181504.170000", "181504.630000", "181505.090000", "181505.550000", "181506.010000", "181506.470000", "181506.930000", "181507.390000", "181507.850000", "181508.310000", "181508.770000", "181509.230000", "181509.690000", "181510.150000", "181510.610000", "181511.070000", "181511.530000", "181511.990000", "181512.450000", "181512.910000", "181513.370000", "181513.830000", "181514.290000", "181514.750000", "181515.210000", "181515.670000", "181516.130000", "181516.590000", "181517.050000", "181517.510000", "181517.970000", "181518.430000", "181518.890000", "181519.350000", "181519.810000", "181520.270000", "181520.730000", "181521.190000", "181521.650000", "181522.110000", "181522.570000", "181523.030000", "181523.490000", "181523.950000", "181524.410000", "181524.870000", "181525.330000", "181525.790000", "181526.250000", "181526.710000", "181527.170000", "181527.630000", "181528.090000", "181528.550000", "181529.010000", "181529.470000", "181529.930000", "181530.390000", "181530.850000", "181531.310000", "181531.770000", "181532.230000", "181532.690000", "181533.150000", "181533.610000", "181534.070000", "181534.530000", "181534.990000", "181535.450000", "181535.910000", "181536.370000", "181536.830000", "181537.290000", "181537.750000", "181538.210000", "181538.670000", "181539.130000", "181539.590000", "181540.050000", "181540.510000", "181540.970000", "181541.430000", "181541.890000", "181542.350000", "181542.810000", "181543.270000", "181543.730000", "181544.190000", "181544.650000", "181545.110000", "181545.570000", "181546.030000", "181546.490000", "181546.950000", "181547.410000", "181547.870000", "181548.330000", "181548.790000", "181549.250000", "181549.710000", "181550.170000", "181550.630000", "181551.090000", "181551.550000", "181552.010000", "181552.470000", "181552.930000", "181553.390000", "181553.850000", "181554.310000", "181554.770000", "181555.230000", "181555.690000", "181556.150000", "181556.610000", "181557.070000", "181557.530000", "181557.990000", "181558.450000", "181558.910000", "181559.370000", "181559.830000", "181600.290000", "181600.750000", "181601.210000", "181601.670000", "181602.130000", "181602.590000", "181603.050000", "181603.510000", "181603.970000", "181604.430000", "181604.890000", "181605.350000", "181605.810000", "181606.270000", "181606.730000", "181607.190000", "181607.650000", "181608.110000", "181608.570000", "181609.030000", "181609.490000", "181609.950000", "181610.410000", "181610.870000", "181611.330000", "181611.790000", "181612.250000", "181612.710000", "181613.170000", "181613.630000", "181614.090000", "181614.550000", "181615.010000", "181615.470000", "181615.930000", "181616.390000", "181616.850000", "181617.310000", "181617.770000", "181618.230000", "181618.690000", "181619.150000", "181619.610000", "181620.070000", "181620.530000", "181620.990000", "181621.450000", "181621.910000", "181622.370000", "181622.830000", "181623.290000", "181623.750000", "181624.210000", "181624.670000", "181625.130000", "181625.590000", "181626.050000", "181626.510000", "181626.970000", "181627.430000", "181627.890000", "181628.350000", "181628.810000", "181629.270000", "181629.730000", "181630.190000", "181630.650000", "181631.110000", "181631.570000", "181632.030000", "181632.490000", "181632.950000", "181633.410000", "181633.870000", "181634.330000", "181634.790000", "181635.250000", "181635.710000", "181636.170000", "181636.630000", "181637.090000", "181637.550000", "181638.010000", "181638.470000", "181638.930000", "181639.390000", "181639.850000", "181640.310000", "181640.770000", "181641.230000", "181641.690000", "181642.150000", "181642.610000", "181643.070000", "181643.530000", "181643.990000", "181644.450000", "181644.910000", "181645.370000", "181645.830000", "181646.290000", "181646.750000", "181647.210000", "181647.670000", "181648.130000", "181648.590000", "181649.050000", "181649.510000", "181649.970000", "181650.430000", "181650.890000", "181651.350000", "181651.810000", "181652.270000", "181652.730000", "181653.190000", "181653.650000", "181654.110000", "181654.570000", "181655.030000", "181655.490000", "181655.950000", "181656.410000", "181656.870000", "181657.330000", "181657.790000", "181658.250000", "181658.710000", "181659.170000", "181659.630000", "181700.090000", "181700.550000", "181701.010000", "181701.470000", "181701.930000", "181702.390000", "181702.850000", "181703.310000", "181703.770000", "181704.230000", "181704.690000", "181705.150000", "181705.610000", "181706.070000", "181706.530000", "181706.990000", "181707.450000", "181707.910000", "181708.370000", "181708.830000", "181709.290000", "181709.750000", "181710.210000", "181710.670000", "181711.130000", "181711.590000", "181712.050000", "181712.510000", "181712.970000", "181713.430000", "181713.890000", "181714.350000", "181714.810000", "181715.270000", "181715.730000", "181716.190000", "181716.650000", "181717.110000", "181717.570000", "181718.030000", "181718.490000", "181718.950000", "181719.410000", "181719.870000", "181720.330000", "181720.790000", "181721.250000", "181721.710000", "181722.170000", "181722.630000", "181723.090000", "181723.550000", "181724.010000", "181724.470000", "181724.930000", "181725.390000", "181725.850000", "181726.310000", "181726.770000", "181727.230000", "181727.690000", "181728.150000", "181728.610000", "181729.070000", "181729.530000", "181729.990000", "181730.450000", "181730.910000", "181731.370000", "181731.830000", "181732.290000", "181732.750000", "181733.210000", "181733.670000", "181734.130000", "181734.590000", "181735.050000", "181735.510000", "181735.970000", "181736.430000", "181736.890000", "181737.350000", "181737.810000", "181738.270000", "181738.730000", "181739.190000", "181739.650000", "181740.110000", "181740.570000", "181741.030000", "181741.490000", "181741.950000", "181742.410000", "181742.870000", "181743.330000", "181743.790000", "181744.250000", "181744.710000", "181745.170000", "181745.630000", "181746.090000", "181746.550000", "181747.010000", "181747.470000", "181747.930000", "181748.390000", "181748.850000", "181749.310000", "181749.770000", "181750.230000", "181750.690000", "181751.150000", "181751.610000", "181752.070000", "181752.530000", "181752.990000", "181753.450000", "181753.910000", "181754.370000", "181754.830000", "181755.290000", "181755.750000", "181756.210000", "181756.670000", "181757.130000", "181757.590000", "181758.050000", "181758.510000", "181758.970000", "181759.430000", "181759.890000", "181800.350000", "181800.810000", "181801.270000", "181801.730000", "181802.190000", "181802.650000", "181803.110000", "181803.570000", "181804.030000", "181804.490000", "181804.950000", "181805.410000", "181805.870000", "181806.330000", "181806.790000", "181807.250000", "181807.710000", "181808.170000", "181808.630000", "181809.090000", "181809.550000", "181810.010000", "181810.470000", "181810.930000", "181811.390000", "181811.850000", "181812.310000", "181812.770000", "181813.230000", "181813.690000", "181814.150000", "181814.610000", "181815.070000", "181815.530000", "181815.990000", "181816.450000", "181816.910000", "181817.370000", "181817.830000", "181818.290000", "181818.750000", "181819.210000", "181819.670000", "181820.130000", "181820.590000", "181821.050000", "181821.510000", "181821.970000", "181822.430000", "181822.890000", "181823.350000", "181823.810000", "181824.270000", "181824.730000", "181825.190000", "181825.650000", "181826.110000", "181826.570000", "181827.030000", "181827.490000", "181827.950000", "181828.410000", "181828.870000", "181829.330000", "181829.790000", "181830.250000", "181830.710000", "181831.170000", "181831.630000", "181832.090000", "181832.550000", "181833.010000", "181833.470000", "181833.930000", "181834.390000", "181834.850000", "181835.310000", "181835.770000", "181836.230000", "181836.690000", "181837.150000", "181837.610000", "181838.070000", "181838.530000", "181838.990000", "181839.450000", "181839.910000", "181840.370000", "181840.830000", "181841.290000", "181841.750000", "181842.210000", "181842.670000", "181843.130000", "181843.590000", "181844.050000", "181844.510000", "181844.970000", "181845.430000", "181845.890000", "181846.350000", "181846.810000", "181847.270000", "181847.730000", "181848.190000", "181848.650000", "181849.110000", "181849.570000", "181850.030000", "181850.490000", "181850.950000", "181851.410000", "181851.870000", "181852.330000", "181852.790000", "181853.250000", "181853.710000", "181854.170000", "181854.630000", "181855.090000", "181855.550000", "181856.010000", "181856.470000", "181856.930000", "181857.390000", "181857.850000", "181858.310000", "181858.770000", "181859.230000", "181859.690000", "181900.150000", "181900.610000", "181901.070000", "181901.530000", "181901.990000", "181902.450000", "181902.910000", "181903.370000", "181903.830000", "181904.290000", "181904.750000", "181905.210000", "181905.670000", "181906.130000", "181906.590000", "181907.050000", "181907.510000", "181907.970000", "181908.430000", "181908.890000", "181909.350000", "181909.810000", "181910.270000", "181910.730000", "181911.190000", "181911.650000", "181912.110000", "181912.570000", "181913.030000", "181913.490000", "181913.950000", "181914.410000", "181914.870000", "181915.330000", "181915.790000", "181916.250000", "181916.710000", "181917.170000", "181917.630000", "181918.090000", "181918.550000", "181919.010000", "181919.470000", "181919.930000", "181920.390000", "181920.850000", "181921.310000", "181921.770000", "181922.230000", "181922.690000", "181923.150000", "181923.610000", "181924.070000", "181924.530000", "181924.990000", "181925.450000", "181925.910000", "181926.370000", "181926.830000", "181927.290000", "181927.750000", "181928.210000", "181928.670000", "181929.130000", "181929.590000", "181930.050000", "181930.510000", "181930.970000", "181931.430000", "181931.890000", "181932.350000", "181932.810000", "181933.270000", "181933.730000", "181934.190000", "181934.650000", "181935.110000", "181935.570000", "181936.030000", "181936.490000", "181936.950000", "181937.410000", "181937.870000", "181938.330000", "181938.790000", "181939.250000", "181939.710000", "181940.170000", "181940.630000", "181941.090000", "181941.550000", "181942.010000", "181942.470000", "181942.930000", "181943.390000", "181943.850000", "181944.310000", "181944.770000", "181945.230000", "181945.690000", "181946.150000", "181946.610000", "181947.070000", "181947.530000", "181947.990000", "181948.450000", "181948.910000", "181949.370000", "181949.830000"],
