{
  "AcquisitionMatrixPE": 82,
  "AcquisitionNumber": 1,
  "AcquisitionTime": "14:53:21.460000",
  "BandwidthPerPixelPhaseEncode": 24.888,
  "BaseResolution": 82,
  "BodyPartExamined": "BRAIN",
  "ConsistencyInfo": "N4_VE11E_LATEST_20181129",
  "ConversionSoftware": "dcm2niix",
  "ConversionSoftwareVersion": "v1.0.20201102",
  "DerivedVendorReportedEchoSpacing": 0.00049,
  "DeviceSerialNumber": "66112",
  "DwellTime": 2e-06,
  "EchoTime": 0.0272,
  "EchoTrainLength": 82,
  "EffectiveEchoSpacing": 0.00049,
  "FlipAngle": 44,
  "ImageComments": "Unaliased MB8/PE3",
  "ImageOrientationPatientDICOM": [0.999896, 0.00994436, 0.0104891, -0.00890049, 0.995413, -0.0952585],
  "ImageType": [
    "ORIGINAL",
    "PRIMARY",
    "M",
    "MB",
    "ND",
    "NORM",
    "MOSAIC"
],
  "ImagingFrequency": 123.252,
  "InPlanePhaseEncodingDirectionDICOM": "COL",
  "InstitutionAddress": "Maynard 3,Hanover,NH,US,03755",
  "InstitutionName": "Dartmouth College - PBS",
  "InstitutionalDepartmentName": "Department",
  "MRAcquisitionType": "2D",
  "MagneticFieldStrength": 3,
  "Manufacturer": "Siemens",
  "ManufacturersModelName": "Prisma",
  "Modality": "MR",
  "MultibandAccelerationFactor": 8,
  "PartialFourier": 1,
  "PatientPosition": "HFS",
  "PercentPhaseFOV": 100,
  "PercentSampling": 100,
  "PhaseEncodingDirection": "j-",
  "PhaseEncodingSteps": 82,
  "PhaseResolution": 1,
  "PixelBandwidth": 3050,
  "ProcedureStepDescription": "Wager_Wager^1076_spacetop",
  "ProtocolName": "func_run-01_task-social_acq-ap-mb8",
  "PulseSequenceDetails": "%CustomerSeq%\\cmrr_mbep2d_bold",
  "ReceiveCoilActiveElements": "HEA;HEP",
  "ReceiveCoilName": "Head_32",
  "ReconMatrixPE": 82,
  "RepetitionTime": 0.46,
  "SAR": 0.093138,
  "ScanOptions": "FS",
  "ScanningSequence": "EP",
  "SequenceName": "epfid2d1_82",
  "SequenceVariant": "SK\\SS",
  "SeriesDescription": "func_run-01_task-social_acq-ap-mb8",
  "SeriesNumber": 8,
  "ShimSetting": [4146, -7687, -7291, 584, -26, -152, -90, 93],
  "SliceThickness": 2.7,
  "SliceTiming": [0, 0.2525, 0.0625, 0.315, 0.1275, 0.3775, 0.19, 0, 0.2525, 0.0625, 0.315, 0.1275, 0.3775, 0.19, 0, 0.2525, 0.0625, 0.315, 0.1275, 0.3775, 0.19, 0, 0.2525, 0.0625, 0.315, 0.1275, 0.3775, 0.19, 0, 0.2525, 0.0625, 0.315, 0.1275, 0.3775, 0.19, 0, 0.2525, 0.0625, 0.315, 0.1275, 0.3775, 0.19, 0, 0.2525, 0.0625, 0.315, 0.1275, 0.3775, 0.19, 0, 0.2525, 0.0625, 0.315, 0.1275, 0.3775, 0.19],
  "SoftwareVersions": "syngo MR E11",
  "SpacingBetweenSlices": 2.7,
  "StationName": "AWP66112",
  "TaskName": "social",
  "TotalReadoutTime": 0.03969,
  "TxRefAmp": 256.935,
  "WipMemBlock": "3cf4438c-9c69-408b-960c-6b64d9df8a80||Sequence: R016 ve11e/master r/434b28f1; Aug  7 2019 18:53:46 by eja",
  "dcmmeta_affine": [
    [-2.6826465129852295, -0.023879369720816612, 0.030748436227440834, 114.6108169555664],
    [-0.02667998895049095, 2.6706197261810303, -0.25691911578178406, -80.28063201904297],
    [0.028141595423221588, 0.2555716633796692, 2.687572717666626, -91.40372467041016],
    [0.0, 0.0, 0.0, 1.0]
],
  "dcmmeta_reorient_transform": [
    [0.0, -1.0, 0.0, 81.0],
    [1.0, 0.0, 0.0, 0.0],
    [0.0, 0.0, 1.0, 0.0],
    [0.0, 0.0, 0.0, 1.0]
],
  "dcmmeta_shape": [82, 82, 56, 872],
  "dcmmeta_slice_dim": 2,
  "dcmmeta_version": 0.6,
  "global": {
    "const": {
      "AccessionNumber": "A003922",
      "AcquisitionMatrix": [82, 0, 0, 82],
      "AngioFlag": "N",
      "BitsAllocated": 16,
      "BitsStored": 16,
      "BodyPartExamined": "BRAIN",
      "Columns": 656,
      "EchoNumbers": 1,
      "EchoTime": 27.2,
      "EchoTrainLength": 82,
      "FlipAngle": 44.0,
      "HighBit": 15,
      "ImageOrientationPatient": [0.99989553836987, 0.00994435949233, 0.01048914020872, -0.0089004921427, 0.99541277534342, -0.0952585320206],
      "ImagePositionPatient": [-875.74279432624, -910.16457326248, -5.4299872600085],
      "ImageType": [
        "ORIGINAL",
        "PRIMARY",
        "M",
        "MB",
        "ND",
        "NORM",
        "MOSAIC"
],
      "ImagedNucleus": "1H",
      "ImagingFrequency": 123.252192,
      "InPlanePhaseEncodingDirection": "COL",
      "MRAcquisitionType": "2D",
      "MagneticFieldStrength": 3.0,
      "Manufacturer": "SIEMENS",
      "ManufacturerModelName": "Prisma",
      "Modality": "MR",
      "NumberOfAverages": 1.0,
      "NumberOfPhaseEncodingSteps": 82,
      "PercentPhaseFieldOfView": 100.0,
      "PercentSampling": 100.0,
      "PerformedProcedureStepStartTime": "142746.291000",
      "PhotometricInterpretation": "MONOCHROME2",
      "PixelBandwidth": 3050.0,
      "PixelRepresentation": 0,
      "PixelSpacing": [2.6829268932343, 2.6829268932343],
      "ProtocolName": "func_run-01_task-social_acq-ap-mb8",
      "RepetitionTime": 460.0,
      "Rows": 656,
      "SAR": 0.09313804791161,
      "SamplesPerPixel": 1,
      "ScanOptions": "FS",
      "ScanningSequence": "EP",
      "SequenceName": "epfid2d1_82",
      "SequenceVariant": [
        "SK",
        "SS"
],
      "SeriesDescription": "func_run-01_task-social_acq-ap-mb8",
      "SeriesNumber": 8,
      "SeriesTime": "145337.872000",
      "SliceLocation": -82.038677519729,
      "SliceThickness": 2.7000000476837,
      "SmallestImagePixelValue": 0,
      "SoftwareVersions": "syngo MR E11",
      "SpacingBetweenSlices": 2.7000001097892,
      "SpecificCharacterSet": "ISO_IR 100",
      "StudyID": "3",
      "StudyTime": "142746.220000",
      "TransmitCoilName": "Body",
      "VariableFlipAngleFlag": "N",
      "WindowCenterWidthExplanation": "Algo1"
    },
    "slices": {}
  },
  "time": {
    "samples": {
      "AcquisitionNumber": [1, 2, 3, 4, 5, 6, 7, 8, 9, 10, 11, 12, 13, 14, 15, 16, 17, 18, 19, 20, 21, 22, 23, 24, 25, 26, 27, 28, 29, 30, 31, 32, 33, 34, 35, 36, 37, 38, 39, 40, 41, 42, 43, 44, 45, 46, 47, 48, 49, 50, 51, 52, 53, 54, 55, 56, 57, 58, 59, 60, 61, 62, 63, 64, 65, 66, 67, 68, 69, 70, 71, 72, 73, 74, 75, 76, 77, 78, 79, 80, 81, 82, 83, 84, 85, 86, 87, 88, 89, 90, 91, 92, 93, 94, 95, 96, 97, 98, 99, 100, 101, 102, 103, 104, 105, 106, 107, 108, 109, 110, 111, 112, 113, 114, 115, 116, 117, 118, 119, 120, 121, 122, 123, 124, 125, 126, 127, 128, 129, 130, 131, 132, 133, 134, 135, 136, 137, 138, 139, 140, 141, 142, 143, 144, 145, 146, 147, 148, 149, 150, 151, 152, 153, 154, 155, 156, 157, 158, 159, 160, 161, 162, 163, 164, 165, 166, 167, 168, 169, 170, 171, 172, 173, 174, 175, 176, 177, 178, 179, 180, 181, 182, 183, 184, 185, 186, 187, 188, 189, 190, 191, 192, 193, 194, 195, 196, 197, 198, 199, 200, 201, 202, 203, 204, 205, 206, 207, 208, 209, 210, 211, 212, 213, 214, 215, 216, 217, 218, 219, 220, 221, 222, 223, 224, 225, 226, 227, 228, 229, 230, 231, 232, 233, 234, 235, 236, 237, 238, 239, 240, 241, 242, 243, 244, 245, 246, 247, 248, 249, 250, 251, 252, 253, 254, 255, 256, 257, 258, 259, 260, 261, 262, 263, 264, 265, 266, 267, 268, 269, 270, 271, 272, 273, 274, 275, 276, 277, 278, 279, 280, 281, 282, 283, 284, 285, 286, 287, 288, 289, 290, 291, 292, 293, 294, 295, 296, 297, 298, 299, 300, 301, 302, 303, 304, 305, 306, 307, 308, 309, 310, 311, 312, 313, 314, 315, 316, 317, 318, 319, 320, 321, 322, 323, 324, 325, 326, 327, 328, 329, 330, 331, 332, 333, 334, 335, 336, 337, 338, 339, 340, 341, 342, 343, 344, 345, 346, 347, 348, 349, 350, 351, 352, 353, 354, 355, 356, 357, 358, 359, 360, 361, 362, 363, 364, 365, 366, 367, 368, 369, 370, 371, 372, 373, 374, 375, 376, 377, 378, 379, 380, 381, 382, 383, 384, 385, 386, 387, 388, 389, 390, 391, 392, 393, 394, 395, 396, 397, 398, 399, 400, 401, 402, 403, 404, 405, 406, 407, 408, 409, 410, 411, 412, 413, 414, 415, 416, 417, 418, 419, 420, 421, 422, 423, 424, 425, 426, 427, 428, 429, 430, 431, 432, 433, 434, 435, 436, 437, 438, 439, 440, 441, 442, 443, 444, 445, 446, 447, 448, 449, 450, 451, 452, 453, 454, 455, 456, 457, 458, 459, 460, 461, 462, 463, 464, 465, 466, 467, 468, 469, 470, 471, 472, 473, 474, 475, 476, 477, 478, 479, 480, 481, 482, 483, 484, 485, 486, 487, 488, 489, 490, 491, 492, 493, 494, 495, 496, 497, 498, 499, 500, 501, 502, 503, 504, 505, 506, 507, 508, 509, 510, 511, 512, 513, 514, 515, 516, 517, 518, 519, 520, 521, 522, 523, 524, 525, 526, 527, 528, 529, 530, 531, 532, 533, 534, 535, 536, 537, 538, 539, 540, 541, 542, 543, 544, 545, 546, 547, 548, 549, 550, 551, 552, 553, 554, 555, 556, 557, 558, 559, 560, 561, 562, 563, 564, 565, 566, 567, 568, 569, 570, 571, 572, 573, 574, 575, 576, 577, 578, 579, 580, 581, 582, 583, 584, 585, 586, 587, 588, 589, 590, 591, 592, 593, 594, 595, 596, 597, 598, 599, 600, 601, 602, 603, 604, 605, 606, 607, 608, 609, 610, 611, 612, 613, 614, 615, 616, 617, 618, 619, 620, 621, 622, 623, 624, 625, 626, 627, 628, 629, 630, 631, 632, 633, 634, 635, 636, 637, 638, 639, 640, 641, 642, 643, 644, 645, 646, 647, 648, 649, 650, 651, 652, 653, 654, 655, 656, 657, 658, 659, 660, 661, 662, 663, 664, 665, 666, 667, 668, 669, 670, 671, 672, 673, 674, 675, 676, 677, 678, 679, 680, 681, 682, 683, 684, 685, 686, 687, 688, 689, 690, 691, 692, 693, 694, 695, 696, 697, 698, 699, 700, 701, 702, 703, 704, 705, 706, 707, 708, 709, 710, 711, 712, 713, 714, 715, 716, 717, 718, 719, 720, 721, 722, 723, 724, 725, 726, 727, 728, 729, 730, 731, 732, 733, 734, 735, 736, 737, 738, 739, 740, 741, 742, 743, 744, 745, 746, 747, 748, 749, 750, 751, 752, 753, 754, 755, 756, 757, 758, 759, 760, 761, 762, 763, 764, 765, 766, 767, 768, 769, 770, 771, 772, 773, 774, 775, 776, 777, 778, 779, 780, 781, 782, 783, 784, 785, 786, 787, 788, 789, 790, 791, 792, 793, 794, 795, 796, 797, 798, 799, 800, 801, 802, 803, 804, 805, 806, 807, 808, 809, 810, 811, 812, 813, 814, 815, 816, 817, 818, 819, 820, 821, 822, 823, 824, 825, 826, 827, 828, 829, 830, 831, 832, 833, 834, 835, 836, 837, 838, 839, 840, 841, 842, 843, 844, 845, 846, 847, 848, 849, 850, 851, 852, 853, 854, 855, 856, 857, 858, 859, 860, 861, 862, 863, 864, 865, 866, 867, 868, 869, 870, 871, 872],
      "AcquisitionTime": ["145321.460000", "145321.920000", "145322.380000", "145322.840000", "145323.300000", "145323.760000", "145324.220000", "145324.680000", "145325.140000", "145325.600000", "145326.060000", "145326.520000", "145326.980000", "145327.440000", "145327.900000", "145328.360000", "145328.820000", "145329.280000", "145329.740000", "145330.200000", "145330.660000", "145331.120000", "145331.580000", "145332.040000", "145332.500000", "145332.960000", "145333.420000", "145333.880000", "145334.340000", "145334.800000", "145335.260000", "145335.720000", "145336.180000", "145336.640000", "145337.100000", "145337.560000", "145338.020000", "145338.480000", "145338.940000", "145339.400000", "145339.860000", "145340.320000", "145340.780000", "145341.240000", "145341.700000", "145342.160000", "145342.620000", "145343.080000", "145343.540000", "145344.000000", "145344.460000", "145344.920000", "145345.380000", "145345.840000", "145346.300000", "145346.760000", "145347.220000", "145347.680000", "145348.140000", "145348.600000", "145349.060000", "145349.520000", "145349.980000", "145350.440000", "145350.900000", "145351.360000", "145351.820000", "145352.280000", "145352.740000", "145353.200000", "145353.660000", "145354.120000", "145354.580000", "145355.040000", "145355.500000", "145355.960000", "145356.420000", "145356.880000", "145357.340000", "145357.800000", "145358.260000", "145358.720000", "145359.180000", "145359.640000", "145400.100000", "145400.560000", "145401.020000", "145401.480000", "145401.940000", "145402.400000", "145402.860000", "145403.320000", "145403.780000", "145404.240000", "145404.700000", "145405.160000", "145405.620000", "145406.080000", "145406.540000", "145407.000000", "145407.460000", "145407.920000", "145408.380000", "145408.840000", "145409.300000", "145409.760000", "145410.220000", "145410.680000", "145411.140000", "145411.600000", "145412.060000", "145412.520000", "145412.980000", "145413.440000", "145413.900000", "145414.360000", "145414.820000", "145415.280000", "145415.740000", "145416.200000", "145416.660000", "145417.120000", "145417.580000", "145418.040000", "145418.500000", "145418.960000", "145419.420000", "145419.880000", "145420.340000", "145420.800000", "145421.260000", "145421.720000", "145422.180000", "145422.640000", "145423.100000", "145423.560000", "145424.020000", "145424.480000", "145424.940000", "145425.400000", "145425.860000", "145426.320000", "145426.780000", "145427.240000", "145427.700000", "145428.160000", "145428.620000", "145429.080000", "145429.540000", "145430.000000", "145430.460000", "145430.920000", "145431.380000", "145431.840000", "145432.300000", "145432.760000", "145433.220000", "145433.680000", "145434.140000", "145434.600000", "145435.060000", "145435.520000", "145435.980000", "145436.440000", "145436.900000", "145437.360000", "145437.820000", "145438.280000", "145438.740000", "145439.200000", "145439.660000", "145440.120000", "145440.580000", "145441.040000", "145441.500000", "145441.960000", "145442.420000", "145442.880000", "145443.340000", "145443.800000", "145444.260000", "145444.720000", "145445.180000", "145445.640000", "145446.100000", "145446.560000", "145447.020000", "145447.480000", "145447.940000", "145448.400000", "145448.860000", "145449.320000", "145449.780000", "145450.240000", "145450.700000", "145451.160000", "145451.620000", "145452.080000", "145452.540000", "145453.000000", "145453.460000", "145453.920000", "145454.380000", "145454.840000", "145455.300000", "145455.760000", "145456.220000", "145456.680000", "145457.140000", "145457.600000", "145458.060000", "145458.520000", "145458.980000", "145459.440000", "145459.900000", "145500.360000", "145500.820000", "145501.280000", "145501.740000", "145502.200000", "145502.660000", "145503.120000", "145503.580000", "145504.040000", "145504.500000", "145504.960000", "145505.420000", "145505.880000", "145506.340000", "145506.800000", "145507.260000", "145507.720000", "145508.180000", "145508.640000", "145509.100000", "145509.560000", "145510.020000", "145510.480000", "145510.940000", "145511.400000", "145511.860000", "145512.320000", "145512.780000", "145513.240000", "145513.700000", "145514.160000", "145514.620000", "145515.080000", "145515.540000", "145516.000000", "145516.460000", "145516.920000", "145517.380000", "145517.840000", "145518.300000", "145518.760000", "145519.220000", "145519.680000", "145520.140000", "145520.600000", "145521.060000", "145521.520000", "145521.980000", "145522.440000", "145522.900000", "145523.360000", "145523.820000", "145524.280000", "145524.740000", "145525.200000", "145525.660000", "145526.120000", "145526.580000", "145527.040000", "145527.500000", "145527.960000", "145528.420000", "145528.880000", "145529.340000", "145529.800000", "145530.260000", "145530.720000", "145531.180000", "145531.640000", "145532.100000", "145532.560000", "145533.020000", "145533.480000", "145533.940000", "145534.400000", "145534.860000", "145535.320000", "145535.780000", "145536.240000", "145536.700000", "145537.160000", "145537.620000", "145538.080000", "145538.540000", "145539.000000", "145539.460000", "145539.920000", "145540.380000", "145540.840000", "145541.300000", "145541.760000", "145542.220000", "145542.680000", "145543.140000", "145543.600000", "145544.060000", "145544.520000", "145544.980000", "145545.440000", "145545.900000", "145546.360000", "145546.820000", "145547.280000", "145547.740000", "145548.200000", "145548.660000", "145549.120000", "145549.580000", "145550.040000", "145550.500000", "145550.960000", "145551.420000", "145551.880000", "145552.340000", "145552.800000", "145553.260000", "145553.720000", "145554.180000", "145554.640000", "145555.100000", "145555.560000", "145556.020000", "145556.480000", "145556.940000", "145557.400000", "145557.860000", "145558.320000", "145558.780000", "145559.240000", "145559.700000", "145600.160000", "145600.620000", "145601.080000", "145601.540000", "145602.000000", "145602.460000", "145602.920000", "145603.380000", "145603.840000", "145604.300000", "145604.760000", "145605.220000", "145605.680000", "145606.140000", "145606.600000", "145607.060000", "145607.520000", "145607.980000", "145608.440000", "145608.900000", "145609.360000", "145609.820000", "145610.280000", "145610.740000", "145611.200000", "145611.660000", "145612.120000", "145612.580000", "145613.040000", "145613.500000", "145613.960000", "145614.420000", "145614.880000", "145615.340000", "145615.800000", "145616.260000", "145616.720000", "145617.180000", "145617.640000", "145618.100000", "145618.560000", "145619.020000", "145619.480000", "145619.940000", "145620.400000", "145620.860000", "145621.320000", "145621.780000", "145622.240000", "145622.700000", "145623.160000", "145623.620000", "145624.080000", "145624.540000", "145625.000000", "145625.460000", "145625.920000", "145626.380000", "145626.840000", "145627.300000", "145627.760000", "145628.220000", "145628.680000", "145629.140000", "145629.600000", "145630.060000", "145630.520000", "145630.980000", "145631.440000", "145631.900000", "145632.360000", "145632.820000", "145633.280000", "145633.740000", "145634.200000", "145634.660000", "145635.120000", "145635.580000", "145636.040000", "145636.500000", "145636.960000", "145637.420000", "145637.880000", "145638.340000", "145638.800000", "145639.260000", "145639.720000", "145640.180000", "145640.640000", "145641.100000", "145641.560000", "145642.020000", "145642.480000", "145642.940000", "145643.400000", "145643.860000", "145644.320000", "145644.780000", "145645.240000", "145645.700000", "145646.160000", "145646.620000", "145647.080000", "145647.540000", "145648.000000", "145648.460000", "145648.920000", "145649.380000", "145649.840000", "145650.300000", "145650.760000", "145651.220000", "145651.680000", "145652.140000", "145652.600000", "145653.060000", "145653.520000", "145653.980000", "145654.440000", "145654.900000", "145655.360000", "145655.820000", "145656.280000", "145656.740000", "145657.200000", "145657.660000", "145658.120000", "145658.580000", "145659.040000", "145659.500000", "145659.960000", "145700.420000", "145700.880000", "145701.340000", "145701.800000", "145702.260000", "145702.720000", "145703.180000", "145703.640000", "145704.100000", "145704.560000", "145705.020000", "145705.480000", "145705.940000", "145706.400000", "145706.860000", "145707.320000", "145707.780000", "145708.240000", "145708.700000", "145709.160000", "145709.620000", "145710.080000", "145710.540000", "145711.000000", "145711.460000", "145711.920000", "145712.380000", "145712.840000", "145713.300000", "145713.760000", "145714.220000", "145714.680000", "145715.140000", "145715.600000", "145716.060000", "145716.520000", "145716.980000", "145717.440000", "145717.900000", "145718.360000", "145718.820000", "145719.280000", "145719.740000", "145720.200000", "145720.660000", "145721.120000", "145721.580000", "145722.040000", "145722.500000", "145722.960000", "145723.420000", "145723.880000", "145724.340000", "145724.800000", "145725.260000", "145725.720000", "145726.180000", "145726.640000", "145727.100000", "145727.560000", "145728.020000", "145728.480000", "145728.940000", "145729.400000", "145729.860000", "145730.320000", "145730.780000", "145731.240000", "145731.700000", "145732.160000", "145732.620000", "145733.080000", "145733.540000", "145734.000000", "145734.460000", "145734.920000", "145735.380000", "145735.840000", "145736.300000", "145736.760000", "145737.220000", "145737.680000", "145738.140000", "145738.600000", "145739.060000", "145739.520000", "145739.980000", "145740.440000", "145740.900000", "145741.360000", "145741.820000", "145742.280000", "145742.740000", "145743.200000", "145743.660000", "145744.120000", "145744.580000", "145745.040000", "145745.500000", "145745.960000", "145746.420000", "145746.880000", "145747.340000", "145747.800000", "145748.260000", "145748.720000", "145749.180000", "145749.640000", "145750.100000", "145750.560000", "145751.020000", "145751.480000", "145751.940000", "145752.400000", "145752.860000", "145753.320000", "145753.780000", "145754.240000", "145754.700000", "145755.160000", "145755.620000", "145756.080000", "145756.540000", "145757.000000", "145757.460000", "145757.920000", "145758.380000", "145758.840000", "145759.300000", "145759.760000", "145800.220000", "145800.680000", "145801.140000", "145801.600000", "145802.060000", "145802.520000", "145802.980000", "145803.440000", "145803.900000", "145804.360000", "145804.820000", "145805.280000", "145805.740000", "145806.200000", "145806.660000", "145807.120000", "145807.580000", "145808.040000", "145808.500000", "145808.960000", "145809.420000", "145809.880000", "145810.340000", "145810.800000", "145811.260000", "145811.720000", "145812.180000", "145812.640000", "145813.100000", "145813.560000", "145814.020000", "145814.480000", "145814.940000", "145815.400000", "145815.860000", "145816.320000", "145816.780000", "145817.240000", "145817.700000", "145818.160000", "145818.620000", "145819.080000", "145819.540000", "145820.000000", "145820.460000", "145820.920000", "145821.380000", "145821.840000", "145822.300000", "145822.760000", "145823.220000", "145823.680000", "145824.140000", "145824.600000", "145825.060000", "145825.520000", "145825.980000", "145826.440000", "145826.900000", "145827.360000", "145827.820000", "145828.280000", "145828.740000", "145829.200000", "145829.660000", "145830.120000", "145830.580000", "145831.040000", "145831.500000", "145831.960000", "145832.420000", "145832.880000", "145833.340000", "145833.800000", "145834.260000", "145834.720000", "145835.180000", "145835.640000", "145836.100000", "145836.560000", "145837.020000", "145837.480000", "145837.940000", "145838.400000", "145838.860000", "145839.320000", "145839.780000", "145840.240000", "145840.700000", "145841.160000", "145841.620000", "145842.080000", "145842.540000", "145843.000000", "145843.460000", "145843.920000", "145844.380000", "145844.840000", "145845.300000", "145845.760000", "145846.220000", "145846.680000", "145847.140000", "145847.600000", "145848.060000", "145848.520000", "145848.980000", "145849.440000", "145849.900000", "145850.360000", "145850.820000", "145851.280000", "145851.740000", "145852.200000", "145852.660000", "145853.120000", "145853.580000", "145854.040000", "145854.500000", "145854.960000", "145855.420000", "145855.880000", "145856.340000", "145856.800000", "145857.260000", "145857.720000", "145858.180000", "145858.640000", "145859.100000", "145859.560000", "145900.020000", "145900.480000", "145900.940000", "145901.400000", "145901.860000", "145902.320000", "145902.780000", "145903.240000", "145903.700000", "145904.160000", "145904.620000", "145905.080000", "145905.540000", "145906.000000", "145906.460000", "145906.920000", "145907.380000", "145907.840000", "145908.300000", "145908.760000", "145909.220000", "145909.680000", "145910.140000", "145910.600000", "145911.060000", "145911.520000", "145911.980000", "145912.440000", "145912.900000", "145913.360000", "145913.820000", "145914.280000", "145914.740000", "145915.200000", "145915.660000", "145916.120000", "145916.580000", "145917.040000", "145917.500000", "145917.960000", "145918.420000", "145918.880000", "145919.340000", "145919.800000", "145920.260000", "145920.720000", "145921.180000", "145921.640000", "145922.100000", "145922.560000", "145923.020000", "145923.480000", "145923.940000", "145924.400000", "145924.860000", "145925.320000", "145925.780000", "145926.240000", "145926.700000", "145927.160000", "145927.620000", "145928.080000", "145928.540000", "145929.000000", "145929.460000", "145929.920000", "145930.380000", "145930.840000", "145931.300000", "145931.760000", "145932.220000", "145932.680000", "145933.140000", "145933.600000", "145934.060000", "145934.520000", "145934.980000", "145935.440000", "145935.900000", "145936.360000", "145936.820000", "145937.280000", "145937.740000", "145938.200000", "145938.660000", "145939.120000", "145939.580000", "145940.040000", "145940.500000", "145940.960000", "145941.420000", "145941.880000", "145942.340000", "145942.800000", "145943.260000", "145943.720000", "145944.180000", "145944.640000", "145945.100000", "145945.560000", "145946.020000", "145946.480000", "145946.940000", "145947.400000", "145947.860000", "145948.320000", "145948.780000", "145949.240000", "145949.700000", "145950.160000", "145950.620000", "145951.080000", "145951.540000", "145952.000000", "145952.460000", "145952.920000", "145953.380000", "145953.840000", "145954.300000", "145954.760000", "145955.220000", "145955.680000", "145956.140000", "145956.600000", "145957.060000", "145957.520000", "145957.980000", "145958.440000", "145958.900000", "145959.360000", "145959.820000", "150000.280000", "150000.740000", "150001.200000", "150001.660000", "150002.120000"],
