{
  "AcquisitionMatrixPE": 82,
  "AcquisitionNumber": 1,
  "AcquisitionTime": "15:30:38.177500",
  "BandwidthPerPixelPhaseEncode": 24.888,
  "BaseResolution": 82,
  "BodyPartExamined": "BRAIN",
  "ConsistencyInfo": "N4_VE11E_LATEST_20181129",
  "ConversionSoftware": "dcm2niix",
  "ConversionSoftwareVersion": "v1.0.20201102",
  "DerivedVendorReportedEchoSpacing": 0.00049,
  "DeviceSerialNumber": "66112",
  "DwellTime": 2e-06,
  "EchoTime": 0.0272,
  "EchoTrainLength": 82,
  "EffectiveEchoSpacing": 0.00049,
  "FlipAngle": 44,
  "ImageComments": "Unaliased MB8/PE3",
  "ImageOrientationPatientDICOM": [0.999896, 0.00994436, 0.0104891, -0.00890049, 0.995413, -0.0952585],
  "ImageType": [
    "ORIGINAL",
    "PRIMARY",
    "M",
    "MB",
    "ND",
    "NORM",
    "MOSAIC"
],
  "ImagingFrequency": 123.252,
  "InPlanePhaseEncodingDirectionDICOM": "COL",
  "InstitutionAddress": "Maynard 3,Hanover,NH,US,03755",
  "InstitutionName": "Dartmouth College - PBS",
  "InstitutionalDepartmentName": "Department",
  "MRAcquisitionType": "2D",
  "MagneticFieldStrength": 3,
  "Manufacturer": "Siemens",
  "ManufacturersModelName": "Prisma",
  "Modality": "MR",
  "MultibandAccelerationFactor": 8,
  "PartialFourier": 1,
  "PatientPosition": "HFS",
  "PercentPhaseFOV": 100,
  "PercentSampling": 100,
  "PhaseEncodingDirection": "j-",
  "PhaseEncodingSteps": 82,
  "PhaseResolution": 1,
  "PixelBandwidth": 3050,
  "ProcedureStepDescription": "Wager_Wager^1076_spacetop",
  "ProtocolName": "func_run-06_task-social_acq-ap-mb8",
  "PulseSequenceDetails": "%CustomerSeq%\\cmrr_mbep2d_bold",
  "ReceiveCoilActiveElements": "HEA;HEP",
  "ReceiveCoilName": "Head_32",
  "ReconMatrixPE": 82,
  "RepetitionTime": 0.46,
  "SAR": 0.093138,
  "ScanOptions": "FS",
  "ScanningSequence": "EP",
  "SequenceName": "epfid2d1_82",
  "SequenceVariant": "SK\\SS",
  "SeriesDescription": "func_run-06_task-social_acq-ap-mb8",
  "SeriesNumber": 18,
  "ShimSetting": [4146, -7687, -7291, 584, -26, -152, -90, 93],
  "SliceThickness": 2.7,
  "SliceTiming": [0, 0.2525, 0.0625, 0.315, 0.1275, 0.3775, 0.19, 0, 0.2525, 0.0625, 0.315, 0.1275, 0.3775, 0.19, 0, 0.2525, 0.0625, 0.315, 0.1275, 0.3775, 0.19, 0, 0.2525, 0.0625, 0.315, 0.1275, 0.3775, 0.19, 0, 0.2525, 0.0625, 0.315, 0.1275, 0.3775, 0.19, 0, 0.2525, 0.0625, 0.315, 0.1275, 0.3775, 0.19, 0, 0.2525, 0.0625, 0.315, 0.1275, 0.3775, 0.19, 0, 0.2525, 0.0625, 0.315, 0.1275, 0.3775, 0.19],
  "SoftwareVersions": "syngo MR E11",
  "SpacingBetweenSlices": 2.7,
  "StationName": "AWP66112",
  "TaskName": "social",
  "TotalReadoutTime": 0.03969,
  "TxRefAmp": 256.935,
  "WipMemBlock": "27de5849-765a-4460-ab21-4b502424df5c||Sequence: R016 ve11e/master r/434b28f1; Aug  7 2019 18:53:46 by eja",
  "dcmmeta_affine": [
    [-2.6826465129852295, -0.023879369720816612, 0.030748436227440834, 114.6108169555664],
    [-0.02667998895049095, 2.6706197261810303, -0.25691911578178406, -80.28063201904297],
    [0.028141595423221588, 0.2555716633796692, 2.687572717666626, -91.40372467041016],
    [0.0, 0.0, 0.0, 1.0]
],
  "dcmmeta_reorient_transform": [
    [0.0, -1.0, 0.0, 81.0],
    [1.0, 0.0, 0.0, 0.0],
    [0.0, 0.0, 1.0, 0.0],
    [0.0, 0.0, 0.0, 1.0]
],
  "dcmmeta_shape": [82, 82, 56, 872],
  "dcmmeta_slice_dim": 2,
  "dcmmeta_version": 0.6,
  "global": {
    "const": {
      "AccessionNumber": "A003922",
      "AcquisitionMatrix": [82, 0, 0, 82],
      "AngioFlag": "N",
      "BitsAllocated": 16,
      "BitsStored": 16,
      "BodyPartExamined": "BRAIN",
      "Columns": 656,
      "EchoNumbers": 1,
      "EchoTime": 27.2,
      "EchoTrainLength": 82,
      "FlipAngle": 44.0,
      "HighBit": 15,
      "ImageOrientationPatient": [0.99989553836987, 0.00994435949233, 0.01048914020872, -0.0089004921427, 0.99541277534342, -0.0952585320206],
      "ImagePositionPatient": [-875.74279432624, -910.16457326248, -5.4299872600085],
      "ImageType": [
        "ORIGINAL",
        "PRIMARY",
        "M",
        "MB",
        "ND",
        "NORM",
        "MOSAIC"
],
      "ImagedNucleus": "1H",
      "ImagingFrequency": 123.252213,
      "InPlanePhaseEncodingDirection": "COL",
      "MRAcquisitionType": "2D",
      "MagneticFieldStrength": 3.0,
      "Manufacturer": "SIEMENS",
      "ManufacturerModelName": "Prisma",
      "Modality": "MR",
      "NumberOfAverages": 1.0,
      "NumberOfPhaseEncodingSteps": 82,
      "PercentPhaseFieldOfView": 100.0,
      "PercentSampling": 100.0,
      "PerformedProcedureStepStartTime": "142746.291000",
      "PhotometricInterpretation": "MONOCHROME2",
      "PixelBandwidth": 3050.0,
      "PixelRepresentation": 0,
      "PixelSpacing": [2.6829268932343, 2.6829268932343],
      "ProtocolName": "func_run-06_task-social_acq-ap-mb8",
      "RepetitionTime": 460.0,
      "Rows": 656,
      "SAR": 0.09313804791161,
      "SamplesPerPixel": 1,
      "ScanOptions": "FS",
      "ScanningSequence": "EP",
      "SequenceName": "epfid2d1_82",
      "SequenceVariant": [
        "SK",
        "SS"
],
      "SeriesDescription": "func_run-06_task-social_acq-ap-mb8",
      "SeriesNumber": 18,
      "SeriesTime": "153058.034000",
      "SliceLocation": -82.038677519729,
      "SliceThickness": 2.7000000476837,
      "SmallestImagePixelValue": 0,
      "SoftwareVersions": "syngo MR E11",
      "SpacingBetweenSlices": 2.7000001097892,
      "SpecificCharacterSet": "ISO_IR 100",
      "StudyID": "3",
      "StudyTime": "142746.220000",
      "TransmitCoilName": "Body",
      "VariableFlipAngleFlag": "N",
      "WindowCenterWidthExplanation": "Algo1"
    },
    "slices": {}
  },
  "time": {
    "samples": {
      "AcquisitionNumber": [1, 2, 3, 4, 5, 6, 7, 8, 9, 10, 11, 12, 13, 14, 15, 16, 17, 18, 19, 20, 21, 22, 23, 24, 25, 26, 27, 28, 29, 30, 31, 32, 33, 34, 35, 36, 37, 38, 39, 40, 41, 42, 43, 44, 45, 46, 47, 48, 49, 50, 51, 52, 53, 54, 55, 56, 57, 58, 59, 60, 61, 62, 63, 64, 65, 66, 67, 68, 69, 70, 71, 72, 73, 74, 75, 76, 77, 78, 79, 80, 81, 82, 83, 84, 85, 86, 87, 88, 89, 90, 91, 92, 93, 94, 95, 96, 97, 98, 99, 100, 101, 102, 103, 104, 105, 106, 107, 108, 109, 110, 111, 112, 113, 114, 115, 116, 117, 118, 119, 120, 121, 122, 123, 124, 125, 126, 127, 128, 129, 130, 131, 132, 133, 134, 135, 136, 137, 138, 139, 140, 141, 142, 143, 144, 145, 146, 147, 148, 149, 150, 151, 152, 153, 154, 155, 156, 157, 158, 159, 160, 161, 162, 163, 164, 165, 166, 167, 168, 169, 170, 171, 172, 173, 174, 175, 176, 177, 178, 179, 180, 181, 182, 183, 184, 185, 186, 187, 188, 189, 190, 191, 192, 193, 194, 195, 196, 197, 198, 199, 200, 201, 202, 203, 204, 205, 206, 207, 208, 209, 210, 211, 212, 213, 214, 215, 216, 217, 218, 219, 220, 221, 222, 223, 224, 225, 226, 227, 228, 229, 230, 231, 232, 233, 234, 235, 236, 237, 238, 239, 240, 241, 242, 243, 244, 245, 246, 247, 248, 249, 250, 251, 252, 253, 254, 255, 256, 257, 258, 259, 260, 261, 262, 263, 264, 265, 266, 267, 268, 269, 270, 271, 272, 273, 274, 275, 276, 277, 278, 279, 280, 281, 282, 283, 284, 285, 286, 287, 288, 289, 290, 291, 292, 293, 294, 295, 296, 297, 298, 299, 300, 301, 302, 303, 304, 305, 306, 307, 308, 309, 310, 311, 312, 313, 314, 315, 316, 317, 318, 319, 320, 321, 322, 323, 324, 325, 326, 327, 328, 329, 330, 331, 332, 333, 334, 335, 336, 337, 338, 339, 340, 341, 342, 343, 344, 345, 346, 347, 348, 349, 350, 351, 352, 353, 354, 355, 356, 357, 358, 359, 360, 361, 362, 363, 364, 365, 366, 367, 368, 369, 370, 371, 372, 373, 374, 375, 376, 377, 378, 379, 380, 381, 382, 383, 384, 385, 386, 387, 388, 389, 390, 391, 392, 393, 394, 395, 396, 397, 398, 399, 400, 401, 402, 403, 404, 405, 406, 407, 408, 409, 410, 411, 412, 413, 414, 415, 416, 417, 418, 419, 420, 421, 422, 423, 424, 425, 426, 427, 428, 429, 430, 431, 432, 433, 434, 435, 436, 437, 438, 439, 440, 441, 442, 443, 444, 445, 446, 447, 448, 449, 450, 451, 452, 453, 454, 455, 456, 457, 458, 459, 460, 461, 462, 463, 464, 465, 466, 467, 468, 469, 470, 471, 472, 473, 474, 475, 476, 477, 478, 479, 480, 481, 482, 483, 484, 485, 486, 487, 488, 489, 490, 491, 492, 493, 494, 495, 496, 497, 498, 499, 500, 501, 502, 503, 504, 505, 506, 507, 508, 509, 510, 511, 512, 513, 514, 515, 516, 517, 518, 519, 520, 521, 522, 523, 524, 525, 526, 527, 528, 529, 530, 531, 532, 533, 534, 535, 536, 537, 538, 539, 540, 541, 542, 543, 544, 545, 546, 547, 548, 549, 550, 551, 552, 553, 554, 555, 556, 557, 558, 559, 560, 561, 562, 563, 564, 565, 566, 567, 568, 569, 570, 571, 572, 573, 574, 575, 576, 577, 578, 579, 580, 581, 582, 583, 584, 585, 586, 587, 588, 589, 590, 591, 592, 593, 594, 595, 596, 597, 598, 599, 600, 601, 602, 603, 604, 605, 606, 607, 608, 609, 610, 611, 612, 613, 614, 615, 616, 617, 618, 619, 620, 621, 622, 623, 624, 625, 626, 627, 628, 629, 630, 631, 632, 633, 634, 635, 636, 637, 638, 639, 640, 641, 642, 643, 644, 645, 646, 647, 648, 649, 650, 651, 652, 653, 654, 655, 656, 657, 658, 659, 660, 661, 662, 663, 664, 665, 666, 667, 668, 669, 670, 671, 672, 673, 674, 675, 676, 677, 678, 679, 680, 681, 682, 683, 684, 685, 686, 687, 688, 689, 690, 691, 692, 693, 694, 695, 696, 697, 698, 699, 700, 701, 702, 703, 704, 705, 706, 707, 708, 709, 710, 711, 712, 713, 714, 715, 716, 717, 718, 719, 720, 721, 722, 723, 724, 725, 726, 727, 728, 729, 730, 731, 732, 733, 734, 735, 736, 737, 738, 739, 740, 741, 742, 743, 744, 745, 746, 747, 748, 749, 750, 751, 752, 753, 754, 755, 756, 757, 758, 759, 760, 761, 762, 763, 764, 765, 766, 767, 768, 769, 770, 771, 772, 773, 774, 775, 776, 777, 778, 779, 780, 781, 782, 783, 784, 785, 786, 787, 788, 789, 790, 791, 792, 793, 794, 795, 796, 797, 798, 799, 800, 801, 802, 803, 804, 805, 806, 807, 808, 809, 810, 811, 812, 813, 814, 815, 816, 817, 818, 819, 820, 821, 822, 823, 824, 825, 826, 827, 828, 829, 830, 831, 832, 833, 834, 835, 836, 837, 838, 839, 840, 841, 842, 843, 844, 845, 846, 847, 848, 849, 850, 851, 852, 853, 854, 855, 856, 857, 858, 859, 860, 861, 862, 863, 864, 865, 866, 867, 868, 869, 870, 871, 872],
      "AcquisitionTime": ["153038.177500", "153038.637500", "153039.097500", "153039.557500", "153040.017500", "153040.477500", "153040.937500", "153041.397500", "153041.857500", "153042.317500", "153042.777500", "153043.237500", "153043.697500", "153044.157500", "153044.617500", "153045.077500", "153045.537500", "153045.997500", "153046.457500", "153046.917500", "153047.377500", "153047.837500", "153048.297500", "153048.757500", "153049.217500", "153049.677500", "153050.137500", "153050.597500", "153051.057500", "153051.517500", "153051.977500", "153052.437500", "153052.897500", "153053.357500", "153053.817500", "153054.277500", "153054.737500", "153055.197500", "153055.657500", "153056.117500", "153056.577500", "153057.037500", "153057.497500", "153057.957500", "153058.417500", "153058.877500", "153059.337500", "153059.797500", "153100.257500", "153100.717500", "153101.177500", "153101.637500", "153102.097500", "153102.557500", "153103.017500", "153103.477500", "153103.937500", "153104.397500", "153104.857500", "153105.317500", "153105.777500", "153106.237500", "153106.697500", "153107.157500", "153107.617500", "153108.077500", "153108.537500", "153108.997500", "153109.457500", "153109.917500", "153110.377500", "153110.837500", "153111.297500", "153111.757500", "153112.217500", "153112.677500", "153113.137500", "153113.597500", "153114.057500", "153114.517500", "153114.977500", "153115.437500", "153115.897500", "153116.357500", "153116.817500", "153117.277500", "153117.737500", "153118.197500", "153118.657500", "153119.117500", "153119.577500", "153120.037500", "153120.497500", "153120.957500", "153121.417500", "153121.877500", "153122.337500", "153122.797500", "153123.257500", "153123.717500", "153124.177500", "153124.637500", "153125.097500", "153125.557500", "153126.017500", "153126.477500", "153126.937500", "153127.397500", "153127.857500", "153128.317500", "153128.777500", "153129.237500", "153129.697500", "153130.157500", "153130.617500", "153131.077500", "153131.537500", "153131.997500", "153132.457500", "153132.917500", "153133.377500", "153133.837500", "153134.297500", "153134.757500", "153135.217500", "153135.677500", "153136.137500", "153136.597500", "153137.057500", "153137.517500", "153137.977500", "153138.437500", "153138.897500", "153139.357500", "153139.817500", "153140.277500", "153140.737500", "153141.197500", "153141.657500", "153142.117500", "153142.577500", "153143.037500", "153143.497500", "153143.957500", "153144.417500", "153144.877500", "153145.337500", "153145.797500", "153146.257500", "153146.717500", "153147.177500", "153147.637500", "153148.097500", "153148.557500", "153149.017500", "153149.477500", "153149.937500", "153150.397500", "153150.857500", "153151.317500", "153151.777500", "153152.237500", "153152.697500", "153153.157500", "153153.617500", "153154.077500", "153154.537500", "153154.997500", "153155.457500", "153155.917500", "153156.377500", "153156.837500", "153157.297500", "153157.757500", "153158.217500", "153158.677500", "153159.137500", "153159.597500", "153200.057500", "153200.517500", "153200.977500", "153201.437500", "153201.897500", "153202.357500", "153202.817500", "153203.277500", "153203.737500", "153204.197500", "153204.657500", "153205.117500", "153205.577500", "153206.037500", "153206.497500", "153206.957500", "153207.417500", "153207.877500", "153208.337500", "153208.797500", "153209.257500", "153209.717500", "153210.177500", "153210.637500", "153211.097500", "153211.557500", "153212.017500", "153212.477500", "153212.937500", "153213.397500", "153213.857500", "153214.317500", "153214.777500", "153215.237500", "153215.697500", "153216.157500", "153216.617500", "153217.077500", "153217.537500", "153217.997500", "153218.457500", "153218.917500", "153219.377500", "153219.837500", "153220.297500", "153220.757500", "153221.217500", "153221.677500", "153222.137500", "153222.597500", "153223.057500", "153223.517500", "153223.977500", "153224.437500", "153224.897500", "153225.357500", "153225.817500", "153226.277500", "153226.737500", "153227.197500", "153227.657500", "153228.117500", "153228.577500", "153229.037500", "153229.497500", "153229.957500", "153230.417500", "153230.877500", "153231.337500", "153231.797500", "153232.257500", "153232.717500", "153233.177500", "153233.637500", "153234.097500", "153234.557500", "153235.017500", "153235.477500", "153235.937500", "153236.397500", "153236.857500", "153237.317500", "153237.777500", "153238.237500", "153238.697500", "153239.157500", "153239.617500", "153240.077500", "153240.537500", "153240.997500", "153241.457500", "153241.917500", "153242.377500", "153242.837500", "153243.297500", "153243.757500", "153244.217500", "153244.677500", "153245.137500", "153245.597500", "153246.057500", "153246.517500", "153246.977500", "153247.437500", "153247.897500", "153248.357500", "153248.817500", "153249.277500", "153249.737500", "153250.197500", "153250.657500", "153251.117500", "153251.577500", "153252.037500", "153252.497500", "153252.957500", "153253.417500", "153253.877500", "153254.337500", "153254.797500", "153255.257500", "153255.717500", "153256.177500", "153256.637500", "153257.097500", "153257.557500", "153258.017500", "153258.477500", "153258.937500", "153259.397500", "153259.857500", "153300.317500", "153300.777500", "153301.237500", "153301.697500", "153302.157500", "153302.617500", "153303.077500", "153303.537500", "153303.997500", "153304.457500", "153304.917500", "153305.377500", "153305.837500", "153306.297500", "153306.757500", "153307.217500", "153307.677500", "153308.137500", "153308.597500", "153309.057500", "153309.517500", "153309.977500", "153310.437500", "153310.897500", "153311.357500", "153311.817500", "153312.277500", "153312.737500", "153313.197500", "153313.657500", "153314.117500", "153314.577500", "153315.037500", "153315.497500", "153315.957500", "153316.417500", "153316.877500", "153317.337500", "153317.797500", "153318.257500", "153318.717500", "153319.177500", "153319.637500", "153320.097500", "153320.557500", "153321.017500", "153321.477500", "153321.937500", "153322.397500", "153322.857500", "153323.317500", "153323.777500", "153324.237500", "153324.697500", "153325.157500", "153325.617500", "153326.077500", "153326.537500", "153326.997500", "153327.457500", "153327.917500", "153328.377500", "153328.837500", "153329.297500", "153329.757500", "153330.217500", "153330.677500", "153331.137500", "153331.597500", "153332.057500", "153332.517500", "153332.977500", "153333.437500", "153333.897500", "153334.357500", "153334.817500", "153335.277500", "153335.737500", "153336.197500", "153336.657500", "153337.117500", "153337.577500", "153338.037500", "153338.497500", "153338.957500", "153339.417500", "153339.877500", "153340.337500", "153340.797500", "153341.257500", "153341.717500", "153342.177500", "153342.637500", "153343.097500", "153343.557500", "153344.017500", "153344.477500", "153344.937500", "153345.397500", "153345.857500", "153346.317500", "153346.777500", "153347.237500", "153347.697500", "153348.157500", "153348.617500", "153349.077500", "153349.537500", "153349.997500", "153350.457500", "153350.917500", "153351.377500", "153351.837500", "153352.297500", "153352.757500", "153353.217500", "153353.677500", "153354.137500", "153354.597500", "153355.057500", "153355.517500", "153355.977500", "153356.437500", "153356.897500", "153357.357500", "153357.817500", "153358.277500", "153358.737500", "153359.197500", "153359.657500", "153400.117500", "153400.577500", "153401.037500", "153401.497500", "153401.957500", "153402.417500", "153402.877500", "153403.337500", "153403.797500", "153404.257500", "153404.717500", "153405.177500", "153405.637500", "153406.097500", "153406.557500", "153407.017500", "153407.477500", "153407.937500", "153408.397500", "153408.857500", "153409.317500", "153409.777500", "153410.237500", "153410.697500", "153411.157500", "153411.617500", "153412.077500", "153412.537500", "153412.997500", "153413.457500", "153413.917500", "153414.377500", "153414.837500", "153415.297500", "153415.757500", "153416.217500", "153416.677500", "153417.137500", "153417.597500", "153418.057500", "153418.517500", "153418.977500", "153419.437500", "153419.897500", "153420.357500", "153420.817500", "153421.277500", "153421.737500", "153422.197500", "153422.657500", "153423.117500", "153423.577500", "153424.037500", "153424.497500", "153424.957500", "153425.417500", "153425.877500", "153426.337500", "153426.797500", "153427.257500", "153427.717500", "153428.177500", "153428.637500", "153429.097500", "153429.557500", "153430.017500", "153430.477500", "153430.937500", "153431.397500", "153431.857500", "153432.317500", "153432.777500", "153433.237500", "153433.697500", "153434.157500", "153434.617500", "153435.077500", "153435.537500", "153435.997500", "153436.457500", "153436.917500", "153437.377500", "153437.837500", "153438.297500", "153438.757500", "153439.217500", "153439.677500", "153440.137500", "153440.597500", "153441.057500", "153441.517500", "153441.977500", "153442.437500", "153442.897500", "153443.357500", "153443.817500", "153444.277500", "153444.737500", "153445.197500", "153445.657500", "153446.117500", "153446.577500", "153447.037500", "153447.497500", "153447.957500", "153448.417500", "153448.877500", "153449.337500", "153449.797500", "153450.257500", "153450.717500", "153451.177500", "153451.637500", "153452.097500", "153452.557500", "153453.017500", "153453.477500", "153453.937500", "153454.397500", "153454.857500", "153455.317500", "153455.777500", "153456.237500", "153456.697500", "153457.157500", "153457.617500", "153458.077500", "153458.537500", "153458.997500", "153459.457500", "153459.917500", "153500.377500", "153500.837500", "153501.297500", "153501.757500", "153502.217500", "153502.677500", "153503.137500", "153503.597500", "153504.057500", "153504.517500", "153504.977500", "153505.437500", "153505.897500", "153506.357500", "153506.817500", "153507.277500", "153507.737500", "153508.197500", "153508.657500", "153509.117500", "153509.577500", "153510.037500", "153510.497500", "153510.957500", "153511.417500", "153511.877500", "153512.337500", "153512.797500", "153513.257500", "153513.717500", "153514.177500", "153514.637500", "153515.097500", "153515.557500", "153516.017500", "153516.477500", "153516.937500", "153517.397500", "153517.857500", "153518.317500", "153518.777500", "153519.237500", "153519.697500", "153520.157500", "153520.617500", "153521.077500", "153521.537500", "153521.997500", "153522.457500", "153522.917500", "153523.377500", "153523.837500", "153524.297500", "153524.757500", "153525.217500", "153525.677500", "153526.137500", "153526.597500", "153527.057500", "153527.517500", "153527.977500", "153528.437500", "153528.897500", "153529.357500", "153529.817500", "153530.277500", "153530.737500", "153531.197500", "153531.657500", "153532.117500", "153532.577500", "153533.037500", "153533.497500", "153533.957500", "153534.417500", "153534.877500", "153535.337500", "153535.797500", "153536.257500", "153536.717500", "153537.177500", "153537.637500", "153538.097500", "153538.557500", "153539.017500", "153539.477500", "153539.937500", "153540.397500", "153540.857500", "153541.317500", "153541.777500", "153542.237500", "153542.697500", "153543.157500", "153543.617500", "153544.077500", "153544.537500", "153544.997500", "153545.457500", "153545.917500", "153546.377500", "153546.837500", "153547.297500", "153547.757500", "153548.217500", "153548.677500", "153549.137500", "153549.597500", "153550.057500", "153550.517500", "153550.977500", "153551.437500", "153551.897500", "153552.357500", "153552.817500", "153553.277500", "153553.737500", "153554.197500", "153554.657500", "153555.117500", "153555.577500", "153556.037500", "153556.497500", "153556.957500", "153557.417500", "153557.877500", "153558.337500", "153558.797500", "153559.257500", "153559.717500", "153600.177500", "153600.637500", "153601.097500", "153601.557500", "153602.017500", "153602.477500", "153602.937500", "153603.397500", "153603.857500", "153604.317500", "153604.777500", "153605.237500", "153605.697500", "153606.157500", "153606.617500", "153607.077500", "153607.537500", "153607.997500", "153608.457500", "153608.917500", "153609.377500", "153609.837500", "153610.297500", "153610.757500", "153611.217500", "153611.677500", "153612.137500", "153612.597500", "153613.057500", "153613.517500", "153613.977500", "153614.437500", "153614.897500", "153615.357500", "153615.817500", "153616.277500", "153616.737500", "153617.197500", "153617.657500", "153618.117500", "153618.577500", "153619.037500", "153619.497500", "153619.957500", "153620.417500", "153620.877500", "153621.337500", "153621.797500", "153622.257500", "153622.717500", "153623.177500", "153623.637500", "153624.097500", "153624.557500", "153625.017500", "153625.477500", "153625.937500", "153626.397500", "153626.857500", "153627.317500", "153627.777500", "153628.237500", "153628.697500", "153629.157500", "153629.617500", "153630.077500", "153630.537500", "153630.997500", "153631.457500", "153631.917500", "153632.377500", "153632.837500", "153633.297500", "153633.757500", "153634.217500", "153634.677500", "153635.137500", "153635.597500", "153636.057500", "153636.517500", "153636.977500", "153637.437500", "153637.897500", "153638.357500", "153638.817500", "153639.277500", "153639.737500", "153640.197500", "153640.657500", "153641.117500", "153641.577500", "153642.037500", "153642.497500", "153642.957500", "153643.417500", "153643.877500", "153644.337500", "153644.797500", "153645.257500", "153645.717500", "153646.177500", "153646.637500", "153647.097500", "153647.557500", "153648.017500", "153648.477500", "153648.937500", "153649.397500", "153649.857500", "153650.317500", "153650.777500", "153651.237500", "153651.697500", "153652.157500", "153652.617500", "153653.077500", "153653.537500", "153653.997500", "153654.457500", "153654.917500", "153655.377500", "153655.837500", "153656.297500", "153656.757500", "153657.217500", "153657.677500", "153658.137500", "153658.597500", "153659.057500", "153659.517500", "153659.977500", "153700.437500", "153700.897500", "153701.357500", "153701.817500", "153702.277500", "153702.737500", "153703.197500", "153703.657500", "153704.117500", "153704.577500", "153705.037500", "153705.497500", "153705.957500", "153706.417500", "153706.877500", "153707.337500", "153707.797500", "153708.257500", "153708.717500", "153709.177500", "153709.637500", "153710.097500", "153710.557500", "153711.017500", "153711.477500", "153711.937500", "153712.397500", "153712.857500", "153713.317500", "153713.777500", "153714.237500", "153714.697500", "153715.157500", "153715.617500", "153716.077500", "153716.537500", "153716.997500", "153717.457500", "153717.917500", "153718.377500", "153718.837500"],
