{
  "AcquisitionMatrixPE": 82,
  "AcquisitionNumber": 1,
  "AcquisitionTime": "16:14:3.630000",
  "BandwidthPerPixelPhaseEncode": 24.888,
  "BaseResolution": 82,
  "BodyPartExamined": "BRAIN",
  "ConsistencyInfo": "N4_VE11E_LATEST_20181129",
  "ConversionSoftware": "dcm2niix",
  "ConversionSoftwareVersion": "v1.0.20201102",
  "DerivedVendorReportedEchoSpacing": 0.00049,
  "DeviceSerialNumber": "66112",
  "DwellTime": 2e-06,
  "EchoTime": 0.0272,
  "EchoTrainLength": 82,
  "EffectiveEchoSpacing": 0.00049,
  "FlipAngle": 44,
  "ImageComments": "Unaliased MB8/PE3",
  "ImageOrientationPatientDICOM": [0.999898, 0.00892468, 0.0111177, -0.00820234, 0.997954, -0.063404],
  "ImageType": [
    "ORIGINAL",
    "PRIMARY",
    "M",
    "MB",
    "ND",
    "NORM",
    "MOSAIC"
],
  "ImagingFrequency": 123.252,
  "InPlanePhaseEncodingDirectionDICOM": "COL",
  "InstitutionAddress": "Maynard 3,Hanover,NH,US,03755",
  "InstitutionName": "Dartmouth College - PBS",
  "InstitutionalDepartmentName": "Department",
  "MRAcquisitionType": "2D",
  "MagneticFieldStrength": 3,
  "Manufacturer": "Siemens",
  "ManufacturersModelName": "Prisma",
  "Modality": "MR",
  "MultibandAccelerationFactor": 8,
  "PartialFourier": 1,
  "PatientPosition": "HFS",
  "PercentPhaseFOV": 100,
  "PercentSampling": 100,
  "PhaseEncodingDirection": "j-",
  "PhaseEncodingSteps": 82,
  "PhaseResolution": 1,
  "PixelBandwidth": 3050,
  "ProcedureStepDescription": "Wager_Wager^1076_spacetop",
  "ProtocolName": "func_run-03_task-alignvideo_acq-ap-mb8",
  "PulseSequenceDetails": "%CustomerSeq%\\cmrr_mbep2d_bold",
  "ReceiveCoilActiveElements": "HEA;HEP",
  "ReceiveCoilName": "Head_32",
  "ReconMatrixPE": 82,
  "RepetitionTime": 0.46,
  "SAR": 0.0932431,
  "ScanOptions": "FS",
  "ScanningSequence": "EP",
  "SequenceName": "epfid2d1_82",
  "SequenceVariant": "SK\\SS",
  "SeriesDescription": "func_run-03_task-alignvideo_acq-ap-mb8",
  "SeriesNumber": 32,
  "ShimSetting": [4146, -7688, -7291, 582, -28, -154, -89, 91],
  "SliceThickness": 2.7,
  "SliceTiming": [0, 0.25, 0.0625, 0.3125, 0.125, 0.375, 0.1875, 0, 0.25, 0.0625, 0.3125, 0.125, 0.375, 0.1875, 0, 0.25, 0.0625, 0.3125, 0.125, 0.375, 0.1875, 0, 0.25, 0.0625, 0.3125, 0.125, 0.375, 0.1875, 0, 0.25, 0.0625, 0.3125, 0.125, 0.375, 0.1875, 0, 0.25, 0.0625, 0.3125, 0.125, 0.375, 0.1875, 0, 0.25, 0.0625, 0.3125, 0.125, 0.375, 0.1875, 0, 0.25, 0.0625, 0.3125, 0.125, 0.375, 0.1875],
  "SoftwareVersions": "syngo MR E11",
  "SpacingBetweenSlices": 2.7,
  "StationName": "AWP66112",
  "TaskName": "alignvideo",
  "TotalReadoutTime": 0.03969,
  "TxRefAmp": 256.935,
  "WipMemBlock": "40eeb41b-e7b5-455a-a5ab-ebcc4a2f8403||Sequence: R016 ve11e/master r/434b28f1; Aug  7 2019 18:53:46 by eja",
  "dcmmeta_affine": [
    [-2.6826541423797607, -0.022006290033459663, 0.03148430958390236, 114.70291900634766],
    [-0.023944256827235222, 2.677438259124756, -0.17092718183994293, -81.94304656982422],
    [0.029828082770109177, 0.17010830342769623, 2.6944003105163574, -88.2132568359375],
    [0.0, 0.0, 0.0, 1.0]
],
  "dcmmeta_reorient_transform": [
    [0.0, -1.0, 0.0, 81.0],
    [1.0, 0.0, 0.0, 0.0],
    [0.0, 0.0, 1.0, 0.0],
    [0.0, 0.0, 0.0, 1.0]
],
  "dcmmeta_shape": [82, 82, 56, 1065],
  "dcmmeta_slice_dim": 2,
  "dcmmeta_version": 0.6,
  "global": {
    "const": {
      "AccessionNumber": "A003922",
      "AcquisitionMatrix": [82, 0, 0, 82],
      "AngioFlag": "N",
      "BitsAllocated": 16,
      "BitsStored": 16,
      "BodyPartExamined": "BRAIN",
      "Columns": 656,
      "EchoNumbers": 1,
      "EchoTime": 27.2,
      "EchoTrainLength": 82,
      "FlipAngle": 44.0,
      "HighBit": 15,
      "ImageOrientationPatient": [0.9998983678378, 0.00892467726813, 0.01111773947172, -0.0082023439416, 0.99795423459638, -0.0634039999133],
      "ImagePositionPatient": [-876.52636816592, -910.22623120509, -34.174063835468],
      "ImageType": [
        "ORIGINAL",
        "PRIMARY",
        "M",
        "MB",
        "ND",
        "NORM",
        "MOSAIC"
],
      "ImagedNucleus": "1H",
      "ImagingFrequency": 123.252222,
      "InPlanePhaseEncodingDirection": "COL",
      "MRAcquisitionType": "2D",
      "MagneticFieldStrength": 3.0,
      "Manufacturer": "SIEMENS",
      "ManufacturerModelName": "Prisma",
      "Modality": "MR",
      "NumberOfAverages": 1.0,
      "NumberOfPhaseEncodingSteps": 82,
      "PercentPhaseFieldOfView": 100.0,
      "PercentSampling": 100.0,
      "PerformedProcedureStepStartTime": "142746.291000",
      "PhotometricInterpretation": "MONOCHROME2",
      "PixelBandwidth": 3050.0,
      "PixelRepresentation": 0,
      "PixelSpacing": [2.6829268932343, 2.6829268932343],
      "ProtocolName": "func_run-03_task-alignvideo_acq-ap-mb8",
      "RepetitionTime": 460.0,
      "Rows": 656,
      "SAR": 0.09324311381775,
      "SamplesPerPixel": 1,
      "ScanOptions": "FS",
      "ScanningSequence": "EP",
      "SequenceName": "epfid2d1_82",
      "SequenceVariant": [
        "SK",
        "SS"
],
      "SeriesDescription": "func_run-03_task-alignvideo_acq-ap-mb8",
      "SeriesNumber": 32,
      "SeriesTime": "161417.860000",
      "SliceLocation": -81.505253614564,
      "SliceThickness": 2.7000000476837,
      "SmallestImagePixelValue": 0,
      "SoftwareVersions": "syngo MR E11",
      "SpacingBetweenSlices": 2.7000000640227,
      "SpecificCharacterSet": "ISO_IR 100",
      "StudyID": "3",
      "StudyTime": "142746.220000",
      "TransmitCoilName": "Body",
      "VariableFlipAngleFlag": "N",
      "WindowCenterWidthExplanation": "Algo1"
    },
    "slices": {}
  },
  "time": {
    "samples": {
      "AcquisitionNumber": [1, 2, 3, 4, 5, 6, 7, 8, 9, 10, 11, 12, 13, 14, 15, 16, 17, 18, 19, 20, 21, 22, 23, 24, 25, 26, 27, 28, 29, 30, 31, 32, 33, 34, 35, 36, 37, 38, 39, 40, 41, 42, 43, 44, 45, 46, 47, 48, 49, 50, 51, 52, 53, 54, 55, 56, 57, 58, 59, 60, 61, 62, 63, 64, 65, 66, 67, 68, 69, 70, 71, 72, 73, 74, 75, 76, 77, 78, 79, 80, 81, 82, 83, 84, 85, 86, 87, 88, 89, 90, 91, 92, 93, 94, 95, 96, 97, 98, 99, 100, 101, 102, 103, 104, 105, 106, 107, 108, 109, 110, 111, 112, 113, 114, 115, 116, 117, 118, 119, 120, 121, 122, 123, 124, 125, 126, 127, 128, 129, 130, 131, 132, 133, 134, 135, 136, 137, 138, 139, 140, 141, 142, 143, 144, 145, 146, 147, 148, 149, 150, 151, 152, 153, 154, 155, 156, 157, 158, 159, 160, 161, 162, 163, 164, 165, 166, 167, 168, 169, 170, 171, 172, 173, 174, 175, 176, 177, 178, 179, 180, 181, 182, 183, 184, 185, 186, 187, 188, 189, 190, 191, 192, 193, 194, 195, 196, 197, 198, 199, 200, 201, 202, 203, 204, 205, 206, 207, 208, 209, 210, 211, 212, 213, 214, 215, 216, 217, 218, 219, 220, 221, 222, 223, 224, 225, 226, 227, 228, 229, 230, 231, 232, 233, 234, 235, 236, 237, 238, 239, 240, 241, 242, 243, 244, 245, 246, 247, 248, 249, 250, 251, 252, 253, 254, 255, 256, 257, 258, 259, 260, 261, 262, 263, 264, 265, 266, 267, 268, 269, 270, 271, 272, 273, 274, 275, 276, 277, 278, 279, 280, 281, 282, 283, 284, 285, 286, 287, 288, 289, 290, 291, 292, 293, 294, 295, 296, 297, 298, 299, 300, 301, 302, 303, 304, 305, 306, 307, 308, 309, 310, 311, 312, 313, 314, 315, 316, 317, 318, 319, 320, 321, 322, 323, 324, 325, 326, 327, 328, 329, 330, 331, 332, 333, 334, 335, 336, 337, 338, 339, 340, 341, 342, 343, 344, 345, 346, 347, 348, 349, 350, 351, 352, 353, 354, 355, 356, 357, 358, 359, 360, 361, 362, 363, 364, 365, 366, 367, 368, 369, 370, 371, 372, 373, 374, 375, 376, 377, 378, 379, 380, 381, 382, 383, 384, 385, 386, 387, 388, 389, 390, 391, 392, 393, 394, 395, 396, 397, 398, 399, 400, 401, 402, 403, 404, 405, 406, 407, 408, 409, 410, 411, 412, 413, 414, 415, 416, 417, 418, 419, 420, 421, 422, 423, 424, 425, 426, 427, 428, 429, 430, 431, 432, 433, 434, 435, 436, 437, 438, 439, 440, 441, 442, 443, 444, 445, 446, 447, 448, 449, 450, 451, 452, 453, 454, 455, 456, 457, 458, 459, 460, 461, 462, 463, 464, 465, 466, 467, 468, 469, 470, 471, 472, 473, 474, 475, 476, 477, 478, 479, 480, 481, 482, 483, 484, 485, 486, 487, 488, 489, 490, 491, 492, 493, 494, 495, 496, 497, 498, 499, 500, 501, 502, 503, 504, 505, 506, 507, 508, 509, 510, 511, 512, 513, 514, 515, 516, 517, 518, 519, 520, 521, 522, 523, 524, 525, 526, 527, 528, 529, 530, 531, 532, 533, 534, 535, 536, 537, 538, 539, 540, 541, 542, 543, 544, 545, 546, 547, 548, 549, 550, 551, 552, 553, 554, 555, 556, 557, 558, 559, 560, 561, 562, 563, 564, 565, 566, 567, 568, 569, 570, 571, 572, 573, 574, 575, 576, 577, 578, 579, 580, 581, 582, 583, 584, 585, 586, 587, 588, 589, 590, 591, 592, 593, 594, 595, 596, 597, 598, 599, 600, 601, 602, 603, 604, 605, 606, 607, 608, 609, 610, 611, 612, 613, 614, 615, 616, 617, 618, 619, 620, 621, 622, 623, 624, 625, 626, 627, 628, 629, 630, 631, 632, 633, 634, 635, 636, 637, 638, 639, 640, 641, 642, 643, 644, 645, 646, 647, 648, 649, 650, 651, 652, 653, 654, 655, 656, 657, 658, 659, 660, 661, 662, 663, 664, 665, 666, 667, 668, 669, 670, 671, 672, 673, 674, 675, 676, 677, 678, 679, 680, 681, 682, 683, 684, 685, 686, 687, 688, 689, 690, 691, 692, 693, 694, 695, 696, 697, 698, 699, 700, 701, 702, 703, 704, 705, 706, 707, 708, 709, 710, 711, 712, 713, 714, 715, 716, 717, 718, 719, 720, 721, 722, 723, 724, 725, 726, 727, 728, 729, 730, 731, 732, 733, 734, 735, 736, 737, 738, 739, 740, 741, 742, 743, 744, 745, 746, 747, 748, 749, 750, 751, 752, 753, 754, 755, 756, 757, 758, 759, 760, 761, 762, 763, 764, 765, 766, 767, 768, 769, 770, 771, 772, 773, 774, 775, 776, 777, 778, 779, 780, 781, 782, 783, 784, 785, 786, 787, 788, 789, 790, 791, 792, 793, 794, 795, 796, 797, 798, 799, 800, 801, 802, 803, 804, 805, 806, 807, 808, 809, 810, 811, 812, 813, 814, 815, 816, 817, 818, 819, 820, 821, 822, 823, 824, 825, 826, 827, 828, 829, 830, 831, 832, 833, 834, 835, 836, 837, 838, 839, 840, 841, 842, 843, 844, 845, 846, 847, 848, 849, 850, 851, 852, 853, 854, 855, 856, 857, 858, 859, 860, 861, 862, 863, 864, 865, 866, 867, 868, 869, 870, 871, 872, 873, 874, 875, 876, 877, 878, 879, 880, 881, 882, 883, 884, 885, 886, 887, 888, 889, 890, 891, 892, 893, 894, 895, 896, 897, 898, 899, 900, 901, 902, 903, 904, 905, 906, 907, 908, 909, 910, 911, 912, 913, 914, 915, 916, 917, 918, 919, 920, 921, 922, 923, 924, 925, 926, 927, 928, 929, 930, 931, 932, 933, 934, 935, 936, 937, 938, 939, 940, 941, 942, 943, 944, 945, 946, 947, 948, 949, 950, 951, 952, 953, 954, 955, 956, 957, 958, 959, 960, 961, 962, 963, 964, 965, 966, 967, 968, 969, 970, 971, 972, 973, 974, 975, 976, 977, 978, 979, 980, 981, 982, 983, 984, 985, 986, 987, 988, 989, 990, 991, 992, 993, 994, 995, 996, 997, 998, 999, 1000, 1001, 1002, 1003, 1004, 1005, 1006, 1007, 1008, 1009, 1010, 1011, 1012, 1013, 1014, 1015, 1016, 1017, 1018, 1019, 1020, 1021, 1022, 1023, 1024, 1025, 1026, 1027, 1028, 1029, 1030, 1031, 1032, 1033, 1034, 1035, 1036, 1037, 1038, 1039, 1040, 1041, 1042, 1043, 1044, 1045, 1046, 1047, 1048, 1049, 1050, 1051, 1052, 1053, 1054, 1055, 1056, 1057, 1058, 1059, 1060, 1061, 1062, 1063, 1064, 1065],
      "AcquisitionTime": ["161403.630000", "161404.090000", "161404.550000", "161405.010000", "161405.470000", "161405.930000", "161406.390000", "161406.850000", "161407.310000", "161407.770000", "161408.230000", "161408.690000", "161409.150000", "161409.610000", "161410.070000", "161410.530000", "161410.990000", "161411.450000", "161411.910000", "161412.370000", "161412.830000", "161413.290000", "161413.750000", "161414.210000", "161414.670000", "161415.130000", "161415.590000", "161416.050000", "161416.510000", "161416.970000", "161417.430000", "161417.890000", "161418.350000", "161418.810000", "161419.270000", "161419.730000", "161420.190000", "161420.650000", "161421.110000", "161421.570000", "161422.030000", "161422.490000", "161422.950000", "161423.410000", "161423.870000", "161424.330000", "161424.790000", "161425.250000", "161425.710000", "161426.170000", "161426.630000", "161427.090000", "161427.550000", "161428.010000", "161428.470000", "161428.930000", "161429.390000", "161429.850000", "161430.310000", "161430.770000", "161431.230000", "161431.690000", "161432.150000", "161432.610000", "161433.070000", "161433.530000", "161433.990000", "161434.450000", "161434.910000", "161435.370000", "161435.830000", "161436.290000", "161436.750000", "161437.210000", "161437.670000", "161438.130000", "161438.590000", "161439.050000", "161439.510000", "161439.970000", "161440.430000", "161440.890000", "161441.350000", "161441.810000", "161442.270000", "161442.730000", "161443.190000", "161443.650000", "161444.110000", "161444.570000", "161445.030000", "161445.490000", "161445.950000", "161446.410000", "161446.870000", "161447.330000", "161447.790000", "161448.250000", "161448.710000", "161449.170000", "161449.630000", "161450.090000", "161450.550000", "161451.010000", "161451.470000", "161451.930000", "161452.390000", "161452.850000", "161453.310000", "161453.770000", "161454.230000", "161454.690000", "161455.150000", "161455.610000", "161456.070000", "161456.530000", "161456.990000", "161457.450000", "161457.910000", "161458.370000", "161458.830000", "161459.290000", "161459.750000", "161500.210000", "161500.670000", "161501.130000", "161501.590000", "161502.050000", "161502.510000", "161502.970000", "161503.430000", "161503.890000", "161504.350000", "161504.810000", "161505.270000", "161505.730000", "161506.190000", "161506.650000", "161507.110000", "161507.570000", "161508.030000", "161508.490000", "161508.950000", "161509.410000", "161509.870000", "161510.330000", "161510.790000", "161511.250000", "161511.710000", "161512.170000", "161512.630000", "161513.090000", "161513.550000", "161514.010000", "161514.470000", "161514.930000", "161515.390000", "161515.850000", "161516.310000", "161516.770000", "161517.230000", "161517.690000", "161518.150000", "161518.610000", "161519.070000", "161519.530000", "161519.990000", "161520.450000", "161520.910000", "161521.370000", "161521.830000", "161522.290000", "161522.750000", "161523.210000", "161523.670000", "161524.130000", "161524.590000", "161525.050000", "161525.510000", "161525.970000", "161526.430000", "161526.890000", "161527.350000", "161527.810000", "161528.270000", "161528.730000", "161529.190000", "161529.650000", "161530.110000", "161530.570000", "161531.030000", "161531.490000", "161531.950000", "161532.410000", "161532.870000", "161533.330000", "161533.790000", "161534.250000", "161534.710000", "161535.170000", "161535.630000", "161536.090000", "161536.550000", "161537.010000", "161537.470000", "161537.930000", "161538.390000", "161538.850000", "161539.310000", "161539.770000", "161540.230000", "161540.690000", "161541.150000", "161541.610000", "161542.070000", "161542.530000", "161542.990000", "161543.450000", "161543.910000", "161544.370000", "161544.830000", "161545.290000", "161545.750000", "161546.210000", "161546.670000", "161547.130000", "161547.590000", "161548.050000", "161548.510000", "161548.970000", "161549.430000", "161549.890000", "161550.350000", "161550.810000", "161551.270000", "161551.730000", "161552.190000", "161552.650000", "161553.110000", "161553.570000", "161554.030000", "161554.490000", "161554.950000", "161555.410000", "161555.870000", "161556.330000", "161556.790000", "161557.250000", "161557.710000", "161558.170000", "161558.630000", "161559.090000", "161559.550000", "161600.010000", "161600.470000", "161600.930000", "161601.390000", "161601.850000", "161602.310000", "161602.770000", "161603.230000", "161603.690000", "161604.150000", "161604.610000", "161605.070000", "161605.530000", "161605.990000", "161606.450000", "161606.910000", "161607.370000", "161607.830000", "161608.290000", "161608.750000", "161609.210000", "161609.670000", "161610.130000", "161610.590000", "161611.050000", "161611.510000", "161611.970000", "161612.430000", "161612.890000", "161613.350000", "161613.810000", "161614.270000", "161614.730000", "161615.190000", "161615.650000", "161616.110000", "161616.570000", "161617.030000", "161617.490000", "161617.950000", "161618.410000", "161618.870000", "161619.330000", "161619.790000", "161620.250000", "161620.710000", "161621.170000", "161621.630000", "161622.090000", "161622.550000", "161623.010000", "161623.470000", "161623.930000", "161624.390000", "161624.850000", "161625.310000", "161625.770000", "161626.230000", "161626.690000", "161627.150000", "161627.610000", "161628.070000", "161628.530000", "161628.990000", "161629.450000", "161629.910000", "161630.370000", "161630.830000", "161631.290000", "161631.750000", "161632.210000", "161632.670000", "161633.130000", "161633.590000", "161634.050000", "161634.510000", "161634.970000", "161635.430000", "161635.890000", "161636.350000", "161636.810000", "161637.270000", "161637.730000", "161638.190000", "161638.650000", "161639.110000", "161639.570000", "161640.030000", "161640.490000", "161640.950000", "161641.410000", "161641.870000", "161642.330000", "161642.790000", "161643.250000", "161643.710000", "161644.170000", "161644.630000", "161645.090000", "161645.550000", "161646.010000", "161646.470000", "161646.930000", "161647.390000", "161647.850000", "161648.310000", "161648.770000", "161649.230000", "161649.690000", "161650.150000", "161650.610000", "161651.070000", "161651.530000", "161651.990000", "161652.450000", "161652.910000", "161653.370000", "161653.830000", "161654.290000", "161654.750000", "161655.210000", "161655.670000", "161656.130000", "161656.590000", "161657.050000", "161657.510000", "161657.970000", "161658.430000", "161658.890000", "161659.350000", "161659.810000", "161700.270000", "161700.730000", "161701.190000", "161701.650000", "161702.110000", "161702.570000", "161703.030000", "161703.490000", "161703.950000", "161704.410000", "161704.870000", "161705.330000", "161705.790000", "161706.250000", "161706.710000", "161707.170000", "161707.630000", "161708.090000", "161708.550000", "161709.010000", "161709.470000", "161709.930000", "161710.390000", "161710.850000", "161711.310000", "161711.770000", "161712.230000", "161712.690000", "161713.150000", "161713.610000", "161714.070000", "161714.530000", "161714.990000", "161715.450000", "161715.910000", "161716.370000", "161716.830000", "161717.290000", "161717.750000", "161718.210000", "161718.670000", "161719.130000", "161719.590000", "161720.050000", "161720.510000", "161720.970000", "161721.430000", "161721.890000", "161722.350000", "161722.810000", "161723.270000", "161723.730000", "161724.190000", "161724.650000", "161725.110000", "161725.570000", "161726.030000", "161726.490000", "161726.950000", "161727.410000", "161727.870000", "161728.330000", "161728.790000", "161729.250000", "161729.710000", "161730.170000", "161730.630000", "161731.090000", "161731.550000", "161732.010000", "161732.470000", "161732.930000", "161733.390000", "161733.850000", "161734.310000", "161734.770000", "161735.230000", "161735.690000", "161736.150000", "161736.610000", "161737.070000", "161737.530000", "161737.990000", "161738.450000", "161738.910000", "161739.370000", "161739.830000", "161740.290000", "161740.750000", "161741.210000", "161741.670000", "161742.130000", "161742.590000", "161743.050000", "161743.510000", "161743.970000", "161744.430000", "161744.890000", "161745.350000", "161745.810000", "161746.270000", "161746.730000", "161747.190000", "161747.650000", "161748.110000", "161748.570000", "161749.030000", "161749.490000", "161749.950000", "161750.410000", "161750.870000", "161751.330000", "161751.790000", "161752.250000", "161752.710000", "161753.170000", "161753.630000", "161754.090000", "161754.550000", "161755.010000", "161755.470000", "161755.930000", "161756.390000", "161756.850000", "161757.310000", "161757.770000", "161758.230000", "161758.690000", "161759.150000", "161759.610000", "161800.070000", "161800.530000", "161800.990000", "161801.450000", "161801.910000", "161802.370000", "161802.830000", "161803.290000", "161803.750000", "161804.210000", "161804.670000", "161805.130000", "161805.590000", "161806.050000", "161806.510000", "161806.970000", "161807.430000", "161807.890000", "161808.350000", "161808.810000", "161809.270000", "161809.730000", "161810.190000", "161810.650000", "161811.110000", "161811.570000", "161812.030000", "161812.490000", "161812.950000", "161813.410000", "161813.870000", "161814.330000", "161814.790000", "161815.250000", "161815.710000", "161816.170000", "161816.630000", "161817.090000", "161817.550000", "161818.010000", "161818.470000", "161818.930000", "161819.390000", "161819.850000", "161820.310000", "161820.770000", "161821.230000", "161821.690000", "161822.150000", "161822.610000", "161823.070000", "161823.530000", "161823.990000", "161824.450000", "161824.910000", "161825.370000", "161825.830000", "161826.290000", "161826.750000", "161827.210000", "161827.670000", "161828.130000", "161828.590000", "161829.050000", "161829.510000", "161829.970000", "161830.430000", "161830.890000", "161831.350000", "161831.810000", "161832.270000", "161832.730000", "161833.190000", "161833.650000", "161834.110000", "161834.570000", "161835.030000", "161835.490000", "161835.950000", "161836.410000", "161836.870000", "161837.330000", "161837.790000", "161838.250000", "161838.710000", "161839.170000", "161839.630000", "161840.090000", "161840.550000", "161841.010000", "161841.470000", "161841.930000", "161842.390000", "161842.850000", "161843.310000", "161843.770000", "161844.230000", "161844.690000", "161845.150000", "161845.610000", "161846.070000", "161846.530000", "161846.990000", "161847.450000", "161847.910000", "161848.370000", "161848.830000", "161849.290000", "161849.750000", "161850.210000", "161850.670000", "161851.130000", "161851.590000", "161852.050000", "161852.510000", "161852.970000", "161853.430000", "161853.890000", "161854.350000", "161854.810000", "161855.270000", "161855.730000", "161856.190000", "161856.650000", "161857.110000", "161857.570000", "161858.030000", "161858.490000", "161858.950000", "161859.410000", "161859.870000", "161900.330000", "161900.790000", "161901.250000", "161901.710000", "161902.170000", "161902.630000", "161903.090000", "161903.550000", "161904.010000", "161904.470000", "161904.930000", "161905.390000", "161905.850000", "161906.310000", "161906.770000", "161907.230000", "161907.690000", "161908.150000", "161908.610000", "161909.070000", "161909.530000", "161909.990000", "161910.450000", "161910.910000", "161911.370000", "161911.830000", "161912.290000", "161912.750000", "161913.210000", "161913.670000", "161914.130000", "161914.590000", "161915.050000", "161915.510000", "161915.970000", "161916.430000", "161916.890000", "161917.350000", "161917.810000", "161918.270000", "161918.730000", "161919.190000", "161919.650000", "161920.110000", "161920.570000", "161921.030000", "161921.490000", "161921.950000", "161922.410000", "161922.870000", "161923.330000", "161923.790000", "161924.250000", "161924.710000", "161925.170000", "161925.630000", "161926.090000", "161926.550000", "161927.010000", "161927.470000", "161927.930000", "161928.390000", "161928.850000", "161929.310000", "161929.770000", "161930.230000", "161930.690000", "161931.150000", "161931.610000", "161932.070000", "161932.530000", "161932.990000", "161933.450000", "161933.910000", "161934.370000", "161934.830000", "161935.290000", "161935.750000", "161936.210000", "161936.670000", "161937.130000", "161937.590000", "161938.050000", "161938.510000", "161938.970000", "161939.430000", "161939.890000", "161940.350000", "161940.810000", "161941.270000", "161941.730000", "161942.190000", "161942.650000", "161943.110000", "161943.570000", "161944.030000", "161944.490000", "161944.950000", "161945.410000", "161945.870000", "161946.330000", "161946.790000", "161947.250000", "161947.710000", "161948.170000", "161948.630000", "161949.090000", "161949.550000", "161950.010000", "161950.470000", "161950.930000", "161951.390000", "161951.850000", "161952.310000", "161952.770000", "161953.230000", "161953.690000", "161954.150000", "161954.610000", "161955.070000", "161955.530000", "161955.990000", "161956.450000", "161956.910000", "161957.370000", "161957.830000", "161958.290000", "161958.750000", "161959.210000", "161959.670000", "162000.130000", "162000.590000", "162001.050000", "162001.510000", "162001.970000", "162002.430000", "162002.890000", "162003.350000", "162003.810000", "162004.270000", "162004.730000", "162005.190000", "162005.650000", "162006.110000", "162006.570000", "162007.030000", "162007.490000", "162007.950000", "162008.410000", "162008.870000", "162009.330000", "162009.790000", "162010.250000", "162010.710000", "162011.170000", "162011.630000", "162012.090000", "162012.550000", "162013.010000", "162013.470000", "162013.930000", "162014.390000", "162014.850000", "162015.310000", "162015.770000", "162016.230000", "162016.690000", "162017.150000", "162017.610000", "162018.070000", "162018.530000", "162018.990000", "162019.450000", "162019.910000", "162020.370000", "162020.830000", "162021.290000", "162021.750000", "162022.210000", "162022.670000", "162023.130000", "162023.590000", "162024.050000", "162024.510000", "162024.970000", "162025.430000", "162025.890000", "162026.350000", "162026.810000", "162027.270000", "162027.730000", "162028.190000", "162028.650000", "162029.110000", "162029.570000", "162030.030000", "162030.490000", "162030.950000", "162031.410000", "162031.870000", "162032.330000", "162032.790000", "162033.250000", "162033.710000", "162034.170000", "162034.630000", "162035.090000", "162035.550000", "162036.010000", "162036.470000", "162036.930000", "162037.390000", "162037.850000", "162038.310000", "162038.770000", "162039.230000", "162039.690000", "162040.150000", "162040.610000", "162041.070000", "162041.530000", "162041.990000", "162042.450000", "162042.910000", "162043.370000", "162043.830000", "162044.290000", "162044.750000", "162045.210000", "162045.670000", "162046.130000", "162046.590000", "162047.050000", "162047.510000", "162047.970000", "162048.430000", "162048.890000", "162049.350000", "162049.810000", "162050.270000", "162050.730000", "162051.190000", "162051.650000", "162052.110000", "162052.570000", "162053.030000", "162053.490000", "162053.950000", "162054.410000", "162054.870000", "162055.330000", "162055.790000", "162056.250000", "162056.710000", "162057.170000", "162057.630000", "162058.090000", "162058.550000", "162059.010000", "162059.470000", "162059.930000", "162100.390000", "162100.850000", "162101.310000", "162101.770000", "162102.230000", "162102.690000", "162103.150000", "162103.610000", "162104.070000", "162104.530000", "162104.990000", "162105.450000", "162105.910000", "162106.370000", "162106.830000", "162107.290000", "162107.750000", "162108.210000", "162108.670000", "162109.130000", "162109.590000", "162110.050000", "162110.510000", "162110.970000", "162111.430000", "162111.890000", "162112.350000", "162112.810000", "162113.270000", "162113.730000", "162114.190000", "162114.650000", "162115.110000", "162115.570000", "162116.030000", "162116.490000", "162116.950000", "162117.410000", "162117.870000", "162118.330000", "162118.790000", "162119.250000", "162119.710000", "162120.170000", "162120.630000", "162121.090000", "162121.550000", "162122.010000", "162122.470000", "162122.930000", "162123.390000", "162123.850000", "162124.310000", "162124.770000", "162125.230000", "162125.690000", "162126.150000", "162126.610000", "162127.070000", "162127.530000", "162127.990000", "162128.450000", "162128.910000", "162129.370000", "162129.830000", "162130.290000", "162130.750000", "162131.210000", "162131.670000", "162132.130000", "162132.590000", "162133.050000", "162133.510000", "162133.970000", "162134.430000", "162134.890000", "162135.350000", "162135.810000", "162136.270000", "162136.730000", "162137.190000", "162137.650000", "162138.110000", "162138.570000", "162139.030000", "162139.490000", "162139.950000", "162140.410000", "162140.870000", "162141.330000", "162141.790000", "162142.250000", "162142.710000", "162143.170000", "162143.630000", "162144.090000", "162144.550000", "162145.010000", "162145.470000", "162145.930000", "162146.390000", "162146.850000", "162147.310000", "162147.770000", "162148.230000", "162148.690000", "162149.150000", "162149.610000", "162150.070000", "162150.530000", "162150.990000", "162151.450000", "162151.910000", "162152.370000", "162152.830000", "162153.290000", "162153.750000", "162154.210000", "162154.670000", "162155.130000", "162155.590000", "162156.050000", "162156.510000", "162156.970000", "162157.430000", "162157.890000", "162158.350000", "162158.810000", "162159.270000", "162159.730000", "162200.190000", "162200.650000", "162201.110000", "162201.570000", "162202.030000", "162202.490000", "162202.950000", "162203.410000", "162203.870000", "162204.330000", "162204.790000", "162205.250000", "162205.710000", "162206.170000", "162206.630000", "162207.090000", "162207.550000", "162208.010000", "162208.470000", "162208.930000", "162209.390000", "162209.850000", "162210.310000", "162210.770000", "162211.230000", "162211.690000", "162212.150000", "162212.610000", "162213.070000"],
