{
  "AcquisitionMatrixPE": 82,
  "AcquisitionNumber": 1,
  "AcquisitionTime": "15:14:38.127500",
  "BandwidthPerPixelPhaseEncode": 24.888,
  "BaseResolution": 82,
  "BodyPartExamined": "BRAIN",
  "ConsistencyInfo": "N4_VE11E_LATEST_20181129",
  "ConversionSoftware": "dcm2niix",
  "ConversionSoftwareVersion": "v1.0.20201102",
  "DerivedVendorReportedEchoSpacing": 0.00049,
  "DeviceSerialNumber": "66112",
  "DwellTime": 2e-06,
  "EchoTime": 0.0272,
  "EchoTrainLength": 82,
  "EffectiveEchoSpacing": 0.00049,
  "FlipAngle": 44,
  "ImageComments": "Unaliased MB8/PE3",
  "ImageOrientationPatientDICOM": [0.999896, 0.00994436, 0.0104891, -0.00890049, 0.995413, -0.0952585],
  "ImageType": [
    "ORIGINAL",
    "PRIMARY",
    "M",
    "MB",
    "ND",
    "NORM",
    "MOSAIC"
],
  "ImagingFrequency": 123.252,
  "InPlanePhaseEncodingDirectionDICOM": "COL",
  "InstitutionAddress": "Maynard 3,Hanover,NH,US,03755",
  "InstitutionName": "Dartmouth College - PBS",
  "InstitutionalDepartmentName": "Department",
  "MRAcquisitionType": "2D",
  "MagneticFieldStrength": 3,
  "Manufacturer": "Siemens",
  "ManufacturersModelName": "Prisma",
  "Modality": "MR",
  "MultibandAccelerationFactor": 8,
  "PartialFourier": 1,
  "PatientPosition": "HFS",
  "PercentPhaseFOV": 100,
  "PercentSampling": 100,
  "PhaseEncodingDirection": "j-",
  "PhaseEncodingSteps": 82,
  "PhaseResolution": 1,
  "PixelBandwidth": 3050,
  "ProcedureStepDescription": "Wager_Wager^1076_spacetop",
  "ProtocolName": "func_run-04_task-social_acq-ap-mb8",
  "PulseSequenceDetails": "%CustomerSeq%\\cmrr_mbep2d_bold",
  "ReceiveCoilActiveElements": "HEA;HEP",
  "ReceiveCoilName": "Head_32",
  "ReconMatrixPE": 82,
  "RepetitionTime": 0.46,
  "SAR": 0.093138,
  "ScanOptions": "FS",
  "ScanningSequence": "EP",
  "SequenceName": "epfid2d1_82",
  "SequenceVariant": "SK\\SS",
  "SeriesDescription": "func_run-04_task-social_acq-ap-mb8",
  "SeriesNumber": 14,
  "ShimSetting": [4146, -7687, -7291, 584, -26, -152, -90, 93],
  "SliceThickness": 2.7,
  "SliceTiming": [0, 0.2525, 0.0625, 0.315, 0.125, 0.3775, 0.1875, 0, 0.2525, 0.0625, 0.315, 0.125, 0.3775, 0.1875, 0, 0.2525, 0.0625, 0.315, 0.125, 0.3775, 0.1875, 0, 0.2525, 0.0625, 0.315, 0.125, 0.3775, 0.1875, 0, 0.2525, 0.0625, 0.315, 0.125, 0.3775, 0.1875, 0, 0.2525, 0.0625, 0.315, 0.125, 0.3775, 0.1875, 0, 0.2525, 0.0625, 0.315, 0.125, 0.3775, 0.1875, 0, 0.2525, 0.0625, 0.315, 0.125, 0.3775, 0.1875],
  "SoftwareVersions": "syngo MR E11",
  "SpacingBetweenSlices": 2.7,
  "StationName": "AWP66112",
  "TaskName": "social",
  "TotalReadoutTime": 0.03969,
  "TxRefAmp": 256.935,
  "WipMemBlock": "5ceca7f8-4aab-42ac-a341-87fa78da59f2||Sequence: R016 ve11e/master r/434b28f1; Aug  7 2019 18:53:46 by eja",
  "dcmmeta_affine": [
    [-2.6826465129852295, -0.023879369720816612, 0.030748436227440834, 114.6108169555664],
    [-0.02667998895049095, 2.6706197261810303, -0.25691911578178406, -80.28063201904297],
    [0.028141595423221588, 0.2555716633796692, 2.687572717666626, -91.40372467041016],
    [0.0, 0.0, 0.0, 1.0]
],
  "dcmmeta_reorient_transform": [
    [0.0, -1.0, 0.0, 81.0],
    [1.0, 0.0, 0.0, 0.0],
    [0.0, 0.0, 1.0, 0.0],
    [0.0, 0.0, 0.0, 1.0]
],
  "dcmmeta_shape": [82, 82, 56, 872],
  "dcmmeta_slice_dim": 2,
  "dcmmeta_version": 0.6,
  "global": {
    "const": {
      "AccessionNumber": "A003922",
      "AcquisitionMatrix": [82, 0, 0, 82],
      "AngioFlag": "N",
      "BitsAllocated": 16,
      "BitsStored": 16,
      "BodyPartExamined": "BRAIN",
      "Columns": 656,
      "EchoNumbers": 1,
      "EchoTime": 27.2,
      "EchoTrainLength": 82,
      "FlipAngle": 44.0,
      "HighBit": 15,
      "ImageOrientationPatient": [0.99989553836987, 0.00994435949233, 0.01048914020872, -0.0089004921427, 0.99541277534342, -0.0952585320206],
      "ImagePositionPatient": [-875.74279432624, -910.16457326248, -5.4299872600085],
      "ImageType": [
        "ORIGINAL",
        "PRIMARY",
        "M",
        "MB",
        "ND",
        "NORM",
        "MOSAIC"
],
      "ImagedNucleus": "1H",
      "ImagingFrequency": 123.25221,
      "InPlanePhaseEncodingDirection": "COL",
      "MRAcquisitionType": "2D",
      "MagneticFieldStrength": 3.0,
      "Manufacturer": "SIEMENS",
      "ManufacturerModelName": "Prisma",
      "Modality": "MR",
      "NumberOfAverages": 1.0,
      "NumberOfPhaseEncodingSteps": 82,
      "PercentPhaseFieldOfView": 100.0,
      "PercentSampling": 100.0,
      "PerformedProcedureStepStartTime": "142746.291000",
      "PhotometricInterpretation": "MONOCHROME2",
      "PixelBandwidth": 3050.0,
      "PixelRepresentation": 0,
      "PixelSpacing": [2.6829268932343, 2.6829268932343],
      "ProtocolName": "func_run-04_task-social_acq-ap-mb8",
      "RepetitionTime": 460.0,
      "Rows": 656,
      "SAR": 0.09313804791161,
      "SamplesPerPixel": 1,
      "ScanOptions": "FS",
      "ScanningSequence": "EP",
      "SequenceName": "epfid2d1_82",
      "SequenceVariant": [
        "SK",
        "SS"
],
      "SeriesDescription": "func_run-04_task-social_acq-ap-mb8",
      "SeriesNumber": 14,
      "SeriesTime": "151457.850000",
      "SliceLocation": -82.038677519729,
      "SliceThickness": 2.7000000476837,
      "SmallestImagePixelValue": 0,
      "SoftwareVersions": "syngo MR E11",
      "SpacingBetweenSlices": 2.7000001097892,
      "SpecificCharacterSet": "ISO_IR 100",
      "StudyID": "3",
      "StudyTime": "142746.220000",
      "TransmitCoilName": "Body",
      "VariableFlipAngleFlag": "N",
      "WindowCenterWidthExplanation": "Algo1"
    },
    "slices": {}
  },
  "time": {
    "samples": {
      "AcquisitionNumber": [1, 2, 3, 4, 5, 6, 7, 8, 9, 10, 11, 12, 13, 14, 15, 16, 17, 18, 19, 20, 21, 22, 23, 24, 25, 26, 27, 28, 29, 30, 31, 32, 33, 34, 35, 36, 37, 38, 39, 40, 41, 42, 43, 44, 45, 46, 47, 48, 49, 50, 51, 52, 53, 54, 55, 56, 57, 58, 59, 60, 61, 62, 63, 64, 65, 66, 67, 68, 69, 70, 71, 72, 73, 74, 75, 76, 77, 78, 79, 80, 81, 82, 83, 84, 85, 86, 87, 88, 89, 90, 91, 92, 93, 94, 95, 96, 97, 98, 99, 100, 101, 102, 103, 104, 105, 106, 107, 108, 109, 110, 111, 112, 113, 114, 115, 116, 117, 118, 119, 120, 121, 122, 123, 124, 125, 126, 127, 128, 129, 130, 131, 132, 133, 134, 135, 136, 137, 138, 139, 140, 141, 142, 143, 144, 145, 146, 147, 148, 149, 150, 151, 152, 153, 154, 155, 156, 157, 158, 159, 160, 161, 162, 163, 164, 165, 166, 167, 168, 169, 170, 171, 172, 173, 174, 175, 176, 177, 178, 179, 180, 181, 182, 183, 184, 185, 186, 187, 188, 189, 190, 191, 192, 193, 194, 195, 196, 197, 198, 199, 200, 201, 202, 203, 204, 205, 206, 207, 208, 209, 210, 211, 212, 213, 214, 215, 216, 217, 218, 219, 220, 221, 222, 223, 224, 225, 226, 227, 228, 229, 230, 231, 232, 233, 234, 235, 236, 237, 238, 239, 240, 241, 242, 243, 244, 245, 246, 247, 248, 249, 250, 251, 252, 253, 254, 255, 256, 257, 258, 259, 260, 261, 262, 263, 264, 265, 266, 267, 268, 269, 270, 271, 272, 273, 274, 275, 276, 277, 278, 279, 280, 281, 282, 283, 284, 285, 286, 287, 288, 289, 290, 291, 292, 293, 294, 295, 296, 297, 298, 299, 300, 301, 302, 303, 304, 305, 306, 307, 308, 309, 310, 311, 312, 313, 314, 315, 316, 317, 318, 319, 320, 321, 322, 323, 324, 325, 326, 327, 328, 329, 330, 331, 332, 333, 334, 335, 336, 337, 338, 339, 340, 341, 342, 343, 344, 345, 346, 347, 348, 349, 350, 351, 352, 353, 354, 355, 356, 357, 358, 359, 360, 361, 362, 363, 364, 365, 366, 367, 368, 369, 370, 371, 372, 373, 374, 375, 376, 377, 378, 379, 380, 381, 382, 383, 384, 385, 386, 387, 388, 389, 390, 391, 392, 393, 394, 395, 396, 397, 398, 399, 400, 401, 402, 403, 404, 405, 406, 407, 408, 409, 410, 411, 412, 413, 414, 415, 416, 417, 418, 419, 420, 421, 422, 423, 424, 425, 426, 427, 428, 429, 430, 431, 432, 433, 434, 435, 436, 437, 438, 439, 440, 441, 442, 443, 444, 445, 446, 447, 448, 449, 450, 451, 452, 453, 454, 455, 456, 457, 458, 459, 460, 461, 462, 463, 464, 465, 466, 467, 468, 469, 470, 471, 472, 473, 474, 475, 476, 477, 478, 479, 480, 481, 482, 483, 484, 485, 486, 487, 488, 489, 490, 491, 492, 493, 494, 495, 496, 497, 498, 499, 500, 501, 502, 503, 504, 505, 506, 507, 508, 509, 510, 511, 512, 513, 514, 515, 516, 517, 518, 519, 520, 521, 522, 523, 524, 525, 526, 527, 528, 529, 530, 531, 532, 533, 534, 535, 536, 537, 538, 539, 540, 541, 542, 543, 544, 545, 546, 547, 548, 549, 550, 551, 552, 553, 554, 555, 556, 557, 558, 559, 560, 561, 562, 563, 564, 565, 566, 567, 568, 569, 570, 571, 572, 573, 574, 575, 576, 577, 578, 579, 580, 581, 582, 583, 584, 585, 586, 587, 588, 589, 590, 591, 592, 593, 594, 595, 596, 597, 598, 599, 600, 601, 602, 603, 604, 605, 606, 607, 608, 609, 610, 611, 612, 613, 614, 615, 616, 617, 618, 619, 620, 621, 622, 623, 624, 625, 626, 627, 628, 629, 630, 631, 632, 633, 634, 635, 636, 637, 638, 639, 640, 641, 642, 643, 644, 645, 646, 647, 648, 649, 650, 651, 652, 653, 654, 655, 656, 657, 658, 659, 660, 661, 662, 663, 664, 665, 666, 667, 668, 669, 670, 671, 672, 673, 674, 675, 676, 677, 678, 679, 680, 681, 682, 683, 684, 685, 686, 687, 688, 689, 690, 691, 692, 693, 694, 695, 696, 697, 698, 699, 700, 701, 702, 703, 704, 705, 706, 707, 708, 709, 710, 711, 712, 713, 714, 715, 716, 717, 718, 719, 720, 721, 722, 723, 724, 725, 726, 727, 728, 729, 730, 731, 732, 733, 734, 735, 736, 737, 738, 739, 740, 741, 742, 743, 744, 745, 746, 747, 748, 749, 750, 751, 752, 753, 754, 755, 756, 757, 758, 759, 760, 761, 762, 763, 764, 765, 766, 767, 768, 769, 770, 771, 772, 773, 774, 775, 776, 777, 778, 779, 780, 781, 782, 783, 784, 785, 786, 787, 788, 789, 790, 791, 792, 793, 794, 795, 796, 797, 798, 799, 800, 801, 802, 803, 804, 805, 806, 807, 808, 809, 810, 811, 812, 813, 814, 815, 816, 817, 818, 819, 820, 821, 822, 823, 824, 825, 826, 827, 828, 829, 830, 831, 832, 833, 834, 835, 836, 837, 838, 839, 840, 841, 842, 843, 844, 845, 846, 847, 848, 849, 850, 851, 852, 853, 854, 855, 856, 857, 858, 859, 860, 861, 862, 863, 864, 865, 866, 867, 868, 869, 870, 871, 872],
      "AcquisitionTime": ["151438.127500", "151438.587500", "151439.047500", "151439.507500", "151439.967500", "151440.427500", "151440.887500", "151441.347500", "151441.807500", "151442.267500", "151442.727500", "151443.187500", "151443.647500", "151444.107500", "151444.567500", "151445.027500", "151445.487500", "151445.947500", "151446.407500", "151446.867500", "151447.327500", "151447.787500", "151448.247500", "151448.707500", "151449.167500", "151449.627500", "151450.087500", "151450.547500", "151451.007500", "151451.467500", "151451.927500", "151452.387500", "151452.847500", "151453.307500", "151453.767500", "151454.227500", "151454.687500", "151455.147500", "151455.607500", "151456.067500", "151456.527500", "151456.987500", "151457.447500", "151457.907500", "151458.367500", "151458.827500", "151459.287500", "151459.747500", "151500.207500", "151500.667500", "151501.127500", "151501.587500", "151502.047500", "151502.507500", "151502.967500", "151503.427500", "151503.887500", "151504.347500", "151504.807500", "151505.267500", "151505.727500", "151506.187500", "151506.647500", "151507.107500", "151507.567500", "151508.027500", "151508.487500", "151508.947500", "151509.407500", "151509.867500", "151510.327500", "151510.787500", "151511.247500", "151511.707500", "151512.167500", "151512.627500", "151513.087500", "151513.547500", "151514.007500", "151514.467500", "151514.927500", "151515.387500", "151515.847500", "151516.307500", "151516.767500", "151517.227500", "151517.687500", "151518.147500", "151518.607500", "151519.067500", "151519.527500", "151519.987500", "151520.447500", "151520.907500", "151521.367500", "151521.827500", "151522.287500", "151522.747500", "151523.207500", "151523.667500", "151524.127500", "151524.587500", "151525.047500", "151525.507500", "151525.967500", "151526.427500", "151526.887500", "151527.347500", "151527.807500", "151528.267500", "151528.727500", "151529.187500", "151529.647500", "151530.107500", "151530.567500", "151531.027500", "151531.487500", "151531.947500", "151532.407500", "151532.867500", "151533.327500", "151533.787500", "151534.247500", "151534.707500", "151535.167500", "151535.627500", "151536.087500", "151536.547500", "151537.007500", "151537.467500", "151537.927500", "151538.387500", "151538.847500", "151539.307500", "151539.767500", "151540.227500", "151540.687500", "151541.147500", "151541.607500", "151542.067500", "151542.527500", "151542.987500", "151543.447500", "151543.907500", "151544.367500", "151544.827500", "151545.287500", "151545.747500", "151546.207500", "151546.667500", "151547.127500", "151547.587500", "151548.047500", "151548.507500", "151548.967500", "151549.427500", "151549.887500", "151550.347500", "151550.807500", "151551.267500", "151551.727500", "151552.187500", "151552.647500", "151553.107500", "151553.567500", "151554.027500", "151554.487500", "151554.947500", "151555.407500", "151555.867500", "151556.327500", "151556.787500", "151557.247500", "151557.707500", "151558.167500", "151558.627500", "151559.087500", "151559.547500", "151600.007500", "151600.467500", "151600.927500", "151601.387500", "151601.847500", "151602.307500", "151602.767500", "151603.227500", "151603.687500", "151604.147500", "151604.607500", "151605.067500", "151605.527500", "151605.987500", "151606.447500", "151606.907500", "151607.367500", "151607.827500", "151608.287500", "151608.747500", "151609.207500", "151609.667500", "151610.127500", "151610.587500", "151611.047500", "151611.507500", "151611.967500", "151612.427500", "151612.887500", "151613.347500", "151613.807500", "151614.267500", "151614.727500", "151615.187500", "151615.647500", "151616.107500", "151616.567500", "151617.027500", "151617.487500", "151617.947500", "151618.407500", "151618.867500", "151619.327500", "151619.787500", "151620.247500", "151620.707500", "151621.167500", "151621.627500", "151622.087500", "151622.547500", "151623.007500", "151623.467500", "151623.927500", "151624.387500", "151624.847500", "151625.307500", "151625.767500", "151626.227500", "151626.687500", "151627.147500", "151627.607500", "151628.067500", "151628.527500", "151628.987500", "151629.447500", "151629.907500", "151630.367500", "151630.827500", "151631.287500", "151631.747500", "151632.207500", "151632.667500", "151633.127500", "151633.587500", "151634.047500", "151634.507500", "151634.967500", "151635.427500", "151635.887500", "151636.347500", "151636.807500", "151637.267500", "151637.727500", "151638.187500", "151638.647500", "151639.107500", "151639.567500", "151640.027500", "151640.487500", "151640.947500", "151641.407500", "151641.867500", "151642.327500", "151642.787500", "151643.247500", "151643.707500", "151644.167500", "151644.627500", "151645.087500", "151645.547500", "151646.007500", "151646.467500", "151646.927500", "151647.387500", "151647.847500", "151648.307500", "151648.767500", "151649.227500", "151649.687500", "151650.147500", "151650.607500", "151651.067500", "151651.527500", "151651.987500", "151652.447500", "151652.907500", "151653.367500", "151653.827500", "151654.287500", "151654.747500", "151655.207500", "151655.667500", "151656.127500", "151656.587500", "151657.047500", "151657.507500", "151657.967500", "151658.427500", "151658.887500", "151659.347500", "151659.807500", "151700.267500", "151700.727500", "151701.187500", "151701.647500", "151702.107500", "151702.567500", "151703.027500", "151703.487500", "151703.947500", "151704.407500", "151704.867500", "151705.327500", "151705.787500", "151706.247500", "151706.707500", "151707.167500", "151707.627500", "151708.087500", "151708.547500", "151709.007500", "151709.467500", "151709.927500", "151710.387500", "151710.847500", "151711.307500", "151711.767500", "151712.227500", "151712.687500", "151713.147500", "151713.607500", "151714.067500", "151714.527500", "151714.987500", "151715.447500", "151715.907500", "151716.367500", "151716.827500", "151717.287500", "151717.747500", "151718.207500", "151718.667500", "151719.127500", "151719.587500", "151720.047500", "151720.507500", "151720.967500", "151721.427500", "151721.887500", "151722.347500", "151722.807500", "151723.267500", "151723.727500", "151724.187500", "151724.647500", "151725.107500", "151725.567500", "151726.027500", "151726.487500", "151726.947500", "151727.407500", "151727.867500", "151728.327500", "151728.787500", "151729.247500", "151729.707500", "151730.167500", "151730.627500", "151731.087500", "151731.547500", "151732.007500", "151732.467500", "151732.927500", "151733.387500", "151733.847500", "151734.307500", "151734.767500", "151735.227500", "151735.687500", "151736.147500", "151736.607500", "151737.067500", "151737.527500", "151737.987500", "151738.447500", "151738.907500", "151739.367500", "151739.827500", "151740.287500", "151740.747500", "151741.207500", "151741.667500", "151742.127500", "151742.587500", "151743.047500", "151743.507500", "151743.967500", "151744.427500", "151744.887500", "151745.347500", "151745.807500", "151746.267500", "151746.727500", "151747.187500", "151747.647500", "151748.107500", "151748.567500", "151749.027500", "151749.487500", "151749.947500", "151750.407500", "151750.867500", "151751.327500", "151751.787500", "151752.247500", "151752.707500", "151753.167500", "151753.627500", "151754.087500", "151754.547500", "151755.007500", "151755.467500", "151755.927500", "151756.387500", "151756.847500", "151757.307500", "151757.767500", "151758.227500", "151758.687500", "151759.147500", "151759.607500", "151800.067500", "151800.527500", "151800.987500", "151801.447500", "151801.907500", "151802.367500", "151802.827500", "151803.287500", "151803.747500", "151804.207500", "151804.667500", "151805.127500", "151805.587500", "151806.047500", "151806.507500", "151806.967500", "151807.427500", "151807.887500", "151808.347500", "151808.807500", "151809.267500", "151809.727500", "151810.187500", "151810.647500", "151811.107500", "151811.567500", "151812.027500", "151812.487500", "151812.947500", "151813.407500", "151813.867500", "151814.327500", "151814.787500", "151815.247500", "151815.707500", "151816.167500", "151816.627500", "151817.087500", "151817.547500", "151818.007500", "151818.467500", "151818.927500", "151819.387500", "151819.847500", "151820.307500", "151820.767500", "151821.227500", "151821.687500", "151822.147500", "151822.607500", "151823.067500", "151823.527500", "151823.987500", "151824.447500", "151824.907500", "151825.367500", "151825.827500", "151826.287500", "151826.747500", "151827.207500", "151827.667500", "151828.127500", "151828.587500", "151829.047500", "151829.507500", "151829.967500", "151830.427500", "151830.887500", "151831.347500", "151831.807500", "151832.267500", "151832.727500", "151833.187500", "151833.647500", "151834.107500", "151834.567500", "151835.027500", "151835.487500", "151835.947500", "151836.407500", "151836.867500", "151837.327500", "151837.787500", "151838.247500", "151838.707500", "151839.167500", "151839.627500", "151840.087500", "151840.547500", "151841.007500", "151841.467500", "151841.927500", "151842.387500", "151842.847500", "151843.307500", "151843.767500", "151844.227500", "151844.687500", "151845.147500", "151845.607500", "151846.067500", "151846.527500", "151846.987500", "151847.447500", "151847.907500", "151848.367500", "151848.827500", "151849.287500", "151849.747500", "151850.207500", "151850.667500", "151851.127500", "151851.587500", "151852.047500", "151852.507500", "151852.967500", "151853.427500", "151853.887500", "151854.347500", "151854.807500", "151855.267500", "151855.727500", "151856.187500", "151856.647500", "151857.107500", "151857.567500", "151858.027500", "151858.487500", "151858.947500", "151859.407500", "151859.867500", "151900.327500", "151900.787500", "151901.247500", "151901.707500", "151902.167500", "151902.627500", "151903.087500", "151903.547500", "151904.007500", "151904.467500", "151904.927500", "151905.387500", "151905.847500", "151906.307500", "151906.767500", "151907.227500", "151907.687500", "151908.147500", "151908.607500", "151909.067500", "151909.527500", "151909.987500", "151910.447500", "151910.907500", "151911.367500", "151911.827500", "151912.287500", "151912.747500", "151913.207500", "151913.667500", "151914.127500", "151914.587500", "151915.047500", "151915.507500", "151915.967500", "151916.427500", "151916.887500", "151917.347500", "151917.807500", "151918.267500", "151918.727500", "151919.187500", "151919.647500", "151920.107500", "151920.567500", "151921.027500", "151921.487500", "151921.947500", "151922.407500", "151922.867500", "151923.327500", "151923.787500", "151924.247500", "151924.707500", "151925.167500", "151925.627500", "151926.087500", "151926.547500", "151927.007500", "151927.467500", "151927.927500", "151928.387500", "151928.847500", "151929.307500", "151929.767500", "151930.227500", "151930.687500", "151931.147500", "151931.607500", "151932.067500", "151932.527500", "151932.987500", "151933.447500", "151933.907500", "151934.367500", "151934.827500", "151935.287500", "151935.747500", "151936.207500", "151936.667500", "151937.127500", "151937.587500", "151938.047500", "151938.507500", "151938.967500", "151939.427500", "151939.887500", "151940.347500", "151940.807500", "151941.267500", "151941.727500", "151942.187500", "151942.647500", "151943.107500", "151943.567500", "151944.027500", "151944.487500", "151944.947500", "151945.407500", "151945.867500", "151946.327500", "151946.787500", "151947.247500", "151947.707500", "151948.167500", "151948.627500", "151949.087500", "151949.547500", "151950.007500", "151950.467500", "151950.927500", "151951.387500", "151951.847500", "151952.307500", "151952.767500", "151953.227500", "151953.687500", "151954.147500", "151954.607500", "151955.067500", "151955.527500", "151955.987500", "151956.447500", "151956.907500", "151957.367500", "151957.827500", "151958.287500", "151958.747500", "151959.207500", "151959.667500", "152000.127500", "152000.587500", "152001.047500", "152001.507500", "152001.967500", "152002.427500", "152002.887500", "152003.347500", "152003.807500", "152004.267500", "152004.727500", "152005.187500", "152005.647500", "152006.107500", "152006.567500", "152007.027500", "152007.487500", "152007.947500", "152008.407500", "152008.867500", "152009.327500", "152009.787500", "152010.247500", "152010.707500", "152011.167500", "152011.627500", "152012.087500", "152012.547500", "152013.007500", "152013.467500", "152013.927500", "152014.387500", "152014.847500", "152015.307500", "152015.767500", "152016.227500", "152016.687500", "152017.147500", "152017.607500", "152018.067500", "152018.527500", "152018.987500", "152019.447500", "152019.907500", "152020.367500", "152020.827500", "152021.287500", "152021.747500", "152022.207500", "152022.667500", "152023.127500", "152023.587500", "152024.047500", "152024.507500", "152024.967500", "152025.427500", "152025.887500", "152026.347500", "152026.807500", "152027.267500", "152027.727500", "152028.187500", "152028.647500", "152029.107500", "152029.567500", "152030.027500", "152030.487500", "152030.947500", "152031.407500", "152031.867500", "152032.327500", "152032.787500", "152033.247500", "152033.707500", "152034.167500", "152034.627500", "152035.087500", "152035.547500", "152036.007500", "152036.467500", "152036.927500", "152037.387500", "152037.847500", "152038.307500", "152038.767500", "152039.227500", "152039.687500", "152040.147500", "152040.607500", "152041.067500", "152041.527500", "152041.987500", "152042.447500", "152042.907500", "152043.367500", "152043.827500", "152044.287500", "152044.747500", "152045.207500", "152045.667500", "152046.127500", "152046.587500", "152047.047500", "152047.507500", "152047.967500", "152048.427500", "152048.887500", "152049.347500", "152049.807500", "152050.267500", "152050.727500", "152051.187500", "152051.647500", "152052.107500", "152052.567500", "152053.027500", "152053.487500", "152053.947500", "152054.407500", "152054.867500", "152055.327500", "152055.787500", "152056.247500", "152056.707500", "152057.167500", "152057.627500", "152058.087500", "152058.547500", "152059.007500", "152059.467500", "152059.927500", "152100.387500", "152100.847500", "152101.307500", "152101.767500", "152102.227500", "152102.687500", "152103.147500", "152103.607500", "152104.067500", "152104.527500", "152104.987500", "152105.447500", "152105.907500", "152106.367500", "152106.827500", "152107.287500", "152107.747500", "152108.207500", "152108.667500", "152109.127500", "152109.587500", "152110.047500", "152110.507500", "152110.967500", "152111.427500", "152111.887500", "152112.347500", "152112.807500", "152113.267500", "152113.727500", "152114.187500", "152114.647500", "152115.107500", "152115.567500", "152116.027500", "152116.487500", "152116.947500", "152117.407500", "152117.867500", "152118.327500", "152118.787500"],
