{
  "AcquisitionMatrixPE": 82,
  "AcquisitionNumber": 1,
  "AcquisitionTime": "15:00:29.487500",
  "BandwidthPerPixelPhaseEncode": 24.888,
  "BaseResolution": 82,
  "BodyPartExamined": "BRAIN",
  "ConsistencyInfo": "N4_VE11E_LATEST_20181129",
  "ConversionSoftware": "dcm2niix",
  "ConversionSoftwareVersion": "v1.0.20201102",
  "DerivedVendorReportedEchoSpacing": 0.00049,
  "DeviceSerialNumber": "66112",
  "DwellTime": 2e-06,
  "EchoTime": 0.0272,
  "EchoTrainLength": 82,
  "EffectiveEchoSpacing": 0.00049,
  "FlipAngle": 44,
  "ImageComments": "Unaliased MB8/PE3",
  "ImageOrientationPatientDICOM": [0.999896, 0.00994436, 0.0104891, -0.00890049, 0.995413, -0.0952585],
  "ImageType": [
    "ORIGINAL",
    "PRIMARY",
    "M",
    "MB",
    "ND",
    "NORM",
    "MOSAIC"
],
  "ImagingFrequency": 123.252,
  "InPlanePhaseEncodingDirectionDICOM": "COL",
  "InstitutionAddress": "Maynard 3,Hanover,NH,US,03755",
  "InstitutionName": "Dartmouth College - PBS",
  "InstitutionalDepartmentName": "Department",
  "MRAcquisitionType": "2D",
  "MagneticFieldStrength": 3,
  "Manufacturer": "Siemens",
  "ManufacturersModelName": "Prisma",
  "Modality": "MR",
  "MultibandAccelerationFactor": 8,
  "PartialFourier": 1,
  "PatientPosition": "HFS",
  "PercentPhaseFOV": 100,
  "PercentSampling": 100,
  "PhaseEncodingDirection": "j-",
  "PhaseEncodingSteps": 82,
  "PhaseResolution": 1,
  "PixelBandwidth": 3050,
  "ProcedureStepDescription": "Wager_Wager^1076_spacetop",
  "ProtocolName": "func_run-02_task-social_acq-ap-mb8",
  "PulseSequenceDetails": "%CustomerSeq%\\cmrr_mbep2d_bold",
  "ReceiveCoilActiveElements": "HEA;HEP",
  "ReceiveCoilName": "Head_32",
  "ReconMatrixPE": 82,
  "RepetitionTime": 0.46,
  "SAR": 0.093138,
  "ScanOptions": "FS",
  "ScanningSequence": "EP",
  "SequenceName": "epfid2d1_82",
  "SequenceVariant": "SK\\SS",
  "SeriesDescription": "func_run-02_task-social_acq-ap-mb8",
  "SeriesNumber": 10,
  "ShimSetting": [4146, -7687, -7291, 584, -26, -152, -90, 93],
  "SliceThickness": 2.7,
  "SliceTiming": [0, 0.25, 0.0625, 0.3125, 0.125, 0.375, 0.1875, 0, 0.25, 0.0625, 0.3125, 0.125, 0.375, 0.1875, 0, 0.25, 0.0625, 0.3125, 0.125, 0.375, 0.1875, 0, 0.25, 0.0625, 0.3125, 0.125, 0.375, 0.1875, 0, 0.25, 0.0625, 0.3125, 0.125, 0.375, 0.1875, 0, 0.25, 0.0625, 0.3125, 0.125, 0.375, 0.1875, 0, 0.25, 0.0625, 0.3125, 0.125, 0.375, 0.1875, 0, 0.25, 0.0625, 0.3125, 0.125, 0.375, 0.1875],
  "SoftwareVersions": "syngo MR E11",
  "SpacingBetweenSlices": 2.7,
  "StationName": "AWP66112",
  "TaskName": "social",
  "TotalReadoutTime": 0.03969,
  "TxRefAmp": 256.935,
  "WipMemBlock": "3777f60d-d74b-46ef-8ac6-ca0e1ab031b7||Sequence: R016 ve11e/master r/434b28f1; Aug  7 2019 18:53:46 by eja",
  "dcmmeta_affine": [
    [-2.6826465129852295, -0.023879369720816612, 0.030748436227440834, 114.6108169555664],
    [-0.02667998895049095, 2.6706197261810303, -0.25691911578178406, -80.28063201904297],
    [0.028141595423221588, 0.2555716633796692, 2.687572717666626, -91.40372467041016],
    [0.0, 0.0, 0.0, 1.0]
],
  "dcmmeta_reorient_transform": [
    [0.0, -1.0, 0.0, 81.0],
    [1.0, 0.0, 0.0, 0.0],
    [0.0, 0.0, 1.0, 0.0],
    [0.0, 0.0, 0.0, 1.0]
],
  "dcmmeta_shape": [82, 82, 56, 872],
  "dcmmeta_slice_dim": 2,
  "dcmmeta_version": 0.6,
  "global": {
    "const": {
      "AccessionNumber": "A003922",
      "AcquisitionMatrix": [82, 0, 0, 82],
      "AngioFlag": "N",
      "BitsAllocated": 16,
      "BitsStored": 16,
      "BodyPartExamined": "BRAIN",
      "Columns": 656,
      "EchoNumbers": 1,
      "EchoTime": 27.2,
      "EchoTrainLength": 82,
      "FlipAngle": 44.0,
      "HighBit": 15,
      "ImageOrientationPatient": [0.99989553836987, 0.00994435949233, 0.01048914020872, -0.0089004921427, 0.99541277534342, -0.0952585320206],
      "ImagePositionPatient": [-875.74279432624, -910.16457326248, -5.4299872600085],
      "ImageType": [
        "ORIGINAL",
        "PRIMARY",
        "M",
        "MB",
        "ND",
        "NORM",
        "MOSAIC"
],
      "ImagedNucleus": "1H",
      "ImagingFrequency": 123.252201,
      "InPlanePhaseEncodingDirection": "COL",
      "MRAcquisitionType": "2D",
      "MagneticFieldStrength": 3.0,
      "Manufacturer": "SIEMENS",
      "ManufacturerModelName": "Prisma",
      "Modality": "MR",
      "NumberOfAverages": 1.0,
      "NumberOfPhaseEncodingSteps": 82,
      "PercentPhaseFieldOfView": 100.0,
      "PercentSampling": 100.0,
      "PerformedProcedureStepStartTime": "142746.291000",
      "PhotometricInterpretation": "MONOCHROME2",
      "PixelBandwidth": 3050.0,
      "PixelRepresentation": 0,
      "PixelSpacing": [2.6829268932343, 2.6829268932343],
      "ProtocolName": "func_run-02_task-social_acq-ap-mb8",
      "RepetitionTime": 460.0,
      "Rows": 656,
      "SAR": 0.09313804791161,
      "SamplesPerPixel": 1,
      "ScanOptions": "FS",
      "ScanningSequence": "EP",
      "SequenceName": "epfid2d1_82",
      "SequenceVariant": [
        "SK",
        "SS"
],
      "SeriesDescription": "func_run-02_task-social_acq-ap-mb8",
      "SeriesNumber": 10,
      "SeriesTime": "150057.946000",
      "SliceLocation": -82.038677519729,
      "SliceThickness": 2.7000000476837,
      "SmallestImagePixelValue": 0,
      "SoftwareVersions": "syngo MR E11",
      "SpacingBetweenSlices": 2.7000001097892,
      "SpecificCharacterSet": "ISO_IR 100",
      "StudyID": "3",
      "StudyTime": "142746.220000",
      "TransmitCoilName": "Body",
      "VariableFlipAngleFlag": "N",
      "WindowCenterWidthExplanation": "Algo1"
    },
    "slices": {}
  },
  "time": {
    "samples": {
      "AcquisitionNumber": [1, 2, 3, 4, 5, 6, 7, 8, 9, 10, 11, 12, 13, 14, 15, 16, 17, 18, 19, 20, 21, 22, 23, 24, 25, 26, 27, 28, 29, 30, 31, 32, 33, 34, 35, 36, 37, 38, 39, 40, 41, 42, 43, 44, 45, 46, 47, 48, 49, 50, 51, 52, 53, 54, 55, 56, 57, 58, 59, 60, 61, 62, 63, 64, 65, 66, 67, 68, 69, 70, 71, 72, 73, 74, 75, 76, 77, 78, 79, 80, 81, 82, 83, 84, 85, 86, 87, 88, 89, 90, 91, 92, 93, 94, 95, 96, 97, 98, 99, 100, 101, 102, 103, 104, 105, 106, 107, 108, 109, 110, 111, 112, 113, 114, 115, 116, 117, 118, 119, 120, 121, 122, 123, 124, 125, 126, 127, 128, 129, 130, 131, 132, 133, 134, 135, 136, 137, 138, 139, 140, 141, 142, 143, 144, 145, 146, 147, 148, 149, 150, 151, 152, 153, 154, 155, 156, 157, 158, 159, 160, 161, 162, 163, 164, 165, 166, 167, 168, 169, 170, 171, 172, 173, 174, 175, 176, 177, 178, 179, 180, 181, 182, 183, 184, 185, 186, 187, 188, 189, 190, 191, 192, 193, 194, 195, 196, 197, 198, 199, 200, 201, 202, 203, 204, 205, 206, 207, 208, 209, 210, 211, 212, 213, 214, 215, 216, 217, 218, 219, 220, 221, 222, 223, 224, 225, 226, 227, 228, 229, 230, 231, 232, 233, 234, 235, 236, 237, 238, 239, 240, 241, 242, 243, 244, 245, 246, 247, 248, 249, 250, 251, 252, 253, 254, 255, 256, 257, 258, 259, 260, 261, 262, 263, 264, 265, 266, 267, 268, 269, 270, 271, 272, 273, 274, 275, 276, 277, 278, 279, 280, 281, 282, 283, 284, 285, 286, 287, 288, 289, 290, 291, 292, 293, 294, 295, 296, 297, 298, 299, 300, 301, 302, 303, 304, 305, 306, 307, 308, 309, 310, 311, 312, 313, 314, 315, 316, 317, 318, 319, 320, 321, 322, 323, 324, 325, 326, 327, 328, 329, 330, 331, 332, 333, 334, 335, 336, 337, 338, 339, 340, 341, 342, 343, 344, 345, 346, 347, 348, 349, 350, 351, 352, 353, 354, 355, 356, 357, 358, 359, 360, 361, 362, 363, 364, 365, 366, 367, 368, 369, 370, 371, 372, 373, 374, 375, 376, 377, 378, 379, 380, 381, 382, 383, 384, 385, 386, 387, 388, 389, 390, 391, 392, 393, 394, 395, 396, 397, 398, 399, 400, 401, 402, 403, 404, 405, 406, 407, 408, 409, 410, 411, 412, 413, 414, 415, 416, 417, 418, 419, 420, 421, 422, 423, 424, 425, 426, 427, 428, 429, 430, 431, 432, 433, 434, 435, 436, 437, 438, 439, 440, 441, 442, 443, 444, 445, 446, 447, 448, 449, 450, 451, 452, 453, 454, 455, 456, 457, 458, 459, 460, 461, 462, 463, 464, 465, 466, 467, 468, 469, 470, 471, 472, 473, 474, 475, 476, 477, 478, 479, 480, 481, 482, 483, 484, 485, 486, 487, 488, 489, 490, 491, 492, 493, 494, 495, 496, 497, 498, 499, 500, 501, 502, 503, 504, 505, 506, 507, 508, 509, 510, 511, 512, 513, 514, 515, 516, 517, 518, 519, 520, 521, 522, 523, 524, 525, 526, 527, 528, 529, 530, 531, 532, 533, 534, 535, 536, 537, 538, 539, 540, 541, 542, 543, 544, 545, 546, 547, 548, 549, 550, 551, 552, 553, 554, 555, 556, 557, 558, 559, 560, 561, 562, 563, 564, 565, 566, 567, 568, 569, 570, 571, 572, 573, 574, 575, 576, 577, 578, 579, 580, 581, 582, 583, 584, 585, 586, 587, 588, 589, 590, 591, 592, 593, 594, 595, 596, 597, 598, 599, 600, 601, 602, 603, 604, 605, 606, 607, 608, 609, 610, 611, 612, 613, 614, 615, 616, 617, 618, 619, 620, 621, 622, 623, 624, 625, 626, 627, 628, 629, 630, 631, 632, 633, 634, 635, 636, 637, 638, 639, 640, 641, 642, 643, 644, 645, 646, 647, 648, 649, 650, 651, 652, 653, 654, 655, 656, 657, 658, 659, 660, 661, 662, 663, 664, 665, 666, 667, 668, 669, 670, 671, 672, 673, 674, 675, 676, 677, 678, 679, 680, 681, 682, 683, 684, 685, 686, 687, 688, 689, 690, 691, 692, 693, 694, 695, 696, 697, 698, 699, 700, 701, 702, 703, 704, 705, 706, 707, 708, 709, 710, 711, 712, 713, 714, 715, 716, 717, 718, 719, 720, 721, 722, 723, 724, 725, 726, 727, 728, 729, 730, 731, 732, 733, 734, 735, 736, 737, 738, 739, 740, 741, 742, 743, 744, 745, 746, 747, 748, 749, 750, 751, 752, 753, 754, 755, 756, 757, 758, 759, 760, 761, 762, 763, 764, 765, 766, 767, 768, 769, 770, 771, 772, 773, 774, 775, 776, 777, 778, 779, 780, 781, 782, 783, 784, 785, 786, 787, 788, 789, 790, 791, 792, 793, 794, 795, 796, 797, 798, 799, 800, 801, 802, 803, 804, 805, 806, 807, 808, 809, 810, 811, 812, 813, 814, 815, 816, 817, 818, 819, 820, 821, 822, 823, 824, 825, 826, 827, 828, 829, 830, 831, 832, 833, 834, 835, 836, 837, 838, 839, 840, 841, 842, 843, 844, 845, 846, 847, 848, 849, 850, 851, 852, 853, 854, 855, 856, 857, 858, 859, 860, 861, 862, 863, 864, 865, 866, 867, 868, 869, 870, 871, 872],
      "AcquisitionTime": ["150029.487500", "150029.947500", "150030.407500", "150030.867500", "150031.327500", "150031.787500", "150032.247500", "150032.707500", "150033.167500", "150033.627500", "150034.087500", "150034.547500", "150035.007500", "150035.467500", "150035.927500", "150036.387500", "150036.847500", "150037.307500", "150037.767500", "150038.227500", "150038.687500", "150039.147500", "150039.607500", "150040.067500", "150040.527500", "150040.987500", "150041.447500", "150041.907500", "150042.367500", "150042.827500", "150043.287500", "150043.747500", "150044.207500", "150044.667500", "150045.127500", "150045.587500", "150046.047500", "150046.507500", "150046.967500", "150047.427500", "150047.887500", "150048.347500", "150048.807500", "150049.267500", "150049.727500", "150050.187500", "150050.647500", "150051.107500", "150051.567500", "150052.027500", "150052.487500", "150052.947500", "150053.407500", "150053.867500", "150054.327500", "150054.787500", "150055.247500", "150055.707500", "150056.167500", "150056.627500", "150057.087500", "150057.547500", "150058.007500", "150058.467500", "150058.927500", "150059.387500", "150059.847500", "150100.307500", "150100.767500", "150101.227500", "150101.687500", "150102.147500", "150102.607500", "150103.067500", "150103.527500", "150103.987500", "150104.447500", "150104.907500", "150105.367500", "150105.827500", "150106.287500", "150106.747500", "150107.207500", "150107.667500", "150108.127500", "150108.587500", "150109.047500", "150109.507500", "150109.967500", "150110.427500", "150110.887500", "150111.347500", "150111.807500", "150112.267500", "150112.727500", "150113.187500", "150113.647500", "150114.107500", "150114.567500", "150115.027500", "150115.487500", "150115.947500", "150116.407500", "150116.867500", "150117.327500", "150117.787500", "150118.247500", "150118.707500", "150119.167500", "150119.627500", "150120.087500", "150120.547500", "150121.007500", "150121.467500", "150121.927500", "150122.387500", "150122.847500", "150123.307500", "150123.767500", "150124.227500", "150124.687500", "150125.147500", "150125.607500", "150126.067500", "150126.527500", "150126.987500", "150127.447500", "150127.907500", "150128.367500", "150128.827500", "150129.287500", "150129.747500", "150130.207500", "150130.667500", "150131.127500", "150131.587500", "150132.047500", "150132.507500", "150132.967500", "150133.427500", "150133.887500", "150134.347500", "150134.807500", "150135.267500", "150135.727500", "150136.187500", "150136.647500", "150137.107500", "150137.567500", "150138.027500", "150138.487500", "150138.947500", "150139.407500", "150139.867500", "150140.327500", "150140.787500", "150141.247500", "150141.707500", "150142.167500", "150142.627500", "150143.087500", "150143.547500", "150144.007500", "150144.467500", "150144.927500", "150145.387500", "150145.847500", "150146.307500", "150146.767500", "150147.227500", "150147.687500", "150148.147500", "150148.607500", "150149.067500", "150149.527500", "150149.987500", "150150.447500", "150150.907500", "150151.367500", "150151.827500", "150152.287500", "150152.747500", "150153.207500", "150153.667500", "150154.127500", "150154.587500", "150155.047500", "150155.507500", "150155.967500", "150156.427500", "150156.887500", "150157.347500", "150157.807500", "150158.267500", "150158.727500", "150159.187500", "150159.647500", "150200.107500", "150200.567500", "150201.027500", "150201.487500", "150201.947500", "150202.407500", "150202.867500", "150203.327500", "150203.787500", "150204.247500", "150204.707500", "150205.167500", "150205.627500", "150206.087500", "150206.547500", "150207.007500", "150207.467500", "150207.927500", "150208.387500", "150208.847500", "150209.307500", "150209.767500", "150210.227500", "150210.687500", "150211.147500", "150211.607500", "150212.067500", "150212.527500", "150212.987500", "150213.447500", "150213.907500", "150214.367500", "150214.827500", "150215.287500", "150215.747500", "150216.207500", "150216.667500", "150217.127500", "150217.587500", "150218.047500", "150218.507500", "150218.967500", "150219.427500", "150219.887500", "150220.347500", "150220.807500", "150221.267500", "150221.727500", "150222.187500", "150222.647500", "150223.107500", "150223.567500", "150224.027500", "150224.487500", "150224.947500", "150225.407500", "150225.867500", "150226.327500", "150226.787500", "150227.247500", "150227.707500", "150228.167500", "150228.627500", "150229.087500", "150229.547500", "150230.007500", "150230.467500", "150230.927500", "150231.387500", "150231.847500", "150232.307500", "150232.767500", "150233.227500", "150233.687500", "150234.147500", "150234.607500", "150235.067500", "150235.527500", "150235.987500", "150236.447500", "150236.907500", "150237.367500", "150237.827500", "150238.287500", "150238.747500", "150239.207500", "150239.667500", "150240.127500", "150240.587500", "150241.047500", "150241.507500", "150241.967500", "150242.427500", "150242.887500", "150243.347500", "150243.807500", "150244.267500", "150244.727500", "150245.187500", "150245.647500", "150246.107500", "150246.567500", "150247.027500", "150247.487500", "150247.947500", "150248.407500", "150248.867500", "150249.327500", "150249.787500", "150250.247500", "150250.707500", "150251.167500", "150251.627500", "150252.087500", "150252.547500", "150253.007500", "150253.467500", "150253.927500", "150254.387500", "150254.847500", "150255.307500", "150255.767500", "150256.227500", "150256.687500", "150257.147500", "150257.607500", "150258.067500", "150258.527500", "150258.987500", "150259.447500", "150259.907500", "150300.367500", "150300.827500", "150301.287500", "150301.747500", "150302.207500", "150302.667500", "150303.127500", "150303.587500", "150304.047500", "150304.507500", "150304.967500", "150305.427500", "150305.887500", "150306.347500", "150306.807500", "150307.267500", "150307.727500", "150308.187500", "150308.647500", "150309.107500", "150309.567500", "150310.027500", "150310.487500", "150310.947500", "150311.407500", "150311.867500", "150312.327500", "150312.787500", "150313.247500", "150313.707500", "150314.167500", "150314.627500", "150315.087500", "150315.547500", "150316.007500", "150316.467500", "150316.927500", "150317.387500", "150317.847500", "150318.307500", "150318.767500", "150319.227500", "150319.687500", "150320.147500", "150320.607500", "150321.067500", "150321.527500", "150321.987500", "150322.447500", "150322.907500", "150323.367500", "150323.827500", "150324.287500", "150324.747500", "150325.207500", "150325.667500", "150326.127500", "150326.587500", "150327.047500", "150327.507500", "150327.967500", "150328.427500", "150328.887500", "150329.347500", "150329.807500", "150330.267500", "150330.727500", "150331.187500", "150331.647500", "150332.107500", "150332.567500", "150333.027500", "150333.487500", "150333.947500", "150334.407500", "150334.867500", "150335.327500", "150335.787500", "150336.247500", "150336.707500", "150337.167500", "150337.627500", "150338.087500", "150338.547500", "150339.007500", "150339.467500", "150339.927500", "150340.387500", "150340.847500", "150341.307500", "150341.767500", "150342.227500", "150342.687500", "150343.147500", "150343.607500", "150344.067500", "150344.527500", "150344.987500", "150345.447500", "150345.907500", "150346.367500", "150346.827500", "150347.287500", "150347.747500", "150348.207500", "150348.667500", "150349.127500", "150349.587500", "150350.047500", "150350.507500", "150350.967500", "150351.427500", "150351.887500", "150352.347500", "150352.807500", "150353.267500", "150353.727500", "150354.187500", "150354.647500", "150355.107500", "150355.567500", "150356.027500", "150356.487500", "150356.947500", "150357.407500", "150357.867500", "150358.327500", "150358.787500", "150359.247500", "150359.707500", "150400.167500", "150400.627500", "150401.087500", "150401.547500", "150402.007500", "150402.467500", "150402.927500", "150403.387500", "150403.847500", "150404.307500", "150404.767500", "150405.227500", "150405.687500", "150406.147500", "150406.607500", "150407.067500", "150407.527500", "150407.987500", "150408.447500", "150408.907500", "150409.367500", "150409.827500", "150410.287500", "150410.747500", "150411.207500", "150411.667500", "150412.127500", "150412.587500", "150413.047500", "150413.507500", "150413.967500", "150414.427500", "150414.887500", "150415.347500", "150415.807500", "150416.267500", "150416.727500", "150417.187500", "150417.647500", "150418.107500", "150418.567500", "150419.027500", "150419.487500", "150419.947500", "150420.407500", "150420.867500", "150421.327500", "150421.787500", "150422.247500", "150422.707500", "150423.167500", "150423.627500", "150424.087500", "150424.547500", "150425.007500", "150425.467500", "150425.927500", "150426.387500", "150426.847500", "150427.307500", "150427.767500", "150428.227500", "150428.687500", "150429.147500", "150429.607500", "150430.067500", "150430.527500", "150430.987500", "150431.447500", "150431.907500", "150432.367500", "150432.827500", "150433.287500", "150433.747500", "150434.207500", "150434.667500", "150435.127500", "150435.587500", "150436.047500", "150436.507500", "150436.967500", "150437.427500", "150437.887500", "150438.347500", "150438.807500", "150439.267500", "150439.727500", "150440.187500", "150440.647500", "150441.107500", "150441.567500", "150442.027500", "150442.487500", "150442.947500", "150443.407500", "150443.867500", "150444.327500", "150444.787500", "150445.247500", "150445.707500", "150446.167500", "150446.627500", "150447.087500", "150447.547500", "150448.007500", "150448.467500", "150448.927500", "150449.387500", "150449.847500", "150450.307500", "150450.767500", "150451.227500", "150451.687500", "150452.147500", "150452.607500", "150453.067500", "150453.527500", "150453.987500", "150454.447500", "150454.907500", "150455.367500", "150455.827500", "150456.287500", "150456.747500", "150457.207500", "150457.667500", "150458.127500", "150458.587500", "150459.047500", "150459.507500", "150459.967500", "150500.427500", "150500.887500", "150501.347500", "150501.807500", "150502.267500", "150502.727500", "150503.187500", "150503.647500", "150504.107500", "150504.567500", "150505.027500", "150505.487500", "150505.947500", "150506.407500", "150506.867500", "150507.327500", "150507.787500", "150508.247500", "150508.707500", "150509.167500", "150509.627500", "150510.087500", "150510.547500", "150511.007500", "150511.467500", "150511.927500", "150512.387500", "150512.847500", "150513.307500", "150513.767500", "150514.227500", "150514.687500", "150515.147500", "150515.607500", "150516.067500", "150516.527500", "150516.987500", "150517.447500", "150517.907500", "150518.367500", "150518.827500", "150519.287500", "150519.747500", "150520.207500", "150520.667500", "150521.127500", "150521.587500", "150522.047500", "150522.507500", "150522.967500", "150523.427500", "150523.887500", "150524.347500", "150524.807500", "150525.267500", "150525.727500", "150526.187500", "150526.647500", "150527.107500", "150527.567500", "150528.027500", "150528.487500", "150528.947500", "150529.407500", "150529.867500", "150530.327500", "150530.787500", "150531.247500", "150531.707500", "150532.167500", "150532.627500", "150533.087500", "150533.547500", "150534.007500", "150534.467500", "150534.927500", "150535.387500", "150535.847500", "150536.307500", "150536.767500", "150537.227500", "150537.687500", "150538.147500", "150538.607500", "150539.067500", "150539.527500", "150539.987500", "150540.447500", "150540.907500", "150541.367500", "150541.827500", "150542.287500", "150542.747500", "150543.207500", "150543.667500", "150544.127500", "150544.587500", "150545.047500", "150545.507500", "150545.967500", "150546.427500", "150546.887500", "150547.347500", "150547.807500", "150548.267500", "150548.727500", "150549.187500", "150549.647500", "150550.107500", "150550.567500", "150551.027500", "150551.487500", "150551.947500", "150552.407500", "150552.867500", "150553.327500", "150553.787500", "150554.247500", "150554.707500", "150555.167500", "150555.627500", "150556.087500", "150556.547500", "150557.007500", "150557.467500", "150557.927500", "150558.387500", "150558.847500", "150559.307500", "150559.767500", "150600.227500", "150600.687500", "150601.147500", "150601.607500", "150602.067500", "150602.527500", "150602.987500", "150603.447500", "150603.907500", "150604.367500", "150604.827500", "150605.287500", "150605.747500", "150606.207500", "150606.667500", "150607.127500", "150607.587500", "150608.047500", "150608.507500", "150608.967500", "150609.427500", "150609.887500", "150610.347500", "150610.807500", "150611.267500", "150611.727500", "150612.187500", "150612.647500", "150613.107500", "150613.567500", "150614.027500", "150614.487500", "150614.947500", "150615.407500", "150615.867500", "150616.327500", "150616.787500", "150617.247500", "150617.707500", "150618.167500", "150618.627500", "150619.087500", "150619.547500", "150620.007500", "150620.467500", "150620.927500", "150621.387500", "150621.847500", "150622.307500", "150622.767500", "150623.227500", "150623.687500", "150624.147500", "150624.607500", "150625.067500", "150625.527500", "150625.987500", "150626.447500", "150626.907500", "150627.367500", "150627.827500", "150628.287500", "150628.747500", "150629.207500", "150629.667500", "150630.127500", "150630.587500", "150631.047500", "150631.507500", "150631.967500", "150632.427500", "150632.887500", "150633.347500", "150633.807500", "150634.267500", "150634.727500", "150635.187500", "150635.647500", "150636.107500", "150636.567500", "150637.027500", "150637.487500", "150637.947500", "150638.407500", "150638.867500", "150639.327500", "150639.787500", "150640.247500", "150640.707500", "150641.167500", "150641.627500", "150642.087500", "150642.547500", "150643.007500", "150643.467500", "150643.927500", "150644.387500", "150644.847500", "150645.307500", "150645.767500", "150646.227500", "150646.687500", "150647.147500", "150647.607500", "150648.067500", "150648.527500", "150648.987500", "150649.447500", "150649.907500", "150650.367500", "150650.827500", "150651.287500", "150651.747500", "150652.207500", "150652.667500", "150653.127500", "150653.587500", "150654.047500", "150654.507500", "150654.967500", "150655.427500", "150655.887500", "150656.347500", "150656.807500", "150657.267500", "150657.727500", "150658.187500", "150658.647500", "150659.107500", "150659.567500", "150700.027500", "150700.487500", "150700.947500", "150701.407500", "150701.867500", "150702.327500", "150702.787500", "150703.247500", "150703.707500", "150704.167500", "150704.627500", "150705.087500", "150705.547500", "150706.007500", "150706.467500", "150706.927500", "150707.387500", "150707.847500", "150708.307500", "150708.767500", "150709.227500", "150709.687500", "150710.147500"],
