{
  "AcquisitionMatrixPE": 82,
  "AcquisitionNumber": 1,
  "AcquisitionTime": "17:58:45.545000",
  "BandwidthPerPixelPhaseEncode": 24.888,
  "BaseResolution": 82,
  "BodyPartExamined": "BRAIN",
  "ConsistencyInfo": "N4_VE11C_LATEST_20160120",
  "ConversionSoftware": "dcm2niix",
  "ConversionSoftwareVersion": "v1.0.20201102",
  "DerivedVendorReportedEchoSpacing": 0.00049,
  "DeviceSerialNumber": "66112",
  "DwellTime": 2e-06,
  "EchoTime": 0.0272,
  "EchoTrainLength": 82,
  "EffectiveEchoSpacing": 0.00049,
  "FlipAngle": 44,
  "ImageComments": "Unaliased MB8/PE3",
  "ImageOrientationPatientDICOM": [0.982073, 0.185851, 0.0314937, -0.1845, 0.981958, -0.0414469],
  "ImageType": [
    "ORIGINAL",
    "PRIMARY",
    "M",
    "MB",
    "ND",
    "NORM",
    "MOSAIC"
],
  "ImagingFrequency": 123.252,
  "InPlanePhaseEncodingDirectionDICOM": "COL",
  "InstitutionAddress": "Maynard 3,Hanover,NH,US,03755",
  "InstitutionName": "Dartmouth College - PBS",
  "InstitutionalDepartmentName": "Department",
  "MRAcquisitionType": "2D",
  "MagneticFieldStrength": 3,
  "Manufacturer": "Siemens",
  "ManufacturersModelName": "Prisma",
  "Modality": "MR",
  "MultibandAccelerationFactor": 8,
  "PartialFourier": 1,
  "PatientPosition": "HFS",
  "PercentPhaseFOV": 100,
  "PercentSampling": 100,
  "PhaseEncodingDirection": "j-",
  "PhaseEncodingSteps": 82,
  "PhaseResolution": 1,
  "PixelBandwidth": 3050,
  "ProcedureStepDescription": "Wager_Wager^1076_spacetop",
  "ProtocolName": "func_run-06_task-social_acq-ap-mb8",
  "PulseSequenceDetails": "%CustomerSeq%\\cmrr_mbep2d_bold",
  "ReceiveCoilActiveElements": "HEA;HEP",
  "ReceiveCoilName": "Head_32",
  "ReconMatrixPE": 82,
  "RepetitionTime": 0.46,
  "SAR": 0.0892725,
  "ScanOptions": "FS",
  "ScanningSequence": "EP",
  "SequenceName": "epfid2d1_82",
  "SequenceVariant": "SK\\SS",
  "SeriesDescription": "func_run-06_task-social_acq-ap-mb8",
  "SeriesNumber": 24,
  "ShimSetting": [4142, -7770, -7282, 609, -143, -326, -32, 99],
  "SliceThickness": 2.7,
  "SliceTiming": [0, 0.2525, 0.0625, 0.315, 0.125, 0.3775, 0.19, 0, 0.2525, 0.0625, 0.315, 0.125, 0.3775, 0.19, 0, 0.2525, 0.0625, 0.315, 0.125, 0.3775, 0.19, 0, 0.2525, 0.0625, 0.315, 0.125, 0.3775, 0.19, 0, 0.2525, 0.0625, 0.315, 0.125, 0.3775, 0.19, 0, 0.2525, 0.0625, 0.315, 0.125, 0.3775, 0.19, 0, 0.2525, 0.0625, 0.315, 0.125, 0.3775, 0.19, 0, 0.2525, 0.0625, 0.315, 0.125, 0.3775, 0.19],
  "SoftwareVersions": "syngo MR E11",
  "SpacingBetweenSlices": 2.7,
  "StationName": "AWP66112",
  "TaskName": "social",
  "TotalReadoutTime": 0.03969,
  "TxRefAmp": 236.381,
  "WipMemBlock": "c35bc025-4199-43ef-8305-6302cb27d2fb||Sequence: R016 ve11c/master r/e634e98; Dec 19 2017 11:00:25 by eja",
  "dcmmeta_affine": [
    [-2.6348304748535156, -0.4949992895126343, 0.10429681837558746, 122.90933990478516],
    [-0.49862363934516907, 2.6345221996307373, -0.09421184659004211, -71.81011199951172],
    [0.08449536561965942, 0.11119892448186874, 2.6963393688201904, -85.39872741699219],
    [0.0, 0.0, 0.0, 1.0]
],
  "dcmmeta_reorient_transform": [
    [0.0, -1.0, 0.0, 81.0],
    [1.0, 0.0, 0.0, 0.0],
    [0.0, 0.0, 1.0, 0.0],
    [0.0, 0.0, 0.0, 1.0]
],
  "dcmmeta_shape": [82, 82, 56, 872],
  "dcmmeta_slice_dim": 2,
  "dcmmeta_version": 0.6,
  "global": {
    "const": {
      "AccessionNumber": "A003811",
      "AcquisitionMatrix": [82, 0, 0, 82],
      "AngioFlag": "N",
      "BitsAllocated": 16,
      "BitsStored": 16,
      "BodyPartExamined": "BRAIN",
      "Columns": 656,
      "EchoNumbers": 1,
      "EchoTime": 27.2,
      "EchoTrainLength": 82,
      "FlipAngle": 44.0,
      "HighBit": 15,
      "ImageOrientationPatient": [0.98207316004239, 0.18585062169845, 0.03149372538551, -0.1844997321501, 0.98195825051505, -0.0414468705933],
      "ImagePositionPatient": [-696.9459497501, -1040.7990407592, -68.727689833059],
      "ImageType": [
        "ORIGINAL",
        "PRIMARY",
        "M",
        "MB",
        "ND",
        "NORM",
        "MOSAIC"
],
      "ImagedNucleus": "1H",
      "ImagingFrequency": 123.252239,
      "InPlanePhaseEncodingDirection": "COL",
      "MRAcquisitionType": "2D",
      "MagneticFieldStrength": 3.0,
      "Manufacturer": "SIEMENS",
      "ManufacturerModelName": "Prisma",
      "Modality": "MR",
      "NumberOfAverages": 1.0,
      "NumberOfPhaseEncodingSteps": 82,
      "PercentPhaseFieldOfView": 100.0,
      "PercentSampling": 100.0,
      "PerformedProcedureStepStartTime": "163646.553000",
      "PhotometricInterpretation": "MONOCHROME2",
      "PixelBandwidth": 3050.0,
      "PixelRepresentation": 0,
      "PixelSpacing": [2.6829268932343, 2.6829268932343],
      "ProtocolName": "func_run-06_task-social_acq-ap-mb8",
      "RepetitionTime": 460.0,
      "Rows": 656,
      "SAR": 0.08927248976883,
      "SamplesPerPixel": 1,
      "ScanOptions": "FS",
      "ScanningSequence": "EP",
      "SequenceName": "epfid2d1_82",
      "SequenceVariant": [
        "SK",
        "SS"
],
      "SeriesDescription": "func_run-06_task-social_acq-ap-mb8",
      "SeriesNumber": 24,
      "SeriesTime": "175900.243000",
      "SliceLocation": -78.02945659622,
      "SliceThickness": 2.7000000476837,
      "SmallestImagePixelValue": 0,
      "SoftwareVersions": "syngo MR E11",
      "SpacingBetweenSlices": 2.6999999901964,
      "SpecificCharacterSet": "ISO_IR 100",
      "StudyID": "1",
      "StudyTime": "163646.512000",
      "TransmitCoilName": "Body",
      "VariableFlipAngleFlag": "N",
      "WindowCenterWidthExplanation": "Algo1",
      "dBdt": 0.0},
    "slices": {}
  },
  "time": {
    "samples": {
      "AcquisitionNumber": [1, 2, 3, 4, 5, 6, 7, 8, 9, 10, 11, 12, 13, 14, 15, 16, 17, 18, 19, 20, 21, 22, 23, 24, 25, 26, 27, 28, 29, 30, 31, 32, 33, 34, 35, 36, 37, 38, 39, 40, 41, 42, 43, 44, 45, 46, 47, 48, 49, 50, 51, 52, 53, 54, 55, 56, 57, 58, 59, 60, 61, 62, 63, 64, 65, 66, 67, 68, 69, 70, 71, 72, 73, 74, 75, 76, 77, 78, 79, 80, 81, 82, 83, 84, 85, 86, 87, 88, 89, 90, 91, 92, 93, 94, 95, 96, 97, 98, 99, 100, 101, 102, 103, 104, 105, 106, 107, 108, 109, 110, 111, 112, 113, 114, 115, 116, 117, 118, 119, 120, 121, 122, 123, 124, 125, 126, 127, 128, 129, 130, 131, 132, 133, 134, 135, 136, 137, 138, 139, 140, 141, 142, 143, 144, 145, 146, 147, 148, 149, 150, 151, 152, 153, 154, 155, 156, 157, 158, 159, 160, 161, 162, 163, 164, 165, 166, 167, 168, 169, 170, 171, 172, 173, 174, 175, 176, 177, 178, 179, 180, 181, 182, 183, 184, 185, 186, 187, 188, 189, 190, 191, 192, 193, 194, 195, 196, 197, 198, 199, 200, 201, 202, 203, 204, 205, 206, 207, 208, 209, 210, 211, 212, 213, 214, 215, 216, 217, 218, 219, 220, 221, 222, 223, 224, 225, 226, 227, 228, 229, 230, 231, 232, 233, 234, 235, 236, 237, 238, 239, 240, 241, 242, 243, 244, 245, 246, 247, 248, 249, 250, 251, 252, 253, 254, 255, 256, 257, 258, 259, 260, 261, 262, 263, 264, 265, 266, 267, 268, 269, 270, 271, 272, 273, 274, 275, 276, 277, 278, 279, 280, 281, 282, 283, 284, 285, 286, 287, 288, 289, 290, 291, 292, 293, 294, 295, 296, 297, 298, 299, 300, 301, 302, 303, 304, 305, 306, 307, 308, 309, 310, 311, 312, 313, 314, 315, 316, 317, 318, 319, 320, 321, 322, 323, 324, 325, 326, 327, 328, 329, 330, 331, 332, 333, 334, 335, 336, 337, 338, 339, 340, 341, 342, 343, 344, 345, 346, 347, 348, 349, 350, 351, 352, 353, 354, 355, 356, 357, 358, 359, 360, 361, 362, 363, 364, 365, 366, 367, 368, 369, 370, 371, 372, 373, 374, 375, 376, 377, 378, 379, 380, 381, 382, 383, 384, 385, 386, 387, 388, 389, 390, 391, 392, 393, 394, 395, 396, 397, 398, 399, 400, 401, 402, 403, 404, 405, 406, 407, 408, 409, 410, 411, 412, 413, 414, 415, 416, 417, 418, 419, 420, 421, 422, 423, 424, 425, 426, 427, 428, 429, 430, 431, 432, 433, 434, 435, 436, 437, 438, 439, 440, 441, 442, 443, 444, 445, 446, 447, 448, 449, 450, 451, 452, 453, 454, 455, 456, 457, 458, 459, 460, 461, 462, 463, 464, 465, 466, 467, 468, 469, 470, 471, 472, 473, 474, 475, 476, 477, 478, 479, 480, 481, 482, 483, 484, 485, 486, 487, 488, 489, 490, 491, 492, 493, 494, 495, 496, 497, 498, 499, 500, 501, 502, 503, 504, 505, 506, 507, 508, 509, 510, 511, 512, 513, 514, 515, 516, 517, 518, 519, 520, 521, 522, 523, 524, 525, 526, 527, 528, 529, 530, 531, 532, 533, 534, 535, 536, 537, 538, 539, 540, 541, 542, 543, 544, 545, 546, 547, 548, 549, 550, 551, 552, 553, 554, 555, 556, 557, 558, 559, 560, 561, 562, 563, 564, 565, 566, 567, 568, 569, 570, 571, 572, 573, 574, 575, 576, 577, 578, 579, 580, 581, 582, 583, 584, 585, 586, 587, 588, 589, 590, 591, 592, 593, 594, 595, 596, 597, 598, 599, 600, 601, 602, 603, 604, 605, 606, 607, 608, 609, 610, 611, 612, 613, 614, 615, 616, 617, 618, 619, 620, 621, 622, 623, 624, 625, 626, 627, 628, 629, 630, 631, 632, 633, 634, 635, 636, 637, 638, 639, 640, 641, 642, 643, 644, 645, 646, 647, 648, 649, 650, 651, 652, 653, 654, 655, 656, 657, 658, 659, 660, 661, 662, 663, 664, 665, 666, 667, 668, 669, 670, 671, 672, 673, 674, 675, 676, 677, 678, 679, 680, 681, 682, 683, 684, 685, 686, 687, 688, 689, 690, 691, 692, 693, 694, 695, 696, 697, 698, 699, 700, 701, 702, 703, 704, 705, 706, 707, 708, 709, 710, 711, 712, 713, 714, 715, 716, 717, 718, 719, 720, 721, 722, 723, 724, 725, 726, 727, 728, 729, 730, 731, 732, 733, 734, 735, 736, 737, 738, 739, 740, 741, 742, 743, 744, 745, 746, 747, 748, 749, 750, 751, 752, 753, 754, 755, 756, 757, 758, 759, 760, 761, 762, 763, 764, 765, 766, 767, 768, 769, 770, 771, 772, 773, 774, 775, 776, 777, 778, 779, 780, 781, 782, 783, 784, 785, 786, 787, 788, 789, 790, 791, 792, 793, 794, 795, 796, 797, 798, 799, 800, 801, 802, 803, 804, 805, 806, 807, 808, 809, 810, 811, 812, 813, 814, 815, 816, 817, 818, 819, 820, 821, 822, 823, 824, 825, 826, 827, 828, 829, 830, 831, 832, 833, 834, 835, 836, 837, 838, 839, 840, 841, 842, 843, 844, 845, 846, 847, 848, 849, 850, 851, 852, 853, 854, 855, 856, 857, 858, 859, 860, 861, 862, 863, 864, 865, 866, 867, 868, 869, 870, 871, 872],
      "AcquisitionTime": ["175845.545000", "175846.005000", "175846.465000", "175846.925000", "175847.385000", "175847.845000", "175848.305000", "175848.765000", "175849.225000", "175849.685000", "175850.145000", "175850.605000", "175851.065000", "175851.525000", "175851.985000", "175852.445000", "175852.905000", "175853.365000", "175853.825000", "175854.285000", "175854.745000", "175855.205000", "175855.665000", "175856.125000", "175856.585000", "175857.045000", "175857.505000", "175857.965000", "175858.425000", "175858.885000", "175859.345000", "175859.805000", "175900.265000", "175900.725000", "175901.185000", "175901.645000", "175902.105000", "175902.565000", "175903.025000", "175903.485000", "175903.945000", "175904.405000", "175904.865000", "175905.325000", "175905.785000", "175906.245000", "175906.705000", "175907.165000", "175907.625000", "175908.085000", "175908.545000", "175909.005000", "175909.465000", "175909.925000", "175910.385000", "175910.845000", "175911.305000", "175911.765000", "175912.225000", "175912.685000", "175913.145000", "175913.605000", "175914.065000", "175914.525000", "175914.985000", "175915.445000", "175915.905000", "175916.365000", "175916.825000", "175917.285000", "175917.745000", "175918.205000", "175918.665000", "175919.125000", "175919.585000", "175920.045000", "175920.505000", "175920.965000", "175921.425000", "175921.885000", "175922.345000", "175922.805000", "175923.265000", "175923.725000", "175924.185000", "175924.645000", "175925.105000", "175925.565000", "175926.025000", "175926.485000", "175926.945000", "175927.405000", "175927.865000", "175928.325000", "175928.785000", "175929.245000", "175929.705000", "175930.165000", "175930.625000", "175931.085000", "175931.545000", "175932.005000", "175932.465000", "175932.925000", "175933.385000", "175933.845000", "175934.305000", "175934.765000", "175935.225000", "175935.685000", "175936.145000", "175936.605000", "175937.065000", "175937.525000", "175937.985000", "175938.445000", "175938.905000", "175939.365000", "175939.825000", "175940.285000", "175940.745000", "175941.205000", "175941.665000", "175942.125000", "175942.585000", "175943.045000", "175943.505000", "175943.965000", "175944.425000", "175944.885000", "175945.345000", "175945.805000", "175946.265000", "175946.725000", "175947.185000", "175947.645000", "175948.105000", "175948.565000", "175949.025000", "175949.485000", "175949.945000", "175950.405000", "175950.865000", "175951.325000", "175951.785000", "175952.245000", "175952.705000", "175953.165000", "175953.625000", "175954.085000", "175954.545000", "175955.005000", "175955.465000", "175955.925000", "175956.385000", "175956.845000", "175957.305000", "175957.765000", "175958.225000", "175958.685000", "175959.145000", "175959.605000", "180000.065000", "180000.525000", "180000.985000", "180001.445000", "180001.905000", "180002.365000", "180002.825000", "180003.285000", "180003.745000", "180004.205000", "180004.665000", "180005.125000", "180005.585000", "180006.045000", "180006.505000", "180006.965000", "180007.425000", "180007.885000", "180008.345000", "180008.805000", "180009.265000", "180009.725000", "180010.185000", "180010.645000", "180011.105000", "180011.565000", "180012.025000", "180012.485000", "180012.945000", "180013.405000", "180013.865000", "180014.325000", "180014.785000", "180015.245000", "180015.705000", "180016.165000", "180016.625000", "180017.085000", "180017.545000", "180018.005000", "180018.465000", "180018.925000", "180019.385000", "180019.845000", "180020.305000", "180020.765000", "180021.225000", "180021.685000", "180022.145000", "180022.605000", "180023.065000", "180023.525000", "180023.985000", "180024.445000", "180024.905000", "180025.365000", "180025.825000", "180026.285000", "180026.745000", "180027.205000", "180027.665000", "180028.125000", "180028.585000", "180029.045000", "180029.505000", "180029.965000", "180030.425000", "180030.885000", "180031.345000", "180031.805000", "180032.265000", "180032.725000", "180033.185000", "180033.645000", "180034.105000", "180034.565000", "180035.025000", "180035.485000", "180035.945000", "180036.405000", "180036.865000", "180037.325000", "180037.785000", "180038.245000", "180038.705000", "180039.165000", "180039.625000", "180040.085000", "180040.545000", "180041.005000", "180041.465000", "180041.925000", "180042.385000", "180042.845000", "180043.305000", "180043.765000", "180044.225000", "180044.685000", "180045.145000", "180045.605000", "180046.065000", "180046.525000", "180046.985000", "180047.445000", "180047.905000", "180048.365000", "180048.825000", "180049.285000", "180049.745000", "180050.205000", "180050.665000", "180051.125000", "180051.585000", "180052.045000", "180052.505000", "180052.965000", "180053.425000", "180053.885000", "180054.345000", "180054.805000", "180055.265000", "180055.725000", "180056.185000", "180056.645000", "180057.105000", "180057.565000", "180058.025000", "180058.485000", "180058.945000", "180059.405000", "180059.865000", "180100.325000", "180100.785000", "180101.245000", "180101.705000", "180102.165000", "180102.625000", "180103.085000", "180103.545000", "180104.005000", "180104.465000", "180104.925000", "180105.385000", "180105.845000", "180106.305000", "180106.765000", "180107.225000", "180107.685000", "180108.145000", "180108.605000", "180109.065000", "180109.525000", "180109.985000", "180110.445000", "180110.905000", "180111.365000", "180111.825000", "180112.285000", "180112.745000", "180113.205000", "180113.665000", "180114.125000", "180114.585000", "180115.045000", "180115.505000", "180115.965000", "180116.425000", "180116.885000", "180117.345000", "180117.805000", "180118.265000", "180118.725000", "180119.185000", "180119.645000", "180120.105000", "180120.565000", "180121.025000", "180121.485000", "180121.945000", "180122.405000", "180122.865000", "180123.325000", "180123.785000", "180124.245000", "180124.705000", "180125.165000", "180125.625000", "180126.085000", "180126.545000", "180127.005000", "180127.465000", "180127.925000", "180128.385000", "180128.845000", "180129.305000", "180129.765000", "180130.225000", "180130.685000", "180131.145000", "180131.605000", "180132.065000", "180132.525000", "180132.985000", "180133.445000", "180133.905000", "180134.365000", "180134.825000", "180135.285000", "180135.745000", "180136.205000", "180136.665000", "180137.125000", "180137.585000", "180138.045000", "180138.505000", "180138.965000", "180139.425000", "180139.885000", "180140.345000", "180140.805000", "180141.265000", "180141.725000", "180142.185000", "180142.645000", "180143.105000", "180143.565000", "180144.025000", "180144.485000", "180144.945000", "180145.405000", "180145.865000", "180146.325000", "180146.785000", "180147.245000", "180147.705000", "180148.165000", "180148.625000", "180149.085000", "180149.545000", "180150.005000", "180150.465000", "180150.925000", "180151.385000", "180151.845000", "180152.305000", "180152.765000", "180153.225000", "180153.685000", "180154.145000", "180154.605000", "180155.065000", "180155.525000", "180155.985000", "180156.445000", "180156.905000", "180157.365000", "180157.825000", "180158.285000", "180158.745000", "180159.205000", "180159.665000", "180200.125000", "180200.585000", "180201.045000", "180201.505000", "180201.965000", "180202.425000", "180202.885000", "180203.345000", "180203.805000", "180204.265000", "180204.725000", "180205.185000", "180205.645000", "180206.105000", "180206.565000", "180207.025000", "180207.485000", "180207.945000", "180208.405000", "180208.865000", "180209.325000", "180209.785000", "180210.245000", "180210.705000", "180211.165000", "180211.625000", "180212.085000", "180212.545000", "180213.005000", "180213.465000", "180213.925000", "180214.385000", "180214.845000", "180215.305000", "180215.765000", "180216.225000", "180216.685000", "180217.145000", "180217.605000", "180218.065000", "180218.525000", "180218.985000", "180219.445000", "180219.905000", "180220.365000", "180220.825000", "180221.285000", "180221.745000", "180222.205000", "180222.665000", "180223.125000", "180223.585000", "180224.045000", "180224.505000", "180224.965000", "180225.425000", "180225.885000", "180226.345000", "180226.805000", "180227.265000", "180227.725000", "180228.185000", "180228.645000", "180229.105000", "180229.565000", "180230.025000", "180230.485000", "180230.945000", "180231.405000", "180231.865000", "180232.325000", "180232.785000", "180233.245000", "180233.705000", "180234.165000", "180234.625000", "180235.085000", "180235.545000", "180236.005000", "180236.465000", "180236.925000", "180237.385000", "180237.845000", "180238.305000", "180238.765000", "180239.225000", "180239.685000", "180240.145000", "180240.605000", "180241.065000", "180241.525000", "180241.985000", "180242.445000", "180242.905000", "180243.365000", "180243.825000", "180244.285000", "180244.745000", "180245.205000", "180245.665000", "180246.125000", "180246.585000", "180247.045000", "180247.505000", "180247.965000", "180248.425000", "180248.885000", "180249.345000", "180249.805000", "180250.265000", "180250.725000", "180251.185000", "180251.645000", "180252.105000", "180252.565000", "180253.025000", "180253.485000", "180253.945000", "180254.405000", "180254.865000", "180255.325000", "180255.785000", "180256.245000", "180256.705000", "180257.165000", "180257.625000", "180258.085000", "180258.545000", "180259.005000", "180259.465000", "180259.925000", "180300.385000", "180300.845000", "180301.305000", "180301.765000", "180302.225000", "180302.685000", "180303.145000", "180303.605000", "180304.065000", "180304.525000", "180304.985000", "180305.445000", "180305.905000", "180306.365000", "180306.825000", "180307.285000", "180307.745000", "180308.205000", "180308.665000", "180309.125000", "180309.585000", "180310.045000", "180310.505000", "180310.965000", "180311.425000", "180311.885000", "180312.345000", "180312.805000", "180313.265000", "180313.725000", "180314.185000", "180314.645000", "180315.105000", "180315.565000", "180316.025000", "180316.485000", "180316.945000", "180317.405000", "180317.865000", "180318.325000", "180318.785000", "180319.245000", "180319.705000", "180320.165000", "180320.625000", "180321.085000", "180321.545000", "180322.005000", "180322.465000", "180322.925000", "180323.385000", "180323.845000", "180324.305000", "180324.765000", "180325.225000", "180325.685000", "180326.145000", "180326.605000", "180327.065000", "180327.525000", "180327.985000", "180328.445000", "180328.905000", "180329.365000", "180329.825000", "180330.285000", "180330.745000", "180331.205000", "180331.665000", "180332.125000", "180332.585000", "180333.045000", "180333.505000", "180333.965000", "180334.425000", "180334.885000", "180335.345000", "180335.805000", "180336.265000", "180336.725000", "180337.185000", "180337.645000", "180338.105000", "180338.565000", "180339.025000", "180339.485000", "180339.945000", "180340.405000", "180340.865000", "180341.325000", "180341.785000", "180342.245000", "180342.705000", "180343.165000", "180343.625000", "180344.085000", "180344.545000", "180345.005000", "180345.465000", "180345.925000", "180346.385000", "180346.845000", "180347.305000", "180347.765000", "180348.225000", "180348.685000", "180349.145000", "180349.605000", "180350.065000", "180350.525000", "180350.985000", "180351.445000", "180351.905000", "180352.365000", "180352.825000", "180353.285000", "180353.745000", "180354.205000", "180354.665000", "180355.125000", "180355.585000", "180356.045000", "180356.505000", "180356.965000", "180357.425000", "180357.885000", "180358.345000", "180358.805000", "180359.265000", "180359.725000", "180400.185000", "180400.645000", "180401.105000", "180401.565000", "180402.025000", "180402.485000", "180402.945000", "180403.405000", "180403.865000", "180404.325000", "180404.785000", "180405.245000", "180405.705000", "180406.165000", "180406.625000", "180407.085000", "180407.545000", "180408.005000", "180408.465000", "180408.925000", "180409.385000", "180409.845000", "180410.305000", "180410.765000", "180411.225000", "180411.685000", "180412.145000", "180412.605000", "180413.065000", "180413.525000", "180413.985000", "180414.445000", "180414.905000", "180415.365000", "180415.825000", "180416.285000", "180416.745000", "180417.205000", "180417.665000", "180418.125000", "180418.585000", "180419.045000", "180419.505000", "180419.965000", "180420.425000", "180420.885000", "180421.345000", "180421.805000", "180422.265000", "180422.725000", "180423.185000", "180423.645000", "180424.105000", "180424.565000", "180425.025000", "180425.485000", "180425.945000", "180426.405000", "180426.865000", "180427.325000", "180427.785000", "180428.245000", "180428.705000", "180429.165000", "180429.625000", "180430.085000", "180430.545000", "180431.005000", "180431.465000", "180431.925000", "180432.385000", "180432.845000", "180433.305000", "180433.765000", "180434.225000", "180434.685000", "180435.145000", "180435.605000", "180436.065000", "180436.525000", "180436.985000", "180437.445000", "180437.905000", "180438.365000", "180438.825000", "180439.285000", "180439.745000", "180440.205000", "180440.665000", "180441.125000", "180441.585000", "180442.045000", "180442.505000", "180442.965000", "180443.425000", "180443.885000", "180444.345000", "180444.805000", "180445.265000", "180445.725000", "180446.185000", "180446.645000", "180447.105000", "180447.565000", "180448.025000", "180448.485000", "180448.945000", "180449.405000", "180449.865000", "180450.325000", "180450.785000", "180451.245000", "180451.705000", "180452.165000", "180452.625000", "180453.085000", "180453.545000", "180454.005000", "180454.465000", "180454.925000", "180455.385000", "180455.845000", "180456.305000", "180456.765000", "180457.225000", "180457.685000", "180458.145000", "180458.605000", "180459.065000", "180459.525000", "180459.985000", "180500.445000", "180500.905000", "180501.365000", "180501.825000", "180502.285000", "180502.745000", "180503.205000", "180503.665000", "180504.125000", "180504.585000", "180505.045000", "180505.505000", "180505.965000", "180506.425000", "180506.885000", "180507.345000", "180507.805000", "180508.265000", "180508.725000", "180509.185000", "180509.645000", "180510.105000", "180510.565000", "180511.025000", "180511.485000", "180511.945000", "180512.405000", "180512.865000", "180513.325000", "180513.785000", "180514.245000", "180514.705000", "180515.165000", "180515.625000", "180516.085000", "180516.545000", "180517.005000", "180517.465000", "180517.925000", "180518.385000", "180518.845000", "180519.305000", "180519.765000", "180520.225000", "180520.685000", "180521.145000", "180521.605000", "180522.065000", "180522.525000", "180522.985000", "180523.445000", "180523.905000", "180524.365000", "180524.825000", "180525.285000", "180525.745000", "180526.205000"],
