{
  "AcquisitionMatrixPE": 82,
  "AcquisitionNumber": 1,
  "AcquisitionTime": "17:23:31.112500",
  "BandwidthPerPixelPhaseEncode": 24.888,
  "BaseResolution": 82,
  "BodyPartExamined": "BRAIN",
  "ConsistencyInfo": "N4_VE11C_LATEST_20160120",
  "ConversionSoftware": "dcm2niix",
  "ConversionSoftwareVersion": "v1.0.20201102",
  "DerivedVendorReportedEchoSpacing": 0.00049,
  "DeviceSerialNumber": "66112",
  "DwellTime": 2e-06,
  "EchoTime": 0.0272,
  "EchoTrainLength": 82,
  "EffectiveEchoSpacing": 0.00049,
  "FlipAngle": 44,
  "ImageComments": "Unaliased MB8/PE3",
  "ImageOrientationPatientDICOM": [0.982073, 0.185851, 0.0314937, -0.1845, 0.981958, -0.0414469],
  "ImageType": [
    "ORIGINAL",
    "PRIMARY",
    "M",
    "MB",
    "ND",
    "NORM",
    "MOSAIC"
],
  "ImagingFrequency": 123.252,
  "InPlanePhaseEncodingDirectionDICOM": "COL",
  "InstitutionAddress": "Maynard 3,Hanover,NH,US,03755",
  "InstitutionName": "Dartmouth College - PBS",
  "InstitutionalDepartmentName": "Department",
  "MRAcquisitionType": "2D",
  "MagneticFieldStrength": 3,
  "Manufacturer": "Siemens",
  "ManufacturersModelName": "Prisma",
  "Modality": "MR",
  "MultibandAccelerationFactor": 8,
  "PartialFourier": 1,
  "PatientPosition": "HFS",
  "PercentPhaseFOV": 100,
  "PercentSampling": 100,
  "PhaseEncodingDirection": "j-",
  "PhaseEncodingSteps": 82,
  "PhaseResolution": 1,
  "PixelBandwidth": 3050,
  "ProcedureStepDescription": "Wager_Wager^1076_spacetop",
  "ProtocolName": "func_run-02_task-social_acq-ap-mb8",
  "PulseSequenceDetails": "%CustomerSeq%\\cmrr_mbep2d_bold",
  "ReceiveCoilActiveElements": "HEA;HEP",
  "ReceiveCoilName": "Head_32",
  "ReconMatrixPE": 82,
  "RepetitionTime": 0.46,
  "SAR": 0.0892725,
  "ScanOptions": "FS",
  "ScanningSequence": "EP",
  "SequenceName": "epfid2d1_82",
  "SequenceVariant": "SK\\SS",
  "SeriesDescription": "func_run-02_task-social_acq-ap-mb8",
  "SeriesNumber": 14,
  "ShimSetting": [4142, -7770, -7282, 609, -143, -326, -32, 99],
  "SliceThickness": 2.7,
  "SliceTiming": [0, 0.2525, 0.0625, 0.315, 0.125, 0.3775, 0.1875, 0, 0.2525, 0.0625, 0.315, 0.125, 0.3775, 0.1875, 0, 0.2525, 0.0625, 0.315, 0.125, 0.3775, 0.1875, 0, 0.2525, 0.0625, 0.315, 0.125, 0.3775, 0.1875, 0, 0.2525, 0.0625, 0.315, 0.125, 0.3775, 0.1875, 0, 0.2525, 0.0625, 0.315, 0.125, 0.3775, 0.1875, 0, 0.2525, 0.0625, 0.315, 0.125, 0.3775, 0.1875, 0, 0.2525, 0.0625, 0.315, 0.125, 0.3775, 0.1875],
  "SoftwareVersions": "syngo MR E11",
  "SpacingBetweenSlices": 2.7,
  "StationName": "AWP66112",
  "TaskName": "social",
  "TotalReadoutTime": 0.03969,
  "TxRefAmp": 236.381,
  "WipMemBlock": "4cf73817-cd07-42e6-a0a5-c6fdd05f8432||Sequence: R016 ve11c/master r/e634e98; Dec 19 2017 11:00:25 by eja",
  "dcmmeta_affine": [
    [-2.6348304748535156, -0.4949992895126343, 0.10429681837558746, 122.90933990478516],
    [-0.49862363934516907, 2.6345221996307373, -0.09421184659004211, -71.81011199951172],
    [0.08449536561965942, 0.11119892448186874, 2.6963393688201904, -85.39872741699219],
    [0.0, 0.0, 0.0, 1.0]
],
  "dcmmeta_reorient_transform": [
    [0.0, -1.0, 0.0, 81.0],
    [1.0, 0.0, 0.0, 0.0],
    [0.0, 0.0, 1.0, 0.0],
    [0.0, 0.0, 0.0, 1.0]
],
  "dcmmeta_shape": [82, 82, 56, 872],
  "dcmmeta_slice_dim": 2,
  "dcmmeta_version": 0.6,
  "global": {
    "const": {
      "AccessionNumber": "A003811",
      "AcquisitionMatrix": [82, 0, 0, 82],
      "AngioFlag": "N",
      "BitsAllocated": 16,
      "BitsStored": 16,
      "BodyPartExamined": "BRAIN",
      "Columns": 656,
      "EchoNumbers": 1,
      "EchoTime": 27.2,
      "EchoTrainLength": 82,
      "FlipAngle": 44.0,
      "HighBit": 15,
      "ImageOrientationPatient": [0.98207316004239, 0.18585062169845, 0.03149372538551, -0.1844997321501, 0.98195825051505, -0.0414468705933],
      "ImagePositionPatient": [-696.9459497501, -1040.7990407592, -68.727689833059],
      "ImageType": [
        "ORIGINAL",
        "PRIMARY",
        "M",
        "MB",
        "ND",
        "NORM",
        "MOSAIC"
],
      "ImagedNucleus": "1H",
      "ImagingFrequency": 123.252236,
      "InPlanePhaseEncodingDirection": "COL",
      "MRAcquisitionType": "2D",
      "MagneticFieldStrength": 3.0,
      "Manufacturer": "SIEMENS",
      "ManufacturerModelName": "Prisma",
      "Modality": "MR",
      "NumberOfAverages": 1.0,
      "NumberOfPhaseEncodingSteps": 82,
      "PercentPhaseFieldOfView": 100.0,
      "PercentSampling": 100.0,
      "PerformedProcedureStepStartTime": "163646.553000",
      "PhotometricInterpretation": "MONOCHROME2",
      "PixelBandwidth": 3050.0,
      "PixelRepresentation": 0,
      "PixelSpacing": [2.6829268932343, 2.6829268932343],
      "ProtocolName": "func_run-02_task-social_acq-ap-mb8",
      "RepetitionTime": 460.0,
      "Rows": 656,
      "SAR": 0.08927248976883,
      "SamplesPerPixel": 1,
      "ScanOptions": "FS",
      "ScanningSequence": "EP",
      "SequenceName": "epfid2d1_82",
      "SequenceVariant": [
        "SK",
        "SS"
],
      "SeriesDescription": "func_run-02_task-social_acq-ap-mb8",
      "SeriesNumber": 14,
      "SeriesTime": "172400.235000",
      "SliceLocation": -78.02945659622,
      "SliceThickness": 2.7000000476837,
      "SmallestImagePixelValue": 0,
      "SoftwareVersions": "syngo MR E11",
      "SpacingBetweenSlices": 2.6999999901964,
      "SpecificCharacterSet": "ISO_IR 100",
      "StudyID": "1",
      "StudyTime": "163646.512000",
      "TransmitCoilName": "Body",
      "VariableFlipAngleFlag": "N",
      "WindowCenterWidthExplanation": "Algo1",
      "dBdt": 0.0},
    "slices": {}
  },
  "time": {
    "samples": {
      "AcquisitionNumber": [1, 2, 3, 4, 5, 6, 7, 8, 9, 10, 11, 12, 13, 14, 15, 16, 17, 18, 19, 20, 21, 22, 23, 24, 25, 26, 27, 28, 29, 30, 31, 32, 33, 34, 35, 36, 37, 38, 39, 40, 41, 42, 43, 44, 45, 46, 47, 48, 49, 50, 51, 52, 53, 54, 55, 56, 57, 58, 59, 60, 61, 62, 63, 64, 65, 66, 67, 68, 69, 70, 71, 72, 73, 74, 75, 76, 77, 78, 79, 80, 81, 82, 83, 84, 85, 86, 87, 88, 89, 90, 91, 92, 93, 94, 95, 96, 97, 98, 99, 100, 101, 102, 103, 104, 105, 106, 107, 108, 109, 110, 111, 112, 113, 114, 115, 116, 117, 118, 119, 120, 121, 122, 123, 124, 125, 126, 127, 128, 129, 130, 131, 132, 133, 134, 135, 136, 137, 138, 139, 140, 141, 142, 143, 144, 145, 146, 147, 148, 149, 150, 151, 152, 153, 154, 155, 156, 157, 158, 159, 160, 161, 162, 163, 164, 165, 166, 167, 168, 169, 170, 171, 172, 173, 174, 175, 176, 177, 178, 179, 180, 181, 182, 183, 184, 185, 186, 187, 188, 189, 190, 191, 192, 193, 194, 195, 196, 197, 198, 199, 200, 201, 202, 203, 204, 205, 206, 207, 208, 209, 210, 211, 212, 213, 214, 215, 216, 217, 218, 219, 220, 221, 222, 223, 224, 225, 226, 227, 228, 229, 230, 231, 232, 233, 234, 235, 236, 237, 238, 239, 240, 241, 242, 243, 244, 245, 246, 247, 248, 249, 250, 251, 252, 253, 254, 255, 256, 257, 258, 259, 260, 261, 262, 263, 264, 265, 266, 267, 268, 269, 270, 271, 272, 273, 274, 275, 276, 277, 278, 279, 280, 281, 282, 283, 284, 285, 286, 287, 288, 289, 290, 291, 292, 293, 294, 295, 296, 297, 298, 299, 300, 301, 302, 303, 304, 305, 306, 307, 308, 309, 310, 311, 312, 313, 314, 315, 316, 317, 318, 319, 320, 321, 322, 323, 324, 325, 326, 327, 328, 329, 330, 331, 332, 333, 334, 335, 336, 337, 338, 339, 340, 341, 342, 343, 344, 345, 346, 347, 348, 349, 350, 351, 352, 353, 354, 355, 356, 357, 358, 359, 360, 361, 362, 363, 364, 365, 366, 367, 368, 369, 370, 371, 372, 373, 374, 375, 376, 377, 378, 379, 380, 381, 382, 383, 384, 385, 386, 387, 388, 389, 390, 391, 392, 393, 394, 395, 396, 397, 398, 399, 400, 401, 402, 403, 404, 405, 406, 407, 408, 409, 410, 411, 412, 413, 414, 415, 416, 417, 418, 419, 420, 421, 422, 423, 424, 425, 426, 427, 428, 429, 430, 431, 432, 433, 434, 435, 436, 437, 438, 439, 440, 441, 442, 443, 444, 445, 446, 447, 448, 449, 450, 451, 452, 453, 454, 455, 456, 457, 458, 459, 460, 461, 462, 463, 464, 465, 466, 467, 468, 469, 470, 471, 472, 473, 474, 475, 476, 477, 478, 479, 480, 481, 482, 483, 484, 485, 486, 487, 488, 489, 490, 491, 492, 493, 494, 495, 496, 497, 498, 499, 500, 501, 502, 503, 504, 505, 506, 507, 508, 509, 510, 511, 512, 513, 514, 515, 516, 517, 518, 519, 520, 521, 522, 523, 524, 525, 526, 527, 528, 529, 530, 531, 532, 533, 534, 535, 536, 537, 538, 539, 540, 541, 542, 543, 544, 545, 546, 547, 548, 549, 550, 551, 552, 553, 554, 555, 556, 557, 558, 559, 560, 561, 562, 563, 564, 565, 566, 567, 568, 569, 570, 571, 572, 573, 574, 575, 576, 577, 578, 579, 580, 581, 582, 583, 584, 585, 586, 587, 588, 589, 590, 591, 592, 593, 594, 595, 596, 597, 598, 599, 600, 601, 602, 603, 604, 605, 606, 607, 608, 609, 610, 611, 612, 613, 614, 615, 616, 617, 618, 619, 620, 621, 622, 623, 624, 625, 626, 627, 628, 629, 630, 631, 632, 633, 634, 635, 636, 637, 638, 639, 640, 641, 642, 643, 644, 645, 646, 647, 648, 649, 650, 651, 652, 653, 654, 655, 656, 657, 658, 659, 660, 661, 662, 663, 664, 665, 666, 667, 668, 669, 670, 671, 672, 673, 674, 675, 676, 677, 678, 679, 680, 681, 682, 683, 684, 685, 686, 687, 688, 689, 690, 691, 692, 693, 694, 695, 696, 697, 698, 699, 700, 701, 702, 703, 704, 705, 706, 707, 708, 709, 710, 711, 712, 713, 714, 715, 716, 717, 718, 719, 720, 721, 722, 723, 724, 725, 726, 727, 728, 729, 730, 731, 732, 733, 734, 735, 736, 737, 738, 739, 740, 741, 742, 743, 744, 745, 746, 747, 748, 749, 750, 751, 752, 753, 754, 755, 756, 757, 758, 759, 760, 761, 762, 763, 764, 765, 766, 767, 768, 769, 770, 771, 772, 773, 774, 775, 776, 777, 778, 779, 780, 781, 782, 783, 784, 785, 786, 787, 788, 789, 790, 791, 792, 793, 794, 795, 796, 797, 798, 799, 800, 801, 802, 803, 804, 805, 806, 807, 808, 809, 810, 811, 812, 813, 814, 815, 816, 817, 818, 819, 820, 821, 822, 823, 824, 825, 826, 827, 828, 829, 830, 831, 832, 833, 834, 835, 836, 837, 838, 839, 840, 841, 842, 843, 844, 845, 846, 847, 848, 849, 850, 851, 852, 853, 854, 855, 856, 857, 858, 859, 860, 861, 862, 863, 864, 865, 866, 867, 868, 869, 870, 871, 872],
      "AcquisitionTime": ["172331.112500", "172331.572500", "172332.032500", "172332.492500", "172332.952500", "172333.412500", "172333.872500", "172334.332500", "172334.792500", "172335.252500", "172335.712500", "172336.172500", "172336.632500", "172337.092500", "172337.552500", "172338.012500", "172338.472500", "172338.932500", "172339.392500", "172339.852500", "172340.312500", "172340.772500", "172341.232500", "172341.692500", "172342.152500", "172342.612500", "172343.072500", "172343.532500", "172343.992500", "172344.452500", "172344.912500", "172345.372500", "172345.832500", "172346.292500", "172346.752500", "172347.212500", "172347.672500", "172348.132500", "172348.592500", "172349.052500", "172349.512500", "172349.972500", "172350.432500", "172350.892500", "172351.352500", "172351.812500", "172352.272500", "172352.732500", "172353.192500", "172353.652500", "172354.112500", "172354.572500", "172355.032500", "172355.492500", "172355.952500", "172356.412500", "172356.872500", "172357.332500", "172357.792500", "172358.252500", "172358.712500", "172359.172500", "172359.632500", "172400.092500", "172400.552500", "172401.012500", "172401.472500", "172401.932500", "172402.392500", "172402.852500", "172403.312500", "172403.772500", "172404.232500", "172404.692500", "172405.152500", "172405.612500", "172406.072500", "172406.532500", "172406.992500", "172407.452500", "172407.912500", "172408.372500", "172408.832500", "172409.292500", "172409.752500", "172410.212500", "172410.672500", "172411.132500", "172411.592500", "172412.052500", "172412.512500", "172412.972500", "172413.432500", "172413.892500", "172414.352500", "172414.812500", "172415.272500", "172415.732500", "172416.192500", "172416.652500", "172417.112500", "172417.572500", "172418.032500", "172418.492500", "172418.952500", "172419.412500", "172419.872500", "172420.332500", "172420.792500", "172421.252500", "172421.712500", "172422.172500", "172422.632500", "172423.092500", "172423.552500", "172424.012500", "172424.472500", "172424.932500", "172425.392500", "172425.852500", "172426.312500", "172426.772500", "172427.232500", "172427.692500", "172428.152500", "172428.612500", "172429.072500", "172429.532500", "172429.992500", "172430.452500", "172430.912500", "172431.372500", "172431.832500", "172432.292500", "172432.752500", "172433.212500", "172433.672500", "172434.132500", "172434.592500", "172435.052500", "172435.512500", "172435.972500", "172436.432500", "172436.892500", "172437.352500", "172437.812500", "172438.272500", "172438.732500", "172439.192500", "172439.652500", "172440.112500", "172440.572500", "172441.032500", "172441.492500", "172441.952500", "172442.412500", "172442.872500", "172443.332500", "172443.792500", "172444.252500", "172444.712500", "172445.172500", "172445.632500", "172446.092500", "172446.552500", "172447.012500", "172447.472500", "172447.932500", "172448.392500", "172448.852500", "172449.312500", "172449.772500", "172450.232500", "172450.692500", "172451.152500", "172451.612500", "172452.072500", "172452.532500", "172452.992500", "172453.452500", "172453.912500", "172454.372500", "172454.832500", "172455.292500", "172455.752500", "172456.212500", "172456.672500", "172457.132500", "172457.592500", "172458.052500", "172458.512500", "172458.972500", "172459.432500", "172459.892500", "172500.352500", "172500.812500", "172501.272500", "172501.732500", "172502.192500", "172502.652500", "172503.112500", "172503.572500", "172504.032500", "172504.492500", "172504.952500", "172505.412500", "172505.872500", "172506.332500", "172506.792500", "172507.252500", "172507.712500", "172508.172500", "172508.632500", "172509.092500", "172509.552500", "172510.012500", "172510.472500", "172510.932500", "172511.392500", "172511.852500", "172512.312500", "172512.772500", "172513.232500", "172513.692500", "172514.152500", "172514.612500", "172515.072500", "172515.532500", "172515.992500", "172516.452500", "172516.912500", "172517.372500", "172517.832500", "172518.292500", "172518.752500", "172519.212500", "172519.672500", "172520.132500", "172520.592500", "172521.052500", "172521.512500", "172521.972500", "172522.432500", "172522.892500", "172523.352500", "172523.812500", "172524.272500", "172524.732500", "172525.192500", "172525.652500", "172526.112500", "172526.572500", "172527.032500", "172527.492500", "172527.952500", "172528.412500", "172528.872500", "172529.332500", "172529.792500", "172530.252500", "172530.712500", "172531.172500", "172531.632500", "172532.092500", "172532.552500", "172533.012500", "172533.472500", "172533.932500", "172534.392500", "172534.852500", "172535.312500", "172535.772500", "172536.232500", "172536.692500", "172537.152500", "172537.612500", "172538.072500", "172538.532500", "172538.992500", "172539.452500", "172539.912500", "172540.372500", "172540.832500", "172541.292500", "172541.752500", "172542.212500", "172542.672500", "172543.132500", "172543.592500", "172544.052500", "172544.512500", "172544.972500", "172545.432500", "172545.892500", "172546.352500", "172546.812500", "172547.272500", "172547.732500", "172548.192500", "172548.652500", "172549.112500", "172549.572500", "172550.032500", "172550.492500", "172550.952500", "172551.412500", "172551.872500", "172552.332500", "172552.792500", "172553.252500", "172553.712500", "172554.172500", "172554.632500", "172555.092500", "172555.552500", "172556.012500", "172556.472500", "172556.932500", "172557.392500", "172557.852500", "172558.312500", "172558.772500", "172559.232500", "172559.692500", "172600.152500", "172600.612500", "172601.072500", "172601.532500", "172601.992500", "172602.452500", "172602.912500", "172603.372500", "172603.832500", "172604.292500", "172604.752500", "172605.212500", "172605.672500", "172606.132500", "172606.592500", "172607.052500", "172607.512500", "172607.972500", "172608.432500", "172608.892500", "172609.352500", "172609.812500", "172610.272500", "172610.732500", "172611.192500", "172611.652500", "172612.112500", "172612.572500", "172613.032500", "172613.492500", "172613.952500", "172614.412500", "172614.872500", "172615.332500", "172615.792500", "172616.252500", "172616.712500", "172617.172500", "172617.632500", "172618.092500", "172618.552500", "172619.012500", "172619.472500", "172619.932500", "172620.392500", "172620.852500", "172621.312500", "172621.772500", "172622.232500", "172622.692500", "172623.152500", "172623.612500", "172624.072500", "172624.532500", "172624.992500", "172625.452500", "172625.912500", "172626.372500", "172626.832500", "172627.292500", "172627.752500", "172628.212500", "172628.672500", "172629.132500", "172629.592500", "172630.052500", "172630.512500", "172630.972500", "172631.432500", "172631.892500", "172632.352500", "172632.812500", "172633.272500", "172633.732500", "172634.192500", "172634.652500", "172635.112500", "172635.572500", "172636.032500", "172636.492500", "172636.952500", "172637.412500", "172637.872500", "172638.332500", "172638.792500", "172639.252500", "172639.712500", "172640.172500", "172640.632500", "172641.092500", "172641.552500", "172642.012500", "172642.472500", "172642.932500", "172643.392500", "172643.852500", "172644.312500", "172644.772500", "172645.232500", "172645.692500", "172646.152500", "172646.612500", "172647.072500", "172647.532500", "172647.992500", "172648.452500", "172648.912500", "172649.372500", "172649.832500", "172650.292500", "172650.752500", "172651.212500", "172651.672500", "172652.132500", "172652.592500", "172653.052500", "172653.512500", "172653.972500", "172654.432500", "172654.892500", "172655.352500", "172655.812500", "172656.272500", "172656.732500", "172657.192500", "172657.652500", "172658.112500", "172658.572500", "172659.032500", "172659.492500", "172659.952500", "172700.412500", "172700.872500", "172701.332500", "172701.792500", "172702.252500", "172702.712500", "172703.172500", "172703.632500", "172704.092500", "172704.552500", "172705.012500", "172705.472500", "172705.932500", "172706.392500", "172706.852500", "172707.312500", "172707.772500", "172708.232500", "172708.692500", "172709.152500", "172709.612500", "172710.072500", "172710.532500", "172710.992500", "172711.452500", "172711.912500", "172712.372500", "172712.832500", "172713.292500", "172713.752500", "172714.212500", "172714.672500", "172715.132500", "172715.592500", "172716.052500", "172716.512500", "172716.972500", "172717.432500", "172717.892500", "172718.352500", "172718.812500", "172719.272500", "172719.732500", "172720.192500", "172720.652500", "172721.112500", "172721.572500", "172722.032500", "172722.492500", "172722.952500", "172723.412500", "172723.872500", "172724.332500", "172724.792500", "172725.252500", "172725.712500", "172726.172500", "172726.632500", "172727.092500", "172727.552500", "172728.012500", "172728.472500", "172728.932500", "172729.392500", "172729.852500", "172730.312500", "172730.772500", "172731.232500", "172731.692500", "172732.152500", "172732.612500", "172733.072500", "172733.532500", "172733.992500", "172734.452500", "172734.912500", "172735.372500", "172735.832500", "172736.292500", "172736.752500", "172737.212500", "172737.672500", "172738.132500", "172738.592500", "172739.052500", "172739.512500", "172739.972500", "172740.432500", "172740.892500", "172741.352500", "172741.812500", "172742.272500", "172742.732500", "172743.192500", "172743.652500", "172744.112500", "172744.572500", "172745.032500", "172745.492500", "172745.952500", "172746.412500", "172746.872500", "172747.332500", "172747.792500", "172748.252500", "172748.712500", "172749.172500", "172749.632500", "172750.092500", "172750.552500", "172751.012500", "172751.472500", "172751.932500", "172752.392500", "172752.852500", "172753.312500", "172753.772500", "172754.232500", "172754.692500", "172755.152500", "172755.612500", "172756.072500", "172756.532500", "172756.992500", "172757.452500", "172757.912500", "172758.372500", "172758.832500", "172759.292500", "172759.752500", "172800.212500", "172800.672500", "172801.132500", "172801.592500", "172802.052500", "172802.512500", "172802.972500", "172803.432500", "172803.892500", "172804.352500", "172804.812500", "172805.272500", "172805.732500", "172806.192500", "172806.652500", "172807.112500", "172807.572500", "172808.032500", "172808.492500", "172808.952500", "172809.412500", "172809.872500", "172810.332500", "172810.792500", "172811.252500", "172811.712500", "172812.172500", "172812.632500", "172813.092500", "172813.552500", "172814.012500", "172814.472500", "172814.932500", "172815.392500", "172815.852500", "172816.312500", "172816.772500", "172817.232500", "172817.692500", "172818.152500", "172818.612500", "172819.072500", "172819.532500", "172819.992500", "172820.452500", "172820.912500", "172821.372500", "172821.832500", "172822.292500", "172822.752500", "172823.212500", "172823.672500", "172824.132500", "172824.592500", "172825.052500", "172825.512500", "172825.972500", "172826.432500", "172826.892500", "172827.352500", "172827.812500", "172828.272500", "172828.732500", "172829.192500", "172829.652500", "172830.112500", "172830.572500", "172831.032500", "172831.492500", "172831.952500", "172832.412500", "172832.872500", "172833.332500", "172833.792500", "172834.252500", "172834.712500", "172835.172500", "172835.632500", "172836.092500", "172836.552500", "172837.012500", "172837.472500", "172837.932500", "172838.392500", "172838.852500", "172839.312500", "172839.772500", "172840.232500", "172840.692500", "172841.152500", "172841.612500", "172842.072500", "172842.532500", "172842.992500", "172843.452500", "172843.912500", "172844.372500", "172844.832500", "172845.292500", "172845.752500", "172846.212500", "172846.672500", "172847.132500", "172847.592500", "172848.052500", "172848.512500", "172848.972500", "172849.432500", "172849.892500", "172850.352500", "172850.812500", "172851.272500", "172851.732500", "172852.192500", "172852.652500", "172853.112500", "172853.572500", "172854.032500", "172854.492500", "172854.952500", "172855.412500", "172855.872500", "172856.332500", "172856.792500", "172857.252500", "172857.712500", "172858.172500", "172858.632500", "172859.092500", "172859.552500", "172900.012500", "172900.472500", "172900.932500", "172901.392500", "172901.852500", "172902.312500", "172902.772500", "172903.232500", "172903.692500", "172904.152500", "172904.612500", "172905.072500", "172905.532500", "172905.992500", "172906.452500", "172906.912500", "172907.372500", "172907.832500", "172908.292500", "172908.752500", "172909.212500", "172909.672500", "172910.132500", "172910.592500", "172911.052500", "172911.512500", "172911.972500", "172912.432500", "172912.892500", "172913.352500", "172913.812500", "172914.272500", "172914.732500", "172915.192500", "172915.652500", "172916.112500", "172916.572500", "172917.032500", "172917.492500", "172917.952500", "172918.412500", "172918.872500", "172919.332500", "172919.792500", "172920.252500", "172920.712500", "172921.172500", "172921.632500", "172922.092500", "172922.552500", "172923.012500", "172923.472500", "172923.932500", "172924.392500", "172924.852500", "172925.312500", "172925.772500", "172926.232500", "172926.692500", "172927.152500", "172927.612500", "172928.072500", "172928.532500", "172928.992500", "172929.452500", "172929.912500", "172930.372500", "172930.832500", "172931.292500", "172931.752500", "172932.212500", "172932.672500", "172933.132500", "172933.592500", "172934.052500", "172934.512500", "172934.972500", "172935.432500", "172935.892500", "172936.352500", "172936.812500", "172937.272500", "172937.732500", "172938.192500", "172938.652500", "172939.112500", "172939.572500", "172940.032500", "172940.492500", "172940.952500", "172941.412500", "172941.872500", "172942.332500", "172942.792500", "172943.252500", "172943.712500", "172944.172500", "172944.632500", "172945.092500", "172945.552500", "172946.012500", "172946.472500", "172946.932500", "172947.392500", "172947.852500", "172948.312500", "172948.772500", "172949.232500", "172949.692500", "172950.152500", "172950.612500", "172951.072500", "172951.532500", "172951.992500", "172952.452500", "172952.912500", "172953.372500", "172953.832500", "172954.292500", "172954.752500", "172955.212500", "172955.672500", "172956.132500", "172956.592500", "172957.052500", "172957.512500", "172957.972500", "172958.432500", "172958.892500", "172959.352500", "172959.812500", "173000.272500", "173000.732500", "173001.192500", "173001.652500", "173002.112500", "173002.572500", "173003.032500", "173003.492500", "173003.952500", "173004.412500", "173004.872500", "173005.332500", "173005.792500", "173006.252500", "173006.712500", "173007.172500", "173007.632500", "173008.092500", "173008.552500", "173009.012500", "173009.472500", "173009.932500", "173010.392500", "173010.852500", "173011.312500", "173011.772500"],
