{
  "AcquisitionMatrixPE": 82,
  "AcquisitionNumber": 1,
  "AcquisitionTime": "18:10:8.970000",
  "BandwidthPerPixelPhaseEncode": 24.888,
  "BaseResolution": 82,
  "BodyPartExamined": "BRAIN",
  "ConsistencyInfo": "N4_VE11C_LATEST_20160120",
  "ConversionSoftware": "dcm2niix",
  "ConversionSoftwareVersion": "v1.0.20201102",
  "DerivedVendorReportedEchoSpacing": 0.00049,
  "DeviceSerialNumber": "66112",
  "DwellTime": 2e-06,
  "EchoTime": 0.0272,
  "EchoTrainLength": 82,
  "EffectiveEchoSpacing": 0.00049,
  "FlipAngle": 44,
  "ImageComments": "Unaliased MB8/PE3",
  "ImageOrientationPatientDICOM": [0.984272, 0.174706, 0.0262094, -0.175503, 0.983959, 0.0319906],
  "ImageType": [
    "ORIGINAL",
    "PRIMARY",
    "M",
    "MB",
    "ND",
    "NORM",
    "MOSAIC"
],
  "ImagingFrequency": 123.252,
  "InPlanePhaseEncodingDirectionDICOM": "COL",
  "InstitutionAddress": "Maynard 3,Hanover,NH,US,03755",
  "InstitutionName": "Dartmouth College - PBS",
  "InstitutionalDepartmentName": "Department",
  "MRAcquisitionType": "2D",
  "MagneticFieldStrength": 3,
  "Manufacturer": "Siemens",
  "ManufacturersModelName": "Prisma",
  "Modality": "MR",
  "MultibandAccelerationFactor": 8,
  "PartialFourier": 1,
  "PatientPosition": "HFS",
  "PercentPhaseFOV": 100,
  "PercentSampling": 100,
  "PhaseEncodingDirection": "j-",
  "PhaseEncodingSteps": 82,
  "PhaseResolution": 1,
  "PixelBandwidth": 3050,
  "ProcedureStepDescription": "Wager_Wager^1076_spacetop",
  "ProtocolName": "func_run-01_task-alignvideo_acq-ap-mb8",
  "PulseSequenceDetails": "%CustomerSeq%\\cmrr_mbep2d_bold",
  "ReceiveCoilActiveElements": "HEA;HEP",
  "ReceiveCoilName": "Head_32",
  "ReconMatrixPE": 82,
  "RepetitionTime": 0.46,
  "SAR": 0.0893766,
  "ScanOptions": "FS",
  "ScanningSequence": "EP",
  "SequenceName": "epfid2d1_82",
  "SequenceVariant": "SK\\SS",
  "SeriesDescription": "func_run-01_task-alignvideo_acq-ap-mb8",
  "SeriesNumber": 32,
  "ShimSetting": [4140, -7769, -7282, 604, -147, -322, -30, 97],
  "SliceThickness": 2.7,
  "SliceTiming": [0, 0.25, 0.0625, 0.315, 0.125, 0.3775, 0.1875, 0, 0.25, 0.0625, 0.315, 0.125, 0.3775, 0.1875, 0, 0.25, 0.0625, 0.315, 0.125, 0.3775, 0.1875, 0, 0.25, 0.0625, 0.315, 0.125, 0.3775, 0.1875, 0, 0.25, 0.0625, 0.315, 0.125, 0.3775, 0.1875, 0, 0.25, 0.0625, 0.315, 0.125, 0.3775, 0.1875, 0, 0.25, 0.0625, 0.315, 0.125, 0.3775, 0.1875, 0, 0.25, 0.0625, 0.315, 0.125, 0.3775, 0.1875],
  "SoftwareVersions": "syngo MR E11",
  "SpacingBetweenSlices": 2.7,
  "StationName": "AWP66112",
  "TaskName": "alignvideo",
  "TotalReadoutTime": 0.03969,
  "TxRefAmp": 236.381,
  "WipMemBlock": "225b00b5-cc99-4d86-a717-7675f0fe67c4||Sequence: R016 ve11c/master r/e634e98; Dec 19 2017 11:00:25 by eja",
  "dcmmeta_affine": [
    [-2.6407289505004883, -0.4708611071109772, 0.05454012006521225, 124.70523834228516],
    [-0.4687245190143585, 2.639890193939209, 0.0974356010556221, -81.6279296875],
    [0.07031798362731934, -0.08582840859889984, 2.697690010070801, -75.99595642089844],
    [0.0, 0.0, 0.0, 1.0]
],
  "dcmmeta_reorient_transform": [
    [0.0, -1.0, 0.0, 81.0],
    [1.0, 0.0, 0.0, 0.0],
    [0.0, 0.0, 1.0, 0.0],
    [0.0, 0.0, 0.0, 1.0]
],
  "dcmmeta_shape": [82, 82, 56, 1073],
  "dcmmeta_slice_dim": 2,
  "dcmmeta_version": 0.6,
  "global": {
    "const": {
      "AccessionNumber": "A003811",
      "AcquisitionMatrix": [82, 0, 0, 82],
      "AngioFlag": "N",
      "BitsAllocated": 16,
      "BitsStored": 16,
      "BodyPartExamined": "BRAIN",
      "Columns": 656,
      "EchoNumbers": 1,
      "EchoTime": 27.2,
      "EchoTrainLength": 82,
      "FlipAngle": 44.0,
      "HighBit": 15,
      "ImageOrientationPatient": [0.98427167836203, 0.17470640784421, 0.02620943022224, -0.1755027673982, 0.98395903414059, 0.03199058875192],
      "ImagePositionPatient": [-709.31756618097, -1024.375582262, -127.76207657313],
      "ImageType": [
        "ORIGINAL",
        "PRIMARY",
        "M",
        "MB",
        "ND",
        "NORM",
        "MOSAIC"
],
      "ImagedNucleus": "1H",
      "ImagingFrequency": 123.252238,
      "InPlanePhaseEncodingDirection": "COL",
      "MRAcquisitionType": "2D",
      "MagneticFieldStrength": 3.0,
      "Manufacturer": "SIEMENS",
      "ManufacturerModelName": "Prisma",
      "Modality": "MR",
      "NumberOfAverages": 1.0,
      "NumberOfPhaseEncodingSteps": 82,
      "PercentPhaseFieldOfView": 100.0,
      "PercentSampling": 100.0,
      "PerformedProcedureStepStartTime": "163646.553000",
      "PhotometricInterpretation": "MONOCHROME2",
      "PixelBandwidth": 3050.0,
      "PixelRepresentation": 0,
      "PixelSpacing": [2.6829268932343, 2.6829268932343],
      "ProtocolName": "func_run-01_task-alignvideo_acq-ap-mb8",
      "RepetitionTime": 460.0,
      "Rows": 656,
      "SAR": 0.08937660116794,
      "SamplesPerPixel": 1,
      "ScanOptions": "FS",
      "ScanningSequence": "EP",
      "SequenceName": "epfid2d1_82",
      "SequenceVariant": [
        "SK",
        "SS"
],
      "SeriesDescription": "func_run-01_task-alignvideo_acq-ap-mb8",
      "SeriesNumber": 32,
      "SeriesTime": "181020.311000",
      "SliceLocation": -76.357619472175,
      "SliceThickness": 2.7000000476837,
      "SmallestImagePixelValue": 0,
      "SoftwareVersions": "syngo MR E11",
      "SpacingBetweenSlices": 2.7000000330343,
      "SpecificCharacterSet": "ISO_IR 100",
      "StudyID": "1",
      "StudyTime": "163646.512000",
      "TransmitCoilName": "Body",
      "VariableFlipAngleFlag": "N",
      "WindowCenterWidthExplanation": "Algo1",
      "dBdt": 0.0},
    "slices": {}
  },
  "time": {
    "samples": {
      "AcquisitionNumber": [1, 2, 3, 4, 5, 6, 7, 8, 9, 10, 11, 12, 13, 14, 15, 16, 17, 18, 19, 20, 21, 22, 23, 24, 25, 26, 27, 28, 29, 30, 31, 32, 33, 34, 35, 36, 37, 38, 39, 40, 41, 42, 43, 44, 45, 46, 47, 48, 49, 50, 51, 52, 53, 54, 55, 56, 57, 58, 59, 60, 61, 62, 63, 64, 65, 66, 67, 68, 69, 70, 71, 72, 73, 74, 75, 76, 77, 78, 79, 80, 81, 82, 83, 84, 85, 86, 87, 88, 89, 90, 91, 92, 93, 94, 95, 96, 97, 98, 99, 100, 101, 102, 103, 104, 105, 106, 107, 108, 109, 110, 111, 112, 113, 114, 115, 116, 117, 118, 119, 120, 121, 122, 123, 124, 125, 126, 127, 128, 129, 130, 131, 132, 133, 134, 135, 136, 137, 138, 139, 140, 141, 142, 143, 144, 145, 146, 147, 148, 149, 150, 151, 152, 153, 154, 155, 156, 157, 158, 159, 160, 161, 162, 163, 164, 165, 166, 167, 168, 169, 170, 171, 172, 173, 174, 175, 176, 177, 178, 179, 180, 181, 182, 183, 184, 185, 186, 187, 188, 189, 190, 191, 192, 193, 194, 195, 196, 197, 198, 199, 200, 201, 202, 203, 204, 205, 206, 207, 208, 209, 210, 211, 212, 213, 214, 215, 216, 217, 218, 219, 220, 221, 222, 223, 224, 225, 226, 227, 228, 229, 230, 231, 232, 233, 234, 235, 236, 237, 238, 239, 240, 241, 242, 243, 244, 245, 246, 247, 248, 249, 250, 251, 252, 253, 254, 255, 256, 257, 258, 259, 260, 261, 262, 263, 264, 265, 266, 267, 268, 269, 270, 271, 272, 273, 274, 275, 276, 277, 278, 279, 280, 281, 282, 283, 284, 285, 286, 287, 288, 289, 290, 291, 292, 293, 294, 295, 296, 297, 298, 299, 300, 301, 302, 303, 304, 305, 306, 307, 308, 309, 310, 311, 312, 313, 314, 315, 316, 317, 318, 319, 320, 321, 322, 323, 324, 325, 326, 327, 328, 329, 330, 331, 332, 333, 334, 335, 336, 337, 338, 339, 340, 341, 342, 343, 344, 345, 346, 347, 348, 349, 350, 351, 352, 353, 354, 355, 356, 357, 358, 359, 360, 361, 362, 363, 364, 365, 366, 367, 368, 369, 370, 371, 372, 373, 374, 375, 376, 377, 378, 379, 380, 381, 382, 383, 384, 385, 386, 387, 388, 389, 390, 391, 392, 393, 394, 395, 396, 397, 398, 399, 400, 401, 402, 403, 404, 405, 406, 407, 408, 409, 410, 411, 412, 413, 414, 415, 416, 417, 418, 419, 420, 421, 422, 423, 424, 425, 426, 427, 428, 429, 430, 431, 432, 433, 434, 435, 436, 437, 438, 439, 440, 441, 442, 443, 444, 445, 446, 447, 448, 449, 450, 451, 452, 453, 454, 455, 456, 457, 458, 459, 460, 461, 462, 463, 464, 465, 466, 467, 468, 469, 470, 471, 472, 473, 474, 475, 476, 477, 478, 479, 480, 481, 482, 483, 484, 485, 486, 487, 488, 489, 490, 491, 492, 493, 494, 495, 496, 497, 498, 499, 500, 501, 502, 503, 504, 505, 506, 507, 508, 509, 510, 511, 512, 513, 514, 515, 516, 517, 518, 519, 520, 521, 522, 523, 524, 525, 526, 527, 528, 529, 530, 531, 532, 533, 534, 535, 536, 537, 538, 539, 540, 541, 542, 543, 544, 545, 546, 547, 548, 549, 550, 551, 552, 553, 554, 555, 556, 557, 558, 559, 560, 561, 562, 563, 564, 565, 566, 567, 568, 569, 570, 571, 572, 573, 574, 575, 576, 577, 578, 579, 580, 581, 582, 583, 584, 585, 586, 587, 588, 589, 590, 591, 592, 593, 594, 595, 596, 597, 598, 599, 600, 601, 602, 603, 604, 605, 606, 607, 608, 609, 610, 611, 612, 613, 614, 615, 616, 617, 618, 619, 620, 621, 622, 623, 624, 625, 626, 627, 628, 629, 630, 631, 632, 633, 634, 635, 636, 637, 638, 639, 640, 641, 642, 643, 644, 645, 646, 647, 648, 649, 650, 651, 652, 653, 654, 655, 656, 657, 658, 659, 660, 661, 662, 663, 664, 665, 666, 667, 668, 669, 670, 671, 672, 673, 674, 675, 676, 677, 678, 679, 680, 681, 682, 683, 684, 685, 686, 687, 688, 689, 690, 691, 692, 693, 694, 695, 696, 697, 698, 699, 700, 701, 702, 703, 704, 705, 706, 707, 708, 709, 710, 711, 712, 713, 714, 715, 716, 717, 718, 719, 720, 721, 722, 723, 724, 725, 726, 727, 728, 729, 730, 731, 732, 733, 734, 735, 736, 737, 738, 739, 740, 741, 742, 743, 744, 745, 746, 747, 748, 749, 750, 751, 752, 753, 754, 755, 756, 757, 758, 759, 760, 761, 762, 763, 764, 765, 766, 767, 768, 769, 770, 771, 772, 773, 774, 775, 776, 777, 778, 779, 780, 781, 782, 783, 784, 785, 786, 787, 788, 789, 790, 791, 792, 793, 794, 795, 796, 797, 798, 799, 800, 801, 802, 803, 804, 805, 806, 807, 808, 809, 810, 811, 812, 813, 814, 815, 816, 817, 818, 819, 820, 821, 822, 823, 824, 825, 826, 827, 828, 829, 830, 831, 832, 833, 834, 835, 836, 837, 838, 839, 840, 841, 842, 843, 844, 845, 846, 847, 848, 849, 850, 851, 852, 853, 854, 855, 856, 857, 858, 859, 860, 861, 862, 863, 864, 865, 866, 867, 868, 869, 870, 871, 872, 873, 874, 875, 876, 877, 878, 879, 880, 881, 882, 883, 884, 885, 886, 887, 888, 889, 890, 891, 892, 893, 894, 895, 896, 897, 898, 899, 900, 901, 902, 903, 904, 905, 906, 907, 908, 909, 910, 911, 912, 913, 914, 915, 916, 917, 918, 919, 920, 921, 922, 923, 924, 925, 926, 927, 928, 929, 930, 931, 932, 933, 934, 935, 936, 937, 938, 939, 940, 941, 942, 943, 944, 945, 946, 947, 948, 949, 950, 951, 952, 953, 954, 955, 956, 957, 958, 959, 960, 961, 962, 963, 964, 965, 966, 967, 968, 969, 970, 971, 972, 973, 974, 975, 976, 977, 978, 979, 980, 981, 982, 983, 984, 985, 986, 987, 988, 989, 990, 991, 992, 993, 994, 995, 996, 997, 998, 999, 1000, 1001, 1002, 1003, 1004, 1005, 1006, 1007, 1008, 1009, 1010, 1011, 1012, 1013, 1014, 1015, 1016, 1017, 1018, 1019, 1020, 1021, 1022, 1023, 1024, 1025, 1026, 1027, 1028, 1029, 1030, 1031, 1032, 1033, 1034, 1035, 1036, 1037, 1038, 1039, 1040, 1041, 1042, 1043, 1044, 1045, 1046, 1047, 1048, 1049, 1050, 1051, 1052, 1053, 1054, 1055, 1056, 1057, 1058, 1059, 1060, 1061, 1062, 1063, 1064, 1065, 1066, 1067, 1068, 1069, 1070, 1071, 1072, 1073],
      "AcquisitionTime": ["181008.970000", "181009.430000", "181009.890000", "181010.350000", "181010.810000", "181011.270000", "181011.730000", "181012.190000", "181012.650000", "181013.110000", "181013.570000", "181014.030000", "181014.490000", "181014.950000", "181015.410000", "181015.870000", "181016.330000", "181016.790000", "181017.250000", "181017.710000", "181018.170000", "181018.630000", "181019.090000", "181019.550000", "181020.010000", "181020.470000", "181020.930000", "181021.390000", "181021.850000", "181022.310000", "181022.770000", "181023.230000", "181023.690000", "181024.150000", "181024.610000", "181025.070000", "181025.530000", "181025.990000", "181026.450000", "181026.910000", "181027.370000", "181027.830000", "181028.290000", "181028.750000", "181029.210000", "181029.670000", "181030.130000", "181030.590000", "181031.050000", "181031.510000", "181031.970000", "181032.430000", "181032.890000", "181033.350000", "181033.810000", "181034.270000", "181034.730000", "181035.190000", "181035.650000", "181036.110000", "181036.570000", "181037.030000", "181037.490000", "181037.950000", "181038.410000", "181038.870000", "181039.330000", "181039.790000", "181040.250000", "181040.710000", "181041.170000", "181041.630000", "181042.090000", "181042.550000", "181043.010000", "181043.470000", "181043.930000", "181044.390000", "181044.850000", "181045.310000", "181045.770000", "181046.230000", "181046.690000", "181047.150000", "181047.610000", "181048.070000", "181048.530000", "181048.990000", "181049.450000", "181049.910000", "181050.370000", "181050.830000", "181051.290000", "181051.750000", "181052.210000", "181052.670000", "181053.130000", "181053.590000", "181054.050000", "181054.510000", "181054.970000", "181055.430000", "181055.890000", "181056.350000", "181056.810000", "181057.270000", "181057.730000", "181058.190000", "181058.650000", "181059.110000", "181059.570000", "181100.030000", "181100.490000", "181100.950000", "181101.410000", "181101.870000", "181102.330000", "181102.790000", "181103.250000", "181103.710000", "181104.170000", "181104.630000", "181105.090000", "181105.550000", "181106.010000", "181106.470000", "181106.930000", "181107.390000", "181107.850000", "181108.310000", "181108.770000", "181109.230000", "181109.690000", "181110.150000", "181110.610000", "181111.070000", "181111.530000", "181111.990000", "181112.450000", "181112.910000", "181113.370000", "181113.830000", "181114.290000", "181114.750000", "181115.210000", "181115.670000", "181116.130000", "181116.590000", "181117.050000", "181117.510000", "181117.970000", "181118.430000", "181118.890000", "181119.350000", "181119.810000", "181120.270000", "181120.730000", "181121.190000", "181121.650000", "181122.110000", "181122.570000", "181123.030000", "181123.490000", "181123.950000", "181124.410000", "181124.870000", "181125.330000", "181125.790000", "181126.250000", "181126.710000", "181127.170000", "181127.630000", "181128.090000", "181128.550000", "181129.010000", "181129.470000", "181129.930000", "181130.390000", "181130.850000", "181131.310000", "181131.770000", "181132.230000", "181132.690000", "181133.150000", "181133.610000", "181134.070000", "181134.530000", "181134.990000", "181135.450000", "181135.910000", "181136.370000", "181136.830000", "181137.290000", "181137.750000", "181138.210000", "181138.670000", "181139.130000", "181139.590000", "181140.050000", "181140.510000", "181140.970000", "181141.430000", "181141.890000", "181142.350000", "181142.810000", "181143.270000", "181143.730000", "181144.190000", "181144.650000", "181145.110000", "181145.570000", "181146.030000", "181146.490000", "181146.950000", "181147.410000", "181147.870000", "181148.330000", "181148.790000", "181149.250000", "181149.710000", "181150.170000", "181150.630000", "181151.090000", "181151.550000", "181152.010000", "181152.470000", "181152.930000", "181153.390000", "181153.850000", "181154.310000", "181154.770000", "181155.230000", "181155.690000", "181156.150000", "181156.610000", "181157.070000", "181157.530000", "181157.990000", "181158.450000", "181158.910000", "181159.370000", "181159.830000", "181200.290000", "181200.750000", "181201.210000", "181201.670000", "181202.130000", "181202.590000", "181203.050000", "181203.510000", "181203.970000", "181204.430000", "181204.890000", "181205.350000", "181205.810000", "181206.270000", "181206.730000", "181207.190000", "181207.650000", "181208.110000", "181208.570000", "181209.030000", "181209.490000", "181209.950000", "181210.410000", "181210.870000", "181211.330000", "181211.790000", "181212.250000", "181212.710000", "181213.170000", "181213.630000", "181214.090000", "181214.550000", "181215.010000", "181215.470000", "181215.930000", "181216.390000", "181216.850000", "181217.310000", "181217.770000", "181218.230000", "181218.690000", "181219.150000", "181219.610000", "181220.070000", "181220.530000", "181220.990000", "181221.450000", "181221.910000", "181222.370000", "181222.830000", "181223.290000", "181223.750000", "181224.210000", "181224.670000", "181225.130000", "181225.590000", "181226.050000", "181226.510000", "181226.970000", "181227.430000", "181227.890000", "181228.350000", "181228.810000", "181229.270000", "181229.730000", "181230.190000", "181230.650000", "181231.110000", "181231.570000", "181232.030000", "181232.490000", "181232.950000", "181233.410000", "181233.870000", "181234.330000", "181234.790000", "181235.250000", "181235.710000", "181236.170000", "181236.630000", "181237.090000", "181237.550000", "181238.010000", "181238.470000", "181238.930000", "181239.390000", "181239.850000", "181240.310000", "181240.770000", "181241.230000", "181241.690000", "181242.150000", "181242.610000", "181243.070000", "181243.530000", "181243.990000", "181244.450000", "181244.910000", "181245.370000", "181245.830000", "181246.290000", "181246.750000", "181247.210000", "181247.670000", "181248.130000", "181248.590000", "181249.050000", "181249.510000", "181249.970000", "181250.430000", "181250.890000", "181251.350000", "181251.810000", "181252.270000", "181252.730000", "181253.190000", "181253.650000", "181254.110000", "181254.570000", "181255.030000", "181255.490000", "181255.950000", "181256.410000", "181256.870000", "181257.330000", "181257.790000", "181258.250000", "181258.710000", "181259.170000", "181259.630000", "181300.090000", "181300.550000", "181301.010000", "181301.470000", "181301.930000", "181302.390000", "181302.850000", "181303.310000", "181303.770000", "181304.230000", "181304.690000", "181305.150000", "181305.610000", "181306.070000", "181306.530000", "181306.990000", "181307.450000", "181307.910000", "181308.370000", "181308.830000", "181309.290000", "181309.750000", "181310.210000", "181310.670000", "181311.130000", "181311.590000", "181312.050000", "181312.510000", "181312.970000", "181313.430000", "181313.890000", "181314.350000", "181314.810000", "181315.270000", "181315.730000", "181316.190000", "181316.650000", "181317.110000", "181317.570000", "181318.030000", "181318.490000", "181318.950000", "181319.410000", "181319.870000", "181320.330000", "181320.790000", "181321.250000", "181321.710000", "181322.170000", "181322.630000", "181323.090000", "181323.550000", "181324.010000", "181324.470000", "181324.930000", "181325.390000", "181325.850000", "181326.310000", "181326.770000", "181327.230000", "181327.690000", "181328.150000", "181328.610000", "181329.070000", "181329.530000", "181329.990000", "181330.450000", "181330.910000", "181331.370000", "181331.830000", "181332.290000", "181332.750000", "181333.210000", "181333.670000", "181334.130000", "181334.590000", "181335.050000", "181335.510000", "181335.970000", "181336.430000", "181336.890000", "181337.350000", "181337.810000", "181338.270000", "181338.730000", "181339.190000", "181339.650000", "181340.110000", "181340.570000", "181341.030000", "181341.490000", "181341.950000", "181342.410000", "181342.870000", "181343.330000", "181343.790000", "181344.250000", "181344.710000", "181345.170000", "181345.630000", "181346.090000", "181346.550000", "181347.010000", "181347.470000", "181347.930000", "181348.390000", "181348.850000", "181349.310000", "181349.770000", "181350.230000", "181350.690000", "181351.150000", "181351.610000", "181352.070000", "181352.530000", "181352.990000", "181353.450000", "181353.910000", "181354.370000", "181354.830000", "181355.290000", "181355.750000", "181356.210000", "181356.670000", "181357.130000", "181357.590000", "181358.050000", "181358.510000", "181358.970000", "181359.430000", "181359.890000", "181400.350000", "181400.810000", "181401.270000", "181401.730000", "181402.190000", "181402.650000", "181403.110000", "181403.570000", "181404.030000", "181404.490000", "181404.950000", "181405.410000", "181405.870000", "181406.330000", "181406.790000", "181407.250000", "181407.710000", "181408.170000", "181408.630000", "181409.090000", "181409.550000", "181410.010000", "181410.470000", "181410.930000", "181411.390000", "181411.850000", "181412.310000", "181412.770000", "181413.230000", "181413.690000", "181414.150000", "181414.610000", "181415.070000", "181415.530000", "181415.990000", "181416.450000", "181416.910000", "181417.370000", "181417.830000", "181418.290000", "181418.750000", "181419.210000", "181419.670000", "181420.130000", "181420.590000", "181421.050000", "181421.510000", "181421.970000", "181422.430000", "181422.890000", "181423.350000", "181423.810000", "181424.270000", "181424.730000", "181425.190000", "181425.650000", "181426.110000", "181426.570000", "181427.030000", "181427.490000", "181427.950000", "181428.410000", "181428.870000", "181429.330000", "181429.790000", "181430.250000", "181430.710000", "181431.170000", "181431.630000", "181432.090000", "181432.550000", "181433.010000", "181433.470000", "181433.930000", "181434.390000", "181434.850000", "181435.310000", "181435.770000", "181436.230000", "181436.690000", "181437.150000", "181437.610000", "181438.070000", "181438.530000", "181438.990000", "181439.450000", "181439.910000", "181440.370000", "181440.830000", "181441.290000", "181441.750000", "181442.210000", "181442.670000", "181443.130000", "181443.590000", "181444.050000", "181444.510000", "181444.970000", "181445.430000", "181445.890000", "181446.350000", "181446.810000", "181447.270000", "181447.730000", "181448.190000", "181448.650000", "181449.110000", "181449.570000", "181450.030000", "181450.490000", "181450.950000", "181451.410000", "181451.870000", "181452.330000", "181452.790000", "181453.250000", "181453.710000", "181454.170000", "181454.630000", "181455.090000", "181455.550000", "181456.010000", "181456.470000", "181456.930000", "181457.390000", "181457.850000", "181458.310000", "181458.770000", "181459.230000", "181459.690000", "181500.150000", "181500.610000", "181501.070000", "181501.530000", "181501.990000", "181502.450000", "181502.910000", "181503.370000", "181503.830000", "181504.290000", "181504.750000", "181505.210000", "181505.670000", "181506.130000", "181506.590000", "181507.050000", "181507.510000", "181507.970000", "181508.430000", "181508.890000", "181509.350000", "181509.810000", "181510.270000", "181510.730000", "181511.190000", "181511.650000", "181512.110000", "181512.570000", "181513.030000", "181513.490000", "181513.950000", "181514.410000", "181514.870000", "181515.330000", "181515.790000", "181516.250000", "181516.710000", "181517.170000", "181517.630000", "181518.090000", "181518.550000", "181519.010000", "181519.470000", "181519.930000", "181520.390000", "181520.850000", "181521.310000", "181521.770000", "181522.230000", "181522.690000", "181523.150000", "181523.610000", "181524.070000", "181524.530000", "181524.990000", "181525.450000", "181525.910000", "181526.370000", "181526.830000", "181527.290000", "181527.750000", "181528.210000", "181528.670000", "181529.130000", "181529.590000", "181530.050000", "181530.510000", "181530.970000", "181531.430000", "181531.890000", "181532.350000", "181532.810000", "181533.270000", "181533.730000", "181534.190000", "181534.650000", "181535.110000", "181535.570000", "181536.030000", "181536.490000", "181536.950000", "181537.410000", "181537.870000", "181538.330000", "181538.790000", "181539.250000", "181539.710000", "181540.170000", "181540.630000", "181541.090000", "181541.550000", "181542.010000", "181542.470000", "181542.930000", "181543.390000", "181543.850000", "181544.310000", "181544.770000", "181545.230000", "181545.690000", "181546.150000", "181546.610000", "181547.070000", "181547.530000", "181547.990000", "181548.450000", "181548.910000", "181549.370000", "181549.830000", "181550.290000", "181550.750000", "181551.210000", "181551.670000", "181552.130000", "181552.590000", "181553.050000", "181553.510000", "181553.970000", "181554.430000", "181554.890000", "181555.350000", "181555.810000", "181556.270000", "181556.730000", "181557.190000", "181557.650000", "181558.110000", "181558.570000", "181559.030000", "181559.490000", "181559.950000", "181600.410000", "181600.870000", "181601.330000", "181601.790000", "181602.250000", "181602.710000", "181603.170000", "181603.630000", "181604.090000", "181604.550000", "181605.010000", "181605.470000", "181605.930000", "181606.390000", "181606.850000", "181607.310000", "181607.770000", "181608.230000", "181608.690000", "181609.150000", "181609.610000", "181610.070000", "181610.530000", "181610.990000", "181611.450000", "181611.910000", "181612.370000", "181612.830000", "181613.290000", "181613.750000", "181614.210000", "181614.670000", "181615.130000", "181615.590000", "181616.050000", "181616.510000", "181616.970000", "181617.430000", "181617.890000", "181618.350000", "181618.810000", "181619.270000", "181619.730000", "181620.190000", "181620.650000", "181621.110000", "181621.570000", "181622.030000", "181622.490000", "181622.950000", "181623.410000", "181623.870000", "181624.330000", "181624.790000", "181625.250000", "181625.710000", "181626.170000", "181626.630000", "181627.090000", "181627.550000", "181628.010000", "181628.470000", "181628.930000", "181629.390000", "181629.850000", "181630.310000", "181630.770000", "181631.230000", "181631.690000", "181632.150000", "181632.610000", "181633.070000", "181633.530000", "181633.990000", "181634.450000", "181634.910000", "181635.370000", "181635.830000", "181636.290000", "181636.750000", "181637.210000", "181637.670000", "181638.130000", "181638.590000", "181639.050000", "181639.510000", "181639.970000", "181640.430000", "181640.890000", "181641.350000", "181641.810000", "181642.270000", "181642.730000", "181643.190000", "181643.650000", "181644.110000", "181644.570000", "181645.030000", "181645.490000", "181645.950000", "181646.410000", "181646.870000", "181647.330000", "181647.790000", "181648.250000", "181648.710000", "181649.170000", "181649.630000", "181650.090000", "181650.550000", "181651.010000", "181651.470000", "181651.930000", "181652.390000", "181652.850000", "181653.310000", "181653.770000", "181654.230000", "181654.690000", "181655.150000", "181655.610000", "181656.070000", "181656.530000", "181656.990000", "181657.450000", "181657.910000", "181658.370000", "181658.830000", "181659.290000", "181659.750000", "181700.210000", "181700.670000", "181701.130000", "181701.590000", "181702.050000", "181702.510000", "181702.970000", "181703.430000", "181703.890000", "181704.350000", "181704.810000", "181705.270000", "181705.730000", "181706.190000", "181706.650000", "181707.110000", "181707.570000", "181708.030000", "181708.490000", "181708.950000", "181709.410000", "181709.870000", "181710.330000", "181710.790000", "181711.250000", "181711.710000", "181712.170000", "181712.630000", "181713.090000", "181713.550000", "181714.010000", "181714.470000", "181714.930000", "181715.390000", "181715.850000", "181716.310000", "181716.770000", "181717.230000", "181717.690000", "181718.150000", "181718.610000", "181719.070000", "181719.530000", "181719.990000", "181720.450000", "181720.910000", "181721.370000", "181721.830000", "181722.290000", "181722.750000", "181723.210000", "181723.670000", "181724.130000", "181724.590000", "181725.050000", "181725.510000", "181725.970000", "181726.430000", "181726.890000", "181727.350000", "181727.810000", "181728.270000", "181728.730000", "181729.190000", "181729.650000", "181730.110000", "181730.570000", "181731.030000", "181731.490000", "181731.950000", "181732.410000", "181732.870000", "181733.330000", "181733.790000", "181734.250000", "181734.710000", "181735.170000", "181735.630000", "181736.090000", "181736.550000", "181737.010000", "181737.470000", "181737.930000", "181738.390000", "181738.850000", "181739.310000", "181739.770000", "181740.230000", "181740.690000", "181741.150000", "181741.610000", "181742.070000", "181742.530000", "181742.990000", "181743.450000", "181743.910000", "181744.370000", "181744.830000", "181745.290000", "181745.750000", "181746.210000", "181746.670000", "181747.130000", "181747.590000", "181748.050000", "181748.510000", "181748.970000", "181749.430000", "181749.890000", "181750.350000", "181750.810000", "181751.270000", "181751.730000", "181752.190000", "181752.650000", "181753.110000", "181753.570000", "181754.030000", "181754.490000", "181754.950000", "181755.410000", "181755.870000", "181756.330000", "181756.790000", "181757.250000", "181757.710000", "181758.170000", "181758.630000", "181759.090000", "181759.550000", "181800.010000", "181800.470000", "181800.930000", "181801.390000", "181801.850000", "181802.310000", "181802.770000", "181803.230000", "181803.690000", "181804.150000", "181804.610000", "181805.070000", "181805.530000", "181805.990000", "181806.450000", "181806.910000", "181807.370000", "181807.830000", "181808.290000", "181808.750000", "181809.210000", "181809.670000", "181810.130000", "181810.590000", "181811.050000", "181811.510000", "181811.970000", "181812.430000", "181812.890000", "181813.350000", "181813.810000", "181814.270000", "181814.730000", "181815.190000", "181815.650000", "181816.110000", "181816.570000", "181817.030000", "181817.490000", "181817.950000", "181818.410000", "181818.870000", "181819.330000", "181819.790000", "181820.250000", "181820.710000", "181821.170000", "181821.630000", "181822.090000"],
