{
  "AcquisitionMatrixPE": 82,
  "AcquisitionNumber": 1,
  "AcquisitionTime": "20:52:25.352500",
  "BandwidthPerPixelPhaseEncode": 24.888,
  "BaseResolution": 82,
  "BodyPartExamined": "BRAIN",
  "ConsistencyInfo": "N4_VE11E_LATEST_20181129",
  "ConversionSoftware": "dcm2niix",
  "ConversionSoftwareVersion": "v1.0.20201102",
  "DerivedVendorReportedEchoSpacing": 0.00049,
  "DeviceSerialNumber": "66112",
  "DwellTime": 2e-06,
  "EchoTime": 0.0272,
  "EchoTrainLength": 82,
  "EffectiveEchoSpacing": 0.00049,
  "FlipAngle": 44,
  "ImageComments": "Unaliased MB8/PE3",
  "ImageOrientationPatientDICOM": [0.999684, 0.00482283, 0.0246748, -0.00348958, 0.998546, -0.0537933],
  "ImageType": [
    "ORIGINAL",
    "PRIMARY",
    "M",
    "MB",
    "ND",
    "NORM",
    "MOSAIC"
],
  "ImagingFrequency": 123.252,
  "InPlanePhaseEncodingDirectionDICOM": "COL",
  "InstitutionAddress": "Maynard 3,Hanover,NH,US,03755",
  "InstitutionName": "Dartmouth College - PBS",
  "InstitutionalDepartmentName": "Department",
  "MRAcquisitionType": "2D",
  "MagneticFieldStrength": 3,
  "Manufacturer": "Siemens",
  "ManufacturersModelName": "Prisma",
  "Modality": "MR",
  "MultibandAccelerationFactor": 8,
  "PartialFourier": 1,
  "PatientPosition": "HFS",
  "PercentPhaseFOV": 100,
  "PercentSampling": 100,
  "PhaseEncodingDirection": "j-",
  "PhaseEncodingSteps": 82,
  "PhaseResolution": 1,
  "PixelBandwidth": 3050,
  "ProcedureStepDescription": "Wager_Wager^1076_spacetop",
  "ProtocolName": "func_run-01_task-alignvideo_acq-ap-mb8",
  "PulseSequenceDetails": "%CustomerSeq%\\cmrr_mbep2d_bold",
  "ReceiveCoilActiveElements": "HEA;HEP",
  "ReceiveCoilName": "Head_32",
  "ReconMatrixPE": 82,
  "RepetitionTime": 0.46,
  "SAR": 0.0826527,
  "ScanOptions": "FS",
  "ScanningSequence": "EP",
  "SequenceName": "epfid2d1_82",
  "SequenceVariant": "SK\\SS",
  "SeriesDescription": "func_run-01_task-alignvideo_acq-ap-mb8",
  "SeriesNumber": 28,
  "ShimSetting": [4155, -7767, -7306, 809, -13, -432, 378, 56],
  "SliceThickness": 2.7,
  "SliceTiming": [0, 0.25, 0.0625, 0.3125, 0.125, 0.3775, 0.1875, 0, 0.25, 0.0625, 0.3125, 0.125, 0.3775, 0.1875, 0, 0.25, 0.0625, 0.3125, 0.125, 0.3775, 0.1875, 0, 0.25, 0.0625, 0.3125, 0.125, 0.3775, 0.1875, 0, 0.25, 0.0625, 0.3125, 0.125, 0.3775, 0.1875, 0, 0.25, 0.0625, 0.3125, 0.125, 0.3775, 0.1875, 0, 0.25, 0.0625, 0.3125, 0.125, 0.3775, 0.1875, 0, 0.25, 0.0625, 0.3125, 0.125, 0.3775, 0.1875],
  "SoftwareVersions": "syngo MR E11",
  "SpacingBetweenSlices": 2.7,
  "StationName": "AWP66112",
  "TaskName": "alignvideo",
  "TotalReadoutTime": 0.03969,
  "TxRefAmp": 236.368,
  "WipMemBlock": "e4958245-d9af-4c01-bdec-724be58cf642||Sequence: R016 ve11e/master r/434b28f1; Aug  7 2019 18:53:46 by eja",
  "dcmmeta_affine": [
    [-2.6820788383483887, -0.009362297132611275, 0.0672256276011467, 108.21160888671875],
    [-0.01293930783867836, 2.679025888442993, -0.14496350288391113, -92.27322387695312],
    [0.06620074063539505, 0.14432348310947418, 2.69526743888855, -90.72724151611328],
    [0.0, 0.0, 0.0, 1.0]
],
  "dcmmeta_reorient_transform": [
    [0.0, -1.0, 0.0, 81.0],
    [1.0, 0.0, 0.0, 0.0],
    [0.0, 0.0, 1.0, 0.0],
    [0.0, 0.0, 0.0, 1.0]
],
  "dcmmeta_shape": [82, 82, 56, 839],
  "dcmmeta_slice_dim": 2,
  "dcmmeta_version": 0.6,
  "global": {
    "const": {
      "AccessionNumber": "A003982",
      "AcquisitionMatrix": [82, 0, 0, 82],
      "AngioFlag": "N",
      "BitsAllocated": 16,
      "BitsStored": 16,
      "BodyPartExamined": "BRAIN",
      "Columns": 656,
      "EchoNumbers": 1,
      "EchoTime": 27.2,
      "EchoTrainLength": 82,
      "FlipAngle": 44.0,
      "HighBit": 15,
      "ImageOrientationPatient": [0.99968389676907, 0.00482283265368, 0.02467482169756, -0.003489583302, 0.9985459949699, -0.0537932964034],
      "ImagePositionPatient": [-874.52290515112, -897.32188916495, -56.615815805614],
      "ImageType": [
        "ORIGINAL",
        "PRIMARY",
        "M",
        "MB",
        "ND",
        "NORM",
        "MOSAIC"
],
      "ImagedNucleus": "1H",
      "ImagingFrequency": 123.252231,
      "InPlanePhaseEncodingDirection": "COL",
      "MRAcquisitionType": "2D",
      "MagneticFieldStrength": 3.0,
      "Manufacturer": "SIEMENS",
      "ManufacturerModelName": "Prisma",
      "Modality": "MR",
      "NumberOfAverages": 1.0,
      "NumberOfPhaseEncodingSteps": 82,
      "PercentPhaseFieldOfView": 100.0,
      "PercentSampling": 100.0,
      "PerformedProcedureStepStartTime": "193745.650000",
      "PhotometricInterpretation": "MONOCHROME2",
      "PixelBandwidth": 3050.0,
      "PixelRepresentation": 0,
      "PixelSpacing": [2.6829268932343, 2.6829268932343],
      "ProtocolName": "func_run-01_task-alignvideo_acq-ap-mb8",
      "RepetitionTime": 460.0,
      "Rows": 656,
      "SAR": 0.08265272248106,
      "SamplesPerPixel": 1,
      "ScanOptions": "FS",
      "ScanningSequence": "EP",
      "SequenceName": "epfid2d1_82",
      "SequenceVariant": [
        "SK",
        "SS"
],
      "SeriesDescription": "func_run-01_task-alignvideo_acq-ap-mb8",
      "SeriesNumber": 28,
      "SeriesTime": "205253.586000",
      "SliceLocation": -82.919754843956,
      "SliceThickness": 2.7000000476837,
      "SmallestImagePixelValue": 0,
      "SoftwareVersions": "syngo MR E11",
      "SpacingBetweenSlices": 2.7000000284108,
      "SpecificCharacterSet": "ISO_IR 100",
      "StudyID": "2",
      "StudyTime": "193745.605000",
      "TransmitCoilName": "Body",
      "VariableFlipAngleFlag": "N",
      "WindowCenterWidthExplanation": "Algo1"
    },
    "slices": {}
  },
  "time": {
    "samples": {
      "AcquisitionNumber": [1, 2, 3, 4, 5, 6, 7, 8, 9, 10, 11, 12, 13, 14, 15, 16, 17, 18, 19, 20, 21, 22, 23, 24, 25, 26, 27, 28, 29, 30, 31, 32, 33, 34, 35, 36, 37, 38, 39, 40, 41, 42, 43, 44, 45, 46, 47, 48, 49, 50, 51, 52, 53, 54, 55, 56, 57, 58, 59, 60, 61, 62, 63, 64, 65, 66, 67, 68, 69, 70, 71, 72, 73, 74, 75, 76, 77, 78, 79, 80, 81, 82, 83, 84, 85, 86, 87, 88, 89, 90, 91, 92, 93, 94, 95, 96, 97, 98, 99, 100, 101, 102, 103, 104, 105, 106, 107, 108, 109, 110, 111, 112, 113, 114, 115, 116, 117, 118, 119, 120, 121, 122, 123, 124, 125, 126, 127, 128, 129, 130, 131, 132, 133, 134, 135, 136, 137, 138, 139, 140, 141, 142, 143, 144, 145, 146, 147, 148, 149, 150, 151, 152, 153, 154, 155, 156, 157, 158, 159, 160, 161, 162, 163, 164, 165, 166, 167, 168, 169, 170, 171, 172, 173, 174, 175, 176, 177, 178, 179, 180, 181, 182, 183, 184, 185, 186, 187, 188, 189, 190, 191, 192, 193, 194, 195, 196, 197, 198, 199, 200, 201, 202, 203, 204, 205, 206, 207, 208, 209, 210, 211, 212, 213, 214, 215, 216, 217, 218, 219, 220, 221, 222, 223, 224, 225, 226, 227, 228, 229, 230, 231, 232, 233, 234, 235, 236, 237, 238, 239, 240, 241, 242, 243, 244, 245, 246, 247, 248, 249, 250, 251, 252, 253, 254, 255, 256, 257, 258, 259, 260, 261, 262, 263, 264, 265, 266, 267, 268, 269, 270, 271, 272, 273, 274, 275, 276, 277, 278, 279, 280, 281, 282, 283, 284, 285, 286, 287, 288, 289, 290, 291, 292, 293, 294, 295, 296, 297, 298, 299, 300, 301, 302, 303, 304, 305, 306, 307, 308, 309, 310, 311, 312, 313, 314, 315, 316, 317, 318, 319, 320, 321, 322, 323, 324, 325, 326, 327, 328, 329, 330, 331, 332, 333, 334, 335, 336, 337, 338, 339, 340, 341, 342, 343, 344, 345, 346, 347, 348, 349, 350, 351, 352, 353, 354, 355, 356, 357, 358, 359, 360, 361, 362, 363, 364, 365, 366, 367, 368, 369, 370, 371, 372, 373, 374, 375, 376, 377, 378, 379, 380, 381, 382, 383, 384, 385, 386, 387, 388, 389, 390, 391, 392, 393, 394, 395, 396, 397, 398, 399, 400, 401, 402, 403, 404, 405, 406, 407, 408, 409, 410, 411, 412, 413, 414, 415, 416, 417, 418, 419, 420, 421, 422, 423, 424, 425, 426, 427, 428, 429, 430, 431, 432, 433, 434, 435, 436, 437, 438, 439, 440, 441, 442, 443, 444, 445, 446, 447, 448, 449, 450, 451, 452, 453, 454, 455, 456, 457, 458, 459, 460, 461, 462, 463, 464, 465, 466, 467, 468, 469, 470, 471, 472, 473, 474, 475, 476, 477, 478, 479, 480, 481, 482, 483, 484, 485, 486, 487, 488, 489, 490, 491, 492, 493, 494, 495, 496, 497, 498, 499, 500, 501, 502, 503, 504, 505, 506, 507, 508, 509, 510, 511, 512, 513, 514, 515, 516, 517, 518, 519, 520, 521, 522, 523, 524, 525, 526, 527, 528, 529, 530, 531, 532, 533, 534, 535, 536, 537, 538, 539, 540, 541, 542, 543, 544, 545, 546, 547, 548, 549, 550, 551, 552, 553, 554, 555, 556, 557, 558, 559, 560, 561, 562, 563, 564, 565, 566, 567, 568, 569, 570, 571, 572, 573, 574, 575, 576, 577, 578, 579, 580, 581, 582, 583, 584, 585, 586, 587, 588, 589, 590, 591, 592, 593, 594, 595, 596, 597, 598, 599, 600, 601, 602, 603, 604, 605, 606, 607, 608, 609, 610, 611, 612, 613, 614, 615, 616, 617, 618, 619, 620, 621, 622, 623, 624, 625, 626, 627, 628, 629, 630, 631, 632, 633, 634, 635, 636, 637, 638, 639, 640, 641, 642, 643, 644, 645, 646, 647, 648, 649, 650, 651, 652, 653, 654, 655, 656, 657, 658, 659, 660, 661, 662, 663, 664, 665, 666, 667, 668, 669, 670, 671, 672, 673, 674, 675, 676, 677, 678, 679, 680, 681, 682, 683, 684, 685, 686, 687, 688, 689, 690, 691, 692, 693, 694, 695, 696, 697, 698, 699, 700, 701, 702, 703, 704, 705, 706, 707, 708, 709, 710, 711, 712, 713, 714, 715, 716, 717, 718, 719, 720, 721, 722, 723, 724, 725, 726, 727, 728, 729, 730, 731, 732, 733, 734, 735, 736, 737, 738, 739, 740, 741, 742, 743, 744, 745, 746, 747, 748, 749, 750, 751, 752, 753, 754, 755, 756, 757, 758, 759, 760, 761, 762, 763, 764, 765, 766, 767, 768, 769, 770, 771, 772, 773, 774, 775, 776, 777, 778, 779, 780, 781, 782, 783, 784, 785, 786, 787, 788, 789, 790, 791, 792, 793, 794, 795, 796, 797, 798, 799, 800, 801, 802, 803, 804, 805, 806, 807, 808, 809, 810, 811, 812, 813, 814, 815, 816, 817, 818, 819, 820, 821, 822, 823, 824, 825, 826, 827, 828, 829, 830, 831, 832, 833, 834, 835, 836, 837, 838, 839],
      "AcquisitionTime": ["205225.352500", "205225.812500", "205226.272500", "205226.732500", "205227.192500", "205227.652500", "205228.112500", "205228.572500", "205229.032500", "205229.492500", "205229.952500", "205230.412500", "205230.872500", "205231.332500", "205231.792500", "205232.252500", "205232.712500", "205233.172500", "205233.632500", "205234.092500", "205234.552500", "205235.012500", "205235.472500", "205235.932500", "205236.392500", "205236.852500", "205237.312500", "205237.772500", "205238.232500", "205238.692500", "205239.152500", "205239.612500", "205240.072500", "205240.532500", "205240.992500", "205241.452500", "205241.912500", "205242.372500", "205242.832500", "205243.292500", "205243.752500", "205244.212500", "205244.672500", "205245.132500", "205245.592500", "205246.052500", "205246.512500", "205246.972500", "205247.432500", "205247.892500", "205248.352500", "205248.812500", "205249.272500", "205249.732500", "205250.192500", "205250.652500", "205251.112500", "205251.572500", "205252.032500", "205252.492500", "205252.952500", "205253.412500", "205253.872500", "205254.332500", "205254.792500", "205255.252500", "205255.712500", "205256.172500", "205256.632500", "205257.092500", "205257.552500", "205258.012500", "205258.472500", "205258.932500", "205259.392500", "205259.852500", "205300.312500", "205300.772500", "205301.232500", "205301.692500", "205302.152500", "205302.612500", "205303.072500", "205303.532500", "205303.992500", "205304.452500", "205304.912500", "205305.372500", "205305.832500", "205306.292500", "205306.752500", "205307.212500", "205307.672500", "205308.132500", "205308.592500", "205309.052500", "205309.512500", "205309.972500", "205310.432500", "205310.892500", "205311.352500", "205311.812500", "205312.272500", "205312.732500", "205313.192500", "205313.652500", "205314.112500", "205314.572500", "205315.032500", "205315.492500", "205315.952500", "205316.412500", "205316.872500", "205317.332500", "205317.792500", "205318.252500", "205318.712500", "205319.172500", "205319.632500", "205320.092500", "205320.552500", "205321.012500", "205321.472500", "205321.932500", "205322.392500", "205322.852500", "205323.312500", "205323.772500", "205324.232500", "205324.692500", "205325.152500", "205325.612500", "205326.072500", "205326.532500", "205326.992500", "205327.452500", "205327.912500", "205328.372500", "205328.832500", "205329.292500", "205329.752500", "205330.212500", "205330.672500", "205331.132500", "205331.592500", "205332.052500", "205332.512500", "205332.972500", "205333.432500", "205333.892500", "205334.352500", "205334.812500", "205335.272500", "205335.732500", "205336.192500", "205336.652500", "205337.112500", "205337.572500", "205338.032500", "205338.492500", "205338.952500", "205339.412500", "205339.872500", "205340.332500", "205340.792500", "205341.252500", "205341.712500", "205342.172500", "205342.632500", "205343.092500", "205343.552500", "205344.012500", "205344.472500", "205344.932500", "205345.392500", "205345.852500", "205346.312500", "205346.772500", "205347.232500", "205347.692500", "205348.152500", "205348.612500", "205349.072500", "205349.532500", "205349.992500", "205350.452500", "205350.912500", "205351.372500", "205351.832500", "205352.292500", "205352.752500", "205353.212500", "205353.672500", "205354.132500", "205354.592500", "205355.052500", "205355.512500", "205355.972500", "205356.432500", "205356.892500", "205357.352500", "205357.812500", "205358.272500", "205358.732500", "205359.192500", "205359.652500", "205400.112500", "205400.572500", "205401.032500", "205401.492500", "205401.952500", "205402.412500", "205402.872500", "205403.332500", "205403.792500", "205404.252500", "205404.712500", "205405.172500", "205405.632500", "205406.092500", "205406.552500", "205407.012500", "205407.472500", "205407.932500", "205408.392500", "205408.852500", "205409.312500", "205409.772500", "205410.232500", "205410.692500", "205411.152500", "205411.612500", "205412.072500", "205412.532500", "205412.992500", "205413.452500", "205413.912500", "205414.372500", "205414.832500", "205415.292500", "205415.752500", "205416.212500", "205416.672500", "205417.132500", "205417.592500", "205418.052500", "205418.512500", "205418.972500", "205419.432500", "205419.892500", "205420.352500", "205420.812500", "205421.272500", "205421.732500", "205422.192500", "205422.652500", "205423.112500", "205423.572500", "205424.032500", "205424.492500", "205424.952500", "205425.412500", "205425.872500", "205426.332500", "205426.792500", "205427.252500", "205427.712500", "205428.172500", "205428.632500", "205429.092500", "205429.552500", "205430.012500", "205430.472500", "205430.932500", "205431.392500", "205431.852500", "205432.312500", "205432.772500", "205433.232500", "205433.692500", "205434.152500", "205434.612500", "205435.072500", "205435.532500", "205435.992500", "205436.452500", "205436.912500", "205437.372500", "205437.832500", "205438.292500", "205438.752500", "205439.212500", "205439.672500", "205440.132500", "205440.592500", "205441.052500", "205441.512500", "205441.972500", "205442.432500", "205442.892500", "205443.352500", "205443.812500", "205444.272500", "205444.732500", "205445.192500", "205445.652500", "205446.112500", "205446.572500", "205447.032500", "205447.492500", "205447.952500", "205448.412500", "205448.872500", "205449.332500", "205449.792500", "205450.252500", "205450.712500", "205451.172500", "205451.632500", "205452.092500", "205452.552500", "205453.012500", "205453.472500", "205453.932500", "205454.392500", "205454.852500", "205455.312500", "205455.772500", "205456.232500", "205456.692500", "205457.152500", "205457.612500", "205458.072500", "205458.532500", "205458.992500", "205459.452500", "205459.912500", "205500.372500", "205500.832500", "205501.292500", "205501.752500", "205502.212500", "205502.672500", "205503.132500", "205503.592500", "205504.052500", "205504.512500", "205504.972500", "205505.432500", "205505.892500", "205506.352500", "205506.812500", "205507.272500", "205507.732500", "205508.192500", "205508.652500", "205509.112500", "205509.572500", "205510.032500", "205510.492500", "205510.952500", "205511.412500", "205511.872500", "205512.332500", "205512.792500", "205513.252500", "205513.712500", "205514.172500", "205514.632500", "205515.092500", "205515.552500", "205516.012500", "205516.472500", "205516.932500", "205517.392500", "205517.852500", "205518.312500", "205518.772500", "205519.232500", "205519.692500", "205520.152500", "205520.612500", "205521.072500", "205521.532500", "205521.992500", "205522.452500", "205522.912500", "205523.372500", "205523.832500", "205524.292500", "205524.752500", "205525.212500", "205525.672500", "205526.132500", "205526.592500", "205527.052500", "205527.512500", "205527.972500", "205528.432500", "205528.892500", "205529.352500", "205529.812500", "205530.272500", "205530.732500", "205531.192500", "205531.652500", "205532.112500", "205532.572500", "205533.032500", "205533.492500", "205533.952500", "205534.412500", "205534.872500", "205535.332500", "205535.792500", "205536.252500", "205536.712500", "205537.172500", "205537.632500", "205538.092500", "205538.552500", "205539.012500", "205539.472500", "205539.932500", "205540.392500", "205540.852500", "205541.312500", "205541.772500", "205542.232500", "205542.692500", "205543.152500", "205543.612500", "205544.072500", "205544.532500", "205544.992500", "205545.452500", "205545.912500", "205546.372500", "205546.832500", "205547.292500", "205547.752500", "205548.212500", "205548.672500", "205549.132500", "205549.592500", "205550.052500", "205550.512500", "205550.972500", "205551.432500", "205551.892500", "205552.352500", "205552.812500", "205553.272500", "205553.732500", "205554.192500", "205554.652500", "205555.112500", "205555.572500", "205556.032500", "205556.492500", "205556.952500", "205557.412500", "205557.872500", "205558.332500", "205558.792500", "205559.252500", "205559.712500", "205600.172500", "205600.632500", "205601.092500", "205601.552500", "205602.012500", "205602.472500", "205602.932500", "205603.392500", "205603.852500", "205604.312500", "205604.772500", "205605.232500", "205605.692500", "205606.152500", "205606.612500", "205607.072500", "205607.532500", "205607.992500", "205608.452500", "205608.912500", "205609.372500", "205609.832500", "205610.292500", "205610.752500", "205611.212500", "205611.672500", "205612.132500", "205612.592500", "205613.052500", "205613.512500", "205613.972500", "205614.432500", "205614.892500", "205615.352500", "205615.812500", "205616.272500", "205616.732500", "205617.192500", "205617.652500", "205618.112500", "205618.572500", "205619.032500", "205619.492500", "205619.952500", "205620.412500", "205620.872500", "205621.332500", "205621.792500", "205622.252500", "205622.712500", "205623.172500", "205623.632500", "205624.092500", "205624.552500", "205625.012500", "205625.472500", "205625.932500", "205626.392500", "205626.852500", "205627.312500", "205627.772500", "205628.232500", "205628.692500", "205629.152500", "205629.612500", "205630.072500", "205630.532500", "205630.992500", "205631.452500", "205631.912500", "205632.372500", "205632.832500", "205633.292500", "205633.752500", "205634.212500", "205634.672500", "205635.132500", "205635.592500", "205636.052500", "205636.512500", "205636.972500", "205637.432500", "205637.892500", "205638.352500", "205638.812500", "205639.272500", "205639.732500", "205640.192500", "205640.652500", "205641.112500", "205641.572500", "205642.032500", "205642.492500", "205642.952500", "205643.412500", "205643.872500", "205644.332500", "205644.792500", "205645.252500", "205645.712500", "205646.172500", "205646.632500", "205647.092500", "205647.552500", "205648.012500", "205648.472500", "205648.932500", "205649.392500", "205649.852500", "205650.312500", "205650.772500", "205651.232500", "205651.692500", "205652.152500", "205652.612500", "205653.072500", "205653.532500", "205653.992500", "205654.452500", "205654.912500", "205655.372500", "205655.832500", "205656.292500", "205656.752500", "205657.212500", "205657.672500", "205658.132500", "205658.592500", "205659.052500", "205659.512500", "205659.972500", "205700.432500", "205700.892500", "205701.352500", "205701.812500", "205702.272500", "205702.732500", "205703.192500", "205703.652500", "205704.112500", "205704.572500", "205705.032500", "205705.492500", "205705.952500", "205706.412500", "205706.872500", "205707.332500", "205707.792500", "205708.252500", "205708.712500", "205709.172500", "205709.632500", "205710.092500", "205710.552500", "205711.012500", "205711.472500", "205711.932500", "205712.392500", "205712.852500", "205713.312500", "205713.772500", "205714.232500", "205714.692500", "205715.152500", "205715.612500", "205716.072500", "205716.532500", "205716.992500", "205717.452500", "205717.912500", "205718.372500", "205718.832500", "205719.292500", "205719.752500", "205720.212500", "205720.672500", "205721.132500", "205721.592500", "205722.052500", "205722.512500", "205722.972500", "205723.432500", "205723.892500", "205724.352500", "205724.812500", "205725.272500", "205725.732500", "205726.192500", "205726.652500", "205727.112500", "205727.572500", "205728.032500", "205728.492500", "205728.952500", "205729.412500", "205729.872500", "205730.332500", "205730.792500", "205731.252500", "205731.712500", "205732.172500", "205732.632500", "205733.092500", "205733.552500", "205734.012500", "205734.472500", "205734.932500", "205735.392500", "205735.852500", "205736.312500", "205736.772500", "205737.232500", "205737.692500", "205738.152500", "205738.612500", "205739.072500", "205739.532500", "205739.992500", "205740.452500", "205740.912500", "205741.372500", "205741.832500", "205742.292500", "205742.752500", "205743.212500", "205743.672500", "205744.132500", "205744.592500", "205745.052500", "205745.512500", "205745.972500", "205746.432500", "205746.892500", "205747.352500", "205747.812500", "205748.272500", "205748.732500", "205749.192500", "205749.652500", "205750.112500", "205750.572500", "205751.032500", "205751.492500", "205751.952500", "205752.412500", "205752.872500", "205753.332500", "205753.792500", "205754.252500", "205754.712500", "205755.172500", "205755.632500", "205756.092500", "205756.552500", "205757.012500", "205757.472500", "205757.932500", "205758.392500", "205758.852500", "205759.312500", "205759.772500", "205800.232500", "205800.692500", "205801.152500", "205801.612500", "205802.072500", "205802.532500", "205802.992500", "205803.452500", "205803.912500", "205804.372500", "205804.832500", "205805.292500", "205805.752500", "205806.212500", "205806.672500", "205807.132500", "205807.592500", "205808.052500", "205808.512500", "205808.972500", "205809.432500", "205809.892500", "205810.352500", "205810.812500", "205811.272500", "205811.732500", "205812.192500", "205812.652500", "205813.112500", "205813.572500", "205814.032500", "205814.492500", "205814.952500", "205815.412500", "205815.872500", "205816.332500", "205816.792500", "205817.252500", "205817.712500", "205818.172500", "205818.632500", "205819.092500", "205819.552500", "205820.012500", "205820.472500", "205820.932500", "205821.392500", "205821.852500", "205822.312500", "205822.772500", "205823.232500", "205823.692500", "205824.152500", "205824.612500", "205825.072500", "205825.532500", "205825.992500", "205826.452500", "205826.912500", "205827.372500", "205827.832500", "205828.292500", "205828.752500", "205829.212500", "205829.672500", "205830.132500", "205830.592500", "205831.052500", "205831.512500", "205831.972500", "205832.432500", "205832.892500", "205833.352500", "205833.812500", "205834.272500", "205834.732500", "205835.192500", "205835.652500", "205836.112500", "205836.572500", "205837.032500", "205837.492500", "205837.952500", "205838.412500", "205838.872500", "205839.332500", "205839.792500", "205840.252500", "205840.712500", "205841.172500", "205841.632500", "205842.092500", "205842.552500", "205843.012500", "205843.472500", "205843.932500", "205844.392500", "205844.852500", "205845.312500", "205845.772500", "205846.232500", "205846.692500", "205847.152500", "205847.612500", "205848.072500", "205848.532500", "205848.992500", "205849.452500", "205849.912500", "205850.372500", "205850.832500"],
