{
  "AcquisitionMatrixPE": 82,
  "AcquisitionNumber": 1,
  "AcquisitionTime": "20:27:39.550000",
  "BandwidthPerPixelPhaseEncode": 24.888,
  "BaseResolution": 82,
  "BodyPartExamined": "BRAIN",
  "ConsistencyInfo": "N4_VE11E_LATEST_20181129",
  "ConversionSoftware": "dcm2niix",
  "ConversionSoftwareVersion": "v1.0.20201102",
  "DerivedVendorReportedEchoSpacing": 0.00049,
  "DeviceSerialNumber": "66112",
  "DwellTime": 2e-06,
  "EchoTime": 0.0272,
  "EchoTrainLength": 82,
  "EffectiveEchoSpacing": 0.00049,
  "FlipAngle": 44,
  "ImageComments": "Unaliased MB8/PE3",
  "ImageOrientationPatientDICOM": [0.999595, -0.00894238, 0.0270255, 0.0104682, 0.998328, -0.0568541],
  "ImageType": [
    "ORIGINAL",
    "PRIMARY",
    "M",
    "MB",
    "ND",
    "NORM",
    "MOSAIC"
],
  "ImagingFrequency": 123.252,
  "InPlanePhaseEncodingDirectionDICOM": "COL",
  "InstitutionAddress": "Maynard 3,Hanover,NH,US,03755",
  "InstitutionName": "Dartmouth College - PBS",
  "InstitutionalDepartmentName": "Department",
  "MRAcquisitionType": "2D",
  "MagneticFieldStrength": 3,
  "Manufacturer": "Siemens",
  "ManufacturersModelName": "Prisma",
  "Modality": "MR",
  "MultibandAccelerationFactor": 8,
  "PartialFourier": 1,
  "PatientPosition": "HFS",
  "PercentPhaseFOV": 100,
  "PercentSampling": 100,
  "PhaseEncodingDirection": "j-",
  "PhaseEncodingSteps": 82,
  "PhaseResolution": 1,
  "PixelBandwidth": 3050,
  "ProcedureStepDescription": "Wager_Wager^1076_spacetop",
  "ProtocolName": "func_run-01_task-faces_acq-ap-mb8",
  "PulseSequenceDetails": "%CustomerSeq%\\cmrr_mbep2d_bold",
  "ReceiveCoilActiveElements": "HEA;HEP",
  "ReceiveCoilName": "Head_32",
  "ReconMatrixPE": 82,
  "RepetitionTime": 0.46,
  "SAR": 0.0826965,
  "ScanOptions": "FS",
  "ScanningSequence": "EP",
  "SequenceName": "epfid2d1_82",
  "SequenceVariant": "SK\\SS",
  "SeriesDescription": "func_run-01_task-faces_acq-ap-mb8",
  "SeriesNumber": 16,
  "ShimSetting": [4155, -7768, -7306, 799, -8, -431, 384, 57],
  "SliceThickness": 2.7,
  "SliceTiming": [0, 0.25, 0.0625, 0.3125, 0.125, 0.3775, 0.1875, 0, 0.25, 0.0625, 0.3125, 0.125, 0.3775, 0.1875, 0, 0.25, 0.0625, 0.3125, 0.125, 0.3775, 0.1875, 0, 0.25, 0.0625, 0.3125, 0.125, 0.3775, 0.1875, 0, 0.25, 0.0625, 0.3125, 0.125, 0.3775, 0.1875, 0, 0.25, 0.0625, 0.3125, 0.125, 0.3775, 0.1875, 0, 0.25, 0.0625, 0.3125, 0.125, 0.3775, 0.1875, 0, 0.25, 0.0625, 0.3125, 0.125, 0.3775, 0.1875],
  "SoftwareVersions": "syngo MR E11",
  "SpacingBetweenSlices": 2.7,
  "StationName": "AWP66112",
  "TaskName": "faces",
  "TotalReadoutTime": 0.03969,
  "TxRefAmp": 236.368,
  "WipMemBlock": "f98e41c4-50bb-4524-a438-45e6755de16e||Sequence: R016 ve11e/master r/434b28f1; Aug  7 2019 18:53:46 by eja",
  "dcmmeta_affine": [
    [-2.68183970451355, 0.028085362166166306, 0.07147406041622162, 107.3887710571289],
    [0.023991763591766357, 2.6784400939941406, -0.15420764684677124, -92.28240966796875],
    [0.07250738888978958, 0.1525353193283081, 2.6946449279785156, -88.88072967529297],
    [0.0, 0.0, 0.0, 1.0]
],
  "dcmmeta_reorient_transform": [
    [0.0, -1.0, 0.0, 81.0],
    [1.0, 0.0, 0.0, 0.0],
    [0.0, 0.0, 1.0, 0.0],
    [0.0, 0.0, 0.0, 1.0]
],
  "dcmmeta_shape": [82, 82, 56, 914],
  "dcmmeta_slice_dim": 2,
  "dcmmeta_version": 0.6,
  "global": {
    "const": {
      "AccessionNumber": "A003982",
      "AcquisitionMatrix": [82, 0, 0, 82],
      "AngioFlag": "N",
      "BitsAllocated": 16,
      "BitsStored": 16,
      "BodyPartExamined": "BRAIN",
      "Columns": 656,
      "EchoNumbers": 1,
      "EchoTime": 27.2,
      "EchoTrainLength": 82,
      "FlipAngle": 44.0,
      "HighBit": 15,
      "ImageOrientationPatient": [0.99959474643303, -0.0089423841618, 0.02702548184566, 0.01046818009663, 0.99832761728146, -0.0568540744239],
      "ImagePositionPatient": [-887.41215792208, -886.49788069312, -53.557348830633],
      "ImageType": [
        "ORIGINAL",
        "PRIMARY",
        "M",
        "MB",
        "ND",
        "NORM",
        "MOSAIC"
],
      "ImagedNucleus": "1H",
      "ImagingFrequency": 123.252229,
      "InPlanePhaseEncodingDirection": "COL",
      "MRAcquisitionType": "2D",
      "MagneticFieldStrength": 3.0,
      "Manufacturer": "SIEMENS",
      "ManufacturerModelName": "Prisma",
      "Modality": "MR",
      "NumberOfAverages": 1.0,
      "NumberOfPhaseEncodingSteps": 82,
      "PercentPhaseFieldOfView": 100.0,
      "PercentSampling": 100.0,
      "PerformedProcedureStepStartTime": "193745.650000",
      "PhotometricInterpretation": "MONOCHROME2",
      "PixelBandwidth": 3050.0,
      "PixelRepresentation": 0,
      "PixelSpacing": [2.6829268932343, 2.6829268932343],
      "ProtocolName": "func_run-01_task-faces_acq-ap-mb8",
      "RepetitionTime": 460.0,
      "Rows": 656,
      "SAR": 0.08269647899899,
      "SamplesPerPixel": 1,
      "ScanOptions": "FS",
      "ScanningSequence": "EP",
      "SequenceName": "epfid2d1_82",
      "SequenceVariant": [
        "SK",
        "SS"
],
      "SeriesDescription": "func_run-01_task-faces_acq-ap-mb8",
      "SeriesNumber": 16,
      "SeriesTime": "202753.583000",
      "SliceLocation": -80.591051496821,
      "SliceThickness": 2.7000000476837,
      "SmallestImagePixelValue": 0,
      "SoftwareVersions": "syngo MR E11",
      "SpacingBetweenSlices": 2.700000037329,
      "SpecificCharacterSet": "ISO_IR 100",
      "StudyID": "2",
      "StudyTime": "193745.605000",
      "TransmitCoilName": "Body",
      "VariableFlipAngleFlag": "N",
      "WindowCenterWidthExplanation": "Algo1"
    },
    "slices": {}
  },
  "time": {
    "samples": {
      "AcquisitionNumber": [1, 2, 3, 4, 5, 6, 7, 8, 9, 10, 11, 12, 13, 14, 15, 16, 17, 18, 19, 20, 21, 22, 23, 24, 25, 26, 27, 28, 29, 30, 31, 32, 33, 34, 35, 36, 37, 38, 39, 40, 41, 42, 43, 44, 45, 46, 47, 48, 49, 50, 51, 52, 53, 54, 55, 56, 57, 58, 59, 60, 61, 62, 63, 64, 65, 66, 67, 68, 69, 70, 71, 72, 73, 74, 75, 76, 77, 78, 79, 80, 81, 82, 83, 84, 85, 86, 87, 88, 89, 90, 91, 92, 93, 94, 95, 96, 97, 98, 99, 100, 101, 102, 103, 104, 105, 106, 107, 108, 109, 110, 111, 112, 113, 114, 115, 116, 117, 118, 119, 120, 121, 122, 123, 124, 125, 126, 127, 128, 129, 130, 131, 132, 133, 134, 135, 136, 137, 138, 139, 140, 141, 142, 143, 144, 145, 146, 147, 148, 149, 150, 151, 152, 153, 154, 155, 156, 157, 158, 159, 160, 161, 162, 163, 164, 165, 166, 167, 168, 169, 170, 171, 172, 173, 174, 175, 176, 177, 178, 179, 180, 181, 182, 183, 184, 185, 186, 187, 188, 189, 190, 191, 192, 193, 194, 195, 196, 197, 198, 199, 200, 201, 202, 203, 204, 205, 206, 207, 208, 209, 210, 211, 212, 213, 214, 215, 216, 217, 218, 219, 220, 221, 222, 223, 224, 225, 226, 227, 228, 229, 230, 231, 232, 233, 234, 235, 236, 237, 238, 239, 240, 241, 242, 243, 244, 245, 246, 247, 248, 249, 250, 251, 252, 253, 254, 255, 256, 257, 258, 259, 260, 261, 262, 263, 264, 265, 266, 267, 268, 269, 270, 271, 272, 273, 274, 275, 276, 277, 278, 279, 280, 281, 282, 283, 284, 285, 286, 287, 288, 289, 290, 291, 292, 293, 294, 295, 296, 297, 298, 299, 300, 301, 302, 303, 304, 305, 306, 307, 308, 309, 310, 311, 312, 313, 314, 315, 316, 317, 318, 319, 320, 321, 322, 323, 324, 325, 326, 327, 328, 329, 330, 331, 332, 333, 334, 335, 336, 337, 338, 339, 340, 341, 342, 343, 344, 345, 346, 347, 348, 349, 350, 351, 352, 353, 354, 355, 356, 357, 358, 359, 360, 361, 362, 363, 364, 365, 366, 367, 368, 369, 370, 371, 372, 373, 374, 375, 376, 377, 378, 379, 380, 381, 382, 383, 384, 385, 386, 387, 388, 389, 390, 391, 392, 393, 394, 395, 396, 397, 398, 399, 400, 401, 402, 403, 404, 405, 406, 407, 408, 409, 410, 411, 412, 413, 414, 415, 416, 417, 418, 419, 420, 421, 422, 423, 424, 425, 426, 427, 428, 429, 430, 431, 432, 433, 434, 435, 436, 437, 438, 439, 440, 441, 442, 443, 444, 445, 446, 447, 448, 449, 450, 451, 452, 453, 454, 455, 456, 457, 458, 459, 460, 461, 462, 463, 464, 465, 466, 467, 468, 469, 470, 471, 472, 473, 474, 475, 476, 477, 478, 479, 480, 481, 482, 483, 484, 485, 486, 487, 488, 489, 490, 491, 492, 493, 494, 495, 496, 497, 498, 499, 500, 501, 502, 503, 504, 505, 506, 507, 508, 509, 510, 511, 512, 513, 514, 515, 516, 517, 518, 519, 520, 521, 522, 523, 524, 525, 526, 527, 528, 529, 530, 531, 532, 533, 534, 535, 536, 537, 538, 539, 540, 541, 542, 543, 544, 545, 546, 547, 548, 549, 550, 551, 552, 553, 554, 555, 556, 557, 558, 559, 560, 561, 562, 563, 564, 565, 566, 567, 568, 569, 570, 571, 572, 573, 574, 575, 576, 577, 578, 579, 580, 581, 582, 583, 584, 585, 586, 587, 588, 589, 590, 591, 592, 593, 594, 595, 596, 597, 598, 599, 600, 601, 602, 603, 604, 605, 606, 607, 608, 609, 610, 611, 612, 613, 614, 615, 616, 617, 618, 619, 620, 621, 622, 623, 624, 625, 626, 627, 628, 629, 630, 631, 632, 633, 634, 635, 636, 637, 638, 639, 640, 641, 642, 643, 644, 645, 646, 647, 648, 649, 650, 651, 652, 653, 654, 655, 656, 657, 658, 659, 660, 661, 662, 663, 664, 665, 666, 667, 668, 669, 670, 671, 672, 673, 674, 675, 676, 677, 678, 679, 680, 681, 682, 683, 684, 685, 686, 687, 688, 689, 690, 691, 692, 693, 694, 695, 696, 697, 698, 699, 700, 701, 702, 703, 704, 705, 706, 707, 708, 709, 710, 711, 712, 713, 714, 715, 716, 717, 718, 719, 720, 721, 722, 723, 724, 725, 726, 727, 728, 729, 730, 731, 732, 733, 734, 735, 736, 737, 738, 739, 740, 741, 742, 743, 744, 745, 746, 747, 748, 749, 750, 751, 752, 753, 754, 755, 756, 757, 758, 759, 760, 761, 762, 763, 764, 765, 766, 767, 768, 769, 770, 771, 772, 773, 774, 775, 776, 777, 778, 779, 780, 781, 782, 783, 784, 785, 786, 787, 788, 789, 790, 791, 792, 793, 794, 795, 796, 797, 798, 799, 800, 801, 802, 803, 804, 805, 806, 807, 808, 809, 810, 811, 812, 813, 814, 815, 816, 817, 818, 819, 820, 821, 822, 823, 824, 825, 826, 827, 828, 829, 830, 831, 832, 833, 834, 835, 836, 837, 838, 839, 840, 841, 842, 843, 844, 845, 846, 847, 848, 849, 850, 851, 852, 853, 854, 855, 856, 857, 858, 859, 860, 861, 862, 863, 864, 865, 866, 867, 868, 869, 870, 871, 872, 873, 874, 875, 876, 877, 878, 879, 880, 881, 882, 883, 884, 885, 886, 887, 888, 889, 890, 891, 892, 893, 894, 895, 896, 897, 898, 899, 900, 901, 902, 903, 904, 905, 906, 907, 908, 909, 910, 911, 912, 913, 914],
      "AcquisitionTime": ["202739.550000", "202740.010000", "202740.470000", "202740.930000", "202741.390000", "202741.850000", "202742.310000", "202742.770000", "202743.230000", "202743.690000", "202744.150000", "202744.610000", "202745.070000", "202745.530000", "202745.990000", "202746.450000", "202746.910000", "202747.370000", "202747.830000", "202748.290000", "202748.750000", "202749.210000", "202749.670000", "202750.130000", "202750.590000", "202751.050000", "202751.510000", "202751.970000", "202752.430000", "202752.890000", "202753.350000", "202753.810000", "202754.270000", "202754.730000", "202755.190000", "202755.650000", "202756.110000", "202756.570000", "202757.030000", "202757.490000", "202757.950000", "202758.410000", "202758.870000", "202759.330000", "202759.790000", "202800.250000", "202800.710000", "202801.170000", "202801.630000", "202802.090000", "202802.550000", "202803.010000", "202803.470000", "202803.930000", "202804.390000", "202804.850000", "202805.310000", "202805.770000", "202806.230000", "202806.690000", "202807.150000", "202807.610000", "202808.070000", "202808.530000", "202808.990000", "202809.450000", "202809.910000", "202810.370000", "202810.830000", "202811.290000", "202811.750000", "202812.210000", "202812.670000", "202813.130000", "202813.590000", "202814.050000", "202814.510000", "202814.970000", "202815.430000", "202815.890000", "202816.350000", "202816.810000", "202817.270000", "202817.730000", "202818.190000", "202818.650000", "202819.110000", "202819.570000", "202820.030000", "202820.490000", "202820.950000", "202821.410000", "202821.870000", "202822.330000", "202822.790000", "202823.250000", "202823.710000", "202824.170000", "202824.630000", "202825.090000", "202825.550000", "202826.010000", "202826.470000", "202826.930000", "202827.390000", "202827.850000", "202828.310000", "202828.770000", "202829.230000", "202829.690000", "202830.150000", "202830.610000", "202831.070000", "202831.530000", "202831.990000", "202832.450000", "202832.910000", "202833.370000", "202833.830000", "202834.290000", "202834.750000", "202835.210000", "202835.670000", "202836.130000", "202836.590000", "202837.050000", "202837.510000", "202837.970000", "202838.430000", "202838.890000", "202839.350000", "202839.810000", "202840.270000", "202840.730000", "202841.190000", "202841.650000", "202842.110000", "202842.570000", "202843.030000", "202843.490000", "202843.950000", "202844.410000", "202844.870000", "202845.330000", "202845.790000", "202846.250000", "202846.710000", "202847.170000", "202847.630000", "202848.090000", "202848.550000", "202849.010000", "202849.470000", "202849.930000", "202850.390000", "202850.850000", "202851.310000", "202851.770000", "202852.230000", "202852.690000", "202853.150000", "202853.610000", "202854.070000", "202854.530000", "202854.990000", "202855.450000", "202855.910000", "202856.370000", "202856.830000", "202857.290000", "202857.750000", "202858.210000", "202858.670000", "202859.130000", "202859.590000", "202900.050000", "202900.510000", "202900.970000", "202901.430000", "202901.890000", "202902.350000", "202902.810000", "202903.270000", "202903.730000", "202904.190000", "202904.650000", "202905.110000", "202905.570000", "202906.030000", "202906.490000", "202906.950000", "202907.410000", "202907.870000", "202908.330000", "202908.790000", "202909.250000", "202909.710000", "202910.170000", "202910.630000", "202911.090000", "202911.550000", "202912.010000", "202912.470000", "202912.930000", "202913.390000", "202913.850000", "202914.310000", "202914.770000", "202915.230000", "202915.690000", "202916.150000", "202916.610000", "202917.070000", "202917.530000", "202917.990000", "202918.450000", "202918.910000", "202919.370000", "202919.830000", "202920.290000", "202920.750000", "202921.210000", "202921.670000", "202922.130000", "202922.590000", "202923.050000", "202923.510000", "202923.970000", "202924.430000", "202924.890000", "202925.350000", "202925.810000", "202926.270000", "202926.730000", "202927.190000", "202927.650000", "202928.110000", "202928.570000", "202929.030000", "202929.490000", "202929.950000", "202930.410000", "202930.870000", "202931.330000", "202931.790000", "202932.250000", "202932.710000", "202933.170000", "202933.630000", "202934.090000", "202934.550000", "202935.010000", "202935.470000", "202935.930000", "202936.390000", "202936.850000", "202937.310000", "202937.770000", "202938.230000", "202938.690000", "202939.150000", "202939.610000", "202940.070000", "202940.530000", "202940.990000", "202941.450000", "202941.910000", "202942.370000", "202942.830000", "202943.290000", "202943.750000", "202944.210000", "202944.670000", "202945.130000", "202945.590000", "202946.050000", "202946.510000", "202946.970000", "202947.430000", "202947.890000", "202948.350000", "202948.810000", "202949.270000", "202949.730000", "202950.190000", "202950.650000", "202951.110000", "202951.570000", "202952.030000", "202952.490000", "202952.950000", "202953.410000", "202953.870000", "202954.330000", "202954.790000", "202955.250000", "202955.710000", "202956.170000", "202956.630000", "202957.090000", "202957.550000", "202958.010000", "202958.470000", "202958.930000", "202959.390000", "202959.850000", "203000.310000", "203000.770000", "203001.230000", "203001.690000", "203002.150000", "203002.610000", "203003.070000", "203003.530000", "203003.990000", "203004.450000", "203004.910000", "203005.370000", "203005.830000", "203006.290000", "203006.750000", "203007.210000", "203007.670000", "203008.130000", "203008.590000", "203009.050000", "203009.510000", "203009.970000", "203010.430000", "203010.890000", "203011.350000", "203011.810000", "203012.270000", "203012.730000", "203013.190000", "203013.650000", "203014.110000", "203014.570000", "203015.030000", "203015.490000", "203015.950000", "203016.410000", "203016.870000", "203017.330000", "203017.790000", "203018.250000", "203018.710000", "203019.170000", "203019.630000", "203020.090000", "203020.550000", "203021.010000", "203021.470000", "203021.930000", "203022.390000", "203022.850000", "203023.310000", "203023.770000", "203024.230000", "203024.690000", "203025.150000", "203025.610000", "203026.070000", "203026.530000", "203026.990000", "203027.450000", "203027.910000", "203028.370000", "203028.830000", "203029.290000", "203029.750000", "203030.210000", "203030.670000", "203031.130000", "203031.590000", "203032.050000", "203032.510000", "203032.970000", "203033.430000", "203033.890000", "203034.350000", "203034.810000", "203035.270000", "203035.730000", "203036.190000", "203036.650000", "203037.110000", "203037.570000", "203038.030000", "203038.490000", "203038.950000", "203039.410000", "203039.870000", "203040.330000", "203040.790000", "203041.250000", "203041.710000", "203042.170000", "203042.630000", "203043.090000", "203043.550000", "203044.010000", "203044.470000", "203044.930000", "203045.390000", "203045.850000", "203046.310000", "203046.770000", "203047.230000", "203047.690000", "203048.150000", "203048.610000", "203049.070000", "203049.530000", "203049.990000", "203050.450000", "203050.910000", "203051.370000", "203051.830000", "203052.290000", "203052.750000", "203053.210000", "203053.670000", "203054.130000", "203054.590000", "203055.050000", "203055.510000", "203055.970000", "203056.430000", "203056.890000", "203057.350000", "203057.810000", "203058.270000", "203058.730000", "203059.190000", "203059.650000", "203100.110000", "203100.570000", "203101.030000", "203101.490000", "203101.950000", "203102.410000", "203102.870000", "203103.330000", "203103.790000", "203104.250000", "203104.710000", "203105.170000", "203105.630000", "203106.090000", "203106.550000", "203107.010000", "203107.470000", "203107.930000", "203108.390000", "203108.850000", "203109.310000", "203109.770000", "203110.230000", "203110.690000", "203111.150000", "203111.610000", "203112.070000", "203112.530000", "203112.990000", "203113.450000", "203113.910000", "203114.370000", "203114.830000", "203115.290000", "203115.750000", "203116.210000", "203116.670000", "203117.130000", "203117.590000", "203118.050000", "203118.510000", "203118.970000", "203119.430000", "203119.890000", "203120.350000", "203120.810000", "203121.270000", "203121.730000", "203122.190000", "203122.650000", "203123.110000", "203123.570000", "203124.030000", "203124.490000", "203124.950000", "203125.410000", "203125.870000", "203126.330000", "203126.790000", "203127.250000", "203127.710000", "203128.170000", "203128.630000", "203129.090000", "203129.550000", "203130.010000", "203130.470000", "203130.930000", "203131.390000", "203131.850000", "203132.310000", "203132.770000", "203133.230000", "203133.690000", "203134.150000", "203134.610000", "203135.070000", "203135.530000", "203135.990000", "203136.450000", "203136.910000", "203137.370000", "203137.830000", "203138.290000", "203138.750000", "203139.210000", "203139.670000", "203140.130000", "203140.590000", "203141.050000", "203141.510000", "203141.970000", "203142.430000", "203142.890000", "203143.350000", "203143.810000", "203144.270000", "203144.730000", "203145.190000", "203145.650000", "203146.110000", "203146.570000", "203147.030000", "203147.490000", "203147.950000", "203148.410000", "203148.870000", "203149.330000", "203149.790000", "203150.250000", "203150.710000", "203151.170000", "203151.630000", "203152.090000", "203152.550000", "203153.010000", "203153.470000", "203153.930000", "203154.390000", "203154.850000", "203155.310000", "203155.770000", "203156.230000", "203156.690000", "203157.150000", "203157.610000", "203158.070000", "203158.530000", "203158.990000", "203159.450000", "203159.910000", "203200.370000", "203200.830000", "203201.290000", "203201.750000", "203202.210000", "203202.670000", "203203.130000", "203203.590000", "203204.050000", "203204.510000", "203204.970000", "203205.430000", "203205.890000", "203206.350000", "203206.810000", "203207.270000", "203207.730000", "203208.190000", "203208.650000", "203209.110000", "203209.570000", "203210.030000", "203210.490000", "203210.950000", "203211.410000", "203211.870000", "203212.330000", "203212.790000", "203213.250000", "203213.710000", "203214.170000", "203214.630000", "203215.090000", "203215.550000", "203216.010000", "203216.470000", "203216.930000", "203217.390000", "203217.850000", "203218.310000", "203218.770000", "203219.230000", "203219.690000", "203220.150000", "203220.610000", "203221.070000", "203221.530000", "203221.990000", "203222.450000", "203222.910000", "203223.370000", "203223.830000", "203224.290000", "203224.750000", "203225.210000", "203225.670000", "203226.130000", "203226.590000", "203227.050000", "203227.510000", "203227.970000", "203228.430000", "203228.890000", "203229.350000", "203229.810000", "203230.270000", "203230.730000", "203231.190000", "203231.650000", "203232.110000", "203232.570000", "203233.030000", "203233.490000", "203233.950000", "203234.410000", "203234.870000", "203235.330000", "203235.790000", "203236.250000", "203236.710000", "203237.170000", "203237.630000", "203238.090000", "203238.550000", "203239.010000", "203239.470000", "203239.930000", "203240.390000", "203240.850000", "203241.310000", "203241.770000", "203242.230000", "203242.690000", "203243.150000", "203243.610000", "203244.070000", "203244.530000", "203244.990000", "203245.450000", "203245.910000", "203246.370000", "203246.830000", "203247.290000", "203247.750000", "203248.210000", "203248.670000", "203249.130000", "203249.590000", "203250.050000", "203250.510000", "203250.970000", "203251.430000", "203251.890000", "203252.350000", "203252.810000", "203253.270000", "203253.730000", "203254.190000", "203254.650000", "203255.110000", "203255.570000", "203256.030000", "203256.490000", "203256.950000", "203257.410000", "203257.870000", "203258.330000", "203258.790000", "203259.250000", "203259.710000", "203300.170000", "203300.630000", "203301.090000", "203301.550000", "203302.010000", "203302.470000", "203302.930000", "203303.390000", "203303.850000", "203304.310000", "203304.770000", "203305.230000", "203305.690000", "203306.150000", "203306.610000", "203307.070000", "203307.530000", "203307.990000", "203308.450000", "203308.910000", "203309.370000", "203309.830000", "203310.290000", "203310.750000", "203311.210000", "203311.670000", "203312.130000", "203312.590000", "203313.050000", "203313.510000", "203313.970000", "203314.430000", "203314.890000", "203315.350000", "203315.810000", "203316.270000", "203316.730000", "203317.190000", "203317.650000", "203318.110000", "203318.570000", "203319.030000", "203319.490000", "203319.950000", "203320.410000", "203320.870000", "203321.330000", "203321.790000", "203322.250000", "203322.710000", "203323.170000", "203323.630000", "203324.090000", "203324.550000", "203325.010000", "203325.470000", "203325.930000", "203326.390000", "203326.850000", "203327.310000", "203327.770000", "203328.230000", "203328.690000", "203329.150000", "203329.610000", "203330.070000", "203330.530000", "203330.990000", "203331.450000", "203331.910000", "203332.370000", "203332.830000", "203333.290000", "203333.750000", "203334.210000", "203334.670000", "203335.130000", "203335.590000", "203336.050000", "203336.510000", "203336.970000", "203337.430000", "203337.890000", "203338.350000", "203338.810000", "203339.270000", "203339.730000", "203340.190000", "203340.650000", "203341.110000", "203341.570000", "203342.030000", "203342.490000", "203342.950000", "203343.410000", "203343.870000", "203344.330000", "203344.790000", "203345.250000", "203345.710000", "203346.170000", "203346.630000", "203347.090000", "203347.550000", "203348.010000", "203348.470000", "203348.930000", "203349.390000", "203349.850000", "203350.310000", "203350.770000", "203351.230000", "203351.690000", "203352.150000", "203352.610000", "203353.070000", "203353.530000", "203353.990000", "203354.450000", "203354.910000", "203355.370000", "203355.830000", "203356.290000", "203356.750000", "203357.210000", "203357.670000", "203358.130000", "203358.590000", "203359.050000", "203359.510000", "203359.970000", "203400.430000", "203400.890000", "203401.350000", "203401.810000", "203402.270000", "203402.730000", "203403.190000", "203403.650000", "203404.110000", "203404.570000", "203405.030000", "203405.490000", "203405.950000", "203406.410000", "203406.870000", "203407.330000", "203407.790000", "203408.250000", "203408.710000", "203409.170000", "203409.630000", "203410.090000", "203410.550000", "203411.010000", "203411.470000", "203411.930000", "203412.390000", "203412.850000", "203413.310000", "203413.770000", "203414.230000", "203414.690000", "203415.150000", "203415.610000", "203416.070000", "203416.530000", "203416.990000", "203417.450000", "203417.910000", "203418.370000", "203418.830000", "203419.290000", "203419.750000", "203420.210000", "203420.670000", "203421.130000", "203421.590000", "203422.050000", "203422.510000", "203422.970000", "203423.430000", "203423.890000", "203424.350000", "203424.810000", "203425.270000", "203425.730000", "203426.190000", "203426.650000", "203427.110000", "203427.570000", "203428.030000", "203428.490000", "203428.950000", "203429.410000", "203429.870000", "203430.330000", "203430.790000", "203431.250000", "203431.710000", "203432.170000", "203432.630000", "203433.090000", "203433.550000", "203434.010000", "203434.470000", "203434.930000", "203435.390000", "203435.850000", "203436.310000", "203436.770000", "203437.230000", "203437.690000", "203438.150000", "203438.610000", "203439.070000", "203439.530000"],
