{
  "AcquisitionMatrixPE": 82,
  "AcquisitionNumber": 1,
  "AcquisitionTime": "19:50:48.742500",
  "BandwidthPerPixelPhaseEncode": 24.888,
  "BaseResolution": 82,
  "BodyPartExamined": "BRAIN",
  "ConsistencyInfo": "N4_VE11E_LATEST_20181129",
  "ConversionSoftware": "dcm2niix",
  "ConversionSoftwareVersion": "v1.0.20201102",
  "DerivedVendorReportedEchoSpacing": 0.00049,
  "DeviceSerialNumber": "66112",
  "DwellTime": 2e-06,
  "EchoTime": 0.0272,
  "EchoTrainLength": 82,
  "EffectiveEchoSpacing": 0.00049,
  "FlipAngle": 44,
  "ImageComments": "Unaliased MB8/PE3",
  "ImageOrientationPatientDICOM": [0.999595, -0.00894238, 0.0270255, 0.0104682, 0.998328, -0.0568541],
  "ImageType": [
    "ORIGINAL",
    "PRIMARY",
    "M",
    "MB",
    "ND",
    "NORM",
    "MOSAIC"
],
  "ImagingFrequency": 123.252,
  "InPlanePhaseEncodingDirectionDICOM": "COL",
  "InstitutionAddress": "Maynard 3,Hanover,NH,US,03755",
  "InstitutionName": "Dartmouth College - PBS",
  "InstitutionalDepartmentName": "Department",
  "MRAcquisitionType": "2D",
  "MagneticFieldStrength": 3,
  "Manufacturer": "Siemens",
  "ManufacturersModelName": "Prisma",
  "Modality": "MR",
  "MultibandAccelerationFactor": 8,
  "PartialFourier": 1,
  "PatientPosition": "HFS",
  "PercentPhaseFOV": 100,
  "PercentSampling": 100,
  "PhaseEncodingDirection": "j-",
  "PhaseEncodingSteps": 82,
  "PhaseResolution": 1,
  "PixelBandwidth": 3050,
  "ProcedureStepDescription": "Wager_Wager^1076_spacetop",
  "ProtocolName": "func_run-01_task-narratives_acq-ap-mb8",
  "PulseSequenceDetails": "%CustomerSeq%\\cmrr_mbep2d_bold",
  "ReceiveCoilActiveElements": "HEA;HEP",
  "ReceiveCoilName": "Head_32",
  "ReconMatrixPE": 82,
  "RepetitionTime": 0.46,
  "SAR": 0.0827234,
  "ScanOptions": "FS",
  "ScanningSequence": "EP",
  "SequenceName": "epfid2d1_82",
  "SequenceVariant": "SK\\SS",
  "SeriesDescription": "func_run-01_task-narratives_acq-ap-mb8",
  "SeriesNumber": 8,
  "ShimSetting": [4155, -7768, -7306, 799, -8, -431, 384, 57],
  "SliceThickness": 2.7,
  "SliceTiming": [0, 0.2525, 0.0625, 0.315, 0.125, 0.3775, 0.1875, 0, 0.2525, 0.0625, 0.315, 0.125, 0.3775, 0.1875, 0, 0.2525, 0.0625, 0.315, 0.125, 0.3775, 0.1875, 0, 0.2525, 0.0625, 0.315, 0.125, 0.3775, 0.1875, 0, 0.2525, 0.0625, 0.315, 0.125, 0.3775, 0.1875, 0, 0.2525, 0.0625, 0.315, 0.125, 0.3775, 0.1875, 0, 0.2525, 0.0625, 0.315, 0.125, 0.3775, 0.1875, 0, 0.2525, 0.0625, 0.315, 0.125, 0.3775, 0.1875],
  "SoftwareVersions": "syngo MR E11",
  "SpacingBetweenSlices": 2.7,
  "StationName": "AWP66112",
  "TaskName": "narratives",
  "TotalReadoutTime": 0.03969,
  "TxRefAmp": 236.368,
  "WipMemBlock": "1be5662b-ad88-414f-8af6-2ca4d6c7130e||Sequence: R016 ve11e/master r/434b28f1; Aug  7 2019 18:53:46 by eja",
  "dcmmeta_affine": [
    [-2.68183970451355, 0.028085362166166306, 0.07147406041622162, 107.3887710571289],
    [0.023991763591766357, 2.6784400939941406, -0.15420764684677124, -92.28240966796875],
    [0.07250738888978958, 0.1525353193283081, 2.6946449279785156, -88.88072967529297],
    [0.0, 0.0, 0.0, 1.0]
],
  "dcmmeta_reorient_transform": [
    [0.0, -1.0, 0.0, 81.0],
    [1.0, 0.0, 0.0, 0.0],
    [0.0, 0.0, 1.0, 0.0],
    [0.0, 0.0, 0.0, 1.0]
],
  "dcmmeta_shape": [82, 82, 56, 967],
  "dcmmeta_slice_dim": 2,
  "dcmmeta_version": 0.6,
  "global": {
    "const": {
      "AccessionNumber": "A003982",
      "AcquisitionMatrix": [82, 0, 0, 82],
      "AngioFlag": "N",
      "BitsAllocated": 16,
      "BitsStored": 16,
      "BodyPartExamined": "BRAIN",
      "Columns": 656,
      "EchoNumbers": 1,
      "EchoTime": 27.2,
      "EchoTrainLength": 82,
      "FlipAngle": 44.0,
      "HighBit": 15,
      "ImageOrientationPatient": [0.99959474643303, -0.0089423841618, 0.02702548184566, 0.01046818009663, 0.99832761728146, -0.0568540744239],
      "ImagePositionPatient": [-887.41215792208, -886.49788069312, -53.557348830633],
      "ImageType": [
        "ORIGINAL",
        "PRIMARY",
        "M",
        "MB",
        "ND",
        "NORM",
        "MOSAIC"
],
      "ImagedNucleus": "1H",
      "ImagingFrequency": 123.252214,
      "InPlanePhaseEncodingDirection": "COL",
      "MRAcquisitionType": "2D",
      "MagneticFieldStrength": 3.0,
      "Manufacturer": "SIEMENS",
      "ManufacturerModelName": "Prisma",
      "Modality": "MR",
      "NumberOfAverages": 1.0,
      "NumberOfPhaseEncodingSteps": 82,
      "PercentPhaseFieldOfView": 100.0,
      "PercentSampling": 100.0,
      "PerformedProcedureStepStartTime": "193745.650000",
      "PhotometricInterpretation": "MONOCHROME2",
      "PixelBandwidth": 3050.0,
      "PixelRepresentation": 0,
      "PixelSpacing": [2.6829268932343, 2.6829268932343],
      "ProtocolName": "func_run-01_task-narratives_acq-ap-mb8",
      "RepetitionTime": 460.0,
      "Rows": 656,
      "SAR": 0.08272337016432,
      "SamplesPerPixel": 1,
      "ScanOptions": "FS",
      "ScanningSequence": "EP",
      "SequenceName": "epfid2d1_82",
      "SequenceVariant": [
        "SK",
        "SS"
],
      "SeriesDescription": "func_run-01_task-narratives_acq-ap-mb8",
      "SeriesNumber": 8,
      "SeriesTime": "195113.503000",
      "SliceLocation": -80.591051496821,
      "SliceThickness": 2.7000000476837,
      "SmallestImagePixelValue": 0,
      "SoftwareVersions": "syngo MR E11",
      "SpacingBetweenSlices": 2.700000037329,
      "SpecificCharacterSet": "ISO_IR 100",
      "StudyID": "2",
      "StudyTime": "193745.605000",
      "TransmitCoilName": "Body",
      "VariableFlipAngleFlag": "N",
      "WindowCenterWidthExplanation": "Algo1"
    },
    "slices": {}
  },
  "time": {
    "samples": {
      "AcquisitionNumber": [1, 2, 3, 4, 5, 6, 7, 8, 9, 10, 11, 12, 13, 14, 15, 16, 17, 18, 19, 20, 21, 22, 23, 24, 25, 26, 27, 28, 29, 30, 31, 32, 33, 34, 35, 36, 37, 38, 39, 40, 41, 42, 43, 44, 45, 46, 47, 48, 49, 50, 51, 52, 53, 54, 55, 56, 57, 58, 59, 60, 61, 62, 63, 64, 65, 66, 67, 68, 69, 70, 71, 72, 73, 74, 75, 76, 77, 78, 79, 80, 81, 82, 83, 84, 85, 86, 87, 88, 89, 90, 91, 92, 93, 94, 95, 96, 97, 98, 99, 100, 101, 102, 103, 104, 105, 106, 107, 108, 109, 110, 111, 112, 113, 114, 115, 116, 117, 118, 119, 120, 121, 122, 123, 124, 125, 126, 127, 128, 129, 130, 131, 132, 133, 134, 135, 136, 137, 138, 139, 140, 141, 142, 143, 144, 145, 146, 147, 148, 149, 150, 151, 152, 153, 154, 155, 156, 157, 158, 159, 160, 161, 162, 163, 164, 165, 166, 167, 168, 169, 170, 171, 172, 173, 174, 175, 176, 177, 178, 179, 180, 181, 182, 183, 184, 185, 186, 187, 188, 189, 190, 191, 192, 193, 194, 195, 196, 197, 198, 199, 200, 201, 202, 203, 204, 205, 206, 207, 208, 209, 210, 211, 212, 213, 214, 215, 216, 217, 218, 219, 220, 221, 222, 223, 224, 225, 226, 227, 228, 229, 230, 231, 232, 233, 234, 235, 236, 237, 238, 239, 240, 241, 242, 243, 244, 245, 246, 247, 248, 249, 250, 251, 252, 253, 254, 255, 256, 257, 258, 259, 260, 261, 262, 263, 264, 265, 266, 267, 268, 269, 270, 271, 272, 273, 274, 275, 276, 277, 278, 279, 280, 281, 282, 283, 284, 285, 286, 287, 288, 289, 290, 291, 292, 293, 294, 295, 296, 297, 298, 299, 300, 301, 302, 303, 304, 305, 306, 307, 308, 309, 310, 311, 312, 313, 314, 315, 316, 317, 318, 319, 320, 321, 322, 323, 324, 325, 326, 327, 328, 329, 330, 331, 332, 333, 334, 335, 336, 337, 338, 339, 340, 341, 342, 343, 344, 345, 346, 347, 348, 349, 350, 351, 352, 353, 354, 355, 356, 357, 358, 359, 360, 361, 362, 363, 364, 365, 366, 367, 368, 369, 370, 371, 372, 373, 374, 375, 376, 377, 378, 379, 380, 381, 382, 383, 384, 385, 386, 387, 388, 389, 390, 391, 392, 393, 394, 395, 396, 397, 398, 399, 400, 401, 402, 403, 404, 405, 406, 407, 408, 409, 410, 411, 412, 413, 414, 415, 416, 417, 418, 419, 420, 421, 422, 423, 424, 425, 426, 427, 428, 429, 430, 431, 432, 433, 434, 435, 436, 437, 438, 439, 440, 441, 442, 443, 444, 445, 446, 447, 448, 449, 450, 451, 452, 453, 454, 455, 456, 457, 458, 459, 460, 461, 462, 463, 464, 465, 466, 467, 468, 469, 470, 471, 472, 473, 474, 475, 476, 477, 478, 479, 480, 481, 482, 483, 484, 485, 486, 487, 488, 489, 490, 491, 492, 493, 494, 495, 496, 497, 498, 499, 500, 501, 502, 503, 504, 505, 506, 507, 508, 509, 510, 511, 512, 513, 514, 515, 516, 517, 518, 519, 520, 521, 522, 523, 524, 525, 526, 527, 528, 529, 530, 531, 532, 533, 534, 535, 536, 537, 538, 539, 540, 541, 542, 543, 544, 545, 546, 547, 548, 549, 550, 551, 552, 553, 554, 555, 556, 557, 558, 559, 560, 561, 562, 563, 564, 565, 566, 567, 568, 569, 570, 571, 572, 573, 574, 575, 576, 577, 578, 579, 580, 581, 582, 583, 584, 585, 586, 587, 588, 589, 590, 591, 592, 593, 594, 595, 596, 597, 598, 599, 600, 601, 602, 603, 604, 605, 606, 607, 608, 609, 610, 611, 612, 613, 614, 615, 616, 617, 618, 619, 620, 621, 622, 623, 624, 625, 626, 627, 628, 629, 630, 631, 632, 633, 634, 635, 636, 637, 638, 639, 640, 641, 642, 643, 644, 645, 646, 647, 648, 649, 650, 651, 652, 653, 654, 655, 656, 657, 658, 659, 660, 661, 662, 663, 664, 665, 666, 667, 668, 669, 670, 671, 672, 673, 674, 675, 676, 677, 678, 679, 680, 681, 682, 683, 684, 685, 686, 687, 688, 689, 690, 691, 692, 693, 694, 695, 696, 697, 698, 699, 700, 701, 702, 703, 704, 705, 706, 707, 708, 709, 710, 711, 712, 713, 714, 715, 716, 717, 718, 719, 720, 721, 722, 723, 724, 725, 726, 727, 728, 729, 730, 731, 732, 733, 734, 735, 736, 737, 738, 739, 740, 741, 742, 743, 744, 745, 746, 747, 748, 749, 750, 751, 752, 753, 754, 755, 756, 757, 758, 759, 760, 761, 762, 763, 764, 765, 766, 767, 768, 769, 770, 771, 772, 773, 774, 775, 776, 777, 778, 779, 780, 781, 782, 783, 784, 785, 786, 787, 788, 789, 790, 791, 792, 793, 794, 795, 796, 797, 798, 799, 800, 801, 802, 803, 804, 805, 806, 807, 808, 809, 810, 811, 812, 813, 814, 815, 816, 817, 818, 819, 820, 821, 822, 823, 824, 825, 826, 827, 828, 829, 830, 831, 832, 833, 834, 835, 836, 837, 838, 839, 840, 841, 842, 843, 844, 845, 846, 847, 848, 849, 850, 851, 852, 853, 854, 855, 856, 857, 858, 859, 860, 861, 862, 863, 864, 865, 866, 867, 868, 869, 870, 871, 872, 873, 874, 875, 876, 877, 878, 879, 880, 881, 882, 883, 884, 885, 886, 887, 888, 889, 890, 891, 892, 893, 894, 895, 896, 897, 898, 899, 900, 901, 902, 903, 904, 905, 906, 907, 908, 909, 910, 911, 912, 913, 914, 915, 916, 917, 918, 919, 920, 921, 922, 923, 924, 925, 926, 927, 928, 929, 930, 931, 932, 933, 934, 935, 936, 937, 938, 939, 940, 941, 942, 943, 944, 945, 946, 947, 948, 949, 950, 951, 952, 953, 954, 955, 956, 957, 958, 959, 960, 961, 962, 963, 964, 965, 966, 967],
      "AcquisitionTime": ["195048.742500", "195049.202500", "195049.662500", "195050.122500", "195050.582500", "195051.042500", "195051.502500", "195051.962500", "195052.422500", "195052.882500", "195053.342500", "195053.802500", "195054.262500", "195054.722500", "195055.182500", "195055.642500", "195056.102500", "195056.562500", "195057.022500", "195057.482500", "195057.942500", "195058.402500", "195058.862500", "195059.322500", "195059.782500", "195100.242500", "195100.702500", "195101.162500", "195101.622500", "195102.082500", "195102.542500", "195103.002500", "195103.462500", "195103.922500", "195104.382500", "195104.842500", "195105.302500", "195105.762500", "195106.222500", "195106.682500", "195107.142500", "195107.602500", "195108.062500", "195108.522500", "195108.982500", "195109.442500", "195109.902500", "195110.362500", "195110.822500", "195111.282500", "195111.742500", "195112.202500", "195112.662500", "195113.122500", "195113.582500", "195114.042500", "195114.502500", "195114.962500", "195115.422500", "195115.882500", "195116.342500", "195116.802500", "195117.262500", "195117.722500", "195118.182500", "195118.642500", "195119.102500", "195119.562500", "195120.022500", "195120.482500", "195120.942500", "195121.402500", "195121.862500", "195122.322500", "195122.782500", "195123.242500", "195123.702500", "195124.162500", "195124.622500", "195125.082500", "195125.542500", "195126.002500", "195126.462500", "195126.922500", "195127.382500", "195127.842500", "195128.302500", "195128.762500", "195129.222500", "195129.682500", "195130.142500", "195130.602500", "195131.062500", "195131.522500", "195131.982500", "195132.442500", "195132.902500", "195133.362500", "195133.822500", "195134.282500", "195134.742500", "195135.202500", "195135.662500", "195136.122500", "195136.582500", "195137.042500", "195137.502500", "195137.962500", "195138.422500", "195138.882500", "195139.342500", "195139.802500", "195140.262500", "195140.722500", "195141.182500", "195141.642500", "195142.102500", "195142.562500", "195143.022500", "195143.482500", "195143.942500", "195144.402500", "195144.862500", "195145.322500", "195145.782500", "195146.242500", "195146.702500", "195147.162500", "195147.622500", "195148.082500", "195148.542500", "195149.002500", "195149.462500", "195149.922500", "195150.382500", "195150.842500", "195151.302500", "195151.762500", "195152.222500", "195152.682500", "195153.142500", "195153.602500", "195154.062500", "195154.522500", "195154.982500", "195155.442500", "195155.902500", "195156.362500", "195156.822500", "195157.282500", "195157.742500", "195158.202500", "195158.662500", "195159.122500", "195159.582500", "195200.042500", "195200.502500", "195200.962500", "195201.422500", "195201.882500", "195202.342500", "195202.802500", "195203.262500", "195203.722500", "195204.182500", "195204.642500", "195205.102500", "195205.562500", "195206.022500", "195206.482500", "195206.942500", "195207.402500", "195207.862500", "195208.322500", "195208.782500", "195209.242500", "195209.702500", "195210.162500", "195210.622500", "195211.082500", "195211.542500", "195212.002500", "195212.462500", "195212.922500", "195213.382500", "195213.842500", "195214.302500", "195214.762500", "195215.222500", "195215.682500", "195216.142500", "195216.602500", "195217.062500", "195217.522500", "195217.982500", "195218.442500", "195218.902500", "195219.362500", "195219.822500", "195220.282500", "195220.742500", "195221.202500", "195221.662500", "195222.122500", "195222.582500", "195223.042500", "195223.502500", "195223.962500", "195224.422500", "195224.882500", "195225.342500", "195225.802500", "195226.262500", "195226.722500", "195227.182500", "195227.642500", "195228.102500", "195228.562500", "195229.022500", "195229.482500", "195229.942500", "195230.402500", "195230.862500", "195231.322500", "195231.782500", "195232.242500", "195232.702500", "195233.162500", "195233.622500", "195234.082500", "195234.542500", "195235.002500", "195235.462500", "195235.922500", "195236.382500", "195236.842500", "195237.302500", "195237.762500", "195238.222500", "195238.682500", "195239.142500", "195239.602500", "195240.062500", "195240.522500", "195240.982500", "195241.442500", "195241.902500", "195242.362500", "195242.822500", "195243.282500", "195243.742500", "195244.202500", "195244.662500", "195245.122500", "195245.582500", "195246.042500", "195246.502500", "195246.962500", "195247.422500", "195247.882500", "195248.342500", "195248.802500", "195249.262500", "195249.722500", "195250.182500", "195250.642500", "195251.102500", "195251.562500", "195252.022500", "195252.482500", "195252.942500", "195253.402500", "195253.862500", "195254.322500", "195254.782500", "195255.242500", "195255.702500", "195256.162500", "195256.622500", "195257.082500", "195257.542500", "195258.002500", "195258.462500", "195258.922500", "195259.382500", "195259.842500", "195300.302500", "195300.762500", "195301.222500", "195301.682500", "195302.142500", "195302.602500", "195303.062500", "195303.522500", "195303.982500", "195304.442500", "195304.902500", "195305.362500", "195305.822500", "195306.282500", "195306.742500", "195307.202500", "195307.662500", "195308.122500", "195308.582500", "195309.042500", "195309.502500", "195309.962500", "195310.422500", "195310.882500", "195311.342500", "195311.802500", "195312.262500", "195312.722500", "195313.182500", "195313.642500", "195314.102500", "195314.562500", "195315.022500", "195315.482500", "195315.942500", "195316.402500", "195316.862500", "195317.322500", "195317.782500", "195318.242500", "195318.702500", "195319.162500", "195319.622500", "195320.082500", "195320.542500", "195321.002500", "195321.462500", "195321.922500", "195322.382500", "195322.842500", "195323.302500", "195323.762500", "195324.222500", "195324.682500", "195325.142500", "195325.602500", "195326.062500", "195326.522500", "195326.982500", "195327.442500", "195327.902500", "195328.362500", "195328.822500", "195329.282500", "195329.742500", "195330.202500", "195330.662500", "195331.122500", "195331.582500", "195332.042500", "195332.502500", "195332.962500", "195333.422500", "195333.882500", "195334.342500", "195334.802500", "195335.262500", "195335.722500", "195336.182500", "195336.642500", "195337.102500", "195337.562500", "195338.022500", "195338.482500", "195338.942500", "195339.402500", "195339.862500", "195340.322500", "195340.782500", "195341.242500", "195341.702500", "195342.162500", "195342.622500", "195343.082500", "195343.542500", "195344.002500", "195344.462500", "195344.922500", "195345.382500", "195345.842500", "195346.302500", "195346.762500", "195347.222500", "195347.682500", "195348.142500", "195348.602500", "195349.062500", "195349.522500", "195349.982500", "195350.442500", "195350.902500", "195351.362500", "195351.822500", "195352.282500", "195352.742500", "195353.202500", "195353.662500", "195354.122500", "195354.582500", "195355.042500", "195355.502500", "195355.962500", "195356.422500", "195356.882500", "195357.342500", "195357.802500", "195358.262500", "195358.722500", "195359.182500", "195359.642500", "195400.102500", "195400.562500", "195401.022500", "195401.482500", "195401.942500", "195402.402500", "195402.862500", "195403.322500", "195403.782500", "195404.242500", "195404.702500", "195405.162500", "195405.622500", "195406.082500", "195406.542500", "195407.002500", "195407.462500", "195407.922500", "195408.382500", "195408.842500", "195409.302500", "195409.762500", "195410.222500", "195410.682500", "195411.142500", "195411.602500", "195412.062500", "195412.522500", "195412.982500", "195413.442500", "195413.902500", "195414.362500", "195414.822500", "195415.282500", "195415.742500", "195416.202500", "195416.662500", "195417.122500", "195417.582500", "195418.042500", "195418.502500", "195418.962500", "195419.422500", "195419.882500", "195420.342500", "195420.802500", "195421.262500", "195421.722500", "195422.182500", "195422.642500", "195423.102500", "195423.562500", "195424.022500", "195424.482500", "195424.942500", "195425.402500", "195425.862500", "195426.322500", "195426.782500", "195427.242500", "195427.702500", "195428.162500", "195428.622500", "195429.082500", "195429.542500", "195430.002500", "195430.462500", "195430.922500", "195431.382500", "195431.842500", "195432.302500", "195432.762500", "195433.222500", "195433.682500", "195434.142500", "195434.602500", "195435.062500", "195435.522500", "195435.982500", "195436.442500", "195436.902500", "195437.362500", "195437.822500", "195438.282500", "195438.742500", "195439.202500", "195439.662500", "195440.122500", "195440.582500", "195441.042500", "195441.502500", "195441.962500", "195442.422500", "195442.882500", "195443.342500", "195443.802500", "195444.262500", "195444.722500", "195445.182500", "195445.642500", "195446.102500", "195446.562500", "195447.022500", "195447.482500", "195447.942500", "195448.402500", "195448.862500", "195449.322500", "195449.782500", "195450.242500", "195450.702500", "195451.162500", "195451.622500", "195452.082500", "195452.542500", "195453.002500", "195453.462500", "195453.922500", "195454.382500", "195454.842500", "195455.302500", "195455.762500", "195456.222500", "195456.682500", "195457.142500", "195457.602500", "195458.062500", "195458.522500", "195458.982500", "195459.442500", "195459.902500", "195500.362500", "195500.822500", "195501.282500", "195501.742500", "195502.202500", "195502.662500", "195503.122500", "195503.582500", "195504.042500", "195504.502500", "195504.962500", "195505.422500", "195505.882500", "195506.342500", "195506.802500", "195507.262500", "195507.722500", "195508.182500", "195508.642500", "195509.102500", "195509.562500", "195510.022500", "195510.482500", "195510.942500", "195511.402500", "195511.862500", "195512.322500", "195512.782500", "195513.242500", "195513.702500", "195514.162500", "195514.622500", "195515.082500", "195515.542500", "195516.002500", "195516.462500", "195516.922500", "195517.382500", "195517.842500", "195518.302500", "195518.762500", "195519.222500", "195519.682500", "195520.142500", "195520.602500", "195521.062500", "195521.522500", "195521.982500", "195522.442500", "195522.902500", "195523.362500", "195523.822500", "195524.282500", "195524.742500", "195525.202500", "195525.662500", "195526.122500", "195526.582500", "195527.042500", "195527.502500", "195527.962500", "195528.422500", "195528.882500", "195529.342500", "195529.802500", "195530.262500", "195530.722500", "195531.182500", "195531.642500", "195532.102500", "195532.562500", "195533.022500", "195533.482500", "195533.942500", "195534.402500", "195534.862500", "195535.322500", "195535.782500", "195536.242500", "195536.702500", "195537.162500", "195537.622500", "195538.082500", "195538.542500", "195539.002500", "195539.462500", "195539.922500", "195540.382500", "195540.842500", "195541.302500", "195541.762500", "195542.222500", "195542.682500", "195543.142500", "195543.602500", "195544.062500", "195544.522500", "195544.982500", "195545.442500", "195545.902500", "195546.362500", "195546.822500", "195547.282500", "195547.742500", "195548.202500", "195548.662500", "195549.122500", "195549.582500", "195550.042500", "195550.502500", "195550.962500", "195551.422500", "195551.882500", "195552.342500", "195552.802500", "195553.262500", "195553.722500", "195554.182500", "195554.642500", "195555.102500", "195555.562500", "195556.022500", "195556.482500", "195556.942500", "195557.402500", "195557.862500", "195558.322500", "195558.782500", "195559.242500", "195559.702500", "195600.162500", "195600.622500", "195601.082500", "195601.542500", "195602.002500", "195602.462500", "195602.922500", "195603.382500", "195603.842500", "195604.302500", "195604.762500", "195605.222500", "195605.682500", "195606.142500", "195606.602500", "195607.062500", "195607.522500", "195607.982500", "195608.442500", "195608.902500", "195609.362500", "195609.822500", "195610.282500", "195610.742500", "195611.202500", "195611.662500", "195612.122500", "195612.582500", "195613.042500", "195613.502500", "195613.962500", "195614.422500", "195614.882500", "195615.342500", "195615.802500", "195616.262500", "195616.722500", "195617.182500", "195617.642500", "195618.102500", "195618.562500", "195619.022500", "195619.482500", "195619.942500", "195620.402500", "195620.862500", "195621.322500", "195621.782500", "195622.242500", "195622.702500", "195623.162500", "195623.622500", "195624.082500", "195624.542500", "195625.002500", "195625.462500", "195625.922500", "195626.382500", "195626.842500", "195627.302500", "195627.762500", "195628.222500", "195628.682500", "195629.142500", "195629.602500", "195630.062500", "195630.522500", "195630.982500", "195631.442500", "195631.902500", "195632.362500", "195632.822500", "195633.282500", "195633.742500", "195634.202500", "195634.662500", "195635.122500", "195635.582500", "195636.042500", "195636.502500", "195636.962500", "195637.422500", "195637.882500", "195638.342500", "195638.802500", "195639.262500", "195639.722500", "195640.182500", "195640.642500", "195641.102500", "195641.562500", "195642.022500", "195642.482500", "195642.942500", "195643.402500", "195643.862500", "195644.322500", "195644.782500", "195645.242500", "195645.702500", "195646.162500", "195646.622500", "195647.082500", "195647.542500", "195648.002500", "195648.462500", "195648.922500", "195649.382500", "195649.842500", "195650.302500", "195650.762500", "195651.222500", "195651.682500", "195652.142500", "195652.602500", "195653.062500", "195653.522500", "195653.982500", "195654.442500", "195654.902500", "195655.362500", "195655.822500", "195656.282500", "195656.742500", "195657.202500", "195657.662500", "195658.122500", "195658.582500", "195659.042500", "195659.502500", "195659.962500", "195700.422500", "195700.882500", "195701.342500", "195701.802500", "195702.262500", "195702.722500", "195703.182500", "195703.642500", "195704.102500", "195704.562500", "195705.022500", "195705.482500", "195705.942500", "195706.402500", "195706.862500", "195707.322500", "195707.782500", "195708.242500", "195708.702500", "195709.162500", "195709.622500", "195710.082500", "195710.542500", "195711.002500", "195711.462500", "195711.922500", "195712.382500", "195712.842500", "195713.302500", "195713.762500", "195714.222500", "195714.682500", "195715.142500", "195715.602500", "195716.062500", "195716.522500", "195716.982500", "195717.442500", "195717.902500", "195718.362500", "195718.822500", "195719.282500", "195719.742500", "195720.202500", "195720.662500", "195721.122500", "195721.582500", "195722.042500", "195722.502500", "195722.962500", "195723.422500", "195723.882500", "195724.342500", "195724.802500", "195725.262500", "195725.722500", "195726.182500", "195726.642500", "195727.102500", "195727.562500", "195728.022500", "195728.482500", "195728.942500", "195729.402500", "195729.862500", "195730.322500", "195730.782500", "195731.242500", "195731.702500", "195732.162500", "195732.622500", "195733.082500", "195733.542500", "195734.002500", "195734.462500", "195734.922500", "195735.382500", "195735.842500", "195736.302500", "195736.762500", "195737.222500", "195737.682500", "195738.142500", "195738.602500", "195739.062500", "195739.522500", "195739.982500", "195740.442500", "195740.902500", "195741.362500", "195741.822500", "195742.282500", "195742.742500", "195743.202500", "195743.662500", "195744.122500", "195744.582500", "195745.042500", "195745.502500", "195745.962500", "195746.422500", "195746.882500", "195747.342500", "195747.802500", "195748.262500", "195748.722500", "195749.182500", "195749.642500", "195750.102500", "195750.562500", "195751.022500", "195751.482500", "195751.942500", "195752.402500", "195752.862500", "195753.322500", "195753.782500", "195754.242500", "195754.702500", "195755.162500", "195755.622500", "195756.082500", "195756.542500", "195757.002500", "195757.462500", "195757.922500", "195758.382500", "195758.842500", "195759.302500", "195759.762500", "195800.222500", "195800.682500", "195801.142500", "195801.602500", "195802.062500", "195802.522500", "195802.982500", "195803.442500", "195803.902500", "195804.362500", "195804.822500", "195805.282500", "195805.742500", "195806.202500", "195806.662500", "195807.122500", "195807.582500", "195808.042500", "195808.502500", "195808.962500", "195809.422500", "195809.882500", "195810.342500", "195810.802500", "195811.262500", "195811.722500", "195812.182500", "195812.642500", "195813.102500"],
