{
  "AcquisitionMatrixPE": 82,
  "AcquisitionNumber": 1,
  "AcquisitionTime": "20:42:44.705000",
  "BandwidthPerPixelPhaseEncode": 24.888,
  "BaseResolution": 82,
  "BodyPartExamined": "BRAIN",
  "ConsistencyInfo": "N4_VE11E_LATEST_20181129",
  "ConversionSoftware": "dcm2niix",
  "ConversionSoftwareVersion": "v1.0.20201102",
  "DerivedVendorReportedEchoSpacing": 0.00049,
  "DeviceSerialNumber": "66112",
  "DwellTime": 2e-06,
  "EchoTime": 0.0272,
  "EchoTrainLength": 82,
  "EffectiveEchoSpacing": 0.00049,
  "FlipAngle": 44,
  "ImageComments": "Unaliased MB8/PE3",
  "ImageOrientationPatientDICOM": [0.999595, -0.00894238, 0.0270255, 0.0104682, 0.998328, -0.0568541],
  "ImageType": [
    "ORIGINAL",
    "PRIMARY",
    "M",
    "MB",
    "ND",
    "NORM",
    "MOSAIC"
],
  "ImagingFrequency": 123.252,
  "InPlanePhaseEncodingDirectionDICOM": "COL",
  "InstitutionAddress": "Maynard 3,Hanover,NH,US,03755",
  "InstitutionName": "Dartmouth College - PBS",
  "InstitutionalDepartmentName": "Department",
  "MRAcquisitionType": "2D",
  "MagneticFieldStrength": 3,
  "Manufacturer": "Siemens",
  "ManufacturersModelName": "Prisma",
  "Modality": "MR",
  "MultibandAccelerationFactor": 8,
  "PartialFourier": 1,
  "PatientPosition": "HFS",
  "PercentPhaseFOV": 100,
  "PercentSampling": 100,
  "PhaseEncodingDirection": "j-",
  "PhaseEncodingSteps": 82,
  "PhaseResolution": 1,
  "PixelBandwidth": 3050,
  "ProcedureStepDescription": "Wager_Wager^1076_spacetop",
  "ProtocolName": "func_run-03_task-faces_acq-ap-mb8",
  "PulseSequenceDetails": "%CustomerSeq%\\cmrr_mbep2d_bold",
  "ReceiveCoilActiveElements": "HEA;HEP",
  "ReceiveCoilName": "Head_32",
  "ReconMatrixPE": 82,
  "RepetitionTime": 0.46,
  "SAR": 0.0826965,
  "ScanOptions": "FS",
  "ScanningSequence": "EP",
  "SequenceName": "epfid2d1_82",
  "SequenceVariant": "SK\\SS",
  "SeriesDescription": "func_run-03_task-faces_acq-ap-mb8",
  "SeriesNumber": 20,
  "ShimSetting": [4155, -7768, -7306, 799, -8, -431, 384, 57],
  "SliceThickness": 2.7,
  "SliceTiming": [0, 0.2525, 0.0625, 0.315, 0.1275, 0.3775, 0.19, 0, 0.2525, 0.0625, 0.315, 0.1275, 0.3775, 0.19, 0, 0.2525, 0.0625, 0.315, 0.1275, 0.3775, 0.19, 0, 0.2525, 0.0625, 0.315, 0.1275, 0.3775, 0.19, 0, 0.2525, 0.0625, 0.315, 0.1275, 0.3775, 0.19, 0, 0.2525, 0.0625, 0.315, 0.1275, 0.3775, 0.19, 0, 0.2525, 0.0625, 0.315, 0.1275, 0.3775, 0.19, 0, 0.2525, 0.0625, 0.315, 0.1275, 0.3775, 0.19],
  "SoftwareVersions": "syngo MR E11",
  "SpacingBetweenSlices": 2.7,
  "StationName": "AWP66112",
  "TaskName": "faces",
  "TotalReadoutTime": 0.03969,
  "TxRefAmp": 236.368,
  "WipMemBlock": "50841d7e-f3a9-4806-8340-cc4a43e2c81d||Sequence: R016 ve11e/master r/434b28f1; Aug  7 2019 18:53:46 by eja",
  "dcmmeta_affine": [
    [-2.68183970451355, 0.028085362166166306, 0.07147406041622162, 107.3887710571289],
    [0.023991763591766357, 2.6784400939941406, -0.15420764684677124, -92.28240966796875],
    [0.07250738888978958, 0.1525353193283081, 2.6946449279785156, -88.88072967529297],
    [0.0, 0.0, 0.0, 1.0]
],
  "dcmmeta_reorient_transform": [
    [0.0, -1.0, 0.0, 81.0],
    [1.0, 0.0, 0.0, 0.0],
    [0.0, 0.0, 1.0, 0.0],
    [0.0, 0.0, 0.0, 1.0]
],
  "dcmmeta_shape": [82, 82, 56, 914],
  "dcmmeta_slice_dim": 2,
  "dcmmeta_version": 0.6,
  "global": {
    "const": {
      "AccessionNumber": "A003982",
      "AcquisitionMatrix": [82, 0, 0, 82],
      "AngioFlag": "N",
      "BitsAllocated": 16,
      "BitsStored": 16,
      "BodyPartExamined": "BRAIN",
      "Columns": 656,
      "EchoNumbers": 1,
      "EchoTime": 27.2,
      "EchoTrainLength": 82,
      "FlipAngle": 44.0,
      "HighBit": 15,
      "ImageOrientationPatient": [0.99959474643303, -0.0089423841618, 0.02702548184566, 0.01046818009663, 0.99832761728146, -0.0568540744239],
      "ImagePositionPatient": [-887.41215792208, -886.49788069312, -53.557348830633],
      "ImageType": [
        "ORIGINAL",
        "PRIMARY",
        "M",
        "MB",
        "ND",
        "NORM",
        "MOSAIC"
],
      "ImagedNucleus": "1H",
      "ImagingFrequency": 123.252233,
      "InPlanePhaseEncodingDirection": "COL",
      "MRAcquisitionType": "2D",
      "MagneticFieldStrength": 3.0,
      "Manufacturer": "SIEMENS",
      "ManufacturerModelName": "Prisma",
      "Modality": "MR",
      "NumberOfAverages": 1.0,
      "NumberOfPhaseEncodingSteps": 82,
      "PercentPhaseFieldOfView": 100.0,
      "PercentSampling": 100.0,
      "PerformedProcedureStepStartTime": "193745.650000",
      "PhotometricInterpretation": "MONOCHROME2",
      "PixelBandwidth": 3050.0,
      "PixelRepresentation": 0,
      "PixelSpacing": [2.6829268932343, 2.6829268932343],
      "ProtocolName": "func_run-03_task-faces_acq-ap-mb8",
      "RepetitionTime": 460.0,
      "Rows": 656,
      "SAR": 0.08269647899899,
      "SamplesPerPixel": 1,
      "ScanOptions": "FS",
      "ScanningSequence": "EP",
      "SequenceName": "epfid2d1_82",
      "SequenceVariant": [
        "SK",
        "SS"
],
      "SeriesDescription": "func_run-03_task-faces_acq-ap-mb8",
      "SeriesNumber": 20,
      "SeriesTime": "204313.509000",
      "SliceLocation": -80.591051496821,
      "SliceThickness": 2.7000000476837,
      "SmallestImagePixelValue": 0,
      "SoftwareVersions": "syngo MR E11",
      "SpacingBetweenSlices": 2.700000037329,
      "SpecificCharacterSet": "ISO_IR 100",
      "StudyID": "2",
      "StudyTime": "193745.605000",
      "TransmitCoilName": "Body",
      "VariableFlipAngleFlag": "N",
      "WindowCenterWidthExplanation": "Algo1"
    },
    "slices": {}
  },
  "time": {
    "samples": {
      "AcquisitionNumber": [1, 2, 3, 4, 5, 6, 7, 8, 9, 10, 11, 12, 13, 14, 15, 16, 17, 18, 19, 20, 21, 22, 23, 24, 25, 26, 27, 28, 29, 30, 31, 32, 33, 34, 35, 36, 37, 38, 39, 40, 41, 42, 43, 44, 45, 46, 47, 48, 49, 50, 51, 52, 53, 54, 55, 56, 57, 58, 59, 60, 61, 62, 63, 64, 65, 66, 67, 68, 69, 70, 71, 72, 73, 74, 75, 76, 77, 78, 79, 80, 81, 82, 83, 84, 85, 86, 87, 88, 89, 90, 91, 92, 93, 94, 95, 96, 97, 98, 99, 100, 101, 102, 103, 104, 105, 106, 107, 108, 109, 110, 111, 112, 113, 114, 115, 116, 117, 118, 119, 120, 121, 122, 123, 124, 125, 126, 127, 128, 129, 130, 131, 132, 133, 134, 135, 136, 137, 138, 139, 140, 141, 142, 143, 144, 145, 146, 147, 148, 149, 150, 151, 152, 153, 154, 155, 156, 157, 158, 159, 160, 161, 162, 163, 164, 165, 166, 167, 168, 169, 170, 171, 172, 173, 174, 175, 176, 177, 178, 179, 180, 181, 182, 183, 184, 185, 186, 187, 188, 189, 190, 191, 192, 193, 194, 195, 196, 197, 198, 199, 200, 201, 202, 203, 204, 205, 206, 207, 208, 209, 210, 211, 212, 213, 214, 215, 216, 217, 218, 219, 220, 221, 222, 223, 224, 225, 226, 227, 228, 229, 230, 231, 232, 233, 234, 235, 236, 237, 238, 239, 240, 241, 242, 243, 244, 245, 246, 247, 248, 249, 250, 251, 252, 253, 254, 255, 256, 257, 258, 259, 260, 261, 262, 263, 264, 265, 266, 267, 268, 269, 270, 271, 272, 273, 274, 275, 276, 277, 278, 279, 280, 281, 282, 283, 284, 285, 286, 287, 288, 289, 290, 291, 292, 293, 294, 295, 296, 297, 298, 299, 300, 301, 302, 303, 304, 305, 306, 307, 308, 309, 310, 311, 312, 313, 314, 315, 316, 317, 318, 319, 320, 321, 322, 323, 324, 325, 326, 327, 328, 329, 330, 331, 332, 333, 334, 335, 336, 337, 338, 339, 340, 341, 342, 343, 344, 345, 346, 347, 348, 349, 350, 351, 352, 353, 354, 355, 356, 357, 358, 359, 360, 361, 362, 363, 364, 365, 366, 367, 368, 369, 370, 371, 372, 373, 374, 375, 376, 377, 378, 379, 380, 381, 382, 383, 384, 385, 386, 387, 388, 389, 390, 391, 392, 393, 394, 395, 396, 397, 398, 399, 400, 401, 402, 403, 404, 405, 406, 407, 408, 409, 410, 411, 412, 413, 414, 415, 416, 417, 418, 419, 420, 421, 422, 423, 424, 425, 426, 427, 428, 429, 430, 431, 432, 433, 434, 435, 436, 437, 438, 439, 440, 441, 442, 443, 444, 445, 446, 447, 448, 449, 450, 451, 452, 453, 454, 455, 456, 457, 458, 459, 460, 461, 462, 463, 464, 465, 466, 467, 468, 469, 470, 471, 472, 473, 474, 475, 476, 477, 478, 479, 480, 481, 482, 483, 484, 485, 486, 487, 488, 489, 490, 491, 492, 493, 494, 495, 496, 497, 498, 499, 500, 501, 502, 503, 504, 505, 506, 507, 508, 509, 510, 511, 512, 513, 514, 515, 516, 517, 518, 519, 520, 521, 522, 523, 524, 525, 526, 527, 528, 529, 530, 531, 532, 533, 534, 535, 536, 537, 538, 539, 540, 541, 542, 543, 544, 545, 546, 547, 548, 549, 550, 551, 552, 553, 554, 555, 556, 557, 558, 559, 560, 561, 562, 563, 564, 565, 566, 567, 568, 569, 570, 571, 572, 573, 574, 575, 576, 577, 578, 579, 580, 581, 582, 583, 584, 585, 586, 587, 588, 589, 590, 591, 592, 593, 594, 595, 596, 597, 598, 599, 600, 601, 602, 603, 604, 605, 606, 607, 608, 609, 610, 611, 612, 613, 614, 615, 616, 617, 618, 619, 620, 621, 622, 623, 624, 625, 626, 627, 628, 629, 630, 631, 632, 633, 634, 635, 636, 637, 638, 639, 640, 641, 642, 643, 644, 645, 646, 647, 648, 649, 650, 651, 652, 653, 654, 655, 656, 657, 658, 659, 660, 661, 662, 663, 664, 665, 666, 667, 668, 669, 670, 671, 672, 673, 674, 675, 676, 677, 678, 679, 680, 681, 682, 683, 684, 685, 686, 687, 688, 689, 690, 691, 692, 693, 694, 695, 696, 697, 698, 699, 700, 701, 702, 703, 704, 705, 706, 707, 708, 709, 710, 711, 712, 713, 714, 715, 716, 717, 718, 719, 720, 721, 722, 723, 724, 725, 726, 727, 728, 729, 730, 731, 732, 733, 734, 735, 736, 737, 738, 739, 740, 741, 742, 743, 744, 745, 746, 747, 748, 749, 750, 751, 752, 753, 754, 755, 756, 757, 758, 759, 760, 761, 762, 763, 764, 765, 766, 767, 768, 769, 770, 771, 772, 773, 774, 775, 776, 777, 778, 779, 780, 781, 782, 783, 784, 785, 786, 787, 788, 789, 790, 791, 792, 793, 794, 795, 796, 797, 798, 799, 800, 801, 802, 803, 804, 805, 806, 807, 808, 809, 810, 811, 812, 813, 814, 815, 816, 817, 818, 819, 820, 821, 822, 823, 824, 825, 826, 827, 828, 829, 830, 831, 832, 833, 834, 835, 836, 837, 838, 839, 840, 841, 842, 843, 844, 845, 846, 847, 848, 849, 850, 851, 852, 853, 854, 855, 856, 857, 858, 859, 860, 861, 862, 863, 864, 865, 866, 867, 868, 869, 870, 871, 872, 873, 874, 875, 876, 877, 878, 879, 880, 881, 882, 883, 884, 885, 886, 887, 888, 889, 890, 891, 892, 893, 894, 895, 896, 897, 898, 899, 900, 901, 902, 903, 904, 905, 906, 907, 908, 909, 910, 911, 912, 913, 914],
      "AcquisitionTime": ["204244.705000", "204245.165000", "204245.625000", "204246.085000", "204246.545000", "204247.005000", "204247.465000", "204247.925000", "204248.385000", "204248.845000", "204249.305000", "204249.765000", "204250.225000", "204250.685000", "204251.145000", "204251.605000", "204252.065000", "204252.525000", "204252.985000", "204253.445000", "204253.905000", "204254.365000", "204254.825000", "204255.285000", "204255.745000", "204256.205000", "204256.665000", "204257.125000", "204257.585000", "204258.045000", "204258.505000", "204258.965000", "204259.425000", "204259.885000", "204300.345000", "204300.805000", "204301.265000", "204301.725000", "204302.185000", "204302.645000", "204303.105000", "204303.565000", "204304.025000", "204304.485000", "204304.945000", "204305.405000", "204305.865000", "204306.325000", "204306.785000", "204307.245000", "204307.705000", "204308.165000", "204308.625000", "204309.085000", "204309.545000", "204310.005000", "204310.465000", "204310.925000", "204311.385000", "204311.845000", "204312.305000", "204312.765000", "204313.225000", "204313.685000", "204314.145000", "204314.605000", "204315.065000", "204315.525000", "204315.985000", "204316.445000", "204316.905000", "204317.365000", "204317.825000", "204318.285000", "204318.745000", "204319.205000", "204319.665000", "204320.125000", "204320.585000", "204321.045000", "204321.505000", "204321.965000", "204322.425000", "204322.885000", "204323.345000", "204323.805000", "204324.265000", "204324.725000", "204325.185000", "204325.645000", "204326.105000", "204326.565000", "204327.025000", "204327.485000", "204327.945000", "204328.405000", "204328.865000", "204329.325000", "204329.785000", "204330.245000", "204330.705000", "204331.165000", "204331.625000", "204332.085000", "204332.545000", "204333.005000", "204333.465000", "204333.925000", "204334.385000", "204334.845000", "204335.305000", "204335.765000", "204336.225000", "204336.685000", "204337.145000", "204337.605000", "204338.065000", "204338.525000", "204338.985000", "204339.445000", "204339.905000", "204340.365000", "204340.825000", "204341.285000", "204341.745000", "204342.205000", "204342.665000", "204343.125000", "204343.585000", "204344.045000", "204344.505000", "204344.965000", "204345.425000", "204345.885000", "204346.345000", "204346.805000", "204347.265000", "204347.725000", "204348.185000", "204348.645000", "204349.105000", "204349.565000", "204350.025000", "204350.485000", "204350.945000", "204351.405000", "204351.865000", "204352.325000", "204352.785000", "204353.245000", "204353.705000", "204354.165000", "204354.625000", "204355.085000", "204355.545000", "204356.005000", "204356.465000", "204356.925000", "204357.385000", "204357.845000", "204358.305000", "204358.765000", "204359.225000", "204359.685000", "204400.145000", "204400.605000", "204401.065000", "204401.525000", "204401.985000", "204402.445000", "204402.905000", "204403.365000", "204403.825000", "204404.285000", "204404.745000", "204405.205000", "204405.665000", "204406.125000", "204406.585000", "204407.045000", "204407.505000", "204407.965000", "204408.425000", "204408.885000", "204409.345000", "204409.805000", "204410.265000", "204410.725000", "204411.185000", "204411.645000", "204412.105000", "204412.565000", "204413.025000", "204413.485000", "204413.945000", "204414.405000", "204414.865000", "204415.325000", "204415.785000", "204416.245000", "204416.705000", "204417.165000", "204417.625000", "204418.085000", "204418.545000", "204419.005000", "204419.465000", "204419.925000", "204420.385000", "204420.845000", "204421.305000", "204421.765000", "204422.225000", "204422.685000", "204423.145000", "204423.605000", "204424.065000", "204424.525000", "204424.985000", "204425.445000", "204425.905000", "204426.365000", "204426.825000", "204427.285000", "204427.745000", "204428.205000", "204428.665000", "204429.125000", "204429.585000", "204430.045000", "204430.505000", "204430.965000", "204431.425000", "204431.885000", "204432.345000", "204432.805000", "204433.265000", "204433.725000", "204434.185000", "204434.645000", "204435.105000", "204435.565000", "204436.025000", "204436.485000", "204436.945000", "204437.405000", "204437.865000", "204438.325000", "204438.785000", "204439.245000", "204439.705000", "204440.165000", "204440.625000", "204441.085000", "204441.545000", "204442.005000", "204442.465000", "204442.925000", "204443.385000", "204443.845000", "204444.305000", "204444.765000", "204445.225000", "204445.685000", "204446.145000", "204446.605000", "204447.065000", "204447.525000", "204447.985000", "204448.445000", "204448.905000", "204449.365000", "204449.825000", "204450.285000", "204450.745000", "204451.205000", "204451.665000", "204452.125000", "204452.585000", "204453.045000", "204453.505000", "204453.965000", "204454.425000", "204454.885000", "204455.345000", "204455.805000", "204456.265000", "204456.725000", "204457.185000", "204457.645000", "204458.105000", "204458.565000", "204459.025000", "204459.485000", "204459.945000", "204500.405000", "204500.865000", "204501.325000", "204501.785000", "204502.245000", "204502.705000", "204503.165000", "204503.625000", "204504.085000", "204504.545000", "204505.005000", "204505.465000", "204505.925000", "204506.385000", "204506.845000", "204507.305000", "204507.765000", "204508.225000", "204508.685000", "204509.145000", "204509.605000", "204510.065000", "204510.525000", "204510.985000", "204511.445000", "204511.905000", "204512.365000", "204512.825000", "204513.285000", "204513.745000", "204514.205000", "204514.665000", "204515.125000", "204515.585000", "204516.045000", "204516.505000", "204516.965000", "204517.425000", "204517.885000", "204518.345000", "204518.805000", "204519.265000", "204519.725000", "204520.185000", "204520.645000", "204521.105000", "204521.565000", "204522.025000", "204522.485000", "204522.945000", "204523.405000", "204523.865000", "204524.325000", "204524.785000", "204525.245000", "204525.705000", "204526.165000", "204526.625000", "204527.085000", "204527.545000", "204528.005000", "204528.465000", "204528.925000", "204529.385000", "204529.845000", "204530.305000", "204530.765000", "204531.225000", "204531.685000", "204532.145000", "204532.605000", "204533.065000", "204533.525000", "204533.985000", "204534.445000", "204534.905000", "204535.365000", "204535.825000", "204536.285000", "204536.745000", "204537.205000", "204537.665000", "204538.125000", "204538.585000", "204539.045000", "204539.505000", "204539.965000", "204540.425000", "204540.885000", "204541.345000", "204541.805000", "204542.265000", "204542.725000", "204543.185000", "204543.645000", "204544.105000", "204544.565000", "204545.025000", "204545.485000", "204545.945000", "204546.405000", "204546.865000", "204547.325000", "204547.785000", "204548.245000", "204548.705000", "204549.165000", "204549.625000", "204550.085000", "204550.545000", "204551.005000", "204551.465000", "204551.925000", "204552.385000", "204552.845000", "204553.305000", "204553.765000", "204554.225000", "204554.685000", "204555.145000", "204555.605000", "204556.065000", "204556.525000", "204556.985000", "204557.445000", "204557.905000", "204558.365000", "204558.825000", "204559.285000", "204559.745000", "204600.205000", "204600.665000", "204601.125000", "204601.585000", "204602.045000", "204602.505000", "204602.965000", "204603.425000", "204603.885000", "204604.345000", "204604.805000", "204605.265000", "204605.725000", "204606.185000", "204606.645000", "204607.105000", "204607.565000", "204608.025000", "204608.485000", "204608.945000", "204609.405000", "204609.865000", "204610.325000", "204610.785000", "204611.245000", "204611.705000", "204612.165000", "204612.625000", "204613.085000", "204613.545000", "204614.005000", "204614.465000", "204614.925000", "204615.385000", "204615.845000", "204616.305000", "204616.765000", "204617.225000", "204617.685000", "204618.145000", "204618.605000", "204619.065000", "204619.525000", "204619.985000", "204620.445000", "204620.905000", "204621.365000", "204621.825000", "204622.285000", "204622.745000", "204623.205000", "204623.665000", "204624.125000", "204624.585000", "204625.045000", "204625.505000", "204625.965000", "204626.425000", "204626.885000", "204627.345000", "204627.805000", "204628.265000", "204628.725000", "204629.185000", "204629.645000", "204630.105000", "204630.565000", "204631.025000", "204631.485000", "204631.945000", "204632.405000", "204632.865000", "204633.325000", "204633.785000", "204634.245000", "204634.705000", "204635.165000", "204635.625000", "204636.085000", "204636.545000", "204637.005000", "204637.465000", "204637.925000", "204638.385000", "204638.845000", "204639.305000", "204639.765000", "204640.225000", "204640.685000", "204641.145000", "204641.605000", "204642.065000", "204642.525000", "204642.985000", "204643.445000", "204643.905000", "204644.365000", "204644.825000", "204645.285000", "204645.745000", "204646.205000", "204646.665000", "204647.125000", "204647.585000", "204648.045000", "204648.505000", "204648.965000", "204649.425000", "204649.885000", "204650.345000", "204650.805000", "204651.265000", "204651.725000", "204652.185000", "204652.645000", "204653.105000", "204653.565000", "204654.025000", "204654.485000", "204654.945000", "204655.405000", "204655.865000", "204656.325000", "204656.785000", "204657.245000", "204657.705000", "204658.165000", "204658.625000", "204659.085000", "204659.545000", "204700.005000", "204700.465000", "204700.925000", "204701.385000", "204701.845000", "204702.305000", "204702.765000", "204703.225000", "204703.685000", "204704.145000", "204704.605000", "204705.065000", "204705.525000", "204705.985000", "204706.445000", "204706.905000", "204707.365000", "204707.825000", "204708.285000", "204708.745000", "204709.205000", "204709.665000", "204710.125000", "204710.585000", "204711.045000", "204711.505000", "204711.965000", "204712.425000", "204712.885000", "204713.345000", "204713.805000", "204714.265000", "204714.725000", "204715.185000", "204715.645000", "204716.105000", "204716.565000", "204717.025000", "204717.485000", "204717.945000", "204718.405000", "204718.865000", "204719.325000", "204719.785000", "204720.245000", "204720.705000", "204721.165000", "204721.625000", "204722.085000", "204722.545000", "204723.005000", "204723.465000", "204723.925000", "204724.385000", "204724.845000", "204725.305000", "204725.765000", "204726.225000", "204726.685000", "204727.145000", "204727.605000", "204728.065000", "204728.525000", "204728.985000", "204729.445000", "204729.905000", "204730.365000", "204730.825000", "204731.285000", "204731.745000", "204732.205000", "204732.665000", "204733.125000", "204733.585000", "204734.045000", "204734.505000", "204734.965000", "204735.425000", "204735.885000", "204736.345000", "204736.805000", "204737.265000", "204737.725000", "204738.185000", "204738.645000", "204739.105000", "204739.565000", "204740.025000", "204740.485000", "204740.945000", "204741.405000", "204741.865000", "204742.325000", "204742.785000", "204743.245000", "204743.705000", "204744.165000", "204744.625000", "204745.085000", "204745.545000", "204746.005000", "204746.465000", "204746.925000", "204747.385000", "204747.845000", "204748.305000", "204748.765000", "204749.225000", "204749.685000", "204750.145000", "204750.605000", "204751.065000", "204751.525000", "204751.985000", "204752.445000", "204752.905000", "204753.365000", "204753.825000", "204754.285000", "204754.745000", "204755.205000", "204755.665000", "204756.125000", "204756.585000", "204757.045000", "204757.505000", "204757.965000", "204758.425000", "204758.885000", "204759.345000", "204759.805000", "204800.265000", "204800.725000", "204801.185000", "204801.645000", "204802.105000", "204802.565000", "204803.025000", "204803.485000", "204803.945000", "204804.405000", "204804.865000", "204805.325000", "204805.785000", "204806.245000", "204806.705000", "204807.165000", "204807.625000", "204808.085000", "204808.545000", "204809.005000", "204809.465000", "204809.925000", "204810.385000", "204810.845000", "204811.305000", "204811.765000", "204812.225000", "204812.685000", "204813.145000", "204813.605000", "204814.065000", "204814.525000", "204814.985000", "204815.445000", "204815.905000", "204816.365000", "204816.825000", "204817.285000", "204817.745000", "204818.205000", "204818.665000", "204819.125000", "204819.585000", "204820.045000", "204820.505000", "204820.965000", "204821.425000", "204821.885000", "204822.345000", "204822.805000", "204823.265000", "204823.725000", "204824.185000", "204824.645000", "204825.105000", "204825.565000", "204826.025000", "204826.485000", "204826.945000", "204827.405000", "204827.865000", "204828.325000", "204828.785000", "204829.245000", "204829.705000", "204830.165000", "204830.625000", "204831.085000", "204831.545000", "204832.005000", "204832.465000", "204832.925000", "204833.385000", "204833.845000", "204834.305000", "204834.765000", "204835.225000", "204835.685000", "204836.145000", "204836.605000", "204837.065000", "204837.525000", "204837.985000", "204838.445000", "204838.905000", "204839.365000", "204839.825000", "204840.285000", "204840.745000", "204841.205000", "204841.665000", "204842.125000", "204842.585000", "204843.045000", "204843.505000", "204843.965000", "204844.425000", "204844.885000", "204845.345000", "204845.805000", "204846.265000", "204846.725000", "204847.185000", "204847.645000", "204848.105000", "204848.565000", "204849.025000", "204849.485000", "204849.945000", "204850.405000", "204850.865000", "204851.325000", "204851.785000", "204852.245000", "204852.705000", "204853.165000", "204853.625000", "204854.085000", "204854.545000", "204855.005000", "204855.465000", "204855.925000", "204856.385000", "204856.845000", "204857.305000", "204857.765000", "204858.225000", "204858.685000", "204859.145000", "204859.605000", "204900.065000", "204900.525000", "204900.985000", "204901.445000", "204901.905000", "204902.365000", "204902.825000", "204903.285000", "204903.745000", "204904.205000", "204904.665000", "204905.125000", "204905.585000", "204906.045000", "204906.505000", "204906.965000", "204907.425000", "204907.885000", "204908.345000", "204908.805000", "204909.265000", "204909.725000", "204910.185000", "204910.645000", "204911.105000", "204911.565000", "204912.025000", "204912.485000", "204912.945000", "204913.405000", "204913.865000", "204914.325000", "204914.785000", "204915.245000", "204915.705000", "204916.165000", "204916.625000", "204917.085000", "204917.545000", "204918.005000", "204918.465000", "204918.925000", "204919.385000", "204919.845000", "204920.305000", "204920.765000", "204921.225000", "204921.685000", "204922.145000", "204922.605000", "204923.065000", "204923.525000", "204923.985000", "204924.445000", "204924.905000", "204925.365000", "204925.825000", "204926.285000", "204926.745000", "204927.205000", "204927.665000", "204928.125000", "204928.585000", "204929.045000", "204929.505000", "204929.965000", "204930.425000", "204930.885000", "204931.345000", "204931.805000", "204932.265000", "204932.725000", "204933.185000", "204933.645000", "204934.105000", "204934.565000", "204935.025000", "204935.485000", "204935.945000", "204936.405000", "204936.865000", "204937.325000", "204937.785000", "204938.245000", "204938.705000", "204939.165000", "204939.625000", "204940.085000", "204940.545000", "204941.005000", "204941.465000", "204941.925000", "204942.385000", "204942.845000", "204943.305000", "204943.765000", "204944.225000", "204944.685000"],
