{
  "AcquisitionMatrixPE": 82,
  "AcquisitionNumber": 1,
  "AcquisitionTime": "16:08:29.012500",
  "BandwidthPerPixelPhaseEncode": 24.888,
  "BaseResolution": 82,
  "BodyPartExamined": "BRAIN",
  "ConsistencyInfo": "N4_VE11C_LATEST_20160120",
  "ConversionSoftware": "dcm2niix",
  "ConversionSoftwareVersion": "v1.0.20201102",
  "DerivedVendorReportedEchoSpacing": 0.00049,
  "DeviceSerialNumber": "66112",
  "DwellTime": 2e-06,
  "EchoTime": 0.0272,
  "EchoTrainLength": 82,
  "EffectiveEchoSpacing": 0.00049,
  "FlipAngle": 44,
  "ImageComments": "Unaliased MB8/PE3",
  "ImageOrientationPatientDICOM": [0.997536, 0.0344325, 0.0611336, -0.0308259, 0.997783, -0.058989],
  "ImageType": [
    "ORIGINAL",
    "PRIMARY",
    "M",
    "MB",
    "ND",
    "NORM",
    "MOSAIC"
],
  "ImagingFrequency": 123.252,
  "InPlanePhaseEncodingDirectionDICOM": "COL",
  "InstitutionAddress": "Maynard 3,Hanover,NH,US,03755",
  "InstitutionName": "Dartmouth College - PBS",
  "InstitutionalDepartmentName": "Department",
  "MRAcquisitionType": "2D",
  "MagneticFieldStrength": 3,
  "Manufacturer": "Siemens",
  "ManufacturersModelName": "Prisma",
  "Modality": "MR",
  "MultibandAccelerationFactor": 8,
  "PartialFourier": 1,
  "PatientPosition": "HFS",
  "PercentPhaseFOV": 100,
  "PercentSampling": 100,
  "PhaseEncodingDirection": "j-",
  "PhaseEncodingSteps": 82,
  "PhaseResolution": 1,
  "PixelBandwidth": 3050,
  "ProcedureStepDescription": "Wager_Wager^1076_spacetop",
  "ProtocolName": "func_run-04_task-alignvideo_acq-ap-mb8",
  "PulseSequenceDetails": "%CustomerSeq%\\cmrr_mbep2d_bold",
  "ReceiveCoilActiveElements": "HEA;HEP",
  "ReceiveCoilName": "Head_32",
  "ReconMatrixPE": 82,
  "RepetitionTime": 0.46,
  "SAR": 0.0782219,
  "ScanOptions": "FS",
  "ScanningSequence": "EP",
  "SequenceName": "epfid2d1_82",
  "SequenceVariant": "SK\\SS",
  "SeriesDescription": "func_run-04_task-alignvideo_acq-ap-mb8",
  "SeriesNumber": 34,
  "ShimSetting": [4174, -7704, -7232, 668, -7, 37, -57, 69],
  "SliceThickness": 2.7,
  "SliceTiming": [0, 0.2525, 0.065, 0.315, 0.1275, 0.3775, 0.19, 0, 0.2525, 0.065, 0.315, 0.1275, 0.3775, 0.19, 0, 0.2525, 0.065, 0.315, 0.1275, 0.3775, 0.19, 0, 0.2525, 0.065, 0.315, 0.1275, 0.3775, 0.19, 0, 0.2525, 0.065, 0.315, 0.1275, 0.3775, 0.19, 0, 0.2525, 0.065, 0.315, 0.1275, 0.3775, 0.19, 0, 0.2525, 0.065, 0.315, 0.1275, 0.3775, 0.19, 0, 0.2525, 0.065, 0.315, 0.1275, 0.3775, 0.19],
  "SoftwareVersions": "syngo MR E11",
  "SpacingBetweenSlices": 2.7,
  "StationName": "AWP66112",
  "TaskName": "alignvideo",
  "TotalReadoutTime": 0.03969,
  "TxRefAmp": 231.755,
  "WipMemBlock": "315ec840-0a76-463f-9cdc-4d8645b70379||Sequence: R016 ve11c/master r/e634e98; Dec 19 2017 11:00:25 by eja",
  "dcmmeta_affine": [
    [-2.6763148307800293, -0.08270375430583954, 0.17017889022827148, 115.4474105834961],
    [-0.09237997978925705, 2.6769776344299316, -0.15378952026367188, -78.92203521728516],
    [0.16401708126068115, 0.15826308727264404, 2.690239191055298, -51.50353240966797],
    [0.0, 0.0, 0.0, 1.0]
],
  "dcmmeta_reorient_transform": [
    [0.0, -1.0, 0.0, 81.0],
    [1.0, 0.0, 0.0, 0.0],
    [0.0, 0.0, 1.0, 0.0],
    [0.0, 0.0, 0.0, 1.0]
],
  "dcmmeta_shape": [82, 82, 56, 914],
  "dcmmeta_slice_dim": 2,
  "dcmmeta_version": 0.6,
  "global": {
    "const": {
      "AccessionNumber": "A003472",
      "AcquisitionMatrix": [82, 0, 0, 82],
      "AngioFlag": "N",
      "BitsAllocated": 16,
      "BitsStored": 16,
      "BodyPartExamined": "BRAIN",
      "Columns": 656,
      "EchoNumbers": 1,
      "EchoTime": 27.2,
      "EchoTrainLength": 82,
      "FlipAngle": 44.0,
      "HighBit": 15,
      "ImageOrientationPatient": [0.99753550252393, 0.03443253608257, 0.06113363773936, -0.0308259448475, 0.99778257302948, -0.0589889657727],
      "ImagePositionPatient": [-853.11478398296, -932.71881115983, -40.33561841303],
      "ImageType": [
        "ORIGINAL",
        "PRIMARY",
        "M",
        "MB",
        "ND",
        "NORM",
        "MOSAIC"
],
      "ImagedNucleus": "1H",
      "ImagingFrequency": 123.252131,
      "InPlanePhaseEncodingDirection": "COL",
      "MRAcquisitionType": "2D",
      "MagneticFieldStrength": 3.0,
      "Manufacturer": "SIEMENS",
      "ManufacturerModelName": "Prisma",
      "Modality": "MR",
      "NumberOfAverages": 1.0,
      "NumberOfPhaseEncodingSteps": 82,
      "PercentPhaseFieldOfView": 100.0,
      "PercentSampling": 100.0,
      "PerformedProcedureStepStartTime": "142417.333000",
      "PhotometricInterpretation": "MONOCHROME2",
      "PixelBandwidth": 3050.0,
      "PixelRepresentation": 0,
      "PixelSpacing": [2.6829268932343, 2.6829268932343],
      "ProtocolName": "func_run-04_task-alignvideo_acq-ap-mb8",
      "RepetitionTime": 460.0,
      "Rows": 656,
      "SAR": 0.0782218652652,
      "SamplesPerPixel": 1,
      "ScanOptions": "FS",
      "ScanningSequence": "EP",
      "SequenceName": "epfid2d1_82",
      "SequenceVariant": [
        "SK",
        "SS"
],
      "SeriesDescription": "func_run-04_task-alignvideo_acq-ap-mb8",
      "SeriesNumber": 34,
      "SeriesTime": "160839.294000",
      "SliceLocation": -39.545456110974,
      "SliceThickness": 2.7000000476837,
      "SmallestImagePixelValue": 0,
      "SoftwareVersions": "syngo MR E11",
      "SpacingBetweenSlices": 2.6999999186817,
      "SpecificCharacterSet": "ISO_IR 100",
      "StudyID": "2",
      "StudyTime": "142417.271000",
      "TransmitCoilName": "Body",
      "VariableFlipAngleFlag": "N",
      "WindowCenterWidthExplanation": "Algo1",
      "dBdt": 0.0},
    "slices": {}
  },
  "time": {
    "samples": {
      "AcquisitionNumber": [1, 2, 3, 4, 5, 6, 7, 8, 9, 10, 11, 12, 13, 14, 15, 16, 17, 18, 19, 20, 21, 22, 23, 24, 25, 26, 27, 28, 29, 30, 31, 32, 33, 34, 35, 36, 37, 38, 39, 40, 41, 42, 43, 44, 45, 46, 47, 48, 49, 50, 51, 52, 53, 54, 55, 56, 57, 58, 59, 60, 61, 62, 63, 64, 65, 66, 67, 68, 69, 70, 71, 72, 73, 74, 75, 76, 77, 78, 79, 80, 81, 82, 83, 84, 85, 86, 87, 88, 89, 90, 91, 92, 93, 94, 95, 96, 97, 98, 99, 100, 101, 102, 103, 104, 105, 106, 107, 108, 109, 110, 111, 112, 113, 114, 115, 116, 117, 118, 119, 120, 121, 122, 123, 124, 125, 126, 127, 128, 129, 130, 131, 132, 133, 134, 135, 136, 137, 138, 139, 140, 141, 142, 143, 144, 145, 146, 147, 148, 149, 150, 151, 152, 153, 154, 155, 156, 157, 158, 159, 160, 161, 162, 163, 164, 165, 166, 167, 168, 169, 170, 171, 172, 173, 174, 175, 176, 177, 178, 179, 180, 181, 182, 183, 184, 185, 186, 187, 188, 189, 190, 191, 192, 193, 194, 195, 196, 197, 198, 199, 200, 201, 202, 203, 204, 205, 206, 207, 208, 209, 210, 211, 212, 213, 214, 215, 216, 217, 218, 219, 220, 221, 222, 223, 224, 225, 226, 227, 228, 229, 230, 231, 232, 233, 234, 235, 236, 237, 238, 239, 240, 241, 242, 243, 244, 245, 246, 247, 248, 249, 250, 251, 252, 253, 254, 255, 256, 257, 258, 259, 260, 261, 262, 263, 264, 265, 266, 267, 268, 269, 270, 271, 272, 273, 274, 275, 276, 277, 278, 279, 280, 281, 282, 283, 284, 285, 286, 287, 288, 289, 290, 291, 292, 293, 294, 295, 296, 297, 298, 299, 300, 301, 302, 303, 304, 305, 306, 307, 308, 309, 310, 311, 312, 313, 314, 315, 316, 317, 318, 319, 320, 321, 322, 323, 324, 325, 326, 327, 328, 329, 330, 331, 332, 333, 334, 335, 336, 337, 338, 339, 340, 341, 342, 343, 344, 345, 346, 347, 348, 349, 350, 351, 352, 353, 354, 355, 356, 357, 358, 359, 360, 361, 362, 363, 364, 365, 366, 367, 368, 369, 370, 371, 372, 373, 374, 375, 376, 377, 378, 379, 380, 381, 382, 383, 384, 385, 386, 387, 388, 389, 390, 391, 392, 393, 394, 395, 396, 397, 398, 399, 400, 401, 402, 403, 404, 405, 406, 407, 408, 409, 410, 411, 412, 413, 414, 415, 416, 417, 418, 419, 420, 421, 422, 423, 424, 425, 426, 427, 428, 429, 430, 431, 432, 433, 434, 435, 436, 437, 438, 439, 440, 441, 442, 443, 444, 445, 446, 447, 448, 449, 450, 451, 452, 453, 454, 455, 456, 457, 458, 459, 460, 461, 462, 463, 464, 465, 466, 467, 468, 469, 470, 471, 472, 473, 474, 475, 476, 477, 478, 479, 480, 481, 482, 483, 484, 485, 486, 487, 488, 489, 490, 491, 492, 493, 494, 495, 496, 497, 498, 499, 500, 501, 502, 503, 504, 505, 506, 507, 508, 509, 510, 511, 512, 513, 514, 515, 516, 517, 518, 519, 520, 521, 522, 523, 524, 525, 526, 527, 528, 529, 530, 531, 532, 533, 534, 535, 536, 537, 538, 539, 540, 541, 542, 543, 544, 545, 546, 547, 548, 549, 550, 551, 552, 553, 554, 555, 556, 557, 558, 559, 560, 561, 562, 563, 564, 565, 566, 567, 568, 569, 570, 571, 572, 573, 574, 575, 576, 577, 578, 579, 580, 581, 582, 583, 584, 585, 586, 587, 588, 589, 590, 591, 592, 593, 594, 595, 596, 597, 598, 599, 600, 601, 602, 603, 604, 605, 606, 607, 608, 609, 610, 611, 612, 613, 614, 615, 616, 617, 618, 619, 620, 621, 622, 623, 624, 625, 626, 627, 628, 629, 630, 631, 632, 633, 634, 635, 636, 637, 638, 639, 640, 641, 642, 643, 644, 645, 646, 647, 648, 649, 650, 651, 652, 653, 654, 655, 656, 657, 658, 659, 660, 661, 662, 663, 664, 665, 666, 667, 668, 669, 670, 671, 672, 673, 674, 675, 676, 677, 678, 679, 680, 681, 682, 683, 684, 685, 686, 687, 688, 689, 690, 691, 692, 693, 694, 695, 696, 697, 698, 699, 700, 701, 702, 703, 704, 705, 706, 707, 708, 709, 710, 711, 712, 713, 714, 715, 716, 717, 718, 719, 720, 721, 722, 723, 724, 725, 726, 727, 728, 729, 730, 731, 732, 733, 734, 735, 736, 737, 738, 739, 740, 741, 742, 743, 744, 745, 746, 747, 748, 749, 750, 751, 752, 753, 754, 755, 756, 757, 758, 759, 760, 761, 762, 763, 764, 765, 766, 767, 768, 769, 770, 771, 772, 773, 774, 775, 776, 777, 778, 779, 780, 781, 782, 783, 784, 785, 786, 787, 788, 789, 790, 791, 792, 793, 794, 795, 796, 797, 798, 799, 800, 801, 802, 803, 804, 805, 806, 807, 808, 809, 810, 811, 812, 813, 814, 815, 816, 817, 818, 819, 820, 821, 822, 823, 824, 825, 826, 827, 828, 829, 830, 831, 832, 833, 834, 835, 836, 837, 838, 839, 840, 841, 842, 843, 844, 845, 846, 847, 848, 849, 850, 851, 852, 853, 854, 855, 856, 857, 858, 859, 860, 861, 862, 863, 864, 865, 866, 867, 868, 869, 870, 871, 872, 873, 874, 875, 876, 877, 878, 879, 880, 881, 882, 883, 884, 885, 886, 887, 888, 889, 890, 891, 892, 893, 894, 895, 896, 897, 898, 899, 900, 901, 902, 903, 904, 905, 906, 907, 908, 909, 910, 911, 912, 913, 914],
      "AcquisitionTime": ["160829.012500", "160829.472500", "160829.932500", "160830.392500", "160830.852500", "160831.312500", "160831.772500", "160832.232500", "160832.692500", "160833.152500", "160833.612500", "160834.072500", "160834.532500", "160834.992500", "160835.452500", "160835.912500", "160836.372500", "160836.832500", "160837.292500", "160837.752500", "160838.212500", "160838.672500", "160839.132500", "160839.592500", "160840.052500", "160840.512500", "160840.972500", "160841.432500", "160841.892500", "160842.352500", "160842.812500", "160843.272500", "160843.732500", "160844.192500", "160844.652500", "160845.112500", "160845.572500", "160846.032500", "160846.492500", "160846.952500", "160847.412500", "160847.872500", "160848.332500", "160848.792500", "160849.252500", "160849.712500", "160850.172500", "160850.632500", "160851.092500", "160851.552500", "160852.012500", "160852.472500", "160852.932500", "160853.392500", "160853.852500", "160854.312500", "160854.772500", "160855.232500", "160855.692500", "160856.152500", "160856.612500", "160857.072500", "160857.532500", "160857.992500", "160858.452500", "160858.912500", "160859.372500", "160859.832500", "160900.292500", "160900.752500", "160901.212500", "160901.672500", "160902.132500", "160902.592500", "160903.052500", "160903.512500", "160903.972500", "160904.432500", "160904.892500", "160905.352500", "160905.812500", "160906.272500", "160906.732500", "160907.192500", "160907.652500", "160908.112500", "160908.572500", "160909.032500", "160909.492500", "160909.952500", "160910.412500", "160910.872500", "160911.332500", "160911.792500", "160912.252500", "160912.712500", "160913.172500", "160913.632500", "160914.092500", "160914.552500", "160915.012500", "160915.472500", "160915.932500", "160916.392500", "160916.852500", "160917.312500", "160917.772500", "160918.232500", "160918.692500", "160919.152500", "160919.612500", "160920.072500", "160920.532500", "160920.992500", "160921.452500", "160921.912500", "160922.372500", "160922.832500", "160923.292500", "160923.752500", "160924.212500", "160924.672500", "160925.132500", "160925.592500", "160926.052500", "160926.512500", "160926.972500", "160927.432500", "160927.892500", "160928.352500", "160928.812500", "160929.272500", "160929.732500", "160930.192500", "160930.652500", "160931.112500", "160931.572500", "160932.032500", "160932.492500", "160932.952500", "160933.412500", "160933.872500", "160934.332500", "160934.792500", "160935.252500", "160935.712500", "160936.172500", "160936.632500", "160937.092500", "160937.552500", "160938.012500", "160938.472500", "160938.932500", "160939.392500", "160939.852500", "160940.312500", "160940.772500", "160941.232500", "160941.692500", "160942.152500", "160942.612500", "160943.072500", "160943.532500", "160943.992500", "160944.452500", "160944.912500", "160945.372500", "160945.832500", "160946.292500", "160946.752500", "160947.212500", "160947.672500", "160948.132500", "160948.592500", "160949.052500", "160949.512500", "160949.972500", "160950.432500", "160950.892500", "160951.352500", "160951.812500", "160952.272500", "160952.732500", "160953.192500", "160953.652500", "160954.112500", "160954.572500", "160955.032500", "160955.492500", "160955.952500", "160956.412500", "160956.872500", "160957.332500", "160957.792500", "160958.252500", "160958.712500", "160959.172500", "160959.632500", "161000.092500", "161000.552500", "161001.012500", "161001.472500", "161001.932500", "161002.392500", "161002.852500", "161003.312500", "161003.772500", "161004.232500", "161004.692500", "161005.152500", "161005.612500", "161006.072500", "161006.532500", "161006.992500", "161007.452500", "161007.912500", "161008.372500", "161008.832500", "161009.292500", "161009.752500", "161010.212500", "161010.672500", "161011.132500", "161011.592500", "161012.052500", "161012.512500", "161012.972500", "161013.432500", "161013.892500", "161014.352500", "161014.812500", "161015.272500", "161015.732500", "161016.192500", "161016.652500", "161017.112500", "161017.572500", "161018.032500", "161018.492500", "161018.952500", "161019.412500", "161019.872500", "161020.332500", "161020.792500", "161021.252500", "161021.712500", "161022.172500", "161022.632500", "161023.092500", "161023.552500", "161024.012500", "161024.472500", "161024.932500", "161025.392500", "161025.852500", "161026.312500", "161026.772500", "161027.232500", "161027.692500", "161028.152500", "161028.612500", "161029.072500", "161029.532500", "161029.992500", "161030.452500", "161030.912500", "161031.372500", "161031.832500", "161032.292500", "161032.752500", "161033.212500", "161033.672500", "161034.132500", "161034.592500", "161035.052500", "161035.512500", "161035.972500", "161036.432500", "161036.892500", "161037.352500", "161037.812500", "161038.272500", "161038.732500", "161039.192500", "161039.652500", "161040.112500", "161040.572500", "161041.032500", "161041.492500", "161041.952500", "161042.412500", "161042.872500", "161043.332500", "161043.792500", "161044.252500", "161044.712500", "161045.172500", "161045.632500", "161046.092500", "161046.552500", "161047.012500", "161047.472500", "161047.932500", "161048.392500", "161048.852500", "161049.312500", "161049.772500", "161050.232500", "161050.692500", "161051.152500", "161051.612500", "161052.072500", "161052.532500", "161052.992500", "161053.452500", "161053.912500", "161054.372500", "161054.832500", "161055.292500", "161055.752500", "161056.212500", "161056.672500", "161057.132500", "161057.592500", "161058.052500", "161058.512500", "161058.972500", "161059.432500", "161059.892500", "161100.352500", "161100.812500", "161101.272500", "161101.732500", "161102.192500", "161102.652500", "161103.112500", "161103.572500", "161104.032500", "161104.492500", "161104.952500", "161105.412500", "161105.872500", "161106.332500", "161106.792500", "161107.252500", "161107.712500", "161108.172500", "161108.632500", "161109.092500", "161109.552500", "161110.012500", "161110.472500", "161110.932500", "161111.392500", "161111.852500", "161112.312500", "161112.772500", "161113.232500", "161113.692500", "161114.152500", "161114.612500", "161115.072500", "161115.532500", "161115.992500", "161116.452500", "161116.912500", "161117.372500", "161117.832500", "161118.292500", "161118.752500", "161119.212500", "161119.672500", "161120.132500", "161120.592500", "161121.052500", "161121.512500", "161121.972500", "161122.432500", "161122.892500", "161123.352500", "161123.812500", "161124.272500", "161124.732500", "161125.192500", "161125.652500", "161126.112500", "161126.572500", "161127.032500", "161127.492500", "161127.952500", "161128.412500", "161128.872500", "161129.332500", "161129.792500", "161130.252500", "161130.712500", "161131.172500", "161131.632500", "161132.092500", "161132.552500", "161133.012500", "161133.472500", "161133.932500", "161134.392500", "161134.852500", "161135.312500", "161135.772500", "161136.232500", "161136.692500", "161137.152500", "161137.612500", "161138.072500", "161138.532500", "161138.992500", "161139.452500", "161139.912500", "161140.372500", "161140.832500", "161141.292500", "161141.752500", "161142.212500", "161142.672500", "161143.132500", "161143.592500", "161144.052500", "161144.512500", "161144.972500", "161145.432500", "161145.892500", "161146.352500", "161146.812500", "161147.272500", "161147.732500", "161148.192500", "161148.652500", "161149.112500", "161149.572500", "161150.032500", "161150.492500", "161150.952500", "161151.412500", "161151.872500", "161152.332500", "161152.792500", "161153.252500", "161153.712500", "161154.172500", "161154.632500", "161155.092500", "161155.552500", "161156.012500", "161156.472500", "161156.932500", "161157.392500", "161157.852500", "161158.312500", "161158.772500", "161159.232500", "161159.692500", "161200.152500", "161200.612500", "161201.072500", "161201.532500", "161201.992500", "161202.452500", "161202.912500", "161203.372500", "161203.832500", "161204.292500", "161204.752500", "161205.212500", "161205.672500", "161206.132500", "161206.592500", "161207.052500", "161207.512500", "161207.972500", "161208.432500", "161208.892500", "161209.352500", "161209.812500", "161210.272500", "161210.732500", "161211.192500", "161211.652500", "161212.112500", "161212.572500", "161213.032500", "161213.492500", "161213.952500", "161214.412500", "161214.872500", "161215.332500", "161215.792500", "161216.252500", "161216.712500", "161217.172500", "161217.632500", "161218.092500", "161218.552500", "161219.012500", "161219.472500", "161219.932500", "161220.392500", "161220.852500", "161221.312500", "161221.772500", "161222.232500", "161222.692500", "161223.152500", "161223.612500", "161224.072500", "161224.532500", "161224.992500", "161225.452500", "161225.912500", "161226.372500", "161226.832500", "161227.292500", "161227.752500", "161228.212500", "161228.672500", "161229.132500", "161229.592500", "161230.052500", "161230.512500", "161230.972500", "161231.432500", "161231.892500", "161232.352500", "161232.812500", "161233.272500", "161233.732500", "161234.192500", "161234.652500", "161235.112500", "161235.572500", "161236.032500", "161236.492500", "161236.952500", "161237.412500", "161237.872500", "161238.332500", "161238.792500", "161239.252500", "161239.712500", "161240.172500", "161240.632500", "161241.092500", "161241.552500", "161242.012500", "161242.472500", "161242.932500", "161243.392500", "161243.852500", "161244.312500", "161244.772500", "161245.232500", "161245.692500", "161246.152500", "161246.612500", "161247.072500", "161247.532500", "161247.992500", "161248.452500", "161248.912500", "161249.372500", "161249.832500", "161250.292500", "161250.752500", "161251.212500", "161251.672500", "161252.132500", "161252.592500", "161253.052500", "161253.512500", "161253.972500", "161254.432500", "161254.892500", "161255.352500", "161255.812500", "161256.272500", "161256.732500", "161257.192500", "161257.652500", "161258.112500", "161258.572500", "161259.032500", "161259.492500", "161259.952500", "161300.412500", "161300.872500", "161301.332500", "161301.792500", "161302.252500", "161302.712500", "161303.172500", "161303.632500", "161304.092500", "161304.552500", "161305.012500", "161305.472500", "161305.932500", "161306.392500", "161306.852500", "161307.312500", "161307.772500", "161308.232500", "161308.692500", "161309.152500", "161309.612500", "161310.072500", "161310.532500", "161310.992500", "161311.452500", "161311.912500", "161312.372500", "161312.832500", "161313.292500", "161313.752500", "161314.212500", "161314.672500", "161315.132500", "161315.592500", "161316.052500", "161316.512500", "161316.972500", "161317.432500", "161317.892500", "161318.352500", "161318.812500", "161319.272500", "161319.732500", "161320.192500", "161320.652500", "161321.112500", "161321.572500", "161322.032500", "161322.492500", "161322.952500", "161323.412500", "161323.872500", "161324.332500", "161324.792500", "161325.252500", "161325.712500", "161326.172500", "161326.632500", "161327.092500", "161327.552500", "161328.012500", "161328.472500", "161328.932500", "161329.392500", "161329.852500", "161330.312500", "161330.772500", "161331.232500", "161331.692500", "161332.152500", "161332.612500", "161333.072500", "161333.532500", "161333.992500", "161334.452500", "161334.912500", "161335.372500", "161335.832500", "161336.292500", "161336.752500", "161337.212500", "161337.672500", "161338.132500", "161338.592500", "161339.052500", "161339.512500", "161339.972500", "161340.432500", "161340.892500", "161341.352500", "161341.812500", "161342.272500", "161342.732500", "161343.192500", "161343.652500", "161344.112500", "161344.572500", "161345.032500", "161345.492500", "161345.952500", "161346.412500", "161346.872500", "161347.332500", "161347.792500", "161348.252500", "161348.712500", "161349.172500", "161349.632500", "161350.092500", "161350.552500", "161351.012500", "161351.472500", "161351.932500", "161352.392500", "161352.852500", "161353.312500", "161353.772500", "161354.232500", "161354.692500", "161355.152500", "161355.612500", "161356.072500", "161356.532500", "161356.992500", "161357.452500", "161357.912500", "161358.372500", "161358.832500", "161359.292500", "161359.752500", "161400.212500", "161400.672500", "161401.132500", "161401.592500", "161402.052500", "161402.512500", "161402.972500", "161403.432500", "161403.892500", "161404.352500", "161404.812500", "161405.272500", "161405.732500", "161406.192500", "161406.652500", "161407.112500", "161407.572500", "161408.032500", "161408.492500", "161408.952500", "161409.412500", "161409.872500", "161410.332500", "161410.792500", "161411.252500", "161411.712500", "161412.172500", "161412.632500", "161413.092500", "161413.552500", "161414.012500", "161414.472500", "161414.932500", "161415.392500", "161415.852500", "161416.312500", "161416.772500", "161417.232500", "161417.692500", "161418.152500", "161418.612500", "161419.072500", "161419.532500", "161419.992500", "161420.452500", "161420.912500", "161421.372500", "161421.832500", "161422.292500", "161422.752500", "161423.212500", "161423.672500", "161424.132500", "161424.592500", "161425.052500", "161425.512500", "161425.972500", "161426.432500", "161426.892500", "161427.352500", "161427.812500", "161428.272500", "161428.732500", "161429.192500", "161429.652500", "161430.112500", "161430.572500", "161431.032500", "161431.492500", "161431.952500", "161432.412500", "161432.872500", "161433.332500", "161433.792500", "161434.252500", "161434.712500", "161435.172500", "161435.632500", "161436.092500", "161436.552500", "161437.012500", "161437.472500", "161437.932500", "161438.392500", "161438.852500", "161439.312500", "161439.772500", "161440.232500", "161440.692500", "161441.152500", "161441.612500", "161442.072500", "161442.532500", "161442.992500", "161443.452500", "161443.912500", "161444.372500", "161444.832500", "161445.292500", "161445.752500", "161446.212500", "161446.672500", "161447.132500", "161447.592500", "161448.052500", "161448.512500", "161448.972500", "161449.432500", "161449.892500", "161450.352500", "161450.812500", "161451.272500", "161451.732500", "161452.192500", "161452.652500", "161453.112500", "161453.572500", "161454.032500", "161454.492500", "161454.952500", "161455.412500", "161455.872500", "161456.332500", "161456.792500", "161457.252500", "161457.712500", "161458.172500", "161458.632500", "161459.092500", "161459.552500", "161500.012500", "161500.472500", "161500.932500", "161501.392500", "161501.852500", "161502.312500", "161502.772500", "161503.232500", "161503.692500", "161504.152500", "161504.612500", "161505.072500", "161505.532500", "161505.992500", "161506.452500", "161506.912500", "161507.372500", "161507.832500", "161508.292500", "161508.752500", "161509.212500", "161509.672500", "161510.132500", "161510.592500", "161511.052500", "161511.512500", "161511.972500", "161512.432500", "161512.892500", "161513.352500", "161513.812500", "161514.272500", "161514.732500", "161515.192500", "161515.652500", "161516.112500", "161516.572500", "161517.032500", "161517.492500", "161517.952500", "161518.412500", "161518.872500", "161519.332500", "161519.792500", "161520.252500", "161520.712500", "161521.172500", "161521.632500", "161522.092500", "161522.552500", "161523.012500", "161523.472500", "161523.932500", "161524.392500", "161524.852500", "161525.312500", "161525.772500", "161526.232500", "161526.692500", "161527.152500", "161527.612500", "161528.072500", "161528.532500", "161528.992500"],
