{
  "AcquisitionMatrixPE": 82,
  "AcquisitionNumber": 1,
  "AcquisitionTime": "15:37:34.337500",
  "BandwidthPerPixelPhaseEncode": 24.888,
  "BaseResolution": 82,
  "BodyPartExamined": "BRAIN",
  "ConsistencyInfo": "N4_VE11C_LATEST_20160120",
  "ConversionSoftware": "dcm2niix",
  "ConversionSoftwareVersion": "v1.0.20201102",
  "DerivedVendorReportedEchoSpacing": 0.00049,
  "DeviceSerialNumber": "66112",
  "DwellTime": 2e-06,
  "EchoTime": 0.0272,
  "EchoTrainLength": 82,
  "EffectiveEchoSpacing": 0.00049,
  "FlipAngle": 44,
  "ImageComments": "Unaliased MB8/PE3",
  "ImageOrientationPatientDICOM": [0.997536, 0.0344325, 0.0611336, -0.0308259, 0.997783, -0.058989],
  "ImageType": [
    "ORIGINAL",
    "PRIMARY",
    "M",
    "MB",
    "ND",
    "NORM",
    "MOSAIC"
],
  "ImagingFrequency": 123.252,
  "InPlanePhaseEncodingDirectionDICOM": "COL",
  "InstitutionAddress": "Maynard 3,Hanover,NH,US,03755",
  "InstitutionName": "Dartmouth College - PBS",
  "InstitutionalDepartmentName": "Department",
  "MRAcquisitionType": "2D",
  "MagneticFieldStrength": 3,
  "Manufacturer": "Siemens",
  "ManufacturersModelName": "Prisma",
  "Modality": "MR",
  "MultibandAccelerationFactor": 8,
  "PartialFourier": 1,
  "PatientPosition": "HFS",
  "PercentPhaseFOV": 100,
  "PercentSampling": 100,
  "PhaseEncodingDirection": "j-",
  "PhaseEncodingSteps": 82,
  "PhaseResolution": 1,
  "PixelBandwidth": 3050,
  "ProcedureStepDescription": "Wager_Wager^1076_spacetop",
  "ProtocolName": "func_run-01_task-alignvideo_acq-ap-mb8",
  "PulseSequenceDetails": "%CustomerSeq%\\cmrr_mbep2d_bold",
  "ReceiveCoilActiveElements": "HEA;HEP",
  "ReceiveCoilName": "Head_32",
  "ReconMatrixPE": 82,
  "RepetitionTime": 0.46,
  "SAR": 0.0781805,
  "ScanOptions": "FS",
  "ScanningSequence": "EP",
  "SequenceName": "epfid2d1_82",
  "SequenceVariant": "SK\\SS",
  "SeriesDescription": "func_run-01_task-alignvideo_acq-ap-mb8",
  "SeriesNumber": 28,
  "ShimSetting": [4174, -7704, -7232, 668, -7, 37, -57, 69],
  "SliceThickness": 2.7,
  "SliceTiming": [0, 0.2525, 0.0625, 0.315, 0.125, 0.3775, 0.1875, 0, 0.2525, 0.0625, 0.315, 0.125, 0.3775, 0.1875, 0, 0.2525, 0.0625, 0.315, 0.125, 0.3775, 0.1875, 0, 0.2525, 0.0625, 0.315, 0.125, 0.3775, 0.1875, 0, 0.2525, 0.0625, 0.315, 0.125, 0.3775, 0.1875, 0, 0.2525, 0.0625, 0.315, 0.125, 0.3775, 0.1875, 0, 0.2525, 0.0625, 0.315, 0.125, 0.3775, 0.1875, 0, 0.2525, 0.0625, 0.315, 0.125, 0.3775, 0.1875],
  "SoftwareVersions": "syngo MR E11",
  "SpacingBetweenSlices": 2.7,
  "StationName": "AWP66112",
  "TaskName": "alignvideo",
  "TotalReadoutTime": 0.03969,
  "TxRefAmp": 231.755,
  "WipMemBlock": "b5602fc0-99a4-410f-b343-b09595428b84||Sequence: R016 ve11c/master r/e634e98; Dec 19 2017 11:00:25 by eja",
  "dcmmeta_affine": [
    [-2.6763148307800293, -0.08270375430583954, 0.17017889022827148, 115.4474105834961],
    [-0.09237997978925705, 2.6769776344299316, -0.15378952026367188, -78.92203521728516],
    [0.16401708126068115, 0.15826308727264404, 2.690239191055298, -51.50353240966797],
    [0.0, 0.0, 0.0, 1.0]
],
  "dcmmeta_reorient_transform": [
    [0.0, -1.0, 0.0, 81.0],
    [1.0, 0.0, 0.0, 0.0],
    [0.0, 0.0, 1.0, 0.0],
    [0.0, 0.0, 0.0, 1.0]
],
  "dcmmeta_shape": [82, 82, 56, 839],
  "dcmmeta_slice_dim": 2,
  "dcmmeta_version": 0.6,
  "global": {
    "const": {
      "AccessionNumber": "A003472",
      "AcquisitionMatrix": [82, 0, 0, 82],
      "AngioFlag": "N",
      "BitsAllocated": 16,
      "BitsStored": 16,
      "BodyPartExamined": "BRAIN",
      "Columns": 656,
      "EchoNumbers": 1,
      "EchoTime": 27.2,
      "EchoTrainLength": 82,
      "FlipAngle": 44.0,
      "HighBit": 15,
      "ImageOrientationPatient": [0.99753550252393, 0.03443253608257, 0.06113363773936, -0.0308259448475, 0.99778257302948, -0.0589889657727],
      "ImagePositionPatient": [-853.11478398296, -932.71881115983, -40.33561841303],
      "ImageType": [
        "ORIGINAL",
        "PRIMARY",
        "M",
        "MB",
        "ND",
        "NORM",
        "MOSAIC"
],
      "ImagedNucleus": "1H",
      "ImagingFrequency": 123.252127,
      "InPlanePhaseEncodingDirection": "COL",
      "MRAcquisitionType": "2D",
      "MagneticFieldStrength": 3.0,
      "Manufacturer": "SIEMENS",
      "ManufacturerModelName": "Prisma",
      "Modality": "MR",
      "NumberOfAverages": 1.0,
      "NumberOfPhaseEncodingSteps": 82,
      "PercentPhaseFieldOfView": 100.0,
      "PercentSampling": 100.0,
      "PerformedProcedureStepStartTime": "142417.333000",
      "PhotometricInterpretation": "MONOCHROME2",
      "PixelBandwidth": 3050.0,
      "PixelRepresentation": 0,
      "PixelSpacing": [2.6829268932343, 2.6829268932343],
      "ProtocolName": "func_run-01_task-alignvideo_acq-ap-mb8",
      "RepetitionTime": 460.0,
      "Rows": 656,
      "SAR": 0.07818047496346,
      "SamplesPerPixel": 1,
      "ScanOptions": "FS",
      "ScanningSequence": "EP",
      "SequenceName": "epfid2d1_82",
      "SequenceVariant": [
        "SK",
        "SS"
],
      "SeriesDescription": "func_run-01_task-alignvideo_acq-ap-mb8",
      "SeriesNumber": 28,
      "SeriesTime": "153759.282000",
      "SliceLocation": -39.545456110974,
      "SliceThickness": 2.7000000476837,
      "SmallestImagePixelValue": 0,
      "SoftwareVersions": "syngo MR E11",
      "SpacingBetweenSlices": 2.6999999186817,
      "SpecificCharacterSet": "ISO_IR 100",
      "StudyID": "2",
      "StudyTime": "142417.271000",
      "TransmitCoilName": "Body",
      "VariableFlipAngleFlag": "N",
      "WindowCenterWidthExplanation": "Algo1",
      "dBdt": 0.0},
    "slices": {}
  },
  "time": {
    "samples": {
      "AcquisitionNumber": [1, 2, 3, 4, 5, 6, 7, 8, 9, 10, 11, 12, 13, 14, 15, 16, 17, 18, 19, 20, 21, 22, 23, 24, 25, 26, 27, 28, 29, 30, 31, 32, 33, 34, 35, 36, 37, 38, 39, 40, 41, 42, 43, 44, 45, 46, 47, 48, 49, 50, 51, 52, 53, 54, 55, 56, 57, 58, 59, 60, 61, 62, 63, 64, 65, 66, 67, 68, 69, 70, 71, 72, 73, 74, 75, 76, 77, 78, 79, 80, 81, 82, 83, 84, 85, 86, 87, 88, 89, 90, 91, 92, 93, 94, 95, 96, 97, 98, 99, 100, 101, 102, 103, 104, 105, 106, 107, 108, 109, 110, 111, 112, 113, 114, 115, 116, 117, 118, 119, 120, 121, 122, 123, 124, 125, 126, 127, 128, 129, 130, 131, 132, 133, 134, 135, 136, 137, 138, 139, 140, 141, 142, 143, 144, 145, 146, 147, 148, 149, 150, 151, 152, 153, 154, 155, 156, 157, 158, 159, 160, 161, 162, 163, 164, 165, 166, 167, 168, 169, 170, 171, 172, 173, 174, 175, 176, 177, 178, 179, 180, 181, 182, 183, 184, 185, 186, 187, 188, 189, 190, 191, 192, 193, 194, 195, 196, 197, 198, 199, 200, 201, 202, 203, 204, 205, 206, 207, 208, 209, 210, 211, 212, 213, 214, 215, 216, 217, 218, 219, 220, 221, 222, 223, 224, 225, 226, 227, 228, 229, 230, 231, 232, 233, 234, 235, 236, 237, 238, 239, 240, 241, 242, 243, 244, 245, 246, 247, 248, 249, 250, 251, 252, 253, 254, 255, 256, 257, 258, 259, 260, 261, 262, 263, 264, 265, 266, 267, 268, 269, 270, 271, 272, 273, 274, 275, 276, 277, 278, 279, 280, 281, 282, 283, 284, 285, 286, 287, 288, 289, 290, 291, 292, 293, 294, 295, 296, 297, 298, 299, 300, 301, 302, 303, 304, 305, 306, 307, 308, 309, 310, 311, 312, 313, 314, 315, 316, 317, 318, 319, 320, 321, 322, 323, 324, 325, 326, 327, 328, 329, 330, 331, 332, 333, 334, 335, 336, 337, 338, 339, 340, 341, 342, 343, 344, 345, 346, 347, 348, 349, 350, 351, 352, 353, 354, 355, 356, 357, 358, 359, 360, 361, 362, 363, 364, 365, 366, 367, 368, 369, 370, 371, 372, 373, 374, 375, 376, 377, 378, 379, 380, 381, 382, 383, 384, 385, 386, 387, 388, 389, 390, 391, 392, 393, 394, 395, 396, 397, 398, 399, 400, 401, 402, 403, 404, 405, 406, 407, 408, 409, 410, 411, 412, 413, 414, 415, 416, 417, 418, 419, 420, 421, 422, 423, 424, 425, 426, 427, 428, 429, 430, 431, 432, 433, 434, 435, 436, 437, 438, 439, 440, 441, 442, 443, 444, 445, 446, 447, 448, 449, 450, 451, 452, 453, 454, 455, 456, 457, 458, 459, 460, 461, 462, 463, 464, 465, 466, 467, 468, 469, 470, 471, 472, 473, 474, 475, 476, 477, 478, 479, 480, 481, 482, 483, 484, 485, 486, 487, 488, 489, 490, 491, 492, 493, 494, 495, 496, 497, 498, 499, 500, 501, 502, 503, 504, 505, 506, 507, 508, 509, 510, 511, 512, 513, 514, 515, 516, 517, 518, 519, 520, 521, 522, 523, 524, 525, 526, 527, 528, 529, 530, 531, 532, 533, 534, 535, 536, 537, 538, 539, 540, 541, 542, 543, 544, 545, 546, 547, 548, 549, 550, 551, 552, 553, 554, 555, 556, 557, 558, 559, 560, 561, 562, 563, 564, 565, 566, 567, 568, 569, 570, 571, 572, 573, 574, 575, 576, 577, 578, 579, 580, 581, 582, 583, 584, 585, 586, 587, 588, 589, 590, 591, 592, 593, 594, 595, 596, 597, 598, 599, 600, 601, 602, 603, 604, 605, 606, 607, 608, 609, 610, 611, 612, 613, 614, 615, 616, 617, 618, 619, 620, 621, 622, 623, 624, 625, 626, 627, 628, 629, 630, 631, 632, 633, 634, 635, 636, 637, 638, 639, 640, 641, 642, 643, 644, 645, 646, 647, 648, 649, 650, 651, 652, 653, 654, 655, 656, 657, 658, 659, 660, 661, 662, 663, 664, 665, 666, 667, 668, 669, 670, 671, 672, 673, 674, 675, 676, 677, 678, 679, 680, 681, 682, 683, 684, 685, 686, 687, 688, 689, 690, 691, 692, 693, 694, 695, 696, 697, 698, 699, 700, 701, 702, 703, 704, 705, 706, 707, 708, 709, 710, 711, 712, 713, 714, 715, 716, 717, 718, 719, 720, 721, 722, 723, 724, 725, 726, 727, 728, 729, 730, 731, 732, 733, 734, 735, 736, 737, 738, 739, 740, 741, 742, 743, 744, 745, 746, 747, 748, 749, 750, 751, 752, 753, 754, 755, 756, 757, 758, 759, 760, 761, 762, 763, 764, 765, 766, 767, 768, 769, 770, 771, 772, 773, 774, 775, 776, 777, 778, 779, 780, 781, 782, 783, 784, 785, 786, 787, 788, 789, 790, 791, 792, 793, 794, 795, 796, 797, 798, 799, 800, 801, 802, 803, 804, 805, 806, 807, 808, 809, 810, 811, 812, 813, 814, 815, 816, 817, 818, 819, 820, 821, 822, 823, 824, 825, 826, 827, 828, 829, 830, 831, 832, 833, 834, 835, 836, 837, 838, 839],
      "AcquisitionTime": ["153734.337500", "153734.797500", "153735.257500", "153735.717500", "153736.177500", "153736.637500", "153737.097500", "153737.557500", "153738.017500", "153738.477500", "153738.937500", "153739.397500", "153739.857500", "153740.317500", "153740.777500", "153741.237500", "153741.697500", "153742.157500", "153742.617500", "153743.077500", "153743.537500", "153743.997500", "153744.457500", "153744.917500", "153745.377500", "153745.837500", "153746.297500", "153746.757500", "153747.217500", "153747.677500", "153748.137500", "153748.597500", "153749.057500", "153749.517500", "153749.977500", "153750.437500", "153750.897500", "153751.357500", "153751.817500", "153752.277500", "153752.737500", "153753.197500", "153753.657500", "153754.117500", "153754.577500", "153755.037500", "153755.497500", "153755.957500", "153756.417500", "153756.877500", "153757.337500", "153757.797500", "153758.257500", "153758.717500", "153759.177500", "153759.637500", "153800.097500", "153800.557500", "153801.017500", "153801.477500", "153801.937500", "153802.397500", "153802.857500", "153803.317500", "153803.777500", "153804.237500", "153804.697500", "153805.157500", "153805.617500", "153806.077500", "153806.537500", "153806.997500", "153807.457500", "153807.917500", "153808.377500", "153808.837500", "153809.297500", "153809.757500", "153810.217500", "153810.677500", "153811.137500", "153811.597500", "153812.057500", "153812.517500", "153812.977500", "153813.437500", "153813.897500", "153814.357500", "153814.817500", "153815.277500", "153815.737500", "153816.197500", "153816.657500", "153817.117500", "153817.577500", "153818.037500", "153818.497500", "153818.957500", "153819.417500", "153819.877500", "153820.337500", "153820.797500", "153821.257500", "153821.717500", "153822.177500", "153822.637500", "153823.097500", "153823.557500", "153824.017500", "153824.477500", "153824.937500", "153825.397500", "153825.857500", "153826.317500", "153826.777500", "153827.237500", "153827.697500", "153828.157500", "153828.617500", "153829.077500", "153829.537500", "153829.997500", "153830.457500", "153830.917500", "153831.377500", "153831.837500", "153832.297500", "153832.757500", "153833.217500", "153833.677500", "153834.137500", "153834.597500", "153835.057500", "153835.517500", "153835.977500", "153836.437500", "153836.897500", "153837.357500", "153837.817500", "153838.277500", "153838.737500", "153839.197500", "153839.657500", "153840.117500", "153840.577500", "153841.037500", "153841.497500", "153841.957500", "153842.417500", "153842.877500", "153843.337500", "153843.797500", "153844.257500", "153844.717500", "153845.177500", "153845.637500", "153846.097500", "153846.557500", "153847.017500", "153847.477500", "153847.937500", "153848.397500", "153848.857500", "153849.317500", "153849.777500", "153850.237500", "153850.697500", "153851.157500", "153851.617500", "153852.077500", "153852.537500", "153852.997500", "153853.457500", "153853.917500", "153854.377500", "153854.837500", "153855.297500", "153855.757500", "153856.217500", "153856.677500", "153857.137500", "153857.597500", "153858.057500", "153858.517500", "153858.977500", "153859.437500", "153859.897500", "153900.357500", "153900.817500", "153901.277500", "153901.737500", "153902.197500", "153902.657500", "153903.117500", "153903.577500", "153904.037500", "153904.497500", "153904.957500", "153905.417500", "153905.877500", "153906.337500", "153906.797500", "153907.257500", "153907.717500", "153908.177500", "153908.637500", "153909.097500", "153909.557500", "153910.017500", "153910.477500", "153910.937500", "153911.397500", "153911.857500", "153912.317500", "153912.777500", "153913.237500", "153913.697500", "153914.157500", "153914.617500", "153915.077500", "153915.537500", "153915.997500", "153916.457500", "153916.917500", "153917.377500", "153917.837500", "153918.297500", "153918.757500", "153919.217500", "153919.677500", "153920.137500", "153920.597500", "153921.057500", "153921.517500", "153921.977500", "153922.437500", "153922.897500", "153923.357500", "153923.817500", "153924.277500", "153924.737500", "153925.197500", "153925.657500", "153926.117500", "153926.577500", "153927.037500", "153927.497500", "153927.957500", "153928.417500", "153928.877500", "153929.337500", "153929.797500", "153930.257500", "153930.717500", "153931.177500", "153931.637500", "153932.097500", "153932.557500", "153933.017500", "153933.477500", "153933.937500", "153934.397500", "153934.857500", "153935.317500", "153935.777500", "153936.237500", "153936.697500", "153937.157500", "153937.617500", "153938.077500", "153938.537500", "153938.997500", "153939.457500", "153939.917500", "153940.377500", "153940.837500", "153941.297500", "153941.757500", "153942.217500", "153942.677500", "153943.137500", "153943.597500", "153944.057500", "153944.517500", "153944.977500", "153945.437500", "153945.897500", "153946.357500", "153946.817500", "153947.277500", "153947.737500", "153948.197500", "153948.657500", "153949.117500", "153949.577500", "153950.037500", "153950.497500", "153950.957500", "153951.417500", "153951.877500", "153952.337500", "153952.797500", "153953.257500", "153953.717500", "153954.177500", "153954.637500", "153955.097500", "153955.557500", "153956.017500", "153956.477500", "153956.937500", "153957.397500", "153957.857500", "153958.317500", "153958.777500", "153959.237500", "153959.697500", "154000.157500", "154000.617500", "154001.077500", "154001.537500", "154001.997500", "154002.457500", "154002.917500", "154003.377500", "154003.837500", "154004.297500", "154004.757500", "154005.217500", "154005.677500", "154006.137500", "154006.597500", "154007.057500", "154007.517500", "154007.977500", "154008.437500", "154008.897500", "154009.357500", "154009.817500", "154010.277500", "154010.737500", "154011.197500", "154011.657500", "154012.117500", "154012.577500", "154013.037500", "154013.497500", "154013.957500", "154014.417500", "154014.877500", "154015.337500", "154015.797500", "154016.257500", "154016.717500", "154017.177500", "154017.637500", "154018.097500", "154018.557500", "154019.017500", "154019.477500", "154019.937500", "154020.397500", "154020.857500", "154021.317500", "154021.777500", "154022.237500", "154022.697500", "154023.157500", "154023.617500", "154024.077500", "154024.537500", "154024.997500", "154025.457500", "154025.917500", "154026.377500", "154026.837500", "154027.297500", "154027.757500", "154028.217500", "154028.677500", "154029.137500", "154029.597500", "154030.057500", "154030.517500", "154030.977500", "154031.437500", "154031.897500", "154032.357500", "154032.817500", "154033.277500", "154033.737500", "154034.197500", "154034.657500", "154035.117500", "154035.577500", "154036.037500", "154036.497500", "154036.957500", "154037.417500", "154037.877500", "154038.337500", "154038.797500", "154039.257500", "154039.717500", "154040.177500", "154040.637500", "154041.097500", "154041.557500", "154042.017500", "154042.477500", "154042.937500", "154043.397500", "154043.857500", "154044.317500", "154044.777500", "154045.237500", "154045.697500", "154046.157500", "154046.617500", "154047.077500", "154047.537500", "154047.997500", "154048.457500", "154048.917500", "154049.377500", "154049.837500", "154050.297500", "154050.757500", "154051.217500", "154051.677500", "154052.137500", "154052.597500", "154053.057500", "154053.517500", "154053.977500", "154054.437500", "154054.897500", "154055.357500", "154055.817500", "154056.277500", "154056.737500", "154057.197500", "154057.657500", "154058.117500", "154058.577500", "154059.037500", "154059.497500", "154059.957500", "154100.417500", "154100.877500", "154101.337500", "154101.797500", "154102.257500", "154102.717500", "154103.177500", "154103.637500", "154104.097500", "154104.557500", "154105.017500", "154105.477500", "154105.937500", "154106.397500", "154106.857500", "154107.317500", "154107.777500", "154108.237500", "154108.697500", "154109.157500", "154109.617500", "154110.077500", "154110.537500", "154110.997500", "154111.457500", "154111.917500", "154112.377500", "154112.837500", "154113.297500", "154113.757500", "154114.217500", "154114.677500", "154115.137500", "154115.597500", "154116.057500", "154116.517500", "154116.977500", "154117.437500", "154117.897500", "154118.357500", "154118.817500", "154119.277500", "154119.737500", "154120.197500", "154120.657500", "154121.117500", "154121.577500", "154122.037500", "154122.497500", "154122.957500", "154123.417500", "154123.877500", "154124.337500", "154124.797500", "154125.257500", "154125.717500", "154126.177500", "154126.637500", "154127.097500", "154127.557500", "154128.017500", "154128.477500", "154128.937500", "154129.397500", "154129.857500", "154130.317500", "154130.777500", "154131.237500", "154131.697500", "154132.157500", "154132.617500", "154133.077500", "154133.537500", "154133.997500", "154134.457500", "154134.917500", "154135.377500", "154135.837500", "154136.297500", "154136.757500", "154137.217500", "154137.677500", "154138.137500", "154138.597500", "154139.057500", "154139.517500", "154139.977500", "154140.437500", "154140.897500", "154141.357500", "154141.817500", "154142.277500", "154142.737500", "154143.197500", "154143.657500", "154144.117500", "154144.577500", "154145.037500", "154145.497500", "154145.957500", "154146.417500", "154146.877500", "154147.337500", "154147.797500", "154148.257500", "154148.717500", "154149.177500", "154149.637500", "154150.097500", "154150.557500", "154151.017500", "154151.477500", "154151.937500", "154152.397500", "154152.857500", "154153.317500", "154153.777500", "154154.237500", "154154.697500", "154155.157500", "154155.617500", "154156.077500", "154156.537500", "154156.997500", "154157.457500", "154157.917500", "154158.377500", "154158.837500", "154159.297500", "154159.757500", "154200.217500", "154200.677500", "154201.137500", "154201.597500", "154202.057500", "154202.517500", "154202.977500", "154203.437500", "154203.897500", "154204.357500", "154204.817500", "154205.277500", "154205.737500", "154206.197500", "154206.657500", "154207.117500", "154207.577500", "154208.037500", "154208.497500", "154208.957500", "154209.417500", "154209.877500", "154210.337500", "154210.797500", "154211.257500", "154211.717500", "154212.177500", "154212.637500", "154213.097500", "154213.557500", "154214.017500", "154214.477500", "154214.937500", "154215.397500", "154215.857500", "154216.317500", "154216.777500", "154217.237500", "154217.697500", "154218.157500", "154218.617500", "154219.077500", "154219.537500", "154219.997500", "154220.457500", "154220.917500", "154221.377500", "154221.837500", "154222.297500", "154222.757500", "154223.217500", "154223.677500", "154224.137500", "154224.597500", "154225.057500", "154225.517500", "154225.977500", "154226.437500", "154226.897500", "154227.357500", "154227.817500", "154228.277500", "154228.737500", "154229.197500", "154229.657500", "154230.117500", "154230.577500", "154231.037500", "154231.497500", "154231.957500", "154232.417500", "154232.877500", "154233.337500", "154233.797500", "154234.257500", "154234.717500", "154235.177500", "154235.637500", "154236.097500", "154236.557500", "154237.017500", "154237.477500", "154237.937500", "154238.397500", "154238.857500", "154239.317500", "154239.777500", "154240.237500", "154240.697500", "154241.157500", "154241.617500", "154242.077500", "154242.537500", "154242.997500", "154243.457500", "154243.917500", "154244.377500", "154244.837500", "154245.297500", "154245.757500", "154246.217500", "154246.677500", "154247.137500", "154247.597500", "154248.057500", "154248.517500", "154248.977500", "154249.437500", "154249.897500", "154250.357500", "154250.817500", "154251.277500", "154251.737500", "154252.197500", "154252.657500", "154253.117500", "154253.577500", "154254.037500", "154254.497500", "154254.957500", "154255.417500", "154255.877500", "154256.337500", "154256.797500", "154257.257500", "154257.717500", "154258.177500", "154258.637500", "154259.097500", "154259.557500", "154300.017500", "154300.477500", "154300.937500", "154301.397500", "154301.857500", "154302.317500", "154302.777500", "154303.237500", "154303.697500", "154304.157500", "154304.617500", "154305.077500", "154305.537500", "154305.997500", "154306.457500", "154306.917500", "154307.377500", "154307.837500", "154308.297500", "154308.757500", "154309.217500", "154309.677500", "154310.137500", "154310.597500", "154311.057500", "154311.517500", "154311.977500", "154312.437500", "154312.897500", "154313.357500", "154313.817500", "154314.277500", "154314.737500", "154315.197500", "154315.657500", "154316.117500", "154316.577500", "154317.037500", "154317.497500", "154317.957500", "154318.417500", "154318.877500", "154319.337500", "154319.797500", "154320.257500", "154320.717500", "154321.177500", "154321.637500", "154322.097500", "154322.557500", "154323.017500", "154323.477500", "154323.937500", "154324.397500", "154324.857500", "154325.317500", "154325.777500", "154326.237500", "154326.697500", "154327.157500", "154327.617500", "154328.077500", "154328.537500", "154328.997500", "154329.457500", "154329.917500", "154330.377500", "154330.837500", "154331.297500", "154331.757500", "154332.217500", "154332.677500", "154333.137500", "154333.597500", "154334.057500", "154334.517500", "154334.977500", "154335.437500", "154335.897500", "154336.357500", "154336.817500", "154337.277500", "154337.737500", "154338.197500", "154338.657500", "154339.117500", "154339.577500", "154340.037500", "154340.497500", "154340.957500", "154341.417500", "154341.877500", "154342.337500", "154342.797500", "154343.257500", "154343.717500", "154344.177500", "154344.637500", "154345.097500", "154345.557500", "154346.017500", "154346.477500", "154346.937500", "154347.397500", "154347.857500", "154348.317500", "154348.777500", "154349.237500", "154349.697500", "154350.157500", "154350.617500", "154351.077500", "154351.537500", "154351.997500", "154352.457500", "154352.917500", "154353.377500", "154353.837500", "154354.297500", "154354.757500", "154355.217500", "154355.677500", "154356.137500", "154356.597500", "154357.057500", "154357.517500", "154357.977500", "154358.437500", "154358.897500", "154359.357500", "154359.817500"],
