{
  "AcquisitionMatrixPE": 82,
  "AcquisitionNumber": 1,
  "AcquisitionTime": "11:48:34.347500",
  "BandwidthPerPixelPhaseEncode": 24.888,
  "BaseResolution": 82,
  "BodyPartExamined": "BRAIN",
  "ConsistencyInfo": "N4_VE11E_LATEST_20181129",
  "ConversionSoftware": "dcm2niix",
  "ConversionSoftwareVersion": "v1.0.20201102",
  "DerivedVendorReportedEchoSpacing": 0.00049,
  "DeviceSerialNumber": "66112",
  "DwellTime": 2e-06,
  "EchoTime": 0.0272,
  "EchoTrainLength": 82,
  "EffectiveEchoSpacing": 0.00049,
  "FlipAngle": 44,
  "ImageComments": "Unaliased MB8/PE3",
  "ImageOrientationPatientDICOM": [0.999684, -0.0250115, -0.00247334, 0.0251301, 0.99308, 0.114721],
  "ImageType": [
    "ORIGINAL",
    "PRIMARY",
    "M",
    "MB",
    "ND",
    "NORM",
    "MOSAIC"
],
  "ImagingFrequency": 123.252,
  "InPlanePhaseEncodingDirectionDICOM": "COL",
  "InstitutionAddress": "Maynard 3,Hanover,NH,US,03755",
  "InstitutionName": "Dartmouth College - PBS",
  "InstitutionalDepartmentName": "Department",
  "MRAcquisitionType": "2D",
  "MagneticFieldStrength": 3,
  "Manufacturer": "Siemens",
  "ManufacturersModelName": "Prisma",
  "Modality": "MR",
  "MultibandAccelerationFactor": 8,
  "PartialFourier": 1,
  "PatientPosition": "HFS",
  "PercentPhaseFOV": 100,
  "PercentSampling": 100,
  "PhaseEncodingDirection": "j-",
  "PhaseEncodingSteps": 82,
  "PhaseResolution": 1,
  "PixelBandwidth": 3050,
  "ProcedureStepDescription": "Wager_Wager^1076_spacetop",
  "ProtocolName": "func_run-06_task-social_acq-ap-mb8",
  "PulseSequenceDetails": "%CustomerSeq%\\cmrr_mbep2d_bold",
  "ReceiveCoilActiveElements": "HEA;HEP",
  "ReceiveCoilName": "Head_32",
  "ReconMatrixPE": 82,
  "RepetitionTime": 0.46,
  "SAR": 0.0986519,
  "ScanOptions": "FS",
  "ScanningSequence": "EP",
  "SequenceName": "epfid2d1_82",
  "SequenceVariant": "SK\\SS",
  "SeriesDescription": "func_run-06_task-social_acq-ap-mb8",
  "SeriesNumber": 20,
  "ShimSetting": [4135, -7741, -7237, 643, -24, -124, 22, 100],
  "SliceThickness": 2.7,
  "SliceTiming": [0, 0.2525, 0.065, 0.315, 0.1275, 0.3775, 0.19, 0, 0.2525, 0.065, 0.315, 0.1275, 0.3775, 0.19, 0, 0.2525, 0.065, 0.315, 0.1275, 0.3775, 0.19, 0, 0.2525, 0.065, 0.315, 0.1275, 0.3775, 0.19, 0, 0.2525, 0.065, 0.315, 0.1275, 0.3775, 0.19, 0, 0.2525, 0.065, 0.315, 0.1275, 0.3775, 0.19, 0, 0.2525, 0.065, 0.315, 0.1275, 0.3775, 0.19, 0, 0.2525, 0.065, 0.315, 0.1275, 0.3775, 0.19],
  "SoftwareVersions": "syngo MR E11",
  "SpacingBetweenSlices": 2.7,
  "StationName": "AWP66112",
  "TaskName": "social",
  "TotalReadoutTime": 0.03969,
  "TxRefAmp": 230.126,
  "WipMemBlock": "c700a54e-2922-4f60-a1e0-5a41f945f624||Sequence: R016 ve11e/master r/434b28f1; Aug  7 2019 18:53:46 by eja",
  "dcmmeta_affine": [
    [-2.682079315185547, 0.06742223352193832, 0.001115394290536642, 110.91716003417969],
    [0.0671040415763855, 2.664360761642456, 0.3098154067993164, -108.79524230957031],
    [-0.006635790225118399, -0.3077867925167084, 2.6821658611297607, -49.76943588256836],
    [0.0, 0.0, 0.0, 1.0]
],
  "dcmmeta_reorient_transform": [
    [0.0, -1.0, 0.0, 81.0],
    [1.0, 0.0, 0.0, 0.0],
    [0.0, 0.0, 1.0, 0.0],
    [0.0, 0.0, 0.0, 1.0]
],
  "dcmmeta_shape": [82, 82, 56, 872],
  "dcmmeta_slice_dim": 2,
  "dcmmeta_version": 0.6,
  "global": {
    "const": {
      "AccessionNumber": "A004024",
      "AcquisitionMatrix": [82, 0, 0, 82],
      "AngioFlag": "N",
      "BitsAllocated": 16,
      "BitsStored": 16,
      "BodyPartExamined": "BRAIN",
      "Columns": 656,
      "EchoNumbers": 1,
      "EchoTime": 27.2,
      "EchoTrainLength": 82,
      "FlipAngle": 44.0,
      "HighBit": 15,
      "ImageOrientationPatient": [0.99968410366692, -0.0250115066555, -0.0024733399454, 0.02513010578188, 0.99307989548911, 0.11472052544658],
      "ImagePositionPatient": [-905.48532332846, -852.43065634522, -161.13049953407],
      "ImageType": [
        "ORIGINAL",
        "PRIMARY",
        "M",
        "MB",
        "ND",
        "NORM",
        "MOSAIC"
],
      "ImagedNucleus": "1H",
      "ImagingFrequency": 123.252182,
      "InPlanePhaseEncodingDirection": "COL",
      "MRAcquisitionType": "2D",
      "MagneticFieldStrength": 3.0,
      "Manufacturer": "SIEMENS",
      "ManufacturerModelName": "Prisma",
      "Modality": "MR",
      "NumberOfAverages": 1.0,
      "NumberOfPhaseEncodingSteps": 82,
      "PercentPhaseFieldOfView": 100.0,
      "PercentSampling": 100.0,
      "PerformedProcedureStepStartTime": "102017.754000",
      "PhotometricInterpretation": "MONOCHROME2",
      "PixelBandwidth": 3050.0,
      "PixelRepresentation": 0,
      "PixelSpacing": [2.6829268932343, 2.6829268932343],
      "ProtocolName": "func_run-06_task-social_acq-ap-mb8",
      "RepetitionTime": 460.0,
      "Rows": 656,
      "SAR": 0.09865186544936,
      "SamplesPerPixel": 1,
      "ScanOptions": "FS",
      "ScanningSequence": "EP",
      "SequenceName": "epfid2d1_82",
      "SequenceVariant": [
        "SK",
        "SS"
],
      "SeriesDescription": "func_run-06_task-social_acq-ap-mb8",
      "SeriesNumber": 20,
      "SeriesTime": "114857.942000",
      "SliceLocation": -61.878740479005,
      "SliceThickness": 2.7000000476837,
      "SmallestImagePixelValue": 0,
      "SoftwareVersions": "syngo MR E11",
      "SpacingBetweenSlices": 2.7000000391105,
      "SpecificCharacterSet": "ISO_IR 100",
      "StudyID": "1",
      "StudyTime": "102017.677000",
      "TransmitCoilName": "Body",
      "VariableFlipAngleFlag": "N",
      "WindowCenterWidthExplanation": "Algo1"
    },
    "slices": {}
  },
  "time": {
    "samples": {
      "AcquisitionNumber": [1, 2, 3, 4, 5, 6, 7, 8, 9, 10, 11, 12, 13, 14, 15, 16, 17, 18, 19, 20, 21, 22, 23, 24, 25, 26, 27, 28, 29, 30, 31, 32, 33, 34, 35, 36, 37, 38, 39, 40, 41, 42, 43, 44, 45, 46, 47, 48, 49, 50, 51, 52, 53, 54, 55, 56, 57, 58, 59, 60, 61, 62, 63, 64, 65, 66, 67, 68, 69, 70, 71, 72, 73, 74, 75, 76, 77, 78, 79, 80, 81, 82, 83, 84, 85, 86, 87, 88, 89, 90, 91, 92, 93, 94, 95, 96, 97, 98, 99, 100, 101, 102, 103, 104, 105, 106, 107, 108, 109, 110, 111, 112, 113, 114, 115, 116, 117, 118, 119, 120, 121, 122, 123, 124, 125, 126, 127, 128, 129, 130, 131, 132, 133, 134, 135, 136, 137, 138, 139, 140, 141, 142, 143, 144, 145, 146, 147, 148, 149, 150, 151, 152, 153, 154, 155, 156, 157, 158, 159, 160, 161, 162, 163, 164, 165, 166, 167, 168, 169, 170, 171, 172, 173, 174, 175, 176, 177, 178, 179, 180, 181, 182, 183, 184, 185, 186, 187, 188, 189, 190, 191, 192, 193, 194, 195, 196, 197, 198, 199, 200, 201, 202, 203, 204, 205, 206, 207, 208, 209, 210, 211, 212, 213, 214, 215, 216, 217, 218, 219, 220, 221, 222, 223, 224, 225, 226, 227, 228, 229, 230, 231, 232, 233, 234, 235, 236, 237, 238, 239, 240, 241, 242, 243, 244, 245, 246, 247, 248, 249, 250, 251, 252, 253, 254, 255, 256, 257, 258, 259, 260, 261, 262, 263, 264, 265, 266, 267, 268, 269, 270, 271, 272, 273, 274, 275, 276, 277, 278, 279, 280, 281, 282, 283, 284, 285, 286, 287, 288, 289, 290, 291, 292, 293, 294, 295, 296, 297, 298, 299, 300, 301, 302, 303, 304, 305, 306, 307, 308, 309, 310, 311, 312, 313, 314, 315, 316, 317, 318, 319, 320, 321, 322, 323, 324, 325, 326, 327, 328, 329, 330, 331, 332, 333, 334, 335, 336, 337, 338, 339, 340, 341, 342, 343, 344, 345, 346, 347, 348, 349, 350, 351, 352, 353, 354, 355, 356, 357, 358, 359, 360, 361, 362, 363, 364, 365, 366, 367, 368, 369, 370, 371, 372, 373, 374, 375, 376, 377, 378, 379, 380, 381, 382, 383, 384, 385, 386, 387, 388, 389, 390, 391, 392, 393, 394, 395, 396, 397, 398, 399, 400, 401, 402, 403, 404, 405, 406, 407, 408, 409, 410, 411, 412, 413, 414, 415, 416, 417, 418, 419, 420, 421, 422, 423, 424, 425, 426, 427, 428, 429, 430, 431, 432, 433, 434, 435, 436, 437, 438, 439, 440, 441, 442, 443, 444, 445, 446, 447, 448, 449, 450, 451, 452, 453, 454, 455, 456, 457, 458, 459, 460, 461, 462, 463, 464, 465, 466, 467, 468, 469, 470, 471, 472, 473, 474, 475, 476, 477, 478, 479, 480, 481, 482, 483, 484, 485, 486, 487, 488, 489, 490, 491, 492, 493, 494, 495, 496, 497, 498, 499, 500, 501, 502, 503, 504, 505, 506, 507, 508, 509, 510, 511, 512, 513, 514, 515, 516, 517, 518, 519, 520, 521, 522, 523, 524, 525, 526, 527, 528, 529, 530, 531, 532, 533, 534, 535, 536, 537, 538, 539, 540, 541, 542, 543, 544, 545, 546, 547, 548, 549, 550, 551, 552, 553, 554, 555, 556, 557, 558, 559, 560, 561, 562, 563, 564, 565, 566, 567, 568, 569, 570, 571, 572, 573, 574, 575, 576, 577, 578, 579, 580, 581, 582, 583, 584, 585, 586, 587, 588, 589, 590, 591, 592, 593, 594, 595, 596, 597, 598, 599, 600, 601, 602, 603, 604, 605, 606, 607, 608, 609, 610, 611, 612, 613, 614, 615, 616, 617, 618, 619, 620, 621, 622, 623, 624, 625, 626, 627, 628, 629, 630, 631, 632, 633, 634, 635, 636, 637, 638, 639, 640, 641, 642, 643, 644, 645, 646, 647, 648, 649, 650, 651, 652, 653, 654, 655, 656, 657, 658, 659, 660, 661, 662, 663, 664, 665, 666, 667, 668, 669, 670, 671, 672, 673, 674, 675, 676, 677, 678, 679, 680, 681, 682, 683, 684, 685, 686, 687, 688, 689, 690, 691, 692, 693, 694, 695, 696, 697, 698, 699, 700, 701, 702, 703, 704, 705, 706, 707, 708, 709, 710, 711, 712, 713, 714, 715, 716, 717, 718, 719, 720, 721, 722, 723, 724, 725, 726, 727, 728, 729, 730, 731, 732, 733, 734, 735, 736, 737, 738, 739, 740, 741, 742, 743, 744, 745, 746, 747, 748, 749, 750, 751, 752, 753, 754, 755, 756, 757, 758, 759, 760, 761, 762, 763, 764, 765, 766, 767, 768, 769, 770, 771, 772, 773, 774, 775, 776, 777, 778, 779, 780, 781, 782, 783, 784, 785, 786, 787, 788, 789, 790, 791, 792, 793, 794, 795, 796, 797, 798, 799, 800, 801, 802, 803, 804, 805, 806, 807, 808, 809, 810, 811, 812, 813, 814, 815, 816, 817, 818, 819, 820, 821, 822, 823, 824, 825, 826, 827, 828, 829, 830, 831, 832, 833, 834, 835, 836, 837, 838, 839, 840, 841, 842, 843, 844, 845, 846, 847, 848, 849, 850, 851, 852, 853, 854, 855, 856, 857, 858, 859, 860, 861, 862, 863, 864, 865, 866, 867, 868, 869, 870, 871, 872],
      "AcquisitionTime": ["114834.347500", "114834.807500", "114835.267500", "114835.727500", "114836.187500", "114836.647500", "114837.107500", "114837.567500", "114838.027500", "114838.487500", "114838.947500", "114839.407500", "114839.867500", "114840.327500", "114840.787500", "114841.247500", "114841.707500", "114842.167500", "114842.627500", "114843.087500", "114843.547500", "114844.007500", "114844.467500", "114844.927500", "114845.387500", "114845.847500", "114846.307500", "114846.767500", "114847.227500", "114847.687500", "114848.147500", "114848.607500", "114849.067500", "114849.527500", "114849.987500", "114850.447500", "114850.907500", "114851.367500", "114851.827500", "114852.287500", "114852.747500", "114853.207500", "114853.667500", "114854.127500", "114854.587500", "114855.047500", "114855.507500", "114855.967500", "114856.427500", "114856.887500", "114857.347500", "114857.807500", "114858.267500", "114858.727500", "114859.187500", "114859.647500", "114900.107500", "114900.567500", "114901.027500", "114901.487500", "114901.947500", "114902.407500", "114902.867500", "114903.327500", "114903.787500", "114904.247500", "114904.707500", "114905.167500", "114905.627500", "114906.087500", "114906.547500", "114907.007500", "114907.467500", "114907.927500", "114908.387500", "114908.847500", "114909.307500", "114909.767500", "114910.227500", "114910.687500", "114911.147500", "114911.607500", "114912.067500", "114912.527500", "114912.987500", "114913.447500", "114913.907500", "114914.367500", "114914.827500", "114915.287500", "114915.747500", "114916.207500", "114916.667500", "114917.127500", "114917.587500", "114918.047500", "114918.507500", "114918.967500", "114919.427500", "114919.887500", "114920.347500", "114920.807500", "114921.267500", "114921.727500", "114922.187500", "114922.647500", "114923.107500", "114923.567500", "114924.027500", "114924.487500", "114924.947500", "114925.407500", "114925.867500", "114926.327500", "114926.787500", "114927.247500", "114927.707500", "114928.167500", "114928.627500", "114929.087500", "114929.547500", "114930.007500", "114930.467500", "114930.927500", "114931.387500", "114931.847500", "114932.307500", "114932.767500", "114933.227500", "114933.687500", "114934.147500", "114934.607500", "114935.067500", "114935.527500", "114935.987500", "114936.447500", "114936.907500", "114937.367500", "114937.827500", "114938.287500", "114938.747500", "114939.207500", "114939.667500", "114940.127500", "114940.587500", "114941.047500", "114941.507500", "114941.967500", "114942.427500", "114942.887500", "114943.347500", "114943.807500", "114944.267500", "114944.727500", "114945.187500", "114945.647500", "114946.107500", "114946.567500", "114947.027500", "114947.487500", "114947.947500", "114948.407500", "114948.867500", "114949.327500", "114949.787500", "114950.247500", "114950.707500", "114951.167500", "114951.627500", "114952.087500", "114952.547500", "114953.007500", "114953.467500", "114953.927500", "114954.387500", "114954.847500", "114955.307500", "114955.767500", "114956.227500", "114956.687500", "114957.147500", "114957.607500", "114958.067500", "114958.527500", "114958.987500", "114959.447500", "114959.907500", "115000.367500", "115000.827500", "115001.287500", "115001.747500", "115002.207500", "115002.667500", "115003.127500", "115003.587500", "115004.047500", "115004.507500", "115004.967500", "115005.427500", "115005.887500", "115006.347500", "115006.807500", "115007.267500", "115007.727500", "115008.187500", "115008.647500", "115009.107500", "115009.567500", "115010.027500", "115010.487500", "115010.947500", "115011.407500", "115011.867500", "115012.327500", "115012.787500", "115013.247500", "115013.707500", "115014.167500", "115014.627500", "115015.087500", "115015.547500", "115016.007500", "115016.467500", "115016.927500", "115017.387500", "115017.847500", "115018.307500", "115018.767500", "115019.227500", "115019.687500", "115020.147500", "115020.607500", "115021.067500", "115021.527500", "115021.987500", "115022.447500", "115022.907500", "115023.367500", "115023.827500", "115024.287500", "115024.747500", "115025.207500", "115025.667500", "115026.127500", "115026.587500", "115027.047500", "115027.507500", "115027.967500", "115028.427500", "115028.887500", "115029.347500", "115029.807500", "115030.267500", "115030.727500", "115031.187500", "115031.647500", "115032.107500", "115032.567500", "115033.027500", "115033.487500", "115033.947500", "115034.407500", "115034.867500", "115035.327500", "115035.787500", "115036.247500", "115036.707500", "115037.167500", "115037.627500", "115038.087500", "115038.547500", "115039.007500", "115039.467500", "115039.927500", "115040.387500", "115040.847500", "115041.307500", "115041.767500", "115042.227500", "115042.687500", "115043.147500", "115043.607500", "115044.067500", "115044.527500", "115044.987500", "115045.447500", "115045.907500", "115046.367500", "115046.827500", "115047.287500", "115047.747500", "115048.207500", "115048.667500", "115049.127500", "115049.587500", "115050.047500", "115050.507500", "115050.967500", "115051.427500", "115051.887500", "115052.347500", "115052.807500", "115053.267500", "115053.727500", "115054.187500", "115054.647500", "115055.107500", "115055.567500", "115056.027500", "115056.487500", "115056.947500", "115057.407500", "115057.867500", "115058.327500", "115058.787500", "115059.247500", "115059.707500", "115100.167500", "115100.627500", "115101.087500", "115101.547500", "115102.007500", "115102.467500", "115102.927500", "115103.387500", "115103.847500", "115104.307500", "115104.767500", "115105.227500", "115105.687500", "115106.147500", "115106.607500", "115107.067500", "115107.527500", "115107.987500", "115108.447500", "115108.907500", "115109.367500", "115109.827500", "115110.287500", "115110.747500", "115111.207500", "115111.667500", "115112.127500", "115112.587500", "115113.047500", "115113.507500", "115113.967500", "115114.427500", "115114.887500", "115115.347500", "115115.807500", "115116.267500", "115116.727500", "115117.187500", "115117.647500", "115118.107500", "115118.567500", "115119.027500", "115119.487500", "115119.947500", "115120.407500", "115120.867500", "115121.327500", "115121.787500", "115122.247500", "115122.707500", "115123.167500", "115123.627500", "115124.087500", "115124.547500", "115125.007500", "115125.467500", "115125.927500", "115126.387500", "115126.847500", "115127.307500", "115127.767500", "115128.227500", "115128.687500", "115129.147500", "115129.607500", "115130.067500", "115130.527500", "115130.987500", "115131.447500", "115131.907500", "115132.367500", "115132.827500", "115133.287500", "115133.747500", "115134.207500", "115134.667500", "115135.127500", "115135.587500", "115136.047500", "115136.507500", "115136.967500", "115137.427500", "115137.887500", "115138.347500", "115138.807500", "115139.267500", "115139.727500", "115140.187500", "115140.647500", "115141.107500", "115141.567500", "115142.027500", "115142.487500", "115142.947500", "115143.407500", "115143.867500", "115144.327500", "115144.787500", "115145.247500", "115145.707500", "115146.167500", "115146.627500", "115147.087500", "115147.547500", "115148.007500", "115148.467500", "115148.927500", "115149.387500", "115149.847500", "115150.307500", "115150.767500", "115151.227500", "115151.687500", "115152.147500", "115152.607500", "115153.067500", "115153.527500", "115153.987500", "115154.447500", "115154.907500", "115155.367500", "115155.827500", "115156.287500", "115156.747500", "115157.207500", "115157.667500", "115158.127500", "115158.587500", "115159.047500", "115159.507500", "115159.967500", "115200.427500", "115200.887500", "115201.347500", "115201.807500", "115202.267500", "115202.727500", "115203.187500", "115203.647500", "115204.107500", "115204.567500", "115205.027500", "115205.487500", "115205.947500", "115206.407500", "115206.867500", "115207.327500", "115207.787500", "115208.247500", "115208.707500", "115209.167500", "115209.627500", "115210.087500", "115210.547500", "115211.007500", "115211.467500", "115211.927500", "115212.387500", "115212.847500", "115213.307500", "115213.767500", "115214.227500", "115214.687500", "115215.147500", "115215.607500", "115216.067500", "115216.527500", "115216.987500", "115217.447500", "115217.907500", "115218.367500", "115218.827500", "115219.287500", "115219.747500", "115220.207500", "115220.667500", "115221.127500", "115221.587500", "115222.047500", "115222.507500", "115222.967500", "115223.427500", "115223.887500", "115224.347500", "115224.807500", "115225.267500", "115225.727500", "115226.187500", "115226.647500", "115227.107500", "115227.567500", "115228.027500", "115228.487500", "115228.947500", "115229.407500", "115229.867500", "115230.327500", "115230.787500", "115231.247500", "115231.707500", "115232.167500", "115232.627500", "115233.087500", "115233.547500", "115234.007500", "115234.467500", "115234.927500", "115235.387500", "115235.847500", "115236.307500", "115236.767500", "115237.227500", "115237.687500", "115238.147500", "115238.607500", "115239.067500", "115239.527500", "115239.987500", "115240.447500", "115240.907500", "115241.367500", "115241.827500", "115242.287500", "115242.747500", "115243.207500", "115243.667500", "115244.127500", "115244.587500", "115245.047500", "115245.507500", "115245.967500", "115246.427500", "115246.887500", "115247.347500", "115247.807500", "115248.267500", "115248.727500", "115249.187500", "115249.647500", "115250.107500", "115250.567500", "115251.027500", "115251.487500", "115251.947500", "115252.407500", "115252.867500", "115253.327500", "115253.787500", "115254.247500", "115254.707500", "115255.167500", "115255.627500", "115256.087500", "115256.547500", "115257.007500", "115257.467500", "115257.927500", "115258.387500", "115258.847500", "115259.307500", "115259.767500", "115300.227500", "115300.687500", "115301.147500", "115301.607500", "115302.067500", "115302.527500", "115302.987500", "115303.447500", "115303.907500", "115304.367500", "115304.827500", "115305.287500", "115305.747500", "115306.207500", "115306.667500", "115307.127500", "115307.587500", "115308.047500", "115308.507500", "115308.967500", "115309.427500", "115309.887500", "115310.347500", "115310.807500", "115311.267500", "115311.727500", "115312.187500", "115312.647500", "115313.107500", "115313.567500", "115314.027500", "115314.487500", "115314.947500", "115315.407500", "115315.867500", "115316.327500", "115316.787500", "115317.247500", "115317.707500", "115318.167500", "115318.627500", "115319.087500", "115319.547500", "115320.007500", "115320.467500", "115320.927500", "115321.387500", "115321.847500", "115322.307500", "115322.767500", "115323.227500", "115323.687500", "115324.147500", "115324.607500", "115325.067500", "115325.527500", "115325.987500", "115326.447500", "115326.907500", "115327.367500", "115327.827500", "115328.287500", "115328.747500", "115329.207500", "115329.667500", "115330.127500", "115330.587500", "115331.047500", "115331.507500", "115331.967500", "115332.427500", "115332.887500", "115333.347500", "115333.807500", "115334.267500", "115334.727500", "115335.187500", "115335.647500", "115336.107500", "115336.567500", "115337.027500", "115337.487500", "115337.947500", "115338.407500", "115338.867500", "115339.327500", "115339.787500", "115340.247500", "115340.707500", "115341.167500", "115341.627500", "115342.087500", "115342.547500", "115343.007500", "115343.467500", "115343.927500", "115344.387500", "115344.847500", "115345.307500", "115345.767500", "115346.227500", "115346.687500", "115347.147500", "115347.607500", "115348.067500", "115348.527500", "115348.987500", "115349.447500", "115349.907500", "115350.367500", "115350.827500", "115351.287500", "115351.747500", "115352.207500", "115352.667500", "115353.127500", "115353.587500", "115354.047500", "115354.507500", "115354.967500", "115355.427500", "115355.887500", "115356.347500", "115356.807500", "115357.267500", "115357.727500", "115358.187500", "115358.647500", "115359.107500", "115359.567500", "115400.027500", "115400.487500", "115400.947500", "115401.407500", "115401.867500", "115402.327500", "115402.787500", "115403.247500", "115403.707500", "115404.167500", "115404.627500", "115405.087500", "115405.547500", "115406.007500", "115406.467500", "115406.927500", "115407.387500", "115407.847500", "115408.307500", "115408.767500", "115409.227500", "115409.687500", "115410.147500", "115410.607500", "115411.067500", "115411.527500", "115411.987500", "115412.447500", "115412.907500", "115413.367500", "115413.827500", "115414.287500", "115414.747500", "115415.207500", "115415.667500", "115416.127500", "115416.587500", "115417.047500", "115417.507500", "115417.967500", "115418.427500", "115418.887500", "115419.347500", "115419.807500", "115420.267500", "115420.727500", "115421.187500", "115421.647500", "115422.107500", "115422.567500", "115423.027500", "115423.487500", "115423.947500", "115424.407500", "115424.867500", "115425.327500", "115425.787500", "115426.247500", "115426.707500", "115427.167500", "115427.627500", "115428.087500", "115428.547500", "115429.007500", "115429.467500", "115429.927500", "115430.387500", "115430.847500", "115431.307500", "115431.767500", "115432.227500", "115432.687500", "115433.147500", "115433.607500", "115434.067500", "115434.527500", "115434.987500", "115435.447500", "115435.907500", "115436.367500", "115436.827500", "115437.287500", "115437.747500", "115438.207500", "115438.667500", "115439.127500", "115439.587500", "115440.047500", "115440.507500", "115440.967500", "115441.427500", "115441.887500", "115442.347500", "115442.807500", "115443.267500", "115443.727500", "115444.187500", "115444.647500", "115445.107500", "115445.567500", "115446.027500", "115446.487500", "115446.947500", "115447.407500", "115447.867500", "115448.327500", "115448.787500", "115449.247500", "115449.707500", "115450.167500", "115450.627500", "115451.087500", "115451.547500", "115452.007500", "115452.467500", "115452.927500", "115453.387500", "115453.847500", "115454.307500", "115454.767500", "115455.227500", "115455.687500", "115456.147500", "115456.607500", "115457.067500", "115457.527500", "115457.987500", "115458.447500", "115458.907500", "115459.367500", "115459.827500", "115500.287500", "115500.747500", "115501.207500", "115501.667500", "115502.127500", "115502.587500", "115503.047500", "115503.507500", "115503.967500", "115504.427500", "115504.887500", "115505.347500", "115505.807500", "115506.267500", "115506.727500", "115507.187500", "115507.647500", "115508.107500", "115508.567500", "115509.027500", "115509.487500", "115509.947500", "115510.407500", "115510.867500", "115511.327500", "115511.787500", "115512.247500", "115512.707500", "115513.167500", "115513.627500", "115514.087500", "115514.547500", "115515.007500"],
