{
  "AcquisitionMatrixPE": 82,
  "AcquisitionNumber": 1,
  "AcquisitionTime": "14:05:58.882500",
  "BandwidthPerPixelPhaseEncode": 24.888,
  "BaseResolution": 82,
  "BodyPartExamined": "BRAIN",
  "ConsistencyInfo": "N4_VE11C_LATEST_20160120",
  "ConversionSoftware": "dcm2niix",
  "ConversionSoftwareVersion": "v1.0.20201102",
  "DerivedVendorReportedEchoSpacing": 0.00049,
  "DeviceSerialNumber": "66112",
  "DwellTime": 2e-06,
  "EchoTime": 0.0272,
  "EchoTrainLength": 82,
  "EffectiveEchoSpacing": 0.00049,
  "FlipAngle": 44,
  "ImageComments": "Unaliased MB8/PE3",
  "ImageOrientationPatientDICOM": [0.999228, -0.0346096, -0.0185851, 0.0361161, 0.995465, 0.0880068],
  "ImageType": [
    "ORIGINAL",
    "PRIMARY",
    "M",
    "MB",
    "ND",
    "NORM",
    "MOSAIC"
],
  "ImagingFrequency": 123.252,
  "InPlanePhaseEncodingDirectionDICOM": "COL",
  "InstitutionAddress": "Maynard 3,Hanover,NH,US,03755",
  "InstitutionName": "Dartmouth College - PBS",
  "InstitutionalDepartmentName": "Department",
  "MRAcquisitionType": "2D",
  "MagneticFieldStrength": 3,
  "Manufacturer": "Siemens",
  "ManufacturersModelName": "Prisma",
  "Modality": "MR",
  "MultibandAccelerationFactor": 8,
  "PartialFourier": 1,
  "PatientPosition": "HFS",
  "PercentPhaseFOV": 100,
  "PercentSampling": 100,
  "PhaseEncodingDirection": "j-",
  "PhaseEncodingSteps": 82,
  "PhaseResolution": 1,
  "PixelBandwidth": 3050,
  "ProcedureStepDescription": "Wager_Wager^1076_spacetop",
  "ProtocolName": "func_run-03_task-social_acq-ap-mb8",
  "PulseSequenceDetails": "%CustomerSeq%\\cmrr_mbep2d_bold",
  "ReceiveCoilActiveElements": "HEA;HEP",
  "ReceiveCoilName": "Head_32",
  "ReconMatrixPE": 82,
  "RepetitionTime": 0.46,
  "SAR": 0.0975637,
  "ScanOptions": "FS",
  "ScanningSequence": "EP",
  "SequenceName": "epfid2d1_82",
  "SequenceVariant": "SK\\SS",
  "SeriesDescription": "func_run-03_task-social_acq-ap-mb8",
  "SeriesNumber": 18,
  "ShimSetting": [4147, -7709, -7251, 430, -15, -21, 56, 74],
  "SliceThickness": 2.7,
  "SliceTiming": [0, 0.25, 0.0625, 0.315, 0.125, 0.3775, 0.1875, 0, 0.25, 0.0625, 0.315, 0.125, 0.3775, 0.1875, 0, 0.25, 0.0625, 0.315, 0.125, 0.3775, 0.1875, 0, 0.25, 0.0625, 0.315, 0.125, 0.3775, 0.1875, 0, 0.25, 0.0625, 0.315, 0.125, 0.3775, 0.1875, 0, 0.25, 0.0625, 0.315, 0.125, 0.3775, 0.1875, 0, 0.25, 0.0625, 0.315, 0.125, 0.3775, 0.1875, 0, 0.25, 0.0625, 0.315, 0.125, 0.3775, 0.1875],
  "SoftwareVersions": "syngo MR E11",
  "SpacingBetweenSlices": 2.7,
  "StationName": "AWP66112",
  "TaskName": "social",
  "TotalReadoutTime": 0.03969,
  "TxRefAmp": 228.908,
  "WipMemBlock": "b964851a-e6b6-4b2c-9979-6589f29e0a97||Sequence: R016 ve11c/master r/e634e98; Dec 19 2017 11:00:25 by eja",
  "dcmmeta_affine": [
    [-2.6808559894561768, 0.09689684957265854, -0.04172822833061218, 109.320556640625],
    [0.09285493195056915, 2.670759677886963, 0.23924711346626282, -99.86251068115234],
    [-0.04986235499382019, -0.2361156940460205, 2.6890554428100586, -45.272769927978516],
    [0.0, 0.0, 0.0, 1.0]
],
  "dcmmeta_reorient_transform": [
    [0.0, -1.0, 0.0, 81.0],
    [1.0, 0.0, 0.0, 0.0],
    [0.0, 0.0, 1.0, 0.0],
    [0.0, 0.0, 0.0, 1.0]
],
  "dcmmeta_shape": [82, 82, 56, 872],
  "dcmmeta_slice_dim": 2,
  "dcmmeta_version": 0.6,
  "global": {
    "const": {
      "AccessionNumber": "A003817",
      "AcquisitionMatrix": [82, 0, 0, 82],
      "AngioFlag": "N",
      "BitsAllocated": 16,
      "BitsStored": 16,
      "BodyPartExamined": "BRAIN",
      "Columns": 656,
      "EchoNumbers": 1,
      "EchoTime": 27.2,
      "EchoTrainLength": 82,
      "FlipAngle": 44.0,
      "HighBit": 15,
      "ImageOrientationPatient": [0.99922808891931, -0.0346095637036, -0.0185850589161, 0.03611609625957, 0.99546493591108, 0.08800675520959],
      "ImagePositionPatient": [-914.38424360993, -856.32767198041, -117.85284727711],
      "ImageType": [
        "ORIGINAL",
        "PRIMARY",
        "M",
        "MB",
        "ND",
        "NORM",
        "MOSAIC"
],
      "ImagedNucleus": "1H",
      "ImagingFrequency": 123.252234,
      "InPlanePhaseEncodingDirection": "COL",
      "MRAcquisitionType": "2D",
      "MagneticFieldStrength": 3.0,
      "Manufacturer": "SIEMENS",
      "ManufacturerModelName": "Prisma",
      "Modality": "MR",
      "NumberOfAverages": 1.0,
      "NumberOfPhaseEncodingSteps": 82,
      "PercentPhaseFieldOfView": 100.0,
      "PercentSampling": 100.0,
      "PerformedProcedureStepStartTime": "131335.708000",
      "PhotometricInterpretation": "MONOCHROME2",
      "PixelBandwidth": 3050.0,
      "PixelRepresentation": 0,
      "PixelSpacing": [2.6829268932343, 2.6829268932343],
      "ProtocolName": "func_run-03_task-social_acq-ap-mb8",
      "RepetitionTime": 460.0,
      "Rows": 656,
      "SAR": 0.09756372468577,
      "SamplesPerPixel": 1,
      "ScanOptions": "FS",
      "ScanningSequence": "EP",
      "SequenceName": "epfid2d1_82",
      "SequenceVariant": [
        "SK",
        "SS"
],
      "SeriesDescription": "func_run-03_task-social_acq-ap-mb8",
      "SeriesNumber": 18,
      "SeriesTime": "140618.234000",
      "SliceLocation": -55.627614898932,
      "SliceThickness": 2.7000000476837,
      "SmallestImagePixelValue": 0,
      "SoftwareVersions": "syngo MR E11",
      "SpacingBetweenSlices": 2.6999999779471,
      "SpecificCharacterSet": "ISO_IR 100",
      "StudyID": "1",
      "StudyTime": "131335.643000",
      "TransmitCoilName": "Body",
      "VariableFlipAngleFlag": "N",
      "WindowCenterWidthExplanation": "Algo1",
      "dBdt": 0.0},
    "slices": {}
  },
  "time": {
    "samples": {
      "AcquisitionNumber": [1, 2, 3, 4, 5, 6, 7, 8, 9, 10, 11, 12, 13, 14, 15, 16, 17, 18, 19, 20, 21, 22, 23, 24, 25, 26, 27, 28, 29, 30, 31, 32, 33, 34, 35, 36, 37, 38, 39, 40, 41, 42, 43, 44, 45, 46, 47, 48, 49, 50, 51, 52, 53, 54, 55, 56, 57, 58, 59, 60, 61, 62, 63, 64, 65, 66, 67, 68, 69, 70, 71, 72, 73, 74, 75, 76, 77, 78, 79, 80, 81, 82, 83, 84, 85, 86, 87, 88, 89, 90, 91, 92, 93, 94, 95, 96, 97, 98, 99, 100, 101, 102, 103, 104, 105, 106, 107, 108, 109, 110, 111, 112, 113, 114, 115, 116, 117, 118, 119, 120, 121, 122, 123, 124, 125, 126, 127, 128, 129, 130, 131, 132, 133, 134, 135, 136, 137, 138, 139, 140, 141, 142, 143, 144, 145, 146, 147, 148, 149, 150, 151, 152, 153, 154, 155, 156, 157, 158, 159, 160, 161, 162, 163, 164, 165, 166, 167, 168, 169, 170, 171, 172, 173, 174, 175, 176, 177, 178, 179, 180, 181, 182, 183, 184, 185, 186, 187, 188, 189, 190, 191, 192, 193, 194, 195, 196, 197, 198, 199, 200, 201, 202, 203, 204, 205, 206, 207, 208, 209, 210, 211, 212, 213, 214, 215, 216, 217, 218, 219, 220, 221, 222, 223, 224, 225, 226, 227, 228, 229, 230, 231, 232, 233, 234, 235, 236, 237, 238, 239, 240, 241, 242, 243, 244, 245, 246, 247, 248, 249, 250, 251, 252, 253, 254, 255, 256, 257, 258, 259, 260, 261, 262, 263, 264, 265, 266, 267, 268, 269, 270, 271, 272, 273, 274, 275, 276, 277, 278, 279, 280, 281, 282, 283, 284, 285, 286, 287, 288, 289, 290, 291, 292, 293, 294, 295, 296, 297, 298, 299, 300, 301, 302, 303, 304, 305, 306, 307, 308, 309, 310, 311, 312, 313, 314, 315, 316, 317, 318, 319, 320, 321, 322, 323, 324, 325, 326, 327, 328, 329, 330, 331, 332, 333, 334, 335, 336, 337, 338, 339, 340, 341, 342, 343, 344, 345, 346, 347, 348, 349, 350, 351, 352, 353, 354, 355, 356, 357, 358, 359, 360, 361, 362, 363, 364, 365, 366, 367, 368, 369, 370, 371, 372, 373, 374, 375, 376, 377, 378, 379, 380, 381, 382, 383, 384, 385, 386, 387, 388, 389, 390, 391, 392, 393, 394, 395, 396, 397, 398, 399, 400, 401, 402, 403, 404, 405, 406, 407, 408, 409, 410, 411, 412, 413, 414, 415, 416, 417, 418, 419, 420, 421, 422, 423, 424, 425, 426, 427, 428, 429, 430, 431, 432, 433, 434, 435, 436, 437, 438, 439, 440, 441, 442, 443, 444, 445, 446, 447, 448, 449, 450, 451, 452, 453, 454, 455, 456, 457, 458, 459, 460, 461, 462, 463, 464, 465, 466, 467, 468, 469, 470, 471, 472, 473, 474, 475, 476, 477, 478, 479, 480, 481, 482, 483, 484, 485, 486, 487, 488, 489, 490, 491, 492, 493, 494, 495, 496, 497, 498, 499, 500, 501, 502, 503, 504, 505, 506, 507, 508, 509, 510, 511, 512, 513, 514, 515, 516, 517, 518, 519, 520, 521, 522, 523, 524, 525, 526, 527, 528, 529, 530, 531, 532, 533, 534, 535, 536, 537, 538, 539, 540, 541, 542, 543, 544, 545, 546, 547, 548, 549, 550, 551, 552, 553, 554, 555, 556, 557, 558, 559, 560, 561, 562, 563, 564, 565, 566, 567, 568, 569, 570, 571, 572, 573, 574, 575, 576, 577, 578, 579, 580, 581, 582, 583, 584, 585, 586, 587, 588, 589, 590, 591, 592, 593, 594, 595, 596, 597, 598, 599, 600, 601, 602, 603, 604, 605, 606, 607, 608, 609, 610, 611, 612, 613, 614, 615, 616, 617, 618, 619, 620, 621, 622, 623, 624, 625, 626, 627, 628, 629, 630, 631, 632, 633, 634, 635, 636, 637, 638, 639, 640, 641, 642, 643, 644, 645, 646, 647, 648, 649, 650, 651, 652, 653, 654, 655, 656, 657, 658, 659, 660, 661, 662, 663, 664, 665, 666, 667, 668, 669, 670, 671, 672, 673, 674, 675, 676, 677, 678, 679, 680, 681, 682, 683, 684, 685, 686, 687, 688, 689, 690, 691, 692, 693, 694, 695, 696, 697, 698, 699, 700, 701, 702, 703, 704, 705, 706, 707, 708, 709, 710, 711, 712, 713, 714, 715, 716, 717, 718, 719, 720, 721, 722, 723, 724, 725, 726, 727, 728, 729, 730, 731, 732, 733, 734, 735, 736, 737, 738, 739, 740, 741, 742, 743, 744, 745, 746, 747, 748, 749, 750, 751, 752, 753, 754, 755, 756, 757, 758, 759, 760, 761, 762, 763, 764, 765, 766, 767, 768, 769, 770, 771, 772, 773, 774, 775, 776, 777, 778, 779, 780, 781, 782, 783, 784, 785, 786, 787, 788, 789, 790, 791, 792, 793, 794, 795, 796, 797, 798, 799, 800, 801, 802, 803, 804, 805, 806, 807, 808, 809, 810, 811, 812, 813, 814, 815, 816, 817, 818, 819, 820, 821, 822, 823, 824, 825, 826, 827, 828, 829, 830, 831, 832, 833, 834, 835, 836, 837, 838, 839, 840, 841, 842, 843, 844, 845, 846, 847, 848, 849, 850, 851, 852, 853, 854, 855, 856, 857, 858, 859, 860, 861, 862, 863, 864, 865, 866, 867, 868, 869, 870, 871, 872],
      "AcquisitionTime": ["140558.882500", "140559.342500", "140559.802500", "140600.262500", "140600.722500", "140601.182500", "140601.642500", "140602.102500", "140602.562500", "140603.022500", "140603.482500", "140603.942500", "140604.402500", "140604.862500", "140605.322500", "140605.782500", "140606.242500", "140606.702500", "140607.162500", "140607.622500", "140608.082500", "140608.542500", "140609.002500", "140609.462500", "140609.922500", "140610.382500", "140610.842500", "140611.302500", "140611.762500", "140612.222500", "140612.682500", "140613.142500", "140613.602500", "140614.062500", "140614.522500", "140614.982500", "140615.442500", "140615.902500", "140616.362500", "140616.822500", "140617.282500", "140617.742500", "140618.202500", "140618.662500", "140619.122500", "140619.582500", "140620.042500", "140620.502500", "140620.962500", "140621.422500", "140621.882500", "140622.342500", "140622.802500", "140623.262500", "140623.722500", "140624.182500", "140624.642500", "140625.102500", "140625.562500", "140626.022500", "140626.482500", "140626.942500", "140627.402500", "140627.862500", "140628.322500", "140628.782500", "140629.242500", "140629.702500", "140630.162500", "140630.622500", "140631.082500", "140631.542500", "140632.002500", "140632.462500", "140632.922500", "140633.382500", "140633.842500", "140634.302500", "140634.762500", "140635.222500", "140635.682500", "140636.142500", "140636.602500", "140637.062500", "140637.522500", "140637.982500", "140638.442500", "140638.902500", "140639.362500", "140639.822500", "140640.282500", "140640.742500", "140641.202500", "140641.662500", "140642.122500", "140642.582500", "140643.042500", "140643.502500", "140643.962500", "140644.422500", "140644.882500", "140645.342500", "140645.802500", "140646.262500", "140646.722500", "140647.182500", "140647.642500", "140648.102500", "140648.562500", "140649.022500", "140649.482500", "140649.942500", "140650.402500", "140650.862500", "140651.322500", "140651.782500", "140652.242500", "140652.702500", "140653.162500", "140653.622500", "140654.082500", "140654.542500", "140655.002500", "140655.462500", "140655.922500", "140656.382500", "140656.842500", "140657.302500", "140657.762500", "140658.222500", "140658.682500", "140659.142500", "140659.602500", "140700.062500", "140700.522500", "140700.982500", "140701.442500", "140701.902500", "140702.362500", "140702.822500", "140703.282500", "140703.742500", "140704.202500", "140704.662500", "140705.122500", "140705.582500", "140706.042500", "140706.502500", "140706.962500", "140707.422500", "140707.882500", "140708.342500", "140708.802500", "140709.262500", "140709.722500", "140710.182500", "140710.642500", "140711.102500", "140711.562500", "140712.022500", "140712.482500", "140712.942500", "140713.402500", "140713.862500", "140714.322500", "140714.782500", "140715.242500", "140715.702500", "140716.162500", "140716.622500", "140717.082500", "140717.542500", "140718.002500", "140718.462500", "140718.922500", "140719.382500", "140719.842500", "140720.302500", "140720.762500", "140721.222500", "140721.682500", "140722.142500", "140722.602500", "140723.062500", "140723.522500", "140723.982500", "140724.442500", "140724.902500", "140725.362500", "140725.822500", "140726.282500", "140726.742500", "140727.202500", "140727.662500", "140728.122500", "140728.582500", "140729.042500", "140729.502500", "140729.962500", "140730.422500", "140730.882500", "140731.342500", "140731.802500", "140732.262500", "140732.722500", "140733.182500", "140733.642500", "140734.102500", "140734.562500", "140735.022500", "140735.482500", "140735.942500", "140736.402500", "140736.862500", "140737.322500", "140737.782500", "140738.242500", "140738.702500", "140739.162500", "140739.622500", "140740.082500", "140740.542500", "140741.002500", "140741.462500", "140741.922500", "140742.382500", "140742.842500", "140743.302500", "140743.762500", "140744.222500", "140744.682500", "140745.142500", "140745.602500", "140746.062500", "140746.522500", "140746.982500", "140747.442500", "140747.902500", "140748.362500", "140748.822500", "140749.282500", "140749.742500", "140750.202500", "140750.662500", "140751.122500", "140751.582500", "140752.042500", "140752.502500", "140752.962500", "140753.422500", "140753.882500", "140754.342500", "140754.802500", "140755.262500", "140755.722500", "140756.182500", "140756.642500", "140757.102500", "140757.562500", "140758.022500", "140758.482500", "140758.942500", "140759.402500", "140759.862500", "140800.322500", "140800.782500", "140801.242500", "140801.702500", "140802.162500", "140802.622500", "140803.082500", "140803.542500", "140804.002500", "140804.462500", "140804.922500", "140805.382500", "140805.842500", "140806.302500", "140806.762500", "140807.222500", "140807.682500", "140808.142500", "140808.602500", "140809.062500", "140809.522500", "140809.982500", "140810.442500", "140810.902500", "140811.362500", "140811.822500", "140812.282500", "140812.742500", "140813.202500", "140813.662500", "140814.122500", "140814.582500", "140815.042500", "140815.502500", "140815.962500", "140816.422500", "140816.882500", "140817.342500", "140817.802500", "140818.262500", "140818.722500", "140819.182500", "140819.642500", "140820.102500", "140820.562500", "140821.022500", "140821.482500", "140821.942500", "140822.402500", "140822.862500", "140823.322500", "140823.782500", "140824.242500", "140824.702500", "140825.162500", "140825.622500", "140826.082500", "140826.542500", "140827.002500", "140827.462500", "140827.922500", "140828.382500", "140828.842500", "140829.302500", "140829.762500", "140830.222500", "140830.682500", "140831.142500", "140831.602500", "140832.062500", "140832.522500", "140832.982500", "140833.442500", "140833.902500", "140834.362500", "140834.822500", "140835.282500", "140835.742500", "140836.202500", "140836.662500", "140837.122500", "140837.582500", "140838.042500", "140838.502500", "140838.962500", "140839.422500", "140839.882500", "140840.342500", "140840.802500", "140841.262500", "140841.722500", "140842.182500", "140842.642500", "140843.102500", "140843.562500", "140844.022500", "140844.482500", "140844.942500", "140845.402500", "140845.862500", "140846.322500", "140846.782500", "140847.242500", "140847.702500", "140848.162500", "140848.622500", "140849.082500", "140849.542500", "140850.002500", "140850.462500", "140850.922500", "140851.382500", "140851.842500", "140852.302500", "140852.762500", "140853.222500", "140853.682500", "140854.142500", "140854.602500", "140855.062500", "140855.522500", "140855.982500", "140856.442500", "140856.902500", "140857.362500", "140857.822500", "140858.282500", "140858.742500", "140859.202500", "140859.662500", "140900.122500", "140900.582500", "140901.042500", "140901.502500", "140901.962500", "140902.422500", "140902.882500", "140903.342500", "140903.802500", "140904.262500", "140904.722500", "140905.182500", "140905.642500", "140906.102500", "140906.562500", "140907.022500", "140907.482500", "140907.942500", "140908.402500", "140908.862500", "140909.322500", "140909.782500", "140910.242500", "140910.702500", "140911.162500", "140911.622500", "140912.082500", "140912.542500", "140913.002500", "140913.462500", "140913.922500", "140914.382500", "140914.842500", "140915.302500", "140915.762500", "140916.222500", "140916.682500", "140917.142500", "140917.602500", "140918.062500", "140918.522500", "140918.982500", "140919.442500", "140919.902500", "140920.362500", "140920.822500", "140921.282500", "140921.742500", "140922.202500", "140922.662500", "140923.122500", "140923.582500", "140924.042500", "140924.502500", "140924.962500", "140925.422500", "140925.882500", "140926.342500", "140926.802500", "140927.262500", "140927.722500", "140928.182500", "140928.642500", "140929.102500", "140929.562500", "140930.022500", "140930.482500", "140930.942500", "140931.402500", "140931.862500", "140932.322500", "140932.782500", "140933.242500", "140933.702500", "140934.162500", "140934.622500", "140935.082500", "140935.542500", "140936.002500", "140936.462500", "140936.922500", "140937.382500", "140937.842500", "140938.302500", "140938.762500", "140939.222500", "140939.682500", "140940.142500", "140940.602500", "140941.062500", "140941.522500", "140941.982500", "140942.442500", "140942.902500", "140943.362500", "140943.822500", "140944.282500", "140944.742500", "140945.202500", "140945.662500", "140946.122500", "140946.582500", "140947.042500", "140947.502500", "140947.962500", "140948.422500", "140948.882500", "140949.342500", "140949.802500", "140950.262500", "140950.722500", "140951.182500", "140951.642500", "140952.102500", "140952.562500", "140953.022500", "140953.482500", "140953.942500", "140954.402500", "140954.862500", "140955.322500", "140955.782500", "140956.242500", "140956.702500", "140957.162500", "140957.622500", "140958.082500", "140958.542500", "140959.002500", "140959.462500", "140959.922500", "141000.382500", "141000.842500", "141001.302500", "141001.762500", "141002.222500", "141002.682500", "141003.142500", "141003.602500", "141004.062500", "141004.522500", "141004.982500", "141005.442500", "141005.902500", "141006.362500", "141006.822500", "141007.282500", "141007.742500", "141008.202500", "141008.662500", "141009.122500", "141009.582500", "141010.042500", "141010.502500", "141010.962500", "141011.422500", "141011.882500", "141012.342500", "141012.802500", "141013.262500", "141013.722500", "141014.182500", "141014.642500", "141015.102500", "141015.562500", "141016.022500", "141016.482500", "141016.942500", "141017.402500", "141017.862500", "141018.322500", "141018.782500", "141019.242500", "141019.702500", "141020.162500", "141020.622500", "141021.082500", "141021.542500", "141022.002500", "141022.462500", "141022.922500", "141023.382500", "141023.842500", "141024.302500", "141024.762500", "141025.222500", "141025.682500", "141026.142500", "141026.602500", "141027.062500", "141027.522500", "141027.982500", "141028.442500", "141028.902500", "141029.362500", "141029.822500", "141030.282500", "141030.742500", "141031.202500", "141031.662500", "141032.122500", "141032.582500", "141033.042500", "141033.502500", "141033.962500", "141034.422500", "141034.882500", "141035.342500", "141035.802500", "141036.262500", "141036.722500", "141037.182500", "141037.642500", "141038.102500", "141038.562500", "141039.022500", "141039.482500", "141039.942500", "141040.402500", "141040.862500", "141041.322500", "141041.782500", "141042.242500", "141042.702500", "141043.162500", "141043.622500", "141044.082500", "141044.542500", "141045.002500", "141045.462500", "141045.922500", "141046.382500", "141046.842500", "141047.302500", "141047.762500", "141048.222500", "141048.682500", "141049.142500", "141049.602500", "141050.062500", "141050.522500", "141050.982500", "141051.442500", "141051.902500", "141052.362500", "141052.822500", "141053.282500", "141053.742500", "141054.202500", "141054.662500", "141055.122500", "141055.582500", "141056.042500", "141056.502500", "141056.962500", "141057.422500", "141057.882500", "141058.342500", "141058.802500", "141059.262500", "141059.722500", "141100.182500", "141100.642500", "141101.102500", "141101.562500", "141102.022500", "141102.482500", "141102.942500", "141103.402500", "141103.862500", "141104.322500", "141104.782500", "141105.242500", "141105.702500", "141106.162500", "141106.622500", "141107.082500", "141107.542500", "141108.002500", "141108.462500", "141108.922500", "141109.382500", "141109.842500", "141110.302500", "141110.762500", "141111.222500", "141111.682500", "141112.142500", "141112.602500", "141113.062500", "141113.522500", "141113.982500", "141114.442500", "141114.902500", "141115.362500", "141115.822500", "141116.282500", "141116.742500", "141117.202500", "141117.662500", "141118.122500", "141118.582500", "141119.042500", "141119.502500", "141119.962500", "141120.422500", "141120.882500", "141121.342500", "141121.802500", "141122.262500", "141122.722500", "141123.182500", "141123.642500", "141124.102500", "141124.562500", "141125.022500", "141125.482500", "141125.942500", "141126.402500", "141126.862500", "141127.322500", "141127.782500", "141128.242500", "141128.702500", "141129.162500", "141129.622500", "141130.082500", "141130.542500", "141131.002500", "141131.462500", "141131.922500", "141132.382500", "141132.842500", "141133.302500", "141133.762500", "141134.222500", "141134.682500", "141135.142500", "141135.602500", "141136.062500", "141136.522500", "141136.982500", "141137.442500", "141137.902500", "141138.362500", "141138.822500", "141139.282500", "141139.742500", "141140.202500", "141140.662500", "141141.122500", "141141.582500", "141142.042500", "141142.502500", "141142.962500", "141143.422500", "141143.882500", "141144.342500", "141144.802500", "141145.262500", "141145.722500", "141146.182500", "141146.642500", "141147.102500", "141147.562500", "141148.022500", "141148.482500", "141148.942500", "141149.402500", "141149.862500", "141150.322500", "141150.782500", "141151.242500", "141151.702500", "141152.162500", "141152.622500", "141153.082500", "141153.542500", "141154.002500", "141154.462500", "141154.922500", "141155.382500", "141155.842500", "141156.302500", "141156.762500", "141157.222500", "141157.682500", "141158.142500", "141158.602500", "141159.062500", "141159.522500", "141159.982500", "141200.442500", "141200.902500", "141201.362500", "141201.822500", "141202.282500", "141202.742500", "141203.202500", "141203.662500", "141204.122500", "141204.582500", "141205.042500", "141205.502500", "141205.962500", "141206.422500", "141206.882500", "141207.342500", "141207.802500", "141208.262500", "141208.722500", "141209.182500", "141209.642500", "141210.102500", "141210.562500", "141211.022500", "141211.482500", "141211.942500", "141212.402500", "141212.862500", "141213.322500", "141213.782500", "141214.242500", "141214.702500", "141215.162500", "141215.622500", "141216.082500", "141216.542500", "141217.002500", "141217.462500", "141217.922500", "141218.382500", "141218.842500", "141219.302500", "141219.762500", "141220.222500", "141220.682500", "141221.142500", "141221.602500", "141222.062500", "141222.522500", "141222.982500", "141223.442500", "141223.902500", "141224.362500", "141224.822500", "141225.282500", "141225.742500", "141226.202500", "141226.662500", "141227.122500", "141227.582500", "141228.042500", "141228.502500", "141228.962500", "141229.422500", "141229.882500", "141230.342500", "141230.802500", "141231.262500", "141231.722500", "141232.182500", "141232.642500", "141233.102500", "141233.562500", "141234.022500", "141234.482500", "141234.942500", "141235.402500", "141235.862500", "141236.322500", "141236.782500", "141237.242500", "141237.702500", "141238.162500", "141238.622500", "141239.082500", "141239.542500"],
