{
  "AcquisitionMatrixPE": 82,
  "AcquisitionNumber": 1,
  "AcquisitionTime": "14:57:18.392500",
  "BandwidthPerPixelPhaseEncode": 24.888,
  "BaseResolution": 82,
  "BodyPartExamined": "BRAIN",
  "ConsistencyInfo": "N4_VE11C_LATEST_20160120",
  "ConversionSoftware": "dcm2niix",
  "ConversionSoftwareVersion": "v1.0.20201102",
  "DerivedVendorReportedEchoSpacing": 0.00049,
  "DeviceSerialNumber": "66112",
  "DwellTime": 2e-06,
  "EchoTime": 0.0272,
  "EchoTrainLength": 82,
  "EffectiveEchoSpacing": 0.00049,
  "FlipAngle": 44,
  "ImageComments": "Unaliased MB8/PE3",
  "ImageOrientationPatientDICOM": [0.998587, -0.053123, 0.00135721, 0.052858, 0.995587, 0.0775358],
  "ImageType": [
    "ORIGINAL",
    "PRIMARY",
    "M",
    "MB",
    "ND",
    "NORM",
    "MOSAIC"
],
  "ImagingFrequency": 123.252,
  "InPlanePhaseEncodingDirectionDICOM": "COL",
  "InstitutionAddress": "Maynard 3,Hanover,NH,US,03755",
  "InstitutionName": "Dartmouth College - PBS",
  "InstitutionalDepartmentName": "Department",
  "MRAcquisitionType": "2D",
  "MagneticFieldStrength": 3,
  "Manufacturer": "Siemens",
  "ManufacturersModelName": "Prisma",
  "Modality": "MR",
  "MultibandAccelerationFactor": 8,
  "PartialFourier": 1,
  "PatientPosition": "HFS",
  "PercentPhaseFOV": 100,
  "PercentSampling": 100,
  "PhaseEncodingDirection": "j-",
  "PhaseEncodingSteps": 82,
  "PhaseResolution": 1,
  "PixelBandwidth": 3050,
  "ProcedureStepDescription": "Wager_Wager^1076_spacetop",
  "ProtocolName": "func_run-03_task-alignvideo_acq-ap-mb8",
  "PulseSequenceDetails": "%CustomerSeq%\\cmrr_mbep2d_bold",
  "ReceiveCoilActiveElements": "HEA;HEP",
  "ReceiveCoilName": "Head_32",
  "ReconMatrixPE": 82,
  "RepetitionTime": 0.46,
  "SAR": 0.0976497,
  "ScanOptions": "FS",
  "ScanningSequence": "EP",
  "SequenceName": "epfid2d1_82",
  "SequenceVariant": "SK\\SS",
  "SeriesDescription": "func_run-03_task-alignvideo_acq-ap-mb8",
  "SeriesNumber": 36,
  "ShimSetting": [4147, -7710, -7250, 439, -15, -26, 54, 75],
  "SliceThickness": 2.7,
  "SliceTiming": [0, 0.25, 0.0625, 0.3125, 0.125, 0.3775, 0.1875, 0, 0.25, 0.0625, 0.3125, 0.125, 0.3775, 0.1875, 0, 0.25, 0.0625, 0.3125, 0.125, 0.3775, 0.1875, 0, 0.25, 0.0625, 0.3125, 0.125, 0.3775, 0.1875, 0, 0.25, 0.0625, 0.3125, 0.125, 0.3775, 0.1875, 0, 0.25, 0.0625, 0.3125, 0.125, 0.3775, 0.1875, 0, 0.25, 0.0625, 0.3125, 0.125, 0.3775, 0.1875, 0, 0.25, 0.0625, 0.3125, 0.125, 0.3775, 0.1875],
  "SoftwareVersions": "syngo MR E11",
  "SpacingBetweenSlices": 2.7,
  "StationName": "AWP66112",
  "TaskName": "alignvideo",
  "TotalReadoutTime": 0.03969,
  "TxRefAmp": 228.908,
  "WipMemBlock": "67e3f785-cfc1-4df9-add3-9f877e3c966c||Sequence: R016 ve11c/master r/e634e98; Dec 19 2017 11:00:25 by eja",
  "dcmmeta_affine": [
    [-2.679136037826538, 0.1418142318725586, 0.014769424684345722, 106.47411346435547],
    [0.1425251066684723, 2.671088218688965, 0.2088572233915329, -95.66865539550781],
    [0.003641299204900861, -0.20802293717861176, 2.6918692588806152, -50.46062088012695],
    [0.0, 0.0, 0.0, 1.0]
],
  "dcmmeta_reorient_transform": [
    [0.0, -1.0, 0.0, 81.0],
    [1.0, 0.0, 0.0, 0.0],
    [0.0, 0.0, 1.0, 0.0],
    [0.0, 0.0, 0.0, 1.0]
],
  "dcmmeta_shape": [82, 82, 56, 1016],
  "dcmmeta_slice_dim": 2,
  "dcmmeta_version": 0.6,
  "global": {
    "const": {
      "AccessionNumber": "A003817",
      "AcquisitionMatrix": [82, 0, 0, 82],
      "AngioFlag": "N",
      "BitsAllocated": 16,
      "BitsStored": 16,
      "BodyPartExamined": "BRAIN",
      "Columns": 656,
      "EchoNumbers": 1,
      "EchoTime": 27.2,
      "EchoTrainLength": 82,
      "FlipAngle": 44.0,
      "HighBit": 15,
      "ImageOrientationPatient": [0.99858705470267, -0.0531229908537, 0.00135721148639, 0.05285803212397, 0.99558737696534, 0.07753581925316],
      "ImagePositionPatient": [-927.57379912606, -846.38707592953, -128.05811281615],
      "ImageType": [
        "ORIGINAL",
        "PRIMARY",
        "M",
        "MB",
        "ND",
        "NORM",
        "MOSAIC"
],
      "ImagedNucleus": "1H",
      "ImagingFrequency": 123.252239,
      "InPlanePhaseEncodingDirection": "COL",
      "MRAcquisitionType": "2D",
      "MagneticFieldStrength": 3.0,
      "Manufacturer": "SIEMENS",
      "ManufacturerModelName": "Prisma",
      "Modality": "MR",
      "NumberOfAverages": 1.0,
      "NumberOfPhaseEncodingSteps": 82,
      "PercentPhaseFieldOfView": 100.0,
      "PercentSampling": 100.0,
      "PerformedProcedureStepStartTime": "131335.708000",
      "PhotometricInterpretation": "MONOCHROME2",
      "PixelBandwidth": 3050.0,
      "PixelRepresentation": 0,
      "PixelSpacing": [2.6829268932343, 2.6829268932343],
      "ProtocolName": "func_run-03_task-alignvideo_acq-ap-mb8",
      "RepetitionTime": 460.0,
      "Rows": 656,
      "SAR": 0.09764974703525,
      "SamplesPerPixel": 1,
      "ScanOptions": "FS",
      "ScanningSequence": "EP",
      "SequenceName": "epfid2d1_82",
      "SequenceVariant": [
        "SK",
        "SS"
],
      "SeriesDescription": "func_run-03_task-alignvideo_acq-ap-mb8",
      "SeriesNumber": 36,
      "SeriesTime": "145738.223000",
      "SliceLocation": -57.126638669121,
      "SliceThickness": 2.7000000476837,
      "SmallestImagePixelValue": 0,
      "SoftwareVersions": "syngo MR E11",
      "SpacingBetweenSlices": 2.7000000165213,
      "SpecificCharacterSet": "ISO_IR 100",
      "StudyID": "1",
      "StudyTime": "131335.643000",
      "TransmitCoilName": "Body",
      "VariableFlipAngleFlag": "N",
      "WindowCenterWidthExplanation": "Algo1",
      "dBdt": 0.0},
    "slices": {}
  },
  "time": {
    "samples": {
      "AcquisitionNumber": [1, 2, 3, 4, 5, 6, 7, 8, 9, 10, 11, 12, 13, 14, 15, 16, 17, 18, 19, 20, 21, 22, 23, 24, 25, 26, 27, 28, 29, 30, 31, 32, 33, 34, 35, 36, 37, 38, 39, 40, 41, 42, 43, 44, 45, 46, 47, 48, 49, 50, 51, 52, 53, 54, 55, 56, 57, 58, 59, 60, 61, 62, 63, 64, 65, 66, 67, 68, 69, 70, 71, 72, 73, 74, 75, 76, 77, 78, 79, 80, 81, 82, 83, 84, 85, 86, 87, 88, 89, 90, 91, 92, 93, 94, 95, 96, 97, 98, 99, 100, 101, 102, 103, 104, 105, 106, 107, 108, 109, 110, 111, 112, 113, 114, 115, 116, 117, 118, 119, 120, 121, 122, 123, 124, 125, 126, 127, 128, 129, 130, 131, 132, 133, 134, 135, 136, 137, 138, 139, 140, 141, 142, 143, 144, 145, 146, 147, 148, 149, 150, 151, 152, 153, 154, 155, 156, 157, 158, 159, 160, 161, 162, 163, 164, 165, 166, 167, 168, 169, 170, 171, 172, 173, 174, 175, 176, 177, 178, 179, 180, 181, 182, 183, 184, 185, 186, 187, 188, 189, 190, 191, 192, 193, 194, 195, 196, 197, 198, 199, 200, 201, 202, 203, 204, 205, 206, 207, 208, 209, 210, 211, 212, 213, 214, 215, 216, 217, 218, 219, 220, 221, 222, 223, 224, 225, 226, 227, 228, 229, 230, 231, 232, 233, 234, 235, 236, 237, 238, 239, 240, 241, 242, 243, 244, 245, 246, 247, 248, 249, 250, 251, 252, 253, 254, 255, 256, 257, 258, 259, 260, 261, 262, 263, 264, 265, 266, 267, 268, 269, 270, 271, 272, 273, 274, 275, 276, 277, 278, 279, 280, 281, 282, 283, 284, 285, 286, 287, 288, 289, 290, 291, 292, 293, 294, 295, 296, 297, 298, 299, 300, 301, 302, 303, 304, 305, 306, 307, 308, 309, 310, 311, 312, 313, 314, 315, 316, 317, 318, 319, 320, 321, 322, 323, 324, 325, 326, 327, 328, 329, 330, 331, 332, 333, 334, 335, 336, 337, 338, 339, 340, 341, 342, 343, 344, 345, 346, 347, 348, 349, 350, 351, 352, 353, 354, 355, 356, 357, 358, 359, 360, 361, 362, 363, 364, 365, 366, 367, 368, 369, 370, 371, 372, 373, 374, 375, 376, 377, 378, 379, 380, 381, 382, 383, 384, 385, 386, 387, 388, 389, 390, 391, 392, 393, 394, 395, 396, 397, 398, 399, 400, 401, 402, 403, 404, 405, 406, 407, 408, 409, 410, 411, 412, 413, 414, 415, 416, 417, 418, 419, 420, 421, 422, 423, 424, 425, 426, 427, 428, 429, 430, 431, 432, 433, 434, 435, 436, 437, 438, 439, 440, 441, 442, 443, 444, 445, 446, 447, 448, 449, 450, 451, 452, 453, 454, 455, 456, 457, 458, 459, 460, 461, 462, 463, 464, 465, 466, 467, 468, 469, 470, 471, 472, 473, 474, 475, 476, 477, 478, 479, 480, 481, 482, 483, 484, 485, 486, 487, 488, 489, 490, 491, 492, 493, 494, 495, 496, 497, 498, 499, 500, 501, 502, 503, 504, 505, 506, 507, 508, 509, 510, 511, 512, 513, 514, 515, 516, 517, 518, 519, 520, 521, 522, 523, 524, 525, 526, 527, 528, 529, 530, 531, 532, 533, 534, 535, 536, 537, 538, 539, 540, 541, 542, 543, 544, 545, 546, 547, 548, 549, 550, 551, 552, 553, 554, 555, 556, 557, 558, 559, 560, 561, 562, 563, 564, 565, 566, 567, 568, 569, 570, 571, 572, 573, 574, 575, 576, 577, 578, 579, 580, 581, 582, 583, 584, 585, 586, 587, 588, 589, 590, 591, 592, 593, 594, 595, 596, 597, 598, 599, 600, 601, 602, 603, 604, 605, 606, 607, 608, 609, 610, 611, 612, 613, 614, 615, 616, 617, 618, 619, 620, 621, 622, 623, 624, 625, 626, 627, 628, 629, 630, 631, 632, 633, 634, 635, 636, 637, 638, 639, 640, 641, 642, 643, 644, 645, 646, 647, 648, 649, 650, 651, 652, 653, 654, 655, 656, 657, 658, 659, 660, 661, 662, 663, 664, 665, 666, 667, 668, 669, 670, 671, 672, 673, 674, 675, 676, 677, 678, 679, 680, 681, 682, 683, 684, 685, 686, 687, 688, 689, 690, 691, 692, 693, 694, 695, 696, 697, 698, 699, 700, 701, 702, 703, 704, 705, 706, 707, 708, 709, 710, 711, 712, 713, 714, 715, 716, 717, 718, 719, 720, 721, 722, 723, 724, 725, 726, 727, 728, 729, 730, 731, 732, 733, 734, 735, 736, 737, 738, 739, 740, 741, 742, 743, 744, 745, 746, 747, 748, 749, 750, 751, 752, 753, 754, 755, 756, 757, 758, 759, 760, 761, 762, 763, 764, 765, 766, 767, 768, 769, 770, 771, 772, 773, 774, 775, 776, 777, 778, 779, 780, 781, 782, 783, 784, 785, 786, 787, 788, 789, 790, 791, 792, 793, 794, 795, 796, 797, 798, 799, 800, 801, 802, 803, 804, 805, 806, 807, 808, 809, 810, 811, 812, 813, 814, 815, 816, 817, 818, 819, 820, 821, 822, 823, 824, 825, 826, 827, 828, 829, 830, 831, 832, 833, 834, 835, 836, 837, 838, 839, 840, 841, 842, 843, 844, 845, 846, 847, 848, 849, 850, 851, 852, 853, 854, 855, 856, 857, 858, 859, 860, 861, 862, 863, 864, 865, 866, 867, 868, 869, 870, 871, 872, 873, 874, 875, 876, 877, 878, 879, 880, 881, 882, 883, 884, 885, 886, 887, 888, 889, 890, 891, 892, 893, 894, 895, 896, 897, 898, 899, 900, 901, 902, 903, 904, 905, 906, 907, 908, 909, 910, 911, 912, 913, 914, 915, 916, 917, 918, 919, 920, 921, 922, 923, 924, 925, 926, 927, 928, 929, 930, 931, 932, 933, 934, 935, 936, 937, 938, 939, 940, 941, 942, 943, 944, 945, 946, 947, 948, 949, 950, 951, 952, 953, 954, 955, 956, 957, 958, 959, 960, 961, 962, 963, 964, 965, 966, 967, 968, 969, 970, 971, 972, 973, 974, 975, 976, 977, 978, 979, 980, 981, 982, 983, 984, 985, 986, 987, 988, 989, 990, 991, 992, 993, 994, 995, 996, 997, 998, 999, 1000, 1001, 1002, 1003, 1004, 1005, 1006, 1007, 1008, 1009, 1010, 1011, 1012, 1013, 1014, 1015, 1016],
      "AcquisitionTime": ["145718.392500", "145718.852500", "145719.312500", "145719.772500", "145720.232500", "145720.692500", "145721.152500", "145721.612500", "145722.072500", "145722.532500", "145722.992500", "145723.452500", "145723.912500", "145724.372500", "145724.832500", "145725.292500", "145725.752500", "145726.212500", "145726.672500", "145727.132500", "145727.592500", "145728.052500", "145728.512500", "145728.972500", "145729.432500", "145729.892500", "145730.352500", "145730.812500", "145731.272500", "145731.732500", "145732.192500", "145732.652500", "145733.112500", "145733.572500", "145734.032500", "145734.492500", "145734.952500", "145735.412500", "145735.872500", "145736.332500", "145736.792500", "145737.252500", "145737.712500", "145738.172500", "145738.632500", "145739.092500", "145739.552500", "145740.012500", "145740.472500", "145740.932500", "145741.392500", "145741.852500", "145742.312500", "145742.772500", "145743.232500", "145743.692500", "145744.152500", "145744.612500", "145745.072500", "145745.532500", "145745.992500", "145746.452500", "145746.912500", "145747.372500", "145747.832500", "145748.292500", "145748.752500", "145749.212500", "145749.672500", "145750.132500", "145750.592500", "145751.052500", "145751.512500", "145751.972500", "145752.432500", "145752.892500", "145753.352500", "145753.812500", "145754.272500", "145754.732500", "145755.192500", "145755.652500", "145756.112500", "145756.572500", "145757.032500", "145757.492500", "145757.952500", "145758.412500", "145758.872500", "145759.332500", "145759.792500", "145800.252500", "145800.712500", "145801.172500", "145801.632500", "145802.092500", "145802.552500", "145803.012500", "145803.472500", "145803.932500", "145804.392500", "145804.852500", "145805.312500", "145805.772500", "145806.232500", "145806.692500", "145807.152500", "145807.612500", "145808.072500", "145808.532500", "145808.992500", "145809.452500", "145809.912500", "145810.372500", "145810.832500", "145811.292500", "145811.752500", "145812.212500", "145812.672500", "145813.132500", "145813.592500", "145814.052500", "145814.512500", "145814.972500", "145815.432500", "145815.892500", "145816.352500", "145816.812500", "145817.272500", "145817.732500", "145818.192500", "145818.652500", "145819.112500", "145819.572500", "145820.032500", "145820.492500", "145820.952500", "145821.412500", "145821.872500", "145822.332500", "145822.792500", "145823.252500", "145823.712500", "145824.172500", "145824.632500", "145825.092500", "145825.552500", "145826.012500", "145826.472500", "145826.932500", "145827.392500", "145827.852500", "145828.312500", "145828.772500", "145829.232500", "145829.692500", "145830.152500", "145830.612500", "145831.072500", "145831.532500", "145831.992500", "145832.452500", "145832.912500", "145833.372500", "145833.832500", "145834.292500", "145834.752500", "145835.212500", "145835.672500", "145836.132500", "145836.592500", "145837.052500", "145837.512500", "145837.972500", "145838.432500", "145838.892500", "145839.352500", "145839.812500", "145840.272500", "145840.732500", "145841.192500", "145841.652500", "145842.112500", "145842.572500", "145843.032500", "145843.492500", "145843.952500", "145844.412500", "145844.872500", "145845.332500", "145845.792500", "145846.252500", "145846.712500", "145847.172500", "145847.632500", "145848.092500", "145848.552500", "145849.012500", "145849.472500", "145849.932500", "145850.392500", "145850.852500", "145851.312500", "145851.772500", "145852.232500", "145852.692500", "145853.152500", "145853.612500", "145854.072500", "145854.532500", "145854.992500", "145855.452500", "145855.912500", "145856.372500", "145856.832500", "145857.292500", "145857.752500", "145858.212500", "145858.672500", "145859.132500", "145859.592500", "145900.052500", "145900.512500", "145900.972500", "145901.432500", "145901.892500", "145902.352500", "145902.812500", "145903.272500", "145903.732500", "145904.192500", "145904.652500", "145905.112500", "145905.572500", "145906.032500", "145906.492500", "145906.952500", "145907.412500", "145907.872500", "145908.332500", "145908.792500", "145909.252500", "145909.712500", "145910.172500", "145910.632500", "145911.092500", "145911.552500", "145912.012500", "145912.472500", "145912.932500", "145913.392500", "145913.852500", "145914.312500", "145914.772500", "145915.232500", "145915.692500", "145916.152500", "145916.612500", "145917.072500", "145917.532500", "145917.992500", "145918.452500", "145918.912500", "145919.372500", "145919.832500", "145920.292500", "145920.752500", "145921.212500", "145921.672500", "145922.132500", "145922.592500", "145923.052500", "145923.512500", "145923.972500", "145924.432500", "145924.892500", "145925.352500", "145925.812500", "145926.272500", "145926.732500", "145927.192500", "145927.652500", "145928.112500", "145928.572500", "145929.032500", "145929.492500", "145929.952500", "145930.412500", "145930.872500", "145931.332500", "145931.792500", "145932.252500", "145932.712500", "145933.172500", "145933.632500", "145934.092500", "145934.552500", "145935.012500", "145935.472500", "145935.932500", "145936.392500", "145936.852500", "145937.312500", "145937.772500", "145938.232500", "145938.692500", "145939.152500", "145939.612500", "145940.072500", "145940.532500", "145940.992500", "145941.452500", "145941.912500", "145942.372500", "145942.832500", "145943.292500", "145943.752500", "145944.212500", "145944.672500", "145945.132500", "145945.592500", "145946.052500", "145946.512500", "145946.972500", "145947.432500", "145947.892500", "145948.352500", "145948.812500", "145949.272500", "145949.732500", "145950.192500", "145950.652500", "145951.112500", "145951.572500", "145952.032500", "145952.492500", "145952.952500", "145953.412500", "145953.872500", "145954.332500", "145954.792500", "145955.252500", "145955.712500", "145956.172500", "145956.632500", "145957.092500", "145957.552500", "145958.012500", "145958.472500", "145958.932500", "145959.392500", "145959.852500", "150000.312500", "150000.772500", "150001.232500", "150001.692500", "150002.152500", "150002.612500", "150003.072500", "150003.532500", "150003.992500", "150004.452500", "150004.912500", "150005.372500", "150005.832500", "150006.292500", "150006.752500", "150007.212500", "150007.672500", "150008.132500", "150008.592500", "150009.052500", "150009.512500", "150009.972500", "150010.432500", "150010.892500", "150011.352500", "150011.812500", "150012.272500", "150012.732500", "150013.192500", "150013.652500", "150014.112500", "150014.572500", "150015.032500", "150015.492500", "150015.952500", "150016.412500", "150016.872500", "150017.332500", "150017.792500", "150018.252500", "150018.712500", "150019.172500", "150019.632500", "150020.092500", "150020.552500", "150021.012500", "150021.472500", "150021.932500", "150022.392500", "150022.852500", "150023.312500", "150023.772500", "150024.232500", "150024.692500", "150025.152500", "150025.612500", "150026.072500", "150026.532500", "150026.992500", "150027.452500", "150027.912500", "150028.372500", "150028.832500", "150029.292500", "150029.752500", "150030.212500", "150030.672500", "150031.132500", "150031.592500", "150032.052500", "150032.512500", "150032.972500", "150033.432500", "150033.892500", "150034.352500", "150034.812500", "150035.272500", "150035.732500", "150036.192500", "150036.652500", "150037.112500", "150037.572500", "150038.032500", "150038.492500", "150038.952500", "150039.412500", "150039.872500", "150040.332500", "150040.792500", "150041.252500", "150041.712500", "150042.172500", "150042.632500", "150043.092500", "150043.552500", "150044.012500", "150044.472500", "150044.932500", "150045.392500", "150045.852500", "150046.312500", "150046.772500", "150047.232500", "150047.692500", "150048.152500", "150048.612500", "150049.072500", "150049.532500", "150049.992500", "150050.452500", "150050.912500", "150051.372500", "150051.832500", "150052.292500", "150052.752500", "150053.212500", "150053.672500", "150054.132500", "150054.592500", "150055.052500", "150055.512500", "150055.972500", "150056.432500", "150056.892500", "150057.352500", "150057.812500", "150058.272500", "150058.732500", "150059.192500", "150059.652500", "150100.112500", "150100.572500", "150101.032500", "150101.492500", "150101.952500", "150102.412500", "150102.872500", "150103.332500", "150103.792500", "150104.252500", "150104.712500", "150105.172500", "150105.632500", "150106.092500", "150106.552500", "150107.012500", "150107.472500", "150107.932500", "150108.392500", "150108.852500", "150109.312500", "150109.772500", "150110.232500", "150110.692500", "150111.152500", "150111.612500", "150112.072500", "150112.532500", "150112.992500", "150113.452500", "150113.912500", "150114.372500", "150114.832500", "150115.292500", "150115.752500", "150116.212500", "150116.672500", "150117.132500", "150117.592500", "150118.052500", "150118.512500", "150118.972500", "150119.432500", "150119.892500", "150120.352500", "150120.812500", "150121.272500", "150121.732500", "150122.192500", "150122.652500", "150123.112500", "150123.572500", "150124.032500", "150124.492500", "150124.952500", "150125.412500", "150125.872500", "150126.332500", "150126.792500", "150127.252500", "150127.712500", "150128.172500", "150128.632500", "150129.092500", "150129.552500", "150130.012500", "150130.472500", "150130.932500", "150131.392500", "150131.852500", "150132.312500", "150132.772500", "150133.232500", "150133.692500", "150134.152500", "150134.612500", "150135.072500", "150135.532500", "150135.992500", "150136.452500", "150136.912500", "150137.372500", "150137.832500", "150138.292500", "150138.752500", "150139.212500", "150139.672500", "150140.132500", "150140.592500", "150141.052500", "150141.512500", "150141.972500", "150142.432500", "150142.892500", "150143.352500", "150143.812500", "150144.272500", "150144.732500", "150145.192500", "150145.652500", "150146.112500", "150146.572500", "150147.032500", "150147.492500", "150147.952500", "150148.412500", "150148.872500", "150149.332500", "150149.792500", "150150.252500", "150150.712500", "150151.172500", "150151.632500", "150152.092500", "150152.552500", "150153.012500", "150153.472500", "150153.932500", "150154.392500", "150154.852500", "150155.312500", "150155.772500", "150156.232500", "150156.692500", "150157.152500", "150157.612500", "150158.072500", "150158.532500", "150158.992500", "150159.452500", "150159.912500", "150200.372500", "150200.832500", "150201.292500", "150201.752500", "150202.212500", "150202.672500", "150203.132500", "150203.592500", "150204.052500", "150204.512500", "150204.972500", "150205.432500", "150205.892500", "150206.352500", "150206.812500", "150207.272500", "150207.732500", "150208.192500", "150208.652500", "150209.112500", "150209.572500", "150210.032500", "150210.492500", "150210.952500", "150211.412500", "150211.872500", "150212.332500", "150212.792500", "150213.252500", "150213.712500", "150214.172500", "150214.632500", "150215.092500", "150215.552500", "150216.012500", "150216.472500", "150216.932500", "150217.392500", "150217.852500", "150218.312500", "150218.772500", "150219.232500", "150219.692500", "150220.152500", "150220.612500", "150221.072500", "150221.532500", "150221.992500", "150222.452500", "150222.912500", "150223.372500", "150223.832500", "150224.292500", "150224.752500", "150225.212500", "150225.672500", "150226.132500", "150226.592500", "150227.052500", "150227.512500", "150227.972500", "150228.432500", "150228.892500", "150229.352500", "150229.812500", "150230.272500", "150230.732500", "150231.192500", "150231.652500", "150232.112500", "150232.572500", "150233.032500", "150233.492500", "150233.952500", "150234.412500", "150234.872500", "150235.332500", "150235.792500", "150236.252500", "150236.712500", "150237.172500", "150237.632500", "150238.092500", "150238.552500", "150239.012500", "150239.472500", "150239.932500", "150240.392500", "150240.852500", "150241.312500", "150241.772500", "150242.232500", "150242.692500", "150243.152500", "150243.612500", "150244.072500", "150244.532500", "150244.992500", "150245.452500", "150245.912500", "150246.372500", "150246.832500", "150247.292500", "150247.752500", "150248.212500", "150248.672500", "150249.132500", "150249.592500", "150250.052500", "150250.512500", "150250.972500", "150251.432500", "150251.892500", "150252.352500", "150252.812500", "150253.272500", "150253.732500", "150254.192500", "150254.652500", "150255.112500", "150255.572500", "150256.032500", "150256.492500", "150256.952500", "150257.412500", "150257.872500", "150258.332500", "150258.792500", "150259.252500", "150259.712500", "150300.172500", "150300.632500", "150301.092500", "150301.552500", "150302.012500", "150302.472500", "150302.932500", "150303.392500", "150303.852500", "150304.312500", "150304.772500", "150305.232500", "150305.692500", "150306.152500", "150306.612500", "150307.072500", "150307.532500", "150307.992500", "150308.452500", "150308.912500", "150309.372500", "150309.832500", "150310.292500", "150310.752500", "150311.212500", "150311.672500", "150312.132500", "150312.592500", "150313.052500", "150313.512500", "150313.972500", "150314.432500", "150314.892500", "150315.352500", "150315.812500", "150316.272500", "150316.732500", "150317.192500", "150317.652500", "150318.112500", "150318.572500", "150319.032500", "150319.492500", "150319.952500", "150320.412500", "150320.872500", "150321.332500", "150321.792500", "150322.252500", "150322.712500", "150323.172500", "150323.632500", "150324.092500", "150324.552500", "150325.012500", "150325.472500", "150325.932500", "150326.392500", "150326.852500", "150327.312500", "150327.772500", "150328.232500", "150328.692500", "150329.152500", "150329.612500", "150330.072500", "150330.532500", "150330.992500", "150331.452500", "150331.912500", "150332.372500", "150332.832500", "150333.292500", "150333.752500", "150334.212500", "150334.672500", "150335.132500", "150335.592500", "150336.052500", "150336.512500", "150336.972500", "150337.432500", "150337.892500", "150338.352500", "150338.812500", "150339.272500", "150339.732500", "150340.192500", "150340.652500", "150341.112500", "150341.572500", "150342.032500", "150342.492500", "150342.952500", "150343.412500", "150343.872500", "150344.332500", "150344.792500", "150345.252500", "150345.712500", "150346.172500", "150346.632500", "150347.092500", "150347.552500", "150348.012500", "150348.472500", "150348.932500", "150349.392500", "150349.852500", "150350.312500", "150350.772500", "150351.232500", "150351.692500", "150352.152500", "150352.612500", "150353.072500", "150353.532500", "150353.992500", "150354.452500", "150354.912500", "150355.372500", "150355.832500", "150356.292500", "150356.752500", "150357.212500", "150357.672500", "150358.132500", "150358.592500", "150359.052500", "150359.512500", "150359.972500", "150400.432500", "150400.892500", "150401.352500", "150401.812500", "150402.272500", "150402.732500", "150403.192500", "150403.652500", "150404.112500", "150404.572500", "150405.032500", "150405.492500", "150405.952500", "150406.412500", "150406.872500", "150407.332500", "150407.792500", "150408.252500", "150408.712500", "150409.172500", "150409.632500", "150410.092500", "150410.552500", "150411.012500", "150411.472500", "150411.932500", "150412.392500", "150412.852500", "150413.312500", "150413.772500", "150414.232500", "150414.692500", "150415.152500", "150415.612500", "150416.072500", "150416.532500", "150416.992500", "150417.452500", "150417.912500", "150418.372500", "150418.832500", "150419.292500", "150419.752500", "150420.212500", "150420.672500", "150421.132500", "150421.592500", "150422.052500", "150422.512500", "150422.972500", "150423.432500", "150423.892500", "150424.352500", "150424.812500", "150425.272500", "150425.732500", "150426.192500", "150426.652500", "150427.112500", "150427.572500", "150428.032500", "150428.492500", "150428.952500", "150429.412500", "150429.872500", "150430.332500", "150430.792500", "150431.252500", "150431.712500", "150432.172500", "150432.632500", "150433.092500", "150433.552500", "150434.012500", "150434.472500", "150434.932500", "150435.392500", "150435.852500", "150436.312500", "150436.772500", "150437.232500", "150437.692500", "150438.152500", "150438.612500", "150439.072500", "150439.532500", "150439.992500", "150440.452500", "150440.912500", "150441.372500", "150441.832500", "150442.292500", "150442.752500", "150443.212500", "150443.672500", "150444.132500", "150444.592500", "150445.052500", "150445.512500", "150445.972500", "150446.432500", "150446.892500", "150447.352500", "150447.812500", "150448.272500", "150448.732500", "150449.192500", "150449.652500", "150450.112500", "150450.572500", "150451.032500", "150451.492500", "150451.952500", "150452.412500", "150452.872500", "150453.332500", "150453.792500", "150454.252500", "150454.712500", "150455.172500", "150455.632500", "150456.092500", "150456.552500", "150457.012500", "150457.472500", "150457.932500", "150458.392500", "150458.852500", "150459.312500", "150459.772500", "150500.232500", "150500.692500", "150501.152500", "150501.612500", "150502.072500", "150502.532500", "150502.992500", "150503.452500", "150503.912500", "150504.372500", "150504.832500", "150505.292500"],
