{
  "AcquisitionMatrixPE": 82,
  "AcquisitionNumber": 1,
  "AcquisitionTime": "14:37:53.670000",
  "BandwidthPerPixelPhaseEncode": 24.888,
  "BaseResolution": 82,
  "BodyPartExamined": "BRAIN",
  "ConsistencyInfo": "N4_VE11C_LATEST_20160120",
  "ConversionSoftware": "dcm2niix",
  "ConversionSoftwareVersion": "v1.0.20201102",
  "DerivedVendorReportedEchoSpacing": 0.00049,
  "DeviceSerialNumber": "66112",
  "DwellTime": 2e-06,
  "EchoTime": 0.0272,
  "EchoTrainLength": 82,
  "EffectiveEchoSpacing": 0.00049,
  "FlipAngle": 44,
  "ImageComments": "Unaliased MB8/PE3",
  "ImageOrientationPatientDICOM": [0.998587, -0.053123, 0.00135721, 0.052858, 0.995587, 0.0775358],
  "ImageType": [
    "ORIGINAL",
    "PRIMARY",
    "M",
    "MB",
    "ND",
    "NORM",
    "MOSAIC"
],
  "ImagingFrequency": 123.252,
  "InPlanePhaseEncodingDirectionDICOM": "COL",
  "InstitutionAddress": "Maynard 3,Hanover,NH,US,03755",
  "InstitutionName": "Dartmouth College - PBS",
  "InstitutionalDepartmentName": "Department",
  "MRAcquisitionType": "2D",
  "MagneticFieldStrength": 3,
  "Manufacturer": "Siemens",
  "ManufacturersModelName": "Prisma",
  "Modality": "MR",
  "MultibandAccelerationFactor": 8,
  "PartialFourier": 1,
  "PatientPosition": "HFS",
  "PercentPhaseFOV": 100,
  "PercentSampling": 100,
  "PhaseEncodingDirection": "j-",
  "PhaseEncodingSteps": 82,
  "PhaseResolution": 1,
  "PixelBandwidth": 3050,
  "ProcedureStepDescription": "Wager_Wager^1076_spacetop",
  "ProtocolName": "func_run-01_task-alignvideo_acq-ap-mb8",
  "PulseSequenceDetails": "%CustomerSeq%\\cmrr_mbep2d_bold",
  "ReceiveCoilActiveElements": "HEA;HEP",
  "ReceiveCoilName": "Head_32",
  "ReconMatrixPE": 82,
  "RepetitionTime": 0.46,
  "SAR": 0.0976775,
  "ScanOptions": "FS",
  "ScanningSequence": "EP",
  "SequenceName": "epfid2d1_82",
  "SequenceVariant": "SK\\SS",
  "SeriesDescription": "func_run-01_task-alignvideo_acq-ap-mb8",
  "SeriesNumber": 32,
  "ShimSetting": [4147, -7710, -7250, 439, -15, -26, 54, 75],
  "SliceThickness": 2.7,
  "SliceTiming": [0, 0.25, 0.0625, 0.3125, 0.125, 0.375, 0.1875, 0, 0.25, 0.0625, 0.3125, 0.125, 0.375, 0.1875, 0, 0.25, 0.0625, 0.3125, 0.125, 0.375, 0.1875, 0, 0.25, 0.0625, 0.3125, 0.125, 0.375, 0.1875, 0, 0.25, 0.0625, 0.3125, 0.125, 0.375, 0.1875, 0, 0.25, 0.0625, 0.3125, 0.125, 0.375, 0.1875, 0, 0.25, 0.0625, 0.3125, 0.125, 0.375, 0.1875, 0, 0.25, 0.0625, 0.3125, 0.125, 0.375, 0.1875],
  "SoftwareVersions": "syngo MR E11",
  "SpacingBetweenSlices": 2.7,
  "StationName": "AWP66112",
  "TaskName": "alignvideo",
  "TotalReadoutTime": 0.03969,
  "TxRefAmp": 228.908,
  "WipMemBlock": "608b0827-fff4-4c14-82d6-ec9b2cbaf5af||Sequence: R016 ve11c/master r/e634e98; Dec 19 2017 11:00:25 by eja",
  "dcmmeta_affine": [
    [-2.679136037826538, 0.1418142318725586, 0.014769424684345722, 106.47411346435547],
    [0.1425251066684723, 2.671088218688965, 0.2088572233915329, -95.66865539550781],
    [0.003641299204900861, -0.20802293717861176, 2.6918692588806152, -50.46062088012695],
    [0.0, 0.0, 0.0, 1.0]
],
  "dcmmeta_reorient_transform": [
    [0.0, -1.0, 0.0, 81.0],
    [1.0, 0.0, 0.0, 0.0],
    [0.0, 0.0, 1.0, 0.0],
    [0.0, 0.0, 0.0, 1.0]
],
  "dcmmeta_shape": [82, 82, 56, 1073],
  "dcmmeta_slice_dim": 2,
  "dcmmeta_version": 0.6,
  "global": {
    "const": {
      "AccessionNumber": "A003817",
      "AcquisitionMatrix": [82, 0, 0, 82],
      "AngioFlag": "N",
      "BitsAllocated": 16,
      "BitsStored": 16,
      "BodyPartExamined": "BRAIN",
      "Columns": 656,
      "EchoNumbers": 1,
      "EchoTime": 27.2,
      "EchoTrainLength": 82,
      "FlipAngle": 44.0,
      "HighBit": 15,
      "ImageOrientationPatient": [0.99858705470267, -0.0531229908537, 0.00135721148639, 0.05285803212397, 0.99558737696534, 0.07753581925316],
      "ImagePositionPatient": [-927.57379912606, -846.38707592953, -128.05811281615],
      "ImageType": [
        "ORIGINAL",
        "PRIMARY",
        "M",
        "MB",
        "ND",
        "NORM",
        "MOSAIC"
],
      "ImagedNucleus": "1H",
      "ImagingFrequency": 123.252235,
      "InPlanePhaseEncodingDirection": "COL",
      "MRAcquisitionType": "2D",
      "MagneticFieldStrength": 3.0,
      "Manufacturer": "SIEMENS",
      "ManufacturerModelName": "Prisma",
      "Modality": "MR",
      "NumberOfAverages": 1.0,
      "NumberOfPhaseEncodingSteps": 82,
      "PercentPhaseFieldOfView": 100.0,
      "PercentSampling": 100.0,
      "PerformedProcedureStepStartTime": "131335.708000",
      "PhotometricInterpretation": "MONOCHROME2",
      "PixelBandwidth": 3050.0,
      "PixelRepresentation": 0,
      "PixelSpacing": [2.6829268932343, 2.6829268932343],
      "ProtocolName": "func_run-01_task-alignvideo_acq-ap-mb8",
      "RepetitionTime": 460.0,
      "Rows": 656,
      "SAR": 0.09767750719891,
      "SamplesPerPixel": 1,
      "ScanOptions": "FS",
      "ScanningSequence": "EP",
      "SequenceName": "epfid2d1_82",
      "SequenceVariant": [
        "SK",
        "SS"
],
      "SeriesDescription": "func_run-01_task-alignvideo_acq-ap-mb8",
      "SeriesNumber": 32,
      "SeriesTime": "143818.301000",
      "SliceLocation": -57.126638669121,
      "SliceThickness": 2.7000000476837,
      "SmallestImagePixelValue": 0,
      "SoftwareVersions": "syngo MR E11",
      "SpacingBetweenSlices": 2.7000000165213,
      "SpecificCharacterSet": "ISO_IR 100",
      "StudyID": "1",
      "StudyTime": "131335.643000",
      "TransmitCoilName": "Body",
      "VariableFlipAngleFlag": "N",
      "WindowCenterWidthExplanation": "Algo1",
      "dBdt": 0.0},
    "slices": {}
  },
  "time": {
    "samples": {
      "AcquisitionNumber": [1, 2, 3, 4, 5, 6, 7, 8, 9, 10, 11, 12, 13, 14, 15, 16, 17, 18, 19, 20, 21, 22, 23, 24, 25, 26, 27, 28, 29, 30, 31, 32, 33, 34, 35, 36, 37, 38, 39, 40, 41, 42, 43, 44, 45, 46, 47, 48, 49, 50, 51, 52, 53, 54, 55, 56, 57, 58, 59, 60, 61, 62, 63, 64, 65, 66, 67, 68, 69, 70, 71, 72, 73, 74, 75, 76, 77, 78, 79, 80, 81, 82, 83, 84, 85, 86, 87, 88, 89, 90, 91, 92, 93, 94, 95, 96, 97, 98, 99, 100, 101, 102, 103, 104, 105, 106, 107, 108, 109, 110, 111, 112, 113, 114, 115, 116, 117, 118, 119, 120, 121, 122, 123, 124, 125, 126, 127, 128, 129, 130, 131, 132, 133, 134, 135, 136, 137, 138, 139, 140, 141, 142, 143, 144, 145, 146, 147, 148, 149, 150, 151, 152, 153, 154, 155, 156, 157, 158, 159, 160, 161, 162, 163, 164, 165, 166, 167, 168, 169, 170, 171, 172, 173, 174, 175, 176, 177, 178, 179, 180, 181, 182, 183, 184, 185, 186, 187, 188, 189, 190, 191, 192, 193, 194, 195, 196, 197, 198, 199, 200, 201, 202, 203, 204, 205, 206, 207, 208, 209, 210, 211, 212, 213, 214, 215, 216, 217, 218, 219, 220, 221, 222, 223, 224, 225, 226, 227, 228, 229, 230, 231, 232, 233, 234, 235, 236, 237, 238, 239, 240, 241, 242, 243, 244, 245, 246, 247, 248, 249, 250, 251, 252, 253, 254, 255, 256, 257, 258, 259, 260, 261, 262, 263, 264, 265, 266, 267, 268, 269, 270, 271, 272, 273, 274, 275, 276, 277, 278, 279, 280, 281, 282, 283, 284, 285, 286, 287, 288, 289, 290, 291, 292, 293, 294, 295, 296, 297, 298, 299, 300, 301, 302, 303, 304, 305, 306, 307, 308, 309, 310, 311, 312, 313, 314, 315, 316, 317, 318, 319, 320, 321, 322, 323, 324, 325, 326, 327, 328, 329, 330, 331, 332, 333, 334, 335, 336, 337, 338, 339, 340, 341, 342, 343, 344, 345, 346, 347, 348, 349, 350, 351, 352, 353, 354, 355, 356, 357, 358, 359, 360, 361, 362, 363, 364, 365, 366, 367, 368, 369, 370, 371, 372, 373, 374, 375, 376, 377, 378, 379, 380, 381, 382, 383, 384, 385, 386, 387, 388, 389, 390, 391, 392, 393, 394, 395, 396, 397, 398, 399, 400, 401, 402, 403, 404, 405, 406, 407, 408, 409, 410, 411, 412, 413, 414, 415, 416, 417, 418, 419, 420, 421, 422, 423, 424, 425, 426, 427, 428, 429, 430, 431, 432, 433, 434, 435, 436, 437, 438, 439, 440, 441, 442, 443, 444, 445, 446, 447, 448, 449, 450, 451, 452, 453, 454, 455, 456, 457, 458, 459, 460, 461, 462, 463, 464, 465, 466, 467, 468, 469, 470, 471, 472, 473, 474, 475, 476, 477, 478, 479, 480, 481, 482, 483, 484, 485, 486, 487, 488, 489, 490, 491, 492, 493, 494, 495, 496, 497, 498, 499, 500, 501, 502, 503, 504, 505, 506, 507, 508, 509, 510, 511, 512, 513, 514, 515, 516, 517, 518, 519, 520, 521, 522, 523, 524, 525, 526, 527, 528, 529, 530, 531, 532, 533, 534, 535, 536, 537, 538, 539, 540, 541, 542, 543, 544, 545, 546, 547, 548, 549, 550, 551, 552, 553, 554, 555, 556, 557, 558, 559, 560, 561, 562, 563, 564, 565, 566, 567, 568, 569, 570, 571, 572, 573, 574, 575, 576, 577, 578, 579, 580, 581, 582, 583, 584, 585, 586, 587, 588, 589, 590, 591, 592, 593, 594, 595, 596, 597, 598, 599, 600, 601, 602, 603, 604, 605, 606, 607, 608, 609, 610, 611, 612, 613, 614, 615, 616, 617, 618, 619, 620, 621, 622, 623, 624, 625, 626, 627, 628, 629, 630, 631, 632, 633, 634, 635, 636, 637, 638, 639, 640, 641, 642, 643, 644, 645, 646, 647, 648, 649, 650, 651, 652, 653, 654, 655, 656, 657, 658, 659, 660, 661, 662, 663, 664, 665, 666, 667, 668, 669, 670, 671, 672, 673, 674, 675, 676, 677, 678, 679, 680, 681, 682, 683, 684, 685, 686, 687, 688, 689, 690, 691, 692, 693, 694, 695, 696, 697, 698, 699, 700, 701, 702, 703, 704, 705, 706, 707, 708, 709, 710, 711, 712, 713, 714, 715, 716, 717, 718, 719, 720, 721, 722, 723, 724, 725, 726, 727, 728, 729, 730, 731, 732, 733, 734, 735, 736, 737, 738, 739, 740, 741, 742, 743, 744, 745, 746, 747, 748, 749, 750, 751, 752, 753, 754, 755, 756, 757, 758, 759, 760, 761, 762, 763, 764, 765, 766, 767, 768, 769, 770, 771, 772, 773, 774, 775, 776, 777, 778, 779, 780, 781, 782, 783, 784, 785, 786, 787, 788, 789, 790, 791, 792, 793, 794, 795, 796, 797, 798, 799, 800, 801, 802, 803, 804, 805, 806, 807, 808, 809, 810, 811, 812, 813, 814, 815, 816, 817, 818, 819, 820, 821, 822, 823, 824, 825, 826, 827, 828, 829, 830, 831, 832, 833, 834, 835, 836, 837, 838, 839, 840, 841, 842, 843, 844, 845, 846, 847, 848, 849, 850, 851, 852, 853, 854, 855, 856, 857, 858, 859, 860, 861, 862, 863, 864, 865, 866, 867, 868, 869, 870, 871, 872, 873, 874, 875, 876, 877, 878, 879, 880, 881, 882, 883, 884, 885, 886, 887, 888, 889, 890, 891, 892, 893, 894, 895, 896, 897, 898, 899, 900, 901, 902, 903, 904, 905, 906, 907, 908, 909, 910, 911, 912, 913, 914, 915, 916, 917, 918, 919, 920, 921, 922, 923, 924, 925, 926, 927, 928, 929, 930, 931, 932, 933, 934, 935, 936, 937, 938, 939, 940, 941, 942, 943, 944, 945, 946, 947, 948, 949, 950, 951, 952, 953, 954, 955, 956, 957, 958, 959, 960, 961, 962, 963, 964, 965, 966, 967, 968, 969, 970, 971, 972, 973, 974, 975, 976, 977, 978, 979, 980, 981, 982, 983, 984, 985, 986, 987, 988, 989, 990, 991, 992, 993, 994, 995, 996, 997, 998, 999, 1000, 1001, 1002, 1003, 1004, 1005, 1006, 1007, 1008, 1009, 1010, 1011, 1012, 1013, 1014, 1015, 1016, 1017, 1018, 1019, 1020, 1021, 1022, 1023, 1024, 1025, 1026, 1027, 1028, 1029, 1030, 1031, 1032, 1033, 1034, 1035, 1036, 1037, 1038, 1039, 1040, 1041, 1042, 1043, 1044, 1045, 1046, 1047, 1048, 1049, 1050, 1051, 1052, 1053, 1054, 1055, 1056, 1057, 1058, 1059, 1060, 1061, 1062, 1063, 1064, 1065, 1066, 1067, 1068, 1069, 1070, 1071, 1072, 1073],
      "AcquisitionTime": ["143753.670000", "143754.130000", "143754.590000", "143755.050000", "143755.510000", "143755.970000", "143756.430000", "143756.890000", "143757.350000", "143757.810000", "143758.270000", "143758.730000", "143759.190000", "143759.650000", "143800.110000", "143800.570000", "143801.030000", "143801.490000", "143801.950000", "143802.410000", "143802.870000", "143803.330000", "143803.790000", "143804.250000", "143804.710000", "143805.170000", "143805.630000", "143806.090000", "143806.550000", "143807.010000", "143807.470000", "143807.930000", "143808.390000", "143808.850000", "143809.310000", "143809.770000", "143810.230000", "143810.690000", "143811.150000", "143811.610000", "143812.070000", "143812.530000", "143812.990000", "143813.450000", "143813.910000", "143814.370000", "143814.830000", "143815.290000", "143815.750000", "143816.210000", "143816.670000", "143817.130000", "143817.590000", "143818.050000", "143818.510000", "143818.970000", "143819.430000", "143819.890000", "143820.350000", "143820.810000", "143821.270000", "143821.730000", "143822.190000", "143822.650000", "143823.110000", "143823.570000", "143824.030000", "143824.490000", "143824.950000", "143825.410000", "143825.870000", "143826.330000", "143826.790000", "143827.250000", "143827.710000", "143828.170000", "143828.630000", "143829.090000", "143829.550000", "143830.010000", "143830.470000", "143830.930000", "143831.390000", "143831.850000", "143832.310000", "143832.770000", "143833.230000", "143833.690000", "143834.150000", "143834.610000", "143835.070000", "143835.530000", "143835.990000", "143836.450000", "143836.910000", "143837.370000", "143837.830000", "143838.290000", "143838.750000", "143839.210000", "143839.670000", "143840.130000", "143840.590000", "143841.050000", "143841.510000", "143841.970000", "143842.430000", "143842.890000", "143843.350000", "143843.810000", "143844.270000", "143844.730000", "143845.190000", "143845.650000", "143846.110000", "143846.570000", "143847.030000", "143847.490000", "143847.950000", "143848.410000", "143848.870000", "143849.330000", "143849.790000", "143850.250000", "143850.710000", "143851.170000", "143851.630000", "143852.090000", "143852.550000", "143853.010000", "143853.470000", "143853.930000", "143854.390000", "143854.850000", "143855.310000", "143855.770000", "143856.230000", "143856.690000", "143857.150000", "143857.610000", "143858.070000", "143858.530000", "143858.990000", "143859.450000", "143859.910000", "143900.370000", "143900.830000", "143901.290000", "143901.750000", "143902.210000", "143902.670000", "143903.130000", "143903.590000", "143904.050000", "143904.510000", "143904.970000", "143905.430000", "143905.890000", "143906.350000", "143906.810000", "143907.270000", "143907.730000", "143908.190000", "143908.650000", "143909.110000", "143909.570000", "143910.030000", "143910.490000", "143910.950000", "143911.410000", "143911.870000", "143912.330000", "143912.790000", "143913.250000", "143913.710000", "143914.170000", "143914.630000", "143915.090000", "143915.550000", "143916.010000", "143916.470000", "143916.930000", "143917.390000", "143917.850000", "143918.310000", "143918.770000", "143919.230000", "143919.690000", "143920.150000", "143920.610000", "143921.070000", "143921.530000", "143921.990000", "143922.450000", "143922.910000", "143923.370000", "143923.830000", "143924.290000", "143924.750000", "143925.210000", "143925.670000", "143926.130000", "143926.590000", "143927.050000", "143927.510000", "143927.970000", "143928.430000", "143928.890000", "143929.350000", "143929.810000", "143930.270000", "143930.730000", "143931.190000", "143931.650000", "143932.110000", "143932.570000", "143933.030000", "143933.490000", "143933.950000", "143934.410000", "143934.870000", "143935.330000", "143935.790000", "143936.250000", "143936.710000", "143937.170000", "143937.630000", "143938.090000", "143938.550000", "143939.010000", "143939.470000", "143939.930000", "143940.390000", "143940.850000", "143941.310000", "143941.770000", "143942.230000", "143942.690000", "143943.150000", "143943.610000", "143944.070000", "143944.530000", "143944.990000", "143945.450000", "143945.910000", "143946.370000", "143946.830000", "143947.290000", "143947.750000", "143948.210000", "143948.670000", "143949.130000", "143949.590000", "143950.050000", "143950.510000", "143950.970000", "143951.430000", "143951.890000", "143952.350000", "143952.810000", "143953.270000", "143953.730000", "143954.190000", "143954.650000", "143955.110000", "143955.570000", "143956.030000", "143956.490000", "143956.950000", "143957.410000", "143957.870000", "143958.330000", "143958.790000", "143959.250000", "143959.710000", "144000.170000", "144000.630000", "144001.090000", "144001.550000", "144002.010000", "144002.470000", "144002.930000", "144003.390000", "144003.850000", "144004.310000", "144004.770000", "144005.230000", "144005.690000", "144006.150000", "144006.610000", "144007.070000", "144007.530000", "144007.990000", "144008.450000", "144008.910000", "144009.370000", "144009.830000", "144010.290000", "144010.750000", "144011.210000", "144011.670000", "144012.130000", "144012.590000", "144013.050000", "144013.510000", "144013.970000", "144014.430000", "144014.890000", "144015.350000", "144015.810000", "144016.270000", "144016.730000", "144017.190000", "144017.650000", "144018.110000", "144018.570000", "144019.030000", "144019.490000", "144019.950000", "144020.410000", "144020.870000", "144021.330000", "144021.790000", "144022.250000", "144022.710000", "144023.170000", "144023.630000", "144024.090000", "144024.550000", "144025.010000", "144025.470000", "144025.930000", "144026.390000", "144026.850000", "144027.310000", "144027.770000", "144028.230000", "144028.690000", "144029.150000", "144029.610000", "144030.070000", "144030.530000", "144030.990000", "144031.450000", "144031.910000", "144032.370000", "144032.830000", "144033.290000", "144033.750000", "144034.210000", "144034.670000", "144035.130000", "144035.590000", "144036.050000", "144036.510000", "144036.970000", "144037.430000", "144037.890000", "144038.350000", "144038.810000", "144039.270000", "144039.730000", "144040.190000", "144040.650000", "144041.110000", "144041.570000", "144042.030000", "144042.490000", "144042.950000", "144043.410000", "144043.870000", "144044.330000", "144044.790000", "144045.250000", "144045.710000", "144046.170000", "144046.630000", "144047.090000", "144047.550000", "144048.010000", "144048.470000", "144048.930000", "144049.390000", "144049.850000", "144050.310000", "144050.770000", "144051.230000", "144051.690000", "144052.150000", "144052.610000", "144053.070000", "144053.530000", "144053.990000", "144054.450000", "144054.910000", "144055.370000", "144055.830000", "144056.290000", "144056.750000", "144057.210000", "144057.670000", "144058.130000", "144058.590000", "144059.050000", "144059.510000", "144059.970000", "144100.430000", "144100.890000", "144101.350000", "144101.810000", "144102.270000", "144102.730000", "144103.190000", "144103.650000", "144104.110000", "144104.570000", "144105.030000", "144105.490000", "144105.950000", "144106.410000", "144106.870000", "144107.330000", "144107.790000", "144108.250000", "144108.710000", "144109.170000", "144109.630000", "144110.090000", "144110.550000", "144111.010000", "144111.470000", "144111.930000", "144112.390000", "144112.850000", "144113.310000", "144113.770000", "144114.230000", "144114.690000", "144115.150000", "144115.610000", "144116.070000", "144116.530000", "144116.990000", "144117.450000", "144117.910000", "144118.370000", "144118.830000", "144119.290000", "144119.750000", "144120.210000", "144120.670000", "144121.130000", "144121.590000", "144122.050000", "144122.510000", "144122.970000", "144123.430000", "144123.890000", "144124.350000", "144124.810000", "144125.270000", "144125.730000", "144126.190000", "144126.650000", "144127.110000", "144127.570000", "144128.030000", "144128.490000", "144128.950000", "144129.410000", "144129.870000", "144130.330000", "144130.790000", "144131.250000", "144131.710000", "144132.170000", "144132.630000", "144133.090000", "144133.550000", "144134.010000", "144134.470000", "144134.930000", "144135.390000", "144135.850000", "144136.310000", "144136.770000", "144137.230000", "144137.690000", "144138.150000", "144138.610000", "144139.070000", "144139.530000", "144139.990000", "144140.450000", "144140.910000", "144141.370000", "144141.830000", "144142.290000", "144142.750000", "144143.210000", "144143.670000", "144144.130000", "144144.590000", "144145.050000", "144145.510000", "144145.970000", "144146.430000", "144146.890000", "144147.350000", "144147.810000", "144148.270000", "144148.730000", "144149.190000", "144149.650000", "144150.110000", "144150.570000", "144151.030000", "144151.490000", "144151.950000", "144152.410000", "144152.870000", "144153.330000", "144153.790000", "144154.250000", "144154.710000", "144155.170000", "144155.630000", "144156.090000", "144156.550000", "144157.010000", "144157.470000", "144157.930000", "144158.390000", "144158.850000", "144159.310000", "144159.770000", "144200.230000", "144200.690000", "144201.150000", "144201.610000", "144202.070000", "144202.530000", "144202.990000", "144203.450000", "144203.910000", "144204.370000", "144204.830000", "144205.290000", "144205.750000", "144206.210000", "144206.670000", "144207.130000", "144207.590000", "144208.050000", "144208.510000", "144208.970000", "144209.430000", "144209.890000", "144210.350000", "144210.810000", "144211.270000", "144211.730000", "144212.190000", "144212.650000", "144213.110000", "144213.570000", "144214.030000", "144214.490000", "144214.950000", "144215.410000", "144215.870000", "144216.330000", "144216.790000", "144217.250000", "144217.710000", "144218.170000", "144218.630000", "144219.090000", "144219.550000", "144220.010000", "144220.470000", "144220.930000", "144221.390000", "144221.850000", "144222.310000", "144222.770000", "144223.230000", "144223.690000", "144224.150000", "144224.610000", "144225.070000", "144225.530000", "144225.990000", "144226.450000", "144226.910000", "144227.370000", "144227.830000", "144228.290000", "144228.750000", "144229.210000", "144229.670000", "144230.130000", "144230.590000", "144231.050000", "144231.510000", "144231.970000", "144232.430000", "144232.890000", "144233.350000", "144233.810000", "144234.270000", "144234.730000", "144235.190000", "144235.650000", "144236.110000", "144236.570000", "144237.030000", "144237.490000", "144237.950000", "144238.410000", "144238.870000", "144239.330000", "144239.790000", "144240.250000", "144240.710000", "144241.170000", "144241.630000", "144242.090000", "144242.550000", "144243.010000", "144243.470000", "144243.930000", "144244.390000", "144244.850000", "144245.310000", "144245.770000", "144246.230000", "144246.690000", "144247.150000", "144247.610000", "144248.070000", "144248.530000", "144248.990000", "144249.450000", "144249.910000", "144250.370000", "144250.830000", "144251.290000", "144251.750000", "144252.210000", "144252.670000", "144253.130000", "144253.590000", "144254.050000", "144254.510000", "144254.970000", "144255.430000", "144255.890000", "144256.350000", "144256.810000", "144257.270000", "144257.730000", "144258.190000", "144258.650000", "144259.110000", "144259.570000", "144300.030000", "144300.490000", "144300.950000", "144301.410000", "144301.870000", "144302.330000", "144302.790000", "144303.250000", "144303.710000", "144304.170000", "144304.630000", "144305.090000", "144305.550000", "144306.010000", "144306.470000", "144306.930000", "144307.390000", "144307.850000", "144308.310000", "144308.770000", "144309.230000", "144309.690000", "144310.150000", "144310.610000", "144311.070000", "144311.530000", "144311.990000", "144312.450000", "144312.910000", "144313.370000", "144313.830000", "144314.290000", "144314.750000", "144315.210000", "144315.670000", "144316.130000", "144316.590000", "144317.050000", "144317.510000", "144317.970000", "144318.430000", "144318.890000", "144319.350000", "144319.810000", "144320.270000", "144320.730000", "144321.190000", "144321.650000", "144322.110000", "144322.570000", "144323.030000", "144323.490000", "144323.950000", "144324.410000", "144324.870000", "144325.330000", "144325.790000", "144326.250000", "144326.710000", "144327.170000", "144327.630000", "144328.090000", "144328.550000", "144329.010000", "144329.470000", "144329.930000", "144330.390000", "144330.850000", "144331.310000", "144331.770000", "144332.230000", "144332.690000", "144333.150000", "144333.610000", "144334.070000", "144334.530000", "144334.990000", "144335.450000", "144335.910000", "144336.370000", "144336.830000", "144337.290000", "144337.750000", "144338.210000", "144338.670000", "144339.130000", "144339.590000", "144340.050000", "144340.510000", "144340.970000", "144341.430000", "144341.890000", "144342.350000", "144342.810000", "144343.270000", "144343.730000", "144344.190000", "144344.650000", "144345.110000", "144345.570000", "144346.030000", "144346.490000", "144346.950000", "144347.410000", "144347.870000", "144348.330000", "144348.790000", "144349.250000", "144349.710000", "144350.170000", "144350.630000", "144351.090000", "144351.550000", "144352.010000", "144352.470000", "144352.930000", "144353.390000", "144353.850000", "144354.310000", "144354.770000", "144355.230000", "144355.690000", "144356.150000", "144356.610000", "144357.070000", "144357.530000", "144357.990000", "144358.450000", "144358.910000", "144359.370000", "144359.830000", "144400.290000", "144400.750000", "144401.210000", "144401.670000", "144402.130000", "144402.590000", "144403.050000", "144403.510000", "144403.970000", "144404.430000", "144404.890000", "144405.350000", "144405.810000", "144406.270000", "144406.730000", "144407.190000", "144407.650000", "144408.110000", "144408.570000", "144409.030000", "144409.490000", "144409.950000", "144410.410000", "144410.870000", "144411.330000", "144411.790000", "144412.250000", "144412.710000", "144413.170000", "144413.630000", "144414.090000", "144414.550000", "144415.010000", "144415.470000", "144415.930000", "144416.390000", "144416.850000", "144417.310000", "144417.770000", "144418.230000", "144418.690000", "144419.150000", "144419.610000", "144420.070000", "144420.530000", "144420.990000", "144421.450000", "144421.910000", "144422.370000", "144422.830000", "144423.290000", "144423.750000", "144424.210000", "144424.670000", "144425.130000", "144425.590000", "144426.050000", "144426.510000", "144426.970000", "144427.430000", "144427.890000", "144428.350000", "144428.810000", "144429.270000", "144429.730000", "144430.190000", "144430.650000", "144431.110000", "144431.570000", "144432.030000", "144432.490000", "144432.950000", "144433.410000", "144433.870000", "144434.330000", "144434.790000", "144435.250000", "144435.710000", "144436.170000", "144436.630000", "144437.090000", "144437.550000", "144438.010000", "144438.470000", "144438.930000", "144439.390000", "144439.850000", "144440.310000", "144440.770000", "144441.230000", "144441.690000", "144442.150000", "144442.610000", "144443.070000", "144443.530000", "144443.990000", "144444.450000", "144444.910000", "144445.370000", "144445.830000", "144446.290000", "144446.750000", "144447.210000", "144447.670000", "144448.130000", "144448.590000", "144449.050000", "144449.510000", "144449.970000", "144450.430000", "144450.890000", "144451.350000", "144451.810000", "144452.270000", "144452.730000", "144453.190000", "144453.650000", "144454.110000", "144454.570000", "144455.030000", "144455.490000", "144455.950000", "144456.410000", "144456.870000", "144457.330000", "144457.790000", "144458.250000", "144458.710000", "144459.170000", "144459.630000", "144500.090000", "144500.550000", "144501.010000", "144501.470000", "144501.930000", "144502.390000", "144502.850000", "144503.310000", "144503.770000", "144504.230000", "144504.690000", "144505.150000", "144505.610000", "144506.070000", "144506.530000", "144506.990000", "144507.450000", "144507.910000", "144508.370000", "144508.830000", "144509.290000", "144509.750000", "144510.210000", "144510.670000", "144511.130000", "144511.590000", "144512.050000", "144512.510000", "144512.970000", "144513.430000", "144513.890000", "144514.350000", "144514.810000", "144515.270000", "144515.730000", "144516.190000", "144516.650000", "144517.110000", "144517.570000", "144518.030000", "144518.490000", "144518.950000", "144519.410000", "144519.870000", "144520.330000", "144520.790000", "144521.250000", "144521.710000", "144522.170000", "144522.630000", "144523.090000", "144523.550000", "144524.010000", "144524.470000", "144524.930000", "144525.390000", "144525.850000", "144526.310000", "144526.770000", "144527.230000", "144527.690000", "144528.150000", "144528.610000", "144529.070000", "144529.530000", "144529.990000", "144530.450000", "144530.910000", "144531.370000", "144531.830000", "144532.290000", "144532.750000", "144533.210000", "144533.670000", "144534.130000", "144534.590000", "144535.050000", "144535.510000", "144535.970000", "144536.430000", "144536.890000", "144537.350000", "144537.810000", "144538.270000", "144538.730000", "144539.190000", "144539.650000", "144540.110000", "144540.570000", "144541.030000", "144541.490000", "144541.950000", "144542.410000", "144542.870000", "144543.330000", "144543.790000", "144544.250000", "144544.710000", "144545.170000", "144545.630000", "144546.090000", "144546.550000", "144547.010000", "144547.470000", "144547.930000", "144548.390000", "144548.850000", "144549.310000", "144549.770000", "144550.230000", "144550.690000", "144551.150000", "144551.610000", "144552.070000", "144552.530000", "144552.990000", "144553.450000", "144553.910000", "144554.370000", "144554.830000", "144555.290000", "144555.750000", "144556.210000", "144556.670000", "144557.130000", "144557.590000", "144558.050000", "144558.510000", "144558.970000", "144559.430000", "144559.890000", "144600.350000", "144600.810000", "144601.270000", "144601.730000", "144602.190000", "144602.650000", "144603.110000", "144603.570000", "144604.030000", "144604.490000", "144604.950000", "144605.410000", "144605.870000", "144606.330000", "144606.790000"],
