{
  "AcquisitionMatrixPE": 82,
  "AcquisitionNumber": 1,
  "AcquisitionTime": "13:58:45.282500",
  "BandwidthPerPixelPhaseEncode": 24.888,
  "BaseResolution": 82,
  "BodyPartExamined": "BRAIN",
  "ConsistencyInfo": "N4_VE11C_LATEST_20160120",
  "ConversionSoftware": "dcm2niix",
  "ConversionSoftwareVersion": "v1.0.20201102",
  "DerivedVendorReportedEchoSpacing": 0.00049,
  "DeviceSerialNumber": "66112",
  "DwellTime": 2e-06,
  "EchoTime": 0.0272,
  "EchoTrainLength": 82,
  "EffectiveEchoSpacing": 0.00049,
  "FlipAngle": 44,
  "ImageComments": "Unaliased MB8/PE3",
  "ImageOrientationPatientDICOM": [0.999228, -0.0346096, -0.0185851, 0.0361161, 0.995465, 0.0880068],
  "ImageType": [
    "ORIGINAL",
    "PRIMARY",
    "M",
    "MB",
    "ND",
    "NORM",
    "MOSAIC"
],
  "ImagingFrequency": 123.252,
  "InPlanePhaseEncodingDirectionDICOM": "COL",
  "InstitutionAddress": "Maynard 3,Hanover,NH,US,03755",
  "InstitutionName": "Dartmouth College - PBS",
  "InstitutionalDepartmentName": "Department",
  "MRAcquisitionType": "2D",
  "MagneticFieldStrength": 3,
  "Manufacturer": "Siemens",
  "ManufacturersModelName": "Prisma",
  "Modality": "MR",
  "MultibandAccelerationFactor": 8,
  "PartialFourier": 1,
  "PatientPosition": "HFS",
  "PercentPhaseFOV": 100,
  "PercentSampling": 100,
  "PhaseEncodingDirection": "j-",
  "PhaseEncodingSteps": 82,
  "PhaseResolution": 1,
  "PixelBandwidth": 3050,
  "ProcedureStepDescription": "Wager_Wager^1076_spacetop",
  "ProtocolName": "func_run-02_task-social_acq-ap-mb8",
  "PulseSequenceDetails": "%CustomerSeq%\\cmrr_mbep2d_bold",
  "ReceiveCoilActiveElements": "HEA;HEP",
  "ReceiveCoilName": "Head_32",
  "ReconMatrixPE": 82,
  "RepetitionTime": 0.46,
  "SAR": 0.0975637,
  "ScanOptions": "FS",
  "ScanningSequence": "EP",
  "SequenceName": "epfid2d1_82",
  "SequenceVariant": "SK\\SS",
  "SeriesDescription": "func_run-02_task-social_acq-ap-mb8",
  "SeriesNumber": 16,
  "ShimSetting": [4147, -7709, -7251, 430, -15, -21, 56, 74],
  "SliceThickness": 2.7,
  "SliceTiming": [0, 0.2525, 0.0625, 0.315, 0.125, 0.3775, 0.19, 0, 0.2525, 0.0625, 0.315, 0.125, 0.3775, 0.19, 0, 0.2525, 0.0625, 0.315, 0.125, 0.3775, 0.19, 0, 0.2525, 0.0625, 0.315, 0.125, 0.3775, 0.19, 0, 0.2525, 0.0625, 0.315, 0.125, 0.3775, 0.19, 0, 0.2525, 0.0625, 0.315, 0.125, 0.3775, 0.19, 0, 0.2525, 0.0625, 0.315, 0.125, 0.3775, 0.19, 0, 0.2525, 0.0625, 0.315, 0.125, 0.3775, 0.19],
  "SoftwareVersions": "syngo MR E11",
  "SpacingBetweenSlices": 2.7,
  "StationName": "AWP66112",
  "TaskName": "social",
  "TotalReadoutTime": 0.03969,
  "TxRefAmp": 228.908,
  "WipMemBlock": "90b9adf6-9c7e-4553-9dbf-c62397b7bd24||Sequence: R016 ve11c/master r/e634e98; Dec 19 2017 11:00:25 by eja",
  "dcmmeta_affine": [
    [-2.6808559894561768, 0.09689684957265854, -0.04172822833061218, 109.320556640625],
    [0.09285493195056915, 2.670759677886963, 0.23924711346626282, -99.86251068115234],
    [-0.04986235499382019, -0.2361156940460205, 2.6890554428100586, -45.272769927978516],
    [0.0, 0.0, 0.0, 1.0]
],
  "dcmmeta_reorient_transform": [
    [0.0, -1.0, 0.0, 81.0],
    [1.0, 0.0, 0.0, 0.0],
    [0.0, 0.0, 1.0, 0.0],
    [0.0, 0.0, 0.0, 1.0]
],
  "dcmmeta_shape": [82, 82, 56, 872],
  "dcmmeta_slice_dim": 2,
  "dcmmeta_version": 0.6,
  "global": {
    "const": {
      "AccessionNumber": "A003817",
      "AcquisitionMatrix": [82, 0, 0, 82],
      "AngioFlag": "N",
      "BitsAllocated": 16,
      "BitsStored": 16,
      "BodyPartExamined": "BRAIN",
      "Columns": 656,
      "EchoNumbers": 1,
      "EchoTime": 27.2,
      "EchoTrainLength": 82,
      "FlipAngle": 44.0,
      "HighBit": 15,
      "ImageOrientationPatient": [0.99922808891931, -0.0346095637036, -0.0185850589161, 0.03611609625957, 0.99546493591108, 0.08800675520959],
      "ImagePositionPatient": [-914.38424360993, -856.32767198041, -117.85284727711],
      "ImageType": [
        "ORIGINAL",
        "PRIMARY",
        "M",
        "MB",
        "ND",
        "NORM",
        "MOSAIC"
],
      "ImagedNucleus": "1H",
      "ImagingFrequency": 123.252233,
      "InPlanePhaseEncodingDirection": "COL",
      "MRAcquisitionType": "2D",
      "MagneticFieldStrength": 3.0,
      "Manufacturer": "SIEMENS",
      "ManufacturerModelName": "Prisma",
      "Modality": "MR",
      "NumberOfAverages": 1.0,
      "NumberOfPhaseEncodingSteps": 82,
      "PercentPhaseFieldOfView": 100.0,
      "PercentSampling": 100.0,
      "PerformedProcedureStepStartTime": "131335.708000",
      "PhotometricInterpretation": "MONOCHROME2",
      "PixelBandwidth": 3050.0,
      "PixelRepresentation": 0,
      "PixelSpacing": [2.6829268932343, 2.6829268932343],
      "ProtocolName": "func_run-02_task-social_acq-ap-mb8",
      "RepetitionTime": 460.0,
      "Rows": 656,
      "SAR": 0.09756372468577,
      "SamplesPerPixel": 1,
      "ScanOptions": "FS",
      "ScanningSequence": "EP",
      "SequenceName": "epfid2d1_82",
      "SequenceVariant": [
        "SK",
        "SS"
],
      "SeriesDescription": "func_run-02_task-social_acq-ap-mb8",
      "SeriesNumber": 16,
      "SeriesTime": "135858.384000",
      "SliceLocation": -55.627614898932,
      "SliceThickness": 2.7000000476837,
      "SmallestImagePixelValue": 0,
      "SoftwareVersions": "syngo MR E11",
      "SpacingBetweenSlices": 2.6999999779471,
      "SpecificCharacterSet": "ISO_IR 100",
      "StudyID": "1",
      "StudyTime": "131335.643000",
      "TransmitCoilName": "Body",
      "VariableFlipAngleFlag": "N",
      "WindowCenterWidthExplanation": "Algo1",
      "dBdt": 0.0},
    "slices": {}
  },
  "time": {
    "samples": {
      "AcquisitionNumber": [1, 2, 3, 4, 5, 6, 7, 8, 9, 10, 11, 12, 13, 14, 15, 16, 17, 18, 19, 20, 21, 22, 23, 24, 25, 26, 27, 28, 29, 30, 31, 32, 33, 34, 35, 36, 37, 38, 39, 40, 41, 42, 43, 44, 45, 46, 47, 48, 49, 50, 51, 52, 53, 54, 55, 56, 57, 58, 59, 60, 61, 62, 63, 64, 65, 66, 67, 68, 69, 70, 71, 72, 73, 74, 75, 76, 77, 78, 79, 80, 81, 82, 83, 84, 85, 86, 87, 88, 89, 90, 91, 92, 93, 94, 95, 96, 97, 98, 99, 100, 101, 102, 103, 104, 105, 106, 107, 108, 109, 110, 111, 112, 113, 114, 115, 116, 117, 118, 119, 120, 121, 122, 123, 124, 125, 126, 127, 128, 129, 130, 131, 132, 133, 134, 135, 136, 137, 138, 139, 140, 141, 142, 143, 144, 145, 146, 147, 148, 149, 150, 151, 152, 153, 154, 155, 156, 157, 158, 159, 160, 161, 162, 163, 164, 165, 166, 167, 168, 169, 170, 171, 172, 173, 174, 175, 176, 177, 178, 179, 180, 181, 182, 183, 184, 185, 186, 187, 188, 189, 190, 191, 192, 193, 194, 195, 196, 197, 198, 199, 200, 201, 202, 203, 204, 205, 206, 207, 208, 209, 210, 211, 212, 213, 214, 215, 216, 217, 218, 219, 220, 221, 222, 223, 224, 225, 226, 227, 228, 229, 230, 231, 232, 233, 234, 235, 236, 237, 238, 239, 240, 241, 242, 243, 244, 245, 246, 247, 248, 249, 250, 251, 252, 253, 254, 255, 256, 257, 258, 259, 260, 261, 262, 263, 264, 265, 266, 267, 268, 269, 270, 271, 272, 273, 274, 275, 276, 277, 278, 279, 280, 281, 282, 283, 284, 285, 286, 287, 288, 289, 290, 291, 292, 293, 294, 295, 296, 297, 298, 299, 300, 301, 302, 303, 304, 305, 306, 307, 308, 309, 310, 311, 312, 313, 314, 315, 316, 317, 318, 319, 320, 321, 322, 323, 324, 325, 326, 327, 328, 329, 330, 331, 332, 333, 334, 335, 336, 337, 338, 339, 340, 341, 342, 343, 344, 345, 346, 347, 348, 349, 350, 351, 352, 353, 354, 355, 356, 357, 358, 359, 360, 361, 362, 363, 364, 365, 366, 367, 368, 369, 370, 371, 372, 373, 374, 375, 376, 377, 378, 379, 380, 381, 382, 383, 384, 385, 386, 387, 388, 389, 390, 391, 392, 393, 394, 395, 396, 397, 398, 399, 400, 401, 402, 403, 404, 405, 406, 407, 408, 409, 410, 411, 412, 413, 414, 415, 416, 417, 418, 419, 420, 421, 422, 423, 424, 425, 426, 427, 428, 429, 430, 431, 432, 433, 434, 435, 436, 437, 438, 439, 440, 441, 442, 443, 444, 445, 446, 447, 448, 449, 450, 451, 452, 453, 454, 455, 456, 457, 458, 459, 460, 461, 462, 463, 464, 465, 466, 467, 468, 469, 470, 471, 472, 473, 474, 475, 476, 477, 478, 479, 480, 481, 482, 483, 484, 485, 486, 487, 488, 489, 490, 491, 492, 493, 494, 495, 496, 497, 498, 499, 500, 501, 502, 503, 504, 505, 506, 507, 508, 509, 510, 511, 512, 513, 514, 515, 516, 517, 518, 519, 520, 521, 522, 523, 524, 525, 526, 527, 528, 529, 530, 531, 532, 533, 534, 535, 536, 537, 538, 539, 540, 541, 542, 543, 544, 545, 546, 547, 548, 549, 550, 551, 552, 553, 554, 555, 556, 557, 558, 559, 560, 561, 562, 563, 564, 565, 566, 567, 568, 569, 570, 571, 572, 573, 574, 575, 576, 577, 578, 579, 580, 581, 582, 583, 584, 585, 586, 587, 588, 589, 590, 591, 592, 593, 594, 595, 596, 597, 598, 599, 600, 601, 602, 603, 604, 605, 606, 607, 608, 609, 610, 611, 612, 613, 614, 615, 616, 617, 618, 619, 620, 621, 622, 623, 624, 625, 626, 627, 628, 629, 630, 631, 632, 633, 634, 635, 636, 637, 638, 639, 640, 641, 642, 643, 644, 645, 646, 647, 648, 649, 650, 651, 652, 653, 654, 655, 656, 657, 658, 659, 660, 661, 662, 663, 664, 665, 666, 667, 668, 669, 670, 671, 672, 673, 674, 675, 676, 677, 678, 679, 680, 681, 682, 683, 684, 685, 686, 687, 688, 689, 690, 691, 692, 693, 694, 695, 696, 697, 698, 699, 700, 701, 702, 703, 704, 705, 706, 707, 708, 709, 710, 711, 712, 713, 714, 715, 716, 717, 718, 719, 720, 721, 722, 723, 724, 725, 726, 727, 728, 729, 730, 731, 732, 733, 734, 735, 736, 737, 738, 739, 740, 741, 742, 743, 744, 745, 746, 747, 748, 749, 750, 751, 752, 753, 754, 755, 756, 757, 758, 759, 760, 761, 762, 763, 764, 765, 766, 767, 768, 769, 770, 771, 772, 773, 774, 775, 776, 777, 778, 779, 780, 781, 782, 783, 784, 785, 786, 787, 788, 789, 790, 791, 792, 793, 794, 795, 796, 797, 798, 799, 800, 801, 802, 803, 804, 805, 806, 807, 808, 809, 810, 811, 812, 813, 814, 815, 816, 817, 818, 819, 820, 821, 822, 823, 824, 825, 826, 827, 828, 829, 830, 831, 832, 833, 834, 835, 836, 837, 838, 839, 840, 841, 842, 843, 844, 845, 846, 847, 848, 849, 850, 851, 852, 853, 854, 855, 856, 857, 858, 859, 860, 861, 862, 863, 864, 865, 866, 867, 868, 869, 870, 871, 872],
      "AcquisitionTime": ["135845.282500", "135845.742500", "135846.202500", "135846.662500", "135847.122500", "135847.582500", "135848.042500", "135848.502500", "135848.962500", "135849.422500", "135849.882500", "135850.342500", "135850.802500", "135851.262500", "135851.722500", "135852.182500", "135852.642500", "135853.102500", "135853.562500", "135854.022500", "135854.482500", "135854.942500", "135855.402500", "135855.862500", "135856.322500", "135856.782500", "135857.242500", "135857.702500", "135858.162500", "135858.622500", "135859.082500", "135859.542500", "135900.002500", "135900.462500", "135900.922500", "135901.382500", "135901.842500", "135902.302500", "135902.762500", "135903.222500", "135903.682500", "135904.142500", "135904.602500", "135905.062500", "135905.522500", "135905.982500", "135906.442500", "135906.902500", "135907.362500", "135907.822500", "135908.282500", "135908.742500", "135909.202500", "135909.662500", "135910.122500", "135910.582500", "135911.042500", "135911.502500", "135911.962500", "135912.422500", "135912.882500", "135913.342500", "135913.802500", "135914.262500", "135914.722500", "135915.182500", "135915.642500", "135916.102500", "135916.562500", "135917.022500", "135917.482500", "135917.942500", "135918.402500", "135918.862500", "135919.322500", "135919.782500", "135920.242500", "135920.702500", "135921.162500", "135921.622500", "135922.082500", "135922.542500", "135923.002500", "135923.462500", "135923.922500", "135924.382500", "135924.842500", "135925.302500", "135925.762500", "135926.222500", "135926.682500", "135927.142500", "135927.602500", "135928.062500", "135928.522500", "135928.982500", "135929.442500", "135929.902500", "135930.362500", "135930.822500", "135931.282500", "135931.742500", "135932.202500", "135932.662500", "135933.122500", "135933.582500", "135934.042500", "135934.502500", "135934.962500", "135935.422500", "135935.882500", "135936.342500", "135936.802500", "135937.262500", "135937.722500", "135938.182500", "135938.642500", "135939.102500", "135939.562500", "135940.022500", "135940.482500", "135940.942500", "135941.402500", "135941.862500", "135942.322500", "135942.782500", "135943.242500", "135943.702500", "135944.162500", "135944.622500", "135945.082500", "135945.542500", "135946.002500", "135946.462500", "135946.922500", "135947.382500", "135947.842500", "135948.302500", "135948.762500", "135949.222500", "135949.682500", "135950.142500", "135950.602500", "135951.062500", "135951.522500", "135951.982500", "135952.442500", "135952.902500", "135953.362500", "135953.822500", "135954.282500", "135954.742500", "135955.202500", "135955.662500", "135956.122500", "135956.582500", "135957.042500", "135957.502500", "135957.962500", "135958.422500", "135958.882500", "135959.342500", "135959.802500", "140000.262500", "140000.722500", "140001.182500", "140001.642500", "140002.102500", "140002.562500", "140003.022500", "140003.482500", "140003.942500", "140004.402500", "140004.862500", "140005.322500", "140005.782500", "140006.242500", "140006.702500", "140007.162500", "140007.622500", "140008.082500", "140008.542500", "140009.002500", "140009.462500", "140009.922500", "140010.382500", "140010.842500", "140011.302500", "140011.762500", "140012.222500", "140012.682500", "140013.142500", "140013.602500", "140014.062500", "140014.522500", "140014.982500", "140015.442500", "140015.902500", "140016.362500", "140016.822500", "140017.282500", "140017.742500", "140018.202500", "140018.662500", "140019.122500", "140019.582500", "140020.042500", "140020.502500", "140020.962500", "140021.422500", "140021.882500", "140022.342500", "140022.802500", "140023.262500", "140023.722500", "140024.182500", "140024.642500", "140025.102500", "140025.562500", "140026.022500", "140026.482500", "140026.942500", "140027.402500", "140027.862500", "140028.322500", "140028.782500", "140029.242500", "140029.702500", "140030.162500", "140030.622500", "140031.082500", "140031.542500", "140032.002500", "140032.462500", "140032.922500", "140033.382500", "140033.842500", "140034.302500", "140034.762500", "140035.222500", "140035.682500", "140036.142500", "140036.602500", "140037.062500", "140037.522500", "140037.982500", "140038.442500", "140038.902500", "140039.362500", "140039.822500", "140040.282500", "140040.742500", "140041.202500", "140041.662500", "140042.122500", "140042.582500", "140043.042500", "140043.502500", "140043.962500", "140044.422500", "140044.882500", "140045.342500", "140045.802500", "140046.262500", "140046.722500", "140047.182500", "140047.642500", "140048.102500", "140048.562500", "140049.022500", "140049.482500", "140049.942500", "140050.402500", "140050.862500", "140051.322500", "140051.782500", "140052.242500", "140052.702500", "140053.162500", "140053.622500", "140054.082500", "140054.542500", "140055.002500", "140055.462500", "140055.922500", "140056.382500", "140056.842500", "140057.302500", "140057.762500", "140058.222500", "140058.682500", "140059.142500", "140059.602500", "140100.062500", "140100.522500", "140100.982500", "140101.442500", "140101.902500", "140102.362500", "140102.822500", "140103.282500", "140103.742500", "140104.202500", "140104.662500", "140105.122500", "140105.582500", "140106.042500", "140106.502500", "140106.962500", "140107.422500", "140107.882500", "140108.342500", "140108.802500", "140109.262500", "140109.722500", "140110.182500", "140110.642500", "140111.102500", "140111.562500", "140112.022500", "140112.482500", "140112.942500", "140113.402500", "140113.862500", "140114.322500", "140114.782500", "140115.242500", "140115.702500", "140116.162500", "140116.622500", "140117.082500", "140117.542500", "140118.002500", "140118.462500", "140118.922500", "140119.382500", "140119.842500", "140120.302500", "140120.762500", "140121.222500", "140121.682500", "140122.142500", "140122.602500", "140123.062500", "140123.522500", "140123.982500", "140124.442500", "140124.902500", "140125.362500", "140125.822500", "140126.282500", "140126.742500", "140127.202500", "140127.662500", "140128.122500", "140128.582500", "140129.042500", "140129.502500", "140129.962500", "140130.422500", "140130.882500", "140131.342500", "140131.802500", "140132.262500", "140132.722500", "140133.182500", "140133.642500", "140134.102500", "140134.562500", "140135.022500", "140135.482500", "140135.942500", "140136.402500", "140136.862500", "140137.322500", "140137.782500", "140138.242500", "140138.702500", "140139.162500", "140139.622500", "140140.082500", "140140.542500", "140141.002500", "140141.462500", "140141.922500", "140142.382500", "140142.842500", "140143.302500", "140143.762500", "140144.222500", "140144.682500", "140145.142500", "140145.602500", "140146.062500", "140146.522500", "140146.982500", "140147.442500", "140147.902500", "140148.362500", "140148.822500", "140149.282500", "140149.742500", "140150.202500", "140150.662500", "140151.122500", "140151.582500", "140152.042500", "140152.502500", "140152.962500", "140153.422500", "140153.882500", "140154.342500", "140154.802500", "140155.262500", "140155.722500", "140156.182500", "140156.642500", "140157.102500", "140157.562500", "140158.022500", "140158.482500", "140158.942500", "140159.402500", "140159.862500", "140200.322500", "140200.782500", "140201.242500", "140201.702500", "140202.162500", "140202.622500", "140203.082500", "140203.542500", "140204.002500", "140204.462500", "140204.922500", "140205.382500", "140205.842500", "140206.302500", "140206.762500", "140207.222500", "140207.682500", "140208.142500", "140208.602500", "140209.062500", "140209.522500", "140209.982500", "140210.442500", "140210.902500", "140211.362500", "140211.822500", "140212.282500", "140212.742500", "140213.202500", "140213.662500", "140214.122500", "140214.582500", "140215.042500", "140215.502500", "140215.962500", "140216.422500", "140216.882500", "140217.342500", "140217.802500", "140218.262500", "140218.722500", "140219.182500", "140219.642500", "140220.102500", "140220.562500", "140221.022500", "140221.482500", "140221.942500", "140222.402500", "140222.862500", "140223.322500", "140223.782500", "140224.242500", "140224.702500", "140225.162500", "140225.622500", "140226.082500", "140226.542500", "140227.002500", "140227.462500", "140227.922500", "140228.382500", "140228.842500", "140229.302500", "140229.762500", "140230.222500", "140230.682500", "140231.142500", "140231.602500", "140232.062500", "140232.522500", "140232.982500", "140233.442500", "140233.902500", "140234.362500", "140234.822500", "140235.282500", "140235.742500", "140236.202500", "140236.662500", "140237.122500", "140237.582500", "140238.042500", "140238.502500", "140238.962500", "140239.422500", "140239.882500", "140240.342500", "140240.802500", "140241.262500", "140241.722500", "140242.182500", "140242.642500", "140243.102500", "140243.562500", "140244.022500", "140244.482500", "140244.942500", "140245.402500", "140245.862500", "140246.322500", "140246.782500", "140247.242500", "140247.702500", "140248.162500", "140248.622500", "140249.082500", "140249.542500", "140250.002500", "140250.462500", "140250.922500", "140251.382500", "140251.842500", "140252.302500", "140252.762500", "140253.222500", "140253.682500", "140254.142500", "140254.602500", "140255.062500", "140255.522500", "140255.982500", "140256.442500", "140256.902500", "140257.362500", "140257.822500", "140258.282500", "140258.742500", "140259.202500", "140259.662500", "140300.122500", "140300.582500", "140301.042500", "140301.502500", "140301.962500", "140302.422500", "140302.882500", "140303.342500", "140303.802500", "140304.262500", "140304.722500", "140305.182500", "140305.642500", "140306.102500", "140306.562500", "140307.022500", "140307.482500", "140307.942500", "140308.402500", "140308.862500", "140309.322500", "140309.782500", "140310.242500", "140310.702500", "140311.162500", "140311.622500", "140312.082500", "140312.542500", "140313.002500", "140313.462500", "140313.922500", "140314.382500", "140314.842500", "140315.302500", "140315.762500", "140316.222500", "140316.682500", "140317.142500", "140317.602500", "140318.062500", "140318.522500", "140318.982500", "140319.442500", "140319.902500", "140320.362500", "140320.822500", "140321.282500", "140321.742500", "140322.202500", "140322.662500", "140323.122500", "140323.582500", "140324.042500", "140324.502500", "140324.962500", "140325.422500", "140325.882500", "140326.342500", "140326.802500", "140327.262500", "140327.722500", "140328.182500", "140328.642500", "140329.102500", "140329.562500", "140330.022500", "140330.482500", "140330.942500", "140331.402500", "140331.862500", "140332.322500", "140332.782500", "140333.242500", "140333.702500", "140334.162500", "140334.622500", "140335.082500", "140335.542500", "140336.002500", "140336.462500", "140336.922500", "140337.382500", "140337.842500", "140338.302500", "140338.762500", "140339.222500", "140339.682500", "140340.142500", "140340.602500", "140341.062500", "140341.522500", "140341.982500", "140342.442500", "140342.902500", "140343.362500", "140343.822500", "140344.282500", "140344.742500", "140345.202500", "140345.662500", "140346.122500", "140346.582500", "140347.042500", "140347.502500", "140347.962500", "140348.422500", "140348.882500", "140349.342500", "140349.802500", "140350.262500", "140350.722500", "140351.182500", "140351.642500", "140352.102500", "140352.562500", "140353.022500", "140353.482500", "140353.942500", "140354.402500", "140354.862500", "140355.322500", "140355.782500", "140356.242500", "140356.702500", "140357.162500", "140357.622500", "140358.082500", "140358.542500", "140359.002500", "140359.462500", "140359.922500", "140400.382500", "140400.842500", "140401.302500", "140401.762500", "140402.222500", "140402.682500", "140403.142500", "140403.602500", "140404.062500", "140404.522500", "140404.982500", "140405.442500", "140405.902500", "140406.362500", "140406.822500", "140407.282500", "140407.742500", "140408.202500", "140408.662500", "140409.122500", "140409.582500", "140410.042500", "140410.502500", "140410.962500", "140411.422500", "140411.882500", "140412.342500", "140412.802500", "140413.262500", "140413.722500", "140414.182500", "140414.642500", "140415.102500", "140415.562500", "140416.022500", "140416.482500", "140416.942500", "140417.402500", "140417.862500", "140418.322500", "140418.782500", "140419.242500", "140419.702500", "140420.162500", "140420.622500", "140421.082500", "140421.542500", "140422.002500", "140422.462500", "140422.922500", "140423.382500", "140423.842500", "140424.302500", "140424.762500", "140425.222500", "140425.682500", "140426.142500", "140426.602500", "140427.062500", "140427.522500", "140427.982500", "140428.442500", "140428.902500", "140429.362500", "140429.822500", "140430.282500", "140430.742500", "140431.202500", "140431.662500", "140432.122500", "140432.582500", "140433.042500", "140433.502500", "140433.962500", "140434.422500", "140434.882500", "140435.342500", "140435.802500", "140436.262500", "140436.722500", "140437.182500", "140437.642500", "140438.102500", "140438.562500", "140439.022500", "140439.482500", "140439.942500", "140440.402500", "140440.862500", "140441.322500", "140441.782500", "140442.242500", "140442.702500", "140443.162500", "140443.622500", "140444.082500", "140444.542500", "140445.002500", "140445.462500", "140445.922500", "140446.382500", "140446.842500", "140447.302500", "140447.762500", "140448.222500", "140448.682500", "140449.142500", "140449.602500", "140450.062500", "140450.522500", "140450.982500", "140451.442500", "140451.902500", "140452.362500", "140452.822500", "140453.282500", "140453.742500", "140454.202500", "140454.662500", "140455.122500", "140455.582500", "140456.042500", "140456.502500", "140456.962500", "140457.422500", "140457.882500", "140458.342500", "140458.802500", "140459.262500", "140459.722500", "140500.182500", "140500.642500", "140501.102500", "140501.562500", "140502.022500", "140502.482500", "140502.942500", "140503.402500", "140503.862500", "140504.322500", "140504.782500", "140505.242500", "140505.702500", "140506.162500", "140506.622500", "140507.082500", "140507.542500", "140508.002500", "140508.462500", "140508.922500", "140509.382500", "140509.842500", "140510.302500", "140510.762500", "140511.222500", "140511.682500", "140512.142500", "140512.602500", "140513.062500", "140513.522500", "140513.982500", "140514.442500", "140514.902500", "140515.362500", "140515.822500", "140516.282500", "140516.742500", "140517.202500", "140517.662500", "140518.122500", "140518.582500", "140519.042500", "140519.502500", "140519.962500", "140520.422500", "140520.882500", "140521.342500", "140521.802500", "140522.262500", "140522.722500", "140523.182500", "140523.642500", "140524.102500", "140524.562500", "140525.022500", "140525.482500", "140525.942500"],
