{
  "AcquisitionMatrixPE": 82,
  "AcquisitionNumber": 1,
  "AcquisitionTime": "12:40:29.632500",
  "BandwidthPerPixelPhaseEncode": 24.888,
  "BaseResolution": 82,
  "BodyPartExamined": "BRAIN",
  "ConsistencyInfo": "N4_VE11E_LATEST_20181129",
  "ConversionSoftware": "dcm2niix",
  "ConversionSoftwareVersion": "v1.0.20201102",
  "DerivedVendorReportedEchoSpacing": 0.00049,
  "DeviceSerialNumber": "66112",
  "DwellTime": 2e-06,
  "EchoTime": 0.0272,
  "EchoTrainLength": 82,
  "EffectiveEchoSpacing": 0.00049,
  "FlipAngle": 44,
  "ImageComments": "Unaliased MB8/PE3",
  "ImageOrientationPatientDICOM": [0.998671, 0.0390786, 0.0335939, -0.0387142, 0.999185, -0.0114278],
  "ImageType": [
    "ORIGINAL",
    "PRIMARY",
    "M",
    "MB",
    "ND",
    "NORM",
    "MOSAIC"
],
  "ImagingFrequency": 123.252,
  "InPlanePhaseEncodingDirectionDICOM": "COL",
  "InstitutionAddress": "Maynard 3,Hanover,NH,US,03755",
  "InstitutionName": "Dartmouth College - PBS",
  "InstitutionalDepartmentName": "Department",
  "MRAcquisitionType": "2D",
  "MagneticFieldStrength": 3,
  "Manufacturer": "Siemens",
  "ManufacturersModelName": "Prisma",
  "Modality": "MR",
  "MultibandAccelerationFactor": 8,
  "PartialFourier": 1,
  "PatientPosition": "HFS",
  "PercentPhaseFOV": 100,
  "PercentSampling": 100,
  "PhaseEncodingDirection": "j-",
  "PhaseEncodingSteps": 82,
  "PhaseResolution": 1,
  "PixelBandwidth": 3050,
  "ProcedureStepDescription": "Wager_Wager^1076_spacetop",
  "ProtocolName": "func_run-03_task-social_acq-ap-mb8",
  "PulseSequenceDetails": "%CustomerSeq%\\cmrr_mbep2d_bold",
  "ReceiveCoilActiveElements": "HEA;HEP",
  "ReceiveCoilName": "Head_32",
  "ReconMatrixPE": 82,
  "RepetitionTime": 0.46,
  "SAR": 0.108209,
  "ScanOptions": "FS",
  "ScanningSequence": "EP",
  "SequenceName": "epfid2d1_82",
  "SequenceVariant": "SK\\SS",
  "SeriesDescription": "func_run-03_task-social_acq-ap-mb8",
  "SeriesNumber": 12,
  "ShimSetting": [4148, -7740, -7267, 453, -60, -281, 131, 65],
  "SliceThickness": 2.7,
  "SliceTiming": [0, 0.25, 0.0625, 0.3125, 0.125, 0.3775, 0.1875, 0, 0.25, 0.0625, 0.3125, 0.125, 0.3775, 0.1875, 0, 0.25, 0.0625, 0.3125, 0.125, 0.3775, 0.1875, 0, 0.25, 0.0625, 0.3125, 0.125, 0.3775, 0.1875, 0, 0.25, 0.0625, 0.3125, 0.125, 0.3775, 0.1875, 0, 0.25, 0.0625, 0.3125, 0.125, 0.3775, 0.1875, 0, 0.25, 0.0625, 0.3125, 0.125, 0.3775, 0.1875, 0, 0.25, 0.0625, 0.3125, 0.125, 0.3775, 0.1875],
  "SoftwareVersions": "syngo MR E11",
  "SpacingBetweenSlices": 2.7,
  "StationName": "AWP66112",
  "TaskName": "social",
  "TotalReadoutTime": 0.03969,
  "TxRefAmp": 281.353,
  "WipMemBlock": "e6835f19-be86-448c-8684-b74619798b8e||Sequence: R016 ve11e/master r/434b28f1; Aug  7 2019 18:53:46 by eja",
  "dcmmeta_affine": [
    [-2.6793620586395264, -0.10386747121810913, 0.09183529764413834, 116.36433410644531],
    [-0.10484489798545837, 2.6807403564453125, -0.027302658185362816, -92.03230285644531],
    [0.09012989699840546, 0.030660061165690422, 2.6982996463775635, -83.92647552490234],
    [0.0, 0.0, 0.0, 1.0]
],
  "dcmmeta_reorient_transform": [
    [0.0, -1.0, 0.0, 81.0],
    [1.0, 0.0, 0.0, 0.0],
    [0.0, 0.0, 1.0, 0.0],
    [0.0, 0.0, 0.0, 1.0]
],
  "dcmmeta_shape": [82, 82, 56, 170],
  "dcmmeta_slice_dim": 2,
  "dcmmeta_version": 0.6,
  "global": {
    "const": {
      "AccessionNumber": "A004147",
      "AcquisitionMatrix": [82, 0, 0, 82],
      "AngioFlag": "N",
      "BitsAllocated": 16,
      "BitsStored": 16,
      "BodyPartExamined": "BRAIN",
      "Columns": 656,
      "EchoNumbers": 1,
      "EchoTime": 27.2,
      "EchoTrainLength": 82,
      "FlipAngle": 44.0,
      "HighBit": 15,
      "ImageOrientationPatient": [0.99867127660191, 0.0390785520623, 0.03359386936671, -0.0387142371451, 0.99918497401357, -0.0114278409059],
      "ImagePositionPatient": [-847.11801072302, -924.57059015856, -98.510850993993],
      "ImageType": [
        "ORIGINAL",
        "PRIMARY",
        "M",
        "MB",
        "ND",
        "NORM",
        "MOSAIC"
],
      "ImagedNucleus": "1H",
      "ImagingFrequency": 123.252134,
      "InPlanePhaseEncodingDirection": "COL",
      "MRAcquisitionType": "2D",
      "MagneticFieldStrength": 3.0,
      "Manufacturer": "SIEMENS",
      "ManufacturerModelName": "Prisma",
      "Modality": "MR",
      "NumberOfAverages": 1.0,
      "NumberOfPhaseEncodingSteps": 82,
      "PercentPhaseFieldOfView": 100.0,
      "PercentSampling": 100.0,
      "PerformedProcedureStepStartTime": "113104.571000",
      "PhotometricInterpretation": "MONOCHROME2",
      "PixelBandwidth": 3050.0,
      "PixelRepresentation": 0,
      "PixelSpacing": [2.6829268932343, 2.6829268932343],
      "ProtocolName": "func_run-03_task-social_acq-ap-mb8",
      "RepetitionTime": 460.0,
      "Rows": 656,
      "SAR": 0.10820941998415,
      "SamplesPerPixel": 1,
      "ScanOptions": "FS",
      "ScanningSequence": "EP",
      "SequenceName": "epfid2d1_82",
      "SequenceVariant": [
        "SK",
        "SS"
],
      "SeriesDescription": "func_run-03_task-social_acq-ap-mb8",
      "SeriesNumber": 12,
      "SeriesTime": "124058.867000",
      "SliceLocation": -78.985071144756,
      "SliceThickness": 2.7000000476837,
      "SmallestImagePixelValue": 0,
      "SoftwareVersions": "syngo MR E11",
      "SpacingBetweenSlices": 2.6999999950921,
      "SpecificCharacterSet": "ISO_IR 100",
      "StudyID": "1",
      "StudyTime": "113104.518000",
      "TransmitCoilName": "Body",
      "VariableFlipAngleFlag": "N",
      "WindowCenterWidthExplanation": "Algo1"
    },
    "slices": {}
  },
  "time": {
    "samples": {
      "AcquisitionNumber": [1, 2, 3, 4, 5, 6, 7, 8, 9, 10, 11, 12, 13, 14, 15, 16, 17, 18, 19, 20, 21, 22, 23, 24, 25, 26, 27, 28, 29, 30, 31, 32, 33, 34, 35, 36, 37, 38, 39, 40, 41, 42, 43, 44, 45, 46, 47, 48, 49, 50, 51, 52, 53, 54, 55, 56, 57, 58, 59, 60, 61, 62, 63, 64, 65, 66, 67, 68, 69, 70, 71, 72, 73, 74, 75, 76, 77, 78, 79, 80, 81, 82, 83, 84, 85, 86, 87, 88, 89, 90, 91, 92, 93, 94, 95, 96, 97, 98, 99, 100, 101, 102, 103, 104, 105, 106, 107, 108, 109, 110, 111, 112, 113, 114, 115, 116, 117, 118, 119, 120, 121, 122, 123, 124, 125, 126, 127, 128, 129, 130, 131, 132, 133, 134, 135, 136, 137, 138, 139, 140, 141, 142, 143, 144, 145, 146, 147, 148, 149, 150, 151, 152, 153, 154, 155, 156, 157, 158, 159, 160, 161, 162, 163, 164, 165, 166, 167, 168, 169, 170],
      "AcquisitionTime": ["124029.632500", "124030.092500", "124030.552500", "124031.012500", "124031.472500", "124031.932500", "124032.392500", "124032.852500", "124033.312500", "124033.772500", "124034.232500", "124034.692500", "124035.152500", "124035.612500", "124036.072500", "124036.532500", "124036.992500", "124037.452500", "124037.912500", "124038.372500", "124038.832500", "124039.292500", "124039.752500", "124040.212500", "124040.672500", "124041.132500", "124041.592500", "124042.052500", "124042.512500", "124042.972500", "124043.432500", "124043.892500", "124044.352500", "124044.812500", "124045.272500", "124045.732500", "124046.192500", "124046.652500", "124047.112500", "124047.572500", "124048.032500", "124048.492500", "124048.952500", "124049.412500", "124049.872500", "124050.332500", "124050.792500", "124051.252500", "124051.712500", "124052.172500", "124052.632500", "124053.092500", "124053.552500", "124054.012500", "124054.472500", "124054.932500", "124055.392500", "124055.852500", "124056.312500", "124056.772500", "124057.232500", "124057.692500", "124058.152500", "124058.612500", "124059.072500", "124059.532500", "124059.992500", "124100.452500", "124100.912500", "124101.372500", "124101.832500", "124102.292500", "124102.752500", "124103.212500", "124103.672500", "124104.132500", "124104.592500", "124105.052500", "124105.512500", "124105.972500", "124106.432500", "124106.892500", "124107.352500", "124107.812500", "124108.272500", "124108.732500", "124109.192500", "124109.652500", "124110.112500", "124110.572500", "124111.032500", "124111.492500", "124111.952500", "124112.412500", "124112.872500", "124113.332500", "124113.792500", "124114.252500", "124114.712500", "124115.172500", "124115.632500", "124116.092500", "124116.552500", "124117.012500", "124117.472500", "124117.932500", "124118.392500", "124118.852500", "124119.312500", "124119.772500", "124120.232500", "124120.692500", "124121.152500", "124121.612500", "124122.072500", "124122.532500", "124122.992500", "124123.452500", "124123.912500", "124124.372500", "124124.832500", "124125.292500", "124125.752500", "124126.212500", "124126.672500", "124127.132500", "124127.592500", "124128.052500", "124128.512500", "124128.972500", "124129.432500", "124129.892500", "124130.352500", "124130.812500", "124131.272500", "124131.732500", "124132.192500", "124132.652500", "124133.112500", "124133.572500", "124134.032500", "124134.492500", "124134.952500", "124135.412500", "124135.872500", "124136.332500", "124136.792500", "124137.252500", "124137.712500", "124138.172500", "124138.632500", "124139.092500", "124139.552500", "124140.012500", "124140.472500", "124140.932500", "124141.392500", "124141.852500", "124142.312500", "124142.772500", "124143.232500", "124143.692500", "124144.152500", "124144.612500", "124145.072500", "124145.532500", "124145.992500", "124146.452500", "124146.912500", "124147.372500"],
      "ContentTime": ["124058.869000", "124058.872000", "124058.875000", "124058.878000", "124058.880000", "124058.883000", "124058.885000", "124058.888000", "124058.890000", "124058.893000", "124058.896000", "124058.898000", "124058.901000", "124058.903000", "124058.906000", "124058.908000", "124058.911000", "124058.914000", "124058.916000", "124058.919000", "124058.921000", "124058.924000", "124058.926000", "124058.929000", "124058.931000", "124058.934000", "124058.936000", "124058.950000", "124058.953000", "124058.955000", "124058.958000", "124058.961000", "124058.963000", "124058.966000", "124058.968000", "124058.971000", "124058.974000", "124058.976000", "124058.979000", "124058.981000", "124058.984000", "124058.986000", "124058.989000", "124058.991000", "124058.994000", "124058.997000", "124059.000000", "124059.003000", "124059.006000", "124059.008000", "124059.011000", "124059.013000", "124059.016000", "124059.018000", "124059.021000", "124059.024000", "124059.026000", "124059.029000", "124059.031000", "124059.043000", "124059.046000", "124059.048000", "124118.830000", "124118.833000", "124118.836000", "124118.857000", "124118.860000", "124118.863000", "124118.865000", "124118.868000", "124118.870000", "124118.873000", "124118.875000", "124118.878000", "124118.880000", "124118.883000", "124118.885000", "124118.888000", "124118.890000", "124118.893000", "124118.895000", "124118.898000", "124118.901000", "124118.904000", "124118.907000", "124118.909000", "124118.912000", "124118.914000", "124118.917000", "124118.919000", "124118.922000", "124118.925000", "124118.927000", "124118.930000", "124118.932000", "124118.935000", "124118.937000", "124118.940000", "124118.942000", "124118.945000", "124118.947000", "124118.950000", "124118.953000", "124118.955000", "124118.958000", "124138.830000", "124138.833000", "124138.836000", "124138.838000", "124138.841000", "124138.849000", "124138.851000", "124138.854000", "124138.856000", "124138.859000", "124138.862000", "124138.864000", "124138.867000", "124138.869000", "124138.872000", "124138.874000", "124138.877000", "124138.880000", "124138.882000", "124138.885000", "124138.887000", "124138.890000", "124138.892000", "124138.895000", "124138.897000", "124138.900000", "124138.903000", "124138.905000", "124138.908000", "124138.910000", "124138.913000", "124138.915000", "124138.918000", "124138.920000", "124138.923000", "124138.925000", "124138.928000", "124138.931000", "124138.933000", "124138.936000", "124138.938000", "124138.941000", "124138.943000", "124138.946000", "124148.677000", "124148.680000", "124148.682000", "124148.686000", "124148.689000", "124148.692000", "124148.694000", "124148.697000", "124148.700000", "124148.703000", "124148.705000", "124148.708000", "124148.711000", "124148.713000", "124148.716000", "124148.718000", "124148.721000", "124148.723000", "124148.726000", "124148.729000", "124148.731000"],
      "InstanceCreationTime": ["124058.869000", "124058.872000", "124058.875000", "124058.878000", "124058.880000", "124058.883000", "124058.885000", "124058.888000", "124058.890000", "124058.893000", "124058.896000", "124058.898000", "124058.901000", "124058.903000", "124058.906000", "124058.908000", "124058.911000", "124058.914000", "124058.916000", "124058.919000", "124058.921000", "124058.924000", "124058.926000", "124058.929000", "124058.931000", "124058.934000", "124058.936000", "124058.950000", "124058.953000", "124058.955000", "124058.958000", "124058.961000", "124058.963000", "124058.966000", "124058.968000", "124058.971000", "124058.974000", "124058.976000", "124058.979000", "124058.981000", "124058.984000", "124058.986000", "124058.989000", "124058.991000", "124058.994000", "124058.997000", "124059.000000", "124059.003000", "124059.006000", "124059.008000", "124059.011000", "124059.013000", "124059.016000", "124059.018000", "124059.021000", "124059.024000", "124059.026000", "124059.029000", "124059.031000", "124059.043000", "124059.046000", "124059.048000", "124118.830000", "124118.833000", "124118.836000", "124118.857000", "124118.860000", "124118.863000", "124118.865000", "124118.868000", "124118.870000", "124118.873000", "124118.875000", "124118.878000", "124118.880000", "124118.883000", "124118.885000", "124118.888000", "124118.890000", "124118.893000", "124118.895000", "124118.898000", "124118.901000", "124118.904000", "124118.907000", "124118.909000", "124118.912000", "124118.914000", "124118.917000", "124118.919000", "124118.922000", "124118.925000", "124118.927000", "124118.930000", "124118.932000", "124118.935000", "124118.937000", "124118.940000", "124118.942000", "124118.945000", "124118.947000", "124118.950000", "124118.953000", "124118.955000", "124118.958000", "124138.830000", "124138.833000", "124138.836000", "124138.838000", "124138.841000", "124138.849000", "124138.851000", "124138.854000", "124138.856000", "124138.859000", "124138.862000", "124138.864000", "124138.867000", "124138.869000", "124138.872000", "124138.874000", "124138.877000", "124138.880000", "124138.882000", "124138.885000", "124138.887000", "124138.890000", "124138.892000", "124138.895000", "124138.897000", "124138.900000", "124138.903000", "124138.905000", "124138.908000", "124138.910000", "124138.913000", "124138.915000", "124138.918000", "124138.920000", "124138.923000", "124138.925000", "124138.928000", "124138.931000", "124138.933000", "124138.936000", "124138.938000", "124138.941000", "124138.943000", "124138.946000", "124148.677000", "124148.680000", "124148.682000", "124148.686000", "124148.689000", "124148.692000", "124148.694000", "124148.697000", "124148.700000", "124148.703000", "124148.705000", "124148.708000", "124148.711000", "124148.713000", "124148.716000", "124148.718000", "124148.721000", "124148.723000", "124148.726000", "124148.729000", "124148.731000"],
      "InstanceNumber": [1, 2, 3, 4, 5, 6, 7, 8, 9, 10, 11, 12, 13, 14, 15, 16, 17, 18, 19, 20, 21, 22, 23, 24, 25, 26, 27, 28, 29, 30, 31, 32, 33, 34, 35, 36, 37, 38, 39, 40, 41, 42, 43, 44, 45, 46, 47, 48, 49, 50, 51, 52, 53, 54, 55, 56, 57, 58, 59, 60, 61, 62, 63, 64, 65, 66, 67, 68, 69, 70, 71, 72, 73, 74, 75, 76, 77, 78, 79, 80, 81, 82, 83, 84, 85, 86, 87, 88, 89, 90, 91, 92, 93, 94, 95, 96, 97, 98, 99, 100, 101, 102, 103, 104, 105, 106, 107, 108, 109, 110, 111, 112, 113, 114, 115, 116, 117, 118, 119, 120, 121, 122, 123, 124, 125, 126, 127, 128, 129, 130, 131, 132, 133, 134, 135, 136, 137, 138, 139, 140, 141, 142, 143, 144, 145, 146, 147, 148, 149, 150, 151, 152, 153, 154, 155, 156, 157, 158, 159, 160, 161, 162, 163, 164, 165, 166, 167, 168, 169, 170],
      "LargestImagePixelValue": [9057, 13507, 8987, 9062, 9033, 7970, 8250, 8936, 11039, 11326, 11241, 11553, 9004, 8907, 8454, 7856, 8523, 8687, 8772, 8791, 10386, 11659, 11487, 8416, 9130, 8126, 8890, 8175, 10839, 10921, 9010, 8656, 8184, 7980, 8308, 9287, 10180, 11063, 10973, 10267, 7710, 9143, 9759, 8707, 8964, 10806, 8373, 9153, 12282, 12967, 9023, 9248, 8179, 8926, 10000, 8409, 8710, 11513, 11877, 8941, 13477, 9653, 8551, 8839, 8214, 8463, 9211, 12865, 10313, 9186, 8352, 8216, 8287, 8596, 8513, 11353, 9014, 12379, 9977, 8396, 8471, 9293, 11515, 10837, 11795, 9464, 9017, 8378, 8278, 8832, 8859, 10323, 12184, 8537, 14122, 10044, 8878, 8764, 7797, 9864, 9994, 11660, 8100, 8972, 8963, 7773, 9106, 10554, 8486, 9116, 12367, 9211, 9099, 8853, 8519, 8488, 8791, 10080, 11457, 8736, 12652, 8657, 8650, 8551, 7941, 10002, 10043, 11080, 12002, 8768, 8996, 7827, 8920, 9687, 10635, 10622, 11694, 9528, 9032, 8398, 8078, 8543, 8985, 8637, 9195, 9879, 10716, 10544, 10933, 8309, 8152, 8696, 7856, 9130, 8940, 10413, 10536, 8524, 9157, 7566, 8870, 9631, 10153, 11022, 12049, 8819, 8563, 8909, 8328, 10001],
      "WindowCenter": [3934.0, 3972.0, 3929.0, 3929.0, 3916.0, 3894.0, 3904.0, 3914.0, 3934.0, 3937.0, 3935.0, 3948.0, 3916.0, 3916.0, 3903.0, 3891.0, 3901.0, 3901.0, 3900.0, 3904.0, 3924.0, 3936.0, 3948.0, 3906.0, 3926.0, 3902.0, 3914.0, 3903.0, 3935.0, 3937.0, 3916.0, 3916.0, 3916.0, 3907.0, 3916.0, 3926.0, 3938.0, 3949.0, 3950.0, 3949.0, 3909.0, 3930.0, 3926.0, 3904.0, 3914.0, 3923.0, 3893.0, 3902.0, 3933.0, 3946.0, 3902.0, 3912.0, 3890.0, 3888.0, 3896.0, 3878.0, 3887.0, 3917.0, 3921.0, 3901.0, 3940.0, 3913.0, 3903.0, 3899.0, 3888.0, 3890.0, 3900.0, 3945.0, 3925.0, 3915.0, 3903.0, 3904.0, 3904.0, 3902.0, 3902.0, 3933.0, 3914.0, 3957.0, 3939.0, 3931.0, 3920.0, 3929.0, 3960.0, 3948.0, 3947.0, 3927.0, 3918.0, 3905.0, 3905.0, 3913.0, 3915.0, 3924.0, 3946.0, 3904.0, 3957.0, 3927.0, 3917.0, 3914.0, 3892.0, 3923.0, 3912.0, 3935.0, 3894.0, 3915.0, 3914.0, 3881.0, 3902.0, 3922.0, 3901.0, 3903.0, 3944.0, 3914.0, 3916.0, 3915.0, 3904.0, 3903.0, 3901.0, 3923.0, 3935.0, 3905.0, 3957.0, 3916.0, 3917.0, 3915.0, 3894.0, 3924.0, 3912.0, 3933.0, 3947.0, 3916.0, 3917.0, 3895.0, 3916.0, 3912.0, 3925.0, 3924.0, 3934.0, 3915.0, 3915.0, 3905.0, 3892.0, 3902.0, 3902.0, 3891.0, 3903.0, 3911.0, 3921.0, 3924.0, 3934.0, 3902.0, 3893.0, 3902.0, 3890.0, 3913.0, 3903.0, 3935.0, 3937.0, 3916.0, 3927.0, 3904.0, 3916.0, 3924.0, 3937.0, 3949.0, 3949.0, 3917.0, 3916.0, 3916.0, 3903.0, 3924.0],
      "WindowWidth": [8805.0, 8852.0, 8789.0, 8786.0, 8764.0, 8730.0, 8744.0, 8757.0, 8783.0, 8791.0, 8787.0, 8807.0, 8765.0, 8763.0, 8741.0, 8722.0, 8735.0, 8733.0, 8733.0, 8743.0, 8769.0, 8790.0, 8808.0, 8749.0, 8777.0, 8740.0, 8760.0, 8740.0, 8787.0, 8791.0, 8762.0, 8762.0, 8763.0, 8753.0, 8766.0, 8778.0, 8796.0, 8813.0, 8814.0, 8814.0, 8762.0, 8787.0, 8777.0, 8744.0, 8756.0, 8766.0, 8727.0, 8736.0, 8781.0, 8801.0, 8737.0, 8751.0, 8717.0, 8709.0, 8717.0, 8696.0, 8706.0, 8749.0, 8759.0, 8732.0, 8787.0, 8752.0, 8739.0, 8728.0, 8711.0, 8717.0, 8731.0, 8798.0, 8772.0, 8758.0, 8742.0, 8742.0, 8744.0, 8738.0, 8738.0, 8781.0, 8759.0, 8819.0, 8800.0, 8792.0, 8776.0, 8786.0, 8828.0, 8809.0, 8806.0, 8781.0, 8767.0, 8749.0, 8748.0, 8757.0, 8759.0, 8769.0, 8801.0, 8744.0, 8818.0, 8777.0, 8765.0, 8757.0, 8725.0, 8767.0, 8751.0, 8786.0, 8731.0, 8758.0, 8756.0, 8709.0, 8737.0, 8762.0, 8734.0, 8739.0, 8794.0, 8756.0, 8762.0, 8760.0, 8744.0, 8740.0, 8734.0, 8764.0, 8783.0, 8744.0, 8818.0, 8765.0, 8768.0, 8760.0, 8730.0, 8768.0, 8750.0, 8780.0, 8803.0, 8763.0, 8766.0, 8734.0, 8762.0, 8751.0, 8771.0, 8768.0, 8782.0, 8758.0, 8759.0, 8746.0, 8726.0, 8736.0, 8735.0, 8718.0, 8737.0, 8745.0, 8761.0, 8767.0, 8782.0, 8739.0, 8728.0, 8737.0, 8719.0, 8753.0, 8739.0, 8785.0, 8792.0, 8764.0, 8780.0, 8748.0, 8762.0, 8772.0, 8792.0, 8812.0, 8811.0, 8767.0, 8764.0, 8762.0, 8743.0, 8768.0]
    },
    "slices": {}
  }
}