{
  "AcquisitionMatrixPE": 82,
  "AcquisitionNumber": 1,
  "AcquisitionTime": "21:28:19.135000",
  "BandwidthPerPixelPhaseEncode": 24.888,
  "BaseResolution": 82,
  "BodyPartExamined": "BRAIN",
  "ConsistencyInfo": "N4_VE11E_LATEST_20181129",
  "ConversionSoftware": "dcm2niix",
  "ConversionSoftwareVersion": "v1.0.20201102",
  "DerivedVendorReportedEchoSpacing": 0.00049,
  "DeviceSerialNumber": "66112",
  "DwellTime": 2e-06,
  "EchoTime": 0.0272,
  "EchoTrainLength": 82,
  "EffectiveEchoSpacing": 0.00049,
  "FlipAngle": 44,
  "ImageComments": "Unaliased MB8/PE3",
  "ImageOrientationPatientDICOM": [0.989136, 0.0927008, 0.114087, -0.091237, 0.995667, -0.0179972],
  "ImageType": [
    "ORIGINAL",
    "PRIMARY",
    "M",
    "MB",
    "ND",
    "NORM",
    "MOSAIC"
],
  "ImagingFrequency": 123.259,
  "InPlanePhaseEncodingDirectionDICOM": "COL",
  "InstitutionAddress": "Maynard 3,Hanover,NH,US,03755",
  "InstitutionName": "Dartmouth College - PBS",
  "InstitutionalDepartmentName": "Department",
  "MRAcquisitionType": "2D",
  "MagneticFieldStrength": 3,
  "Manufacturer": "Siemens",
  "ManufacturersModelName": "Prisma",
  "Modality": "MR",
  "MultibandAccelerationFactor": 8,
  "PartialFourier": 1,
  "PatientPosition": "HFS",
  "PercentPhaseFOV": 100,
  "PercentSampling": 100,
  "PhaseEncodingDirection": "j-",
  "PhaseEncodingSteps": 82,
  "PhaseResolution": 1,
  "PixelBandwidth": 3050,
  "ProcedureStepDescription": "Wager_Wager^1076_spacetop",
  "ProtocolName": "func_run-03_task-alignvideo_acq-ap-mb8",
  "PulseSequenceDetails": "%CustomerSeq%\\cmrr_mbep2d_bold",
  "ReceiveCoilActiveElements": "HEA;HEP",
  "ReceiveCoilName": "Head_32",
  "ReconMatrixPE": 82,
  "RepetitionTime": 0.46,
  "SAR": 0.079394,
  "ScanOptions": "FS",
  "ScanningSequence": "EP",
  "SequenceName": "epfid2d1_82",
  "SequenceVariant": "SK\\SS",
  "SeriesDescription": "func_run-03_task-alignvideo_acq-ap-mb8",
  "SeriesNumber": 32,
  "ShimSetting": [4230, -7796, -7292, 371, -116, -169, 60, 36],
  "SliceThickness": 2.7,
  "SliceTiming": [0, 0.25, 0.0625, 0.3125, 0.125, 0.375, 0.1875, 0, 0.25, 0.0625, 0.3125, 0.125, 0.375, 0.1875, 0, 0.25, 0.0625, 0.3125, 0.125, 0.375, 0.1875, 0, 0.25, 0.0625, 0.3125, 0.125, 0.375, 0.1875, 0, 0.25, 0.0625, 0.3125, 0.125, 0.375, 0.1875, 0, 0.25, 0.0625, 0.3125, 0.125, 0.375, 0.1875, 0, 0.25, 0.0625, 0.3125, 0.125, 0.375, 0.1875, 0, 0.25, 0.0625, 0.3125, 0.125, 0.375, 0.1875],
  "SoftwareVersions": "syngo MR E11",
  "SpacingBetweenSlices": 2.7,
  "StationName": "AWP66112",
  "TaskName": "alignvideo",
  "TotalReadoutTime": 0.03969,
  "TxRefAmp": 236.144,
  "WipMemBlock": "10415067-b554-4c09-a575-eec62efadca2||Sequence: R016 ve11e/master r/434b28f1; Aug  7 2019 18:53:46 by eja",
  "dcmmeta_affine": [
    [-2.653780460357666, -0.24478226900100708, 0.31120556592941284, 115.02964782714844],
    [-0.2487095296382904, 2.6713006496429443, -0.019960280507802963, -92.10713958740234],
    [0.30608803033828735, 0.04828518256545067, 2.6819307804107666, -104.23564147949219],
    [0.0, 0.0, 0.0, 1.0]
],
  "dcmmeta_reorient_transform": [
    [0.0, -1.0, 0.0, 81.0],
    [1.0, 0.0, 0.0, 0.0],
    [0.0, 0.0, 1.0, 0.0],
    [0.0, 0.0, 0.0, 1.0]
],
  "dcmmeta_shape": [82, 82, 56, 1065],
  "dcmmeta_slice_dim": 2,
  "dcmmeta_version": 0.6,
  "global": {
    "const": {
      "AccessionNumber": "A004530",
      "AcquisitionMatrix": [82, 0, 0, 82],
      "AngioFlag": "N",
      "BitsAllocated": 16,
      "BitsStored": 16,
      "BodyPartExamined": "BRAIN",
      "Columns": 656,
      "EchoNumbers": 1,
      "EchoTime": 27.2,
      "EchoTrainLength": 82,
      "FlipAngle": 44.0,
      "HighBit": 15,
      "ImageOrientationPatient": [0.98913630672771, 0.09270082098697, 0.11408735469542, -0.0912370256076, 0.9956665635786, -0.0179972033896],
      "ImagePositionPatient": [-786.58474441677, -962.31111702511, -174.31395857824],
      "ImageType": [
        "ORIGINAL",
        "PRIMARY",
        "M",
        "MB",
        "ND",
        "NORM",
        "MOSAIC"
],
      "ImagedNucleus": "1H",
      "ImagingFrequency": 123.259126,
      "InPlanePhaseEncodingDirection": "COL",
      "MRAcquisitionType": "2D",
      "MagneticFieldStrength": 3.0,
      "Manufacturer": "SIEMENS",
      "ManufacturerModelName": "Prisma",
      "Modality": "MR",
      "NumberOfAverages": 1.0,
      "NumberOfPhaseEncodingSteps": 82,
      "PercentPhaseFieldOfView": 100.0,
      "PercentSampling": 100.0,
      "PerformedProcedureStepStartTime": "195301.974000",
      "PhotometricInterpretation": "MONOCHROME2",
      "PixelBandwidth": 3050.0,
      "PixelRepresentation": 0,
      "PixelSpacing": [2.6829268932343, 2.6829268932343],
      "ProtocolName": "func_run-03_task-alignvideo_acq-ap-mb8",
      "RepetitionTime": 460.0,
      "Rows": 656,
      "SAR": 0.07939404667327,
      "SamplesPerPixel": 1,
      "ScanOptions": "FS",
      "ScanningSequence": "EP",
      "SequenceName": "epfid2d1_82",
      "SequenceVariant": [
        "SK",
        "SS"
],
      "SeriesDescription": "func_run-03_task-alignvideo_acq-ap-mb8",
      "SeriesNumber": 32,
      "SeriesTime": "212844.743000",
      "SliceLocation": -89.598674378758,
      "SliceThickness": 2.7000000476837,
      "SmallestImagePixelValue": 0,
      "SoftwareVersions": "syngo MR E11",
      "SpacingBetweenSlices": 2.6999999753942,
      "SpecificCharacterSet": "ISO_IR 100",
      "StudyID": "3",
      "StudyTime": "195301.892000",
      "TransmitCoilName": "Body",
      "VariableFlipAngleFlag": "N",
      "WindowCenterWidthExplanation": "Algo1"
    },
    "slices": {}
  },
  "time": {
    "samples": {
      "AcquisitionNumber": [1, 2, 3, 4, 5, 6, 7, 8, 9, 10, 11, 12, 13, 14, 15, 16, 17, 18, 19, 20, 21, 22, 23, 24, 25, 26, 27, 28, 29, 30, 31, 32, 33, 34, 35, 36, 37, 38, 39, 40, 41, 42, 43, 44, 45, 46, 47, 48, 49, 50, 51, 52, 53, 54, 55, 56, 57, 58, 59, 60, 61, 62, 63, 64, 65, 66, 67, 68, 69, 70, 71, 72, 73, 74, 75, 76, 77, 78, 79, 80, 81, 82, 83, 84, 85, 86, 87, 88, 89, 90, 91, 92, 93, 94, 95, 96, 97, 98, 99, 100, 101, 102, 103, 104, 105, 106, 107, 108, 109, 110, 111, 112, 113, 114, 115, 116, 117, 118, 119, 120, 121, 122, 123, 124, 125, 126, 127, 128, 129, 130, 131, 132, 133, 134, 135, 136, 137, 138, 139, 140, 141, 142, 143, 144, 145, 146, 147, 148, 149, 150, 151, 152, 153, 154, 155, 156, 157, 158, 159, 160, 161, 162, 163, 164, 165, 166, 167, 168, 169, 170, 171, 172, 173, 174, 175, 176, 177, 178, 179, 180, 181, 182, 183, 184, 185, 186, 187, 188, 189, 190, 191, 192, 193, 194, 195, 196, 197, 198, 199, 200, 201, 202, 203, 204, 205, 206, 207, 208, 209, 210, 211, 212, 213, 214, 215, 216, 217, 218, 219, 220, 221, 222, 223, 224, 225, 226, 227, 228, 229, 230, 231, 232, 233, 234, 235, 236, 237, 238, 239, 240, 241, 242, 243, 244, 245, 246, 247, 248, 249, 250, 251, 252, 253, 254, 255, 256, 257, 258, 259, 260, 261, 262, 263, 264, 265, 266, 267, 268, 269, 270, 271, 272, 273, 274, 275, 276, 277, 278, 279, 280, 281, 282, 283, 284, 285, 286, 287, 288, 289, 290, 291, 292, 293, 294, 295, 296, 297, 298, 299, 300, 301, 302, 303, 304, 305, 306, 307, 308, 309, 310, 311, 312, 313, 314, 315, 316, 317, 318, 319, 320, 321, 322, 323, 324, 325, 326, 327, 328, 329, 330, 331, 332, 333, 334, 335, 336, 337, 338, 339, 340, 341, 342, 343, 344, 345, 346, 347, 348, 349, 350, 351, 352, 353, 354, 355, 356, 357, 358, 359, 360, 361, 362, 363, 364, 365, 366, 367, 368, 369, 370, 371, 372, 373, 374, 375, 376, 377, 378, 379, 380, 381, 382, 383, 384, 385, 386, 387, 388, 389, 390, 391, 392, 393, 394, 395, 396, 397, 398, 399, 400, 401, 402, 403, 404, 405, 406, 407, 408, 409, 410, 411, 412, 413, 414, 415, 416, 417, 418, 419, 420, 421, 422, 423, 424, 425, 426, 427, 428, 429, 430, 431, 432, 433, 434, 435, 436, 437, 438, 439, 440, 441, 442, 443, 444, 445, 446, 447, 448, 449, 450, 451, 452, 453, 454, 455, 456, 457, 458, 459, 460, 461, 462, 463, 464, 465, 466, 467, 468, 469, 470, 471, 472, 473, 474, 475, 476, 477, 478, 479, 480, 481, 482, 483, 484, 485, 486, 487, 488, 489, 490, 491, 492, 493, 494, 495, 496, 497, 498, 499, 500, 501, 502, 503, 504, 505, 506, 507, 508, 509, 510, 511, 512, 513, 514, 515, 516, 517, 518, 519, 520, 521, 522, 523, 524, 525, 526, 527, 528, 529, 530, 531, 532, 533, 534, 535, 536, 537, 538, 539, 540, 541, 542, 543, 544, 545, 546, 547, 548, 549, 550, 551, 552, 553, 554, 555, 556, 557, 558, 559, 560, 561, 562, 563, 564, 565, 566, 567, 568, 569, 570, 571, 572, 573, 574, 575, 576, 577, 578, 579, 580, 581, 582, 583, 584, 585, 586, 587, 588, 589, 590, 591, 592, 593, 594, 595, 596, 597, 598, 599, 600, 601, 602, 603, 604, 605, 606, 607, 608, 609, 610, 611, 612, 613, 614, 615, 616, 617, 618, 619, 620, 621, 622, 623, 624, 625, 626, 627, 628, 629, 630, 631, 632, 633, 634, 635, 636, 637, 638, 639, 640, 641, 642, 643, 644, 645, 646, 647, 648, 649, 650, 651, 652, 653, 654, 655, 656, 657, 658, 659, 660, 661, 662, 663, 664, 665, 666, 667, 668, 669, 670, 671, 672, 673, 674, 675, 676, 677, 678, 679, 680, 681, 682, 683, 684, 685, 686, 687, 688, 689, 690, 691, 692, 693, 694, 695, 696, 697, 698, 699, 700, 701, 702, 703, 704, 705, 706, 707, 708, 709, 710, 711, 712, 713, 714, 715, 716, 717, 718, 719, 720, 721, 722, 723, 724, 725, 726, 727, 728, 729, 730, 731, 732, 733, 734, 735, 736, 737, 738, 739, 740, 741, 742, 743, 744, 745, 746, 747, 748, 749, 750, 751, 752, 753, 754, 755, 756, 757, 758, 759, 760, 761, 762, 763, 764, 765, 766, 767, 768, 769, 770, 771, 772, 773, 774, 775, 776, 777, 778, 779, 780, 781, 782, 783, 784, 785, 786, 787, 788, 789, 790, 791, 792, 793, 794, 795, 796, 797, 798, 799, 800, 801, 802, 803, 804, 805, 806, 807, 808, 809, 810, 811, 812, 813, 814, 815, 816, 817, 818, 819, 820, 821, 822, 823, 824, 825, 826, 827, 828, 829, 830, 831, 832, 833, 834, 835, 836, 837, 838, 839, 840, 841, 842, 843, 844, 845, 846, 847, 848, 849, 850, 851, 852, 853, 854, 855, 856, 857, 858, 859, 860, 861, 862, 863, 864, 865, 866, 867, 868, 869, 870, 871, 872, 873, 874, 875, 876, 877, 878, 879, 880, 881, 882, 883, 884, 885, 886, 887, 888, 889, 890, 891, 892, 893, 894, 895, 896, 897, 898, 899, 900, 901, 902, 903, 904, 905, 906, 907, 908, 909, 910, 911, 912, 913, 914, 915, 916, 917, 918, 919, 920, 921, 922, 923, 924, 925, 926, 927, 928, 929, 930, 931, 932, 933, 934, 935, 936, 937, 938, 939, 940, 941, 942, 943, 944, 945, 946, 947, 948, 949, 950, 951, 952, 953, 954, 955, 956, 957, 958, 959, 960, 961, 962, 963, 964, 965, 966, 967, 968, 969, 970, 971, 972, 973, 974, 975, 976, 977, 978, 979, 980, 981, 982, 983, 984, 985, 986, 987, 988, 989, 990, 991, 992, 993, 994, 995, 996, 997, 998, 999, 1000, 1001, 1002, 1003, 1004, 1005, 1006, 1007, 1008, 1009, 1010, 1011, 1012, 1013, 1014, 1015, 1016, 1017, 1018, 1019, 1020, 1021, 1022, 1023, 1024, 1025, 1026, 1027, 1028, 1029, 1030, 1031, 1032, 1033, 1034, 1035, 1036, 1037, 1038, 1039, 1040, 1041, 1042, 1043, 1044, 1045, 1046, 1047, 1048, 1049, 1050, 1051, 1052, 1053, 1054, 1055, 1056, 1057, 1058, 1059, 1060, 1061, 1062, 1063, 1064, 1065],
      "AcquisitionTime": ["212819.135000", "212819.595000", "212820.055000", "212820.515000", "212820.975000", "212821.435000", "212821.895000", "212822.355000", "212822.815000", "212823.275000", "212823.735000", "212824.195000", "212824.655000", "212825.115000", "212825.575000", "212826.035000", "212826.495000", "212826.955000", "212827.415000", "212827.875000", "212828.335000", "212828.795000", "212829.255000", "212829.715000", "212830.175000", "212830.635000", "212831.095000", "212831.555000", "212832.015000", "212832.475000", "212832.935000", "212833.395000", "212833.855000", "212834.315000", "212834.775000", "212835.235000", "212835.695000", "212836.155000", "212836.615000", "212837.075000", "212837.535000", "212837.995000", "212838.455000", "212838.915000", "212839.375000", "212839.835000", "212840.295000", "212840.755000", "212841.215000", "212841.675000", "212842.135000", "212842.595000", "212843.055000", "212843.515000", "212843.975000", "212844.435000", "212844.895000", "212845.355000", "212845.815000", "212846.275000", "212846.735000", "212847.195000", "212847.655000", "212848.115000", "212848.575000", "212849.035000", "212849.495000", "212849.955000", "212850.415000", "212850.875000", "212851.335000", "212851.795000", "212852.255000", "212852.715000", "212853.175000", "212853.635000", "212854.095000", "212854.555000", "212855.015000", "212855.475000", "212855.935000", "212856.395000", "212856.855000", "212857.315000", "212857.775000", "212858.235000", "212858.695000", "212859.155000", "212859.615000", "212900.075000", "212900.535000", "212900.995000", "212901.455000", "212901.915000", "212902.375000", "212902.835000", "212903.295000", "212903.755000", "212904.215000", "212904.675000", "212905.135000", "212905.595000", "212906.055000", "212906.515000", "212906.975000", "212907.435000", "212907.895000", "212908.355000", "212908.815000", "212909.275000", "212909.735000", "212910.195000", "212910.655000", "212911.115000", "212911.575000", "212912.035000", "212912.495000", "212912.955000", "212913.415000", "212913.875000", "212914.335000", "212914.795000", "212915.255000", "212915.715000", "212916.175000", "212916.635000", "212917.095000", "212917.555000", "212918.015000", "212918.475000", "212918.935000", "212919.395000", "212919.855000", "212920.315000", "212920.775000", "212921.235000", "212921.695000", "212922.155000", "212922.615000", "212923.075000", "212923.535000", "212923.995000", "212924.455000", "212924.915000", "212925.375000", "212925.835000", "212926.295000", "212926.755000", "212927.215000", "212927.675000", "212928.135000", "212928.595000", "212929.055000", "212929.515000", "212929.975000", "212930.435000", "212930.895000", "212931.355000", "212931.815000", "212932.275000", "212932.735000", "212933.195000", "212933.655000", "212934.115000", "212934.575000", "212935.035000", "212935.495000", "212935.955000", "212936.415000", "212936.875000", "212937.335000", "212937.795000", "212938.255000", "212938.715000", "212939.175000", "212939.635000", "212940.095000", "212940.555000", "212941.015000", "212941.475000", "212941.935000", "212942.395000", "212942.855000", "212943.315000", "212943.775000", "212944.235000", "212944.695000", "212945.155000", "212945.615000", "212946.075000", "212946.535000", "212946.995000", "212947.455000", "212947.915000", "212948.375000", "212948.835000", "212949.295000", "212949.755000", "212950.215000", "212950.675000", "212951.135000", "212951.595000", "212952.055000", "212952.515000", "212952.975000", "212953.435000", "212953.895000", "212954.355000", "212954.815000", "212955.275000", "212955.735000", "212956.195000", "212956.655000", "212957.115000", "212957.575000", "212958.035000", "212958.495000", "212958.955000", "212959.415000", "212959.875000", "213000.335000", "213000.795000", "213001.255000", "213001.715000", "213002.175000", "213002.635000", "213003.095000", "213003.555000", "213004.015000", "213004.475000", "213004.935000", "213005.395000", "213005.855000", "213006.315000", "213006.775000", "213007.235000", "213007.695000", "213008.155000", "213008.615000", "213009.075000", "213009.535000", "213009.995000", "213010.455000", "213010.915000", "213011.375000", "213011.835000", "213012.295000", "213012.755000", "213013.215000", "213013.675000", "213014.135000", "213014.595000", "213015.055000", "213015.515000", "213015.975000", "213016.435000", "213016.895000", "213017.355000", "213017.815000", "213018.275000", "213018.735000", "213019.195000", "213019.655000", "213020.115000", "213020.575000", "213021.035000", "213021.495000", "213021.955000", "213022.415000", "213022.875000", "213023.335000", "213023.795000", "213024.255000", "213024.715000", "213025.175000", "213025.635000", "213026.095000", "213026.555000", "213027.015000", "213027.475000", "213027.935000", "213028.395000", "213028.855000", "213029.315000", "213029.775000", "213030.235000", "213030.695000", "213031.155000", "213031.615000", "213032.075000", "213032.535000", "213032.995000", "213033.455000", "213033.915000", "213034.375000", "213034.835000", "213035.295000", "213035.755000", "213036.215000", "213036.675000", "213037.135000", "213037.595000", "213038.055000", "213038.515000", "213038.975000", "213039.435000", "213039.895000", "213040.355000", "213040.815000", "213041.275000", "213041.735000", "213042.195000", "213042.655000", "213043.115000", "213043.575000", "213044.035000", "213044.495000", "213044.955000", "213045.415000", "213045.875000", "213046.335000", "213046.795000", "213047.255000", "213047.715000", "213048.175000", "213048.635000", "213049.095000", "213049.555000", "213050.015000", "213050.475000", "213050.935000", "213051.395000", "213051.855000", "213052.315000", "213052.775000", "213053.235000", "213053.695000", "213054.155000", "213054.615000", "213055.075000", "213055.535000", "213055.995000", "213056.455000", "213056.915000", "213057.375000", "213057.835000", "213058.295000", "213058.755000", "213059.215000", "213059.675000", "213100.135000", "213100.595000", "213101.055000", "213101.515000", "213101.975000", "213102.435000", "213102.895000", "213103.355000", "213103.815000", "213104.275000", "213104.735000", "213105.195000", "213105.655000", "213106.115000", "213106.575000", "213107.035000", "213107.495000", "213107.955000", "213108.415000", "213108.875000", "213109.335000", "213109.795000", "213110.255000", "213110.715000", "213111.175000", "213111.635000", "213112.095000", "213112.555000", "213113.015000", "213113.475000", "213113.935000", "213114.395000", "213114.855000", "213115.315000", "213115.775000", "213116.235000", "213116.695000", "213117.155000", "213117.615000", "213118.075000", "213118.535000", "213118.995000", "213119.455000", "213119.915000", "213120.375000", "213120.835000", "213121.295000", "213121.755000", "213122.215000", "213122.675000", "213123.135000", "213123.595000", "213124.055000", "213124.515000", "213124.975000", "213125.435000", "213125.895000", "213126.355000", "213126.815000", "213127.275000", "213127.735000", "213128.195000", "213128.655000", "213129.115000", "213129.575000", "213130.035000", "213130.495000", "213130.955000", "213131.415000", "213131.875000", "213132.335000", "213132.795000", "213133.255000", "213133.715000", "213134.175000", "213134.635000", "213135.095000", "213135.555000", "213136.015000", "213136.475000", "213136.935000", "213137.395000", "213137.855000", "213138.315000", "213138.775000", "213139.235000", "213139.695000", "213140.155000", "213140.615000", "213141.075000", "213141.535000", "213141.995000", "213142.455000", "213142.915000", "213143.375000", "213143.835000", "213144.295000", "213144.755000", "213145.215000", "213145.675000", "213146.135000", "213146.595000", "213147.055000", "213147.515000", "213147.975000", "213148.435000", "213148.895000", "213149.355000", "213149.815000", "213150.275000", "213150.735000", "213151.195000", "213151.655000", "213152.115000", "213152.575000", "213153.035000", "213153.495000", "213153.955000", "213154.415000", "213154.875000", "213155.335000", "213155.795000", "213156.255000", "213156.715000", "213157.175000", "213157.635000", "213158.095000", "213158.555000", "213159.015000", "213159.475000", "213159.935000", "213200.395000", "213200.855000", "213201.315000", "213201.775000", "213202.235000", "213202.695000", "213203.155000", "213203.615000", "213204.075000", "213204.535000", "213204.995000", "213205.455000", "213205.915000", "213206.375000", "213206.835000", "213207.295000", "213207.755000", "213208.215000", "213208.675000", "213209.135000", "213209.595000", "213210.055000", "213210.515000", "213210.975000", "213211.435000", "213211.895000", "213212.355000", "213212.815000", "213213.275000", "213213.735000", "213214.195000", "213214.655000", "213215.115000", "213215.575000", "213216.035000", "213216.495000", "213216.955000", "213217.415000", "213217.875000", "213218.335000", "213218.795000", "213219.255000", "213219.715000", "213220.175000", "213220.635000", "213221.095000", "213221.555000", "213222.015000", "213222.475000", "213222.935000", "213223.395000", "213223.855000", "213224.315000", "213224.775000", "213225.235000", "213225.695000", "213226.155000", "213226.615000", "213227.075000", "213227.535000", "213227.995000", "213228.455000", "213228.915000", "213229.375000", "213229.835000", "213230.295000", "213230.755000", "213231.215000", "213231.675000", "213232.135000", "213232.595000", "213233.055000", "213233.515000", "213233.975000", "213234.435000", "213234.895000", "213235.355000", "213235.815000", "213236.275000", "213236.735000", "213237.195000", "213237.655000", "213238.115000", "213238.575000", "213239.035000", "213239.495000", "213239.955000", "213240.415000", "213240.875000", "213241.335000", "213241.795000", "213242.255000", "213242.715000", "213243.175000", "213243.635000", "213244.095000", "213244.555000", "213245.015000", "213245.475000", "213245.935000", "213246.395000", "213246.855000", "213247.315000", "213247.775000", "213248.235000", "213248.695000", "213249.155000", "213249.615000", "213250.075000", "213250.535000", "213250.995000", "213251.455000", "213251.915000", "213252.375000", "213252.835000", "213253.295000", "213253.755000", "213254.215000", "213254.675000", "213255.135000", "213255.595000", "213256.055000", "213256.515000", "213256.975000", "213257.435000", "213257.895000", "213258.355000", "213258.815000", "213259.275000", "213259.735000", "213300.195000", "213300.655000", "213301.115000", "213301.575000", "213302.035000", "213302.495000", "213302.955000", "213303.415000", "213303.875000", "213304.335000", "213304.795000", "213305.255000", "213305.715000", "213306.175000", "213306.635000", "213307.095000", "213307.555000", "213308.015000", "213308.475000", "213308.935000", "213309.395000", "213309.855000", "213310.315000", "213310.775000", "213311.235000", "213311.695000", "213312.155000", "213312.615000", "213313.075000", "213313.535000", "213313.995000", "213314.455000", "213314.915000", "213315.375000", "213315.835000", "213316.295000", "213316.755000", "213317.215000", "213317.675000", "213318.135000", "213318.595000", "213319.055000", "213319.515000", "213319.975000", "213320.435000", "213320.895000", "213321.355000", "213321.815000", "213322.275000", "213322.735000", "213323.195000", "213323.655000", "213324.115000", "213324.575000", "213325.035000", "213325.495000", "213325.955000", "213326.415000", "213326.875000", "213327.335000", "213327.795000", "213328.255000", "213328.715000", "213329.175000", "213329.635000", "213330.095000", "213330.555000", "213331.015000", "213331.475000", "213331.935000", "213332.395000", "213332.855000", "213333.315000", "213333.775000", "213334.235000", "213334.695000", "213335.155000", "213335.615000", "213336.075000", "213336.535000", "213336.995000", "213337.455000", "213337.915000", "213338.375000", "213338.835000", "213339.295000", "213339.755000", "213340.215000", "213340.675000", "213341.135000", "213341.595000", "213342.055000", "213342.515000", "213342.975000", "213343.435000", "213343.895000", "213344.355000", "213344.815000", "213345.275000", "213345.735000", "213346.195000", "213346.655000", "213347.115000", "213347.575000", "213348.035000", "213348.495000", "213348.955000", "213349.415000", "213349.875000", "213350.335000", "213350.795000", "213351.255000", "213351.715000", "213352.175000", "213352.635000", "213353.095000", "213353.555000", "213354.015000", "213354.475000", "213354.935000", "213355.395000", "213355.855000", "213356.315000", "213356.775000", "213357.235000", "213357.695000", "213358.155000", "213358.615000", "213359.075000", "213359.535000", "213359.995000", "213400.455000", "213400.915000", "213401.375000", "213401.835000", "213402.295000", "213402.755000", "213403.215000", "213403.675000", "213404.135000", "213404.595000", "213405.055000", "213405.515000", "213405.975000", "213406.435000", "213406.895000", "213407.355000", "213407.815000", "213408.275000", "213408.735000", "213409.195000", "213409.655000", "213410.115000", "213410.575000", "213411.035000", "213411.495000", "213411.955000", "213412.415000", "213412.875000", "213413.335000", "213413.795000", "213414.255000", "213414.715000", "213415.175000", "213415.635000", "213416.095000", "213416.555000", "213417.015000", "213417.475000", "213417.935000", "213418.395000", "213418.855000", "213419.315000", "213419.775000", "213420.235000", "213420.695000", "213421.155000", "213421.615000", "213422.075000", "213422.535000", "213422.995000", "213423.455000", "213423.915000", "213424.375000", "213424.835000", "213425.295000", "213425.755000", "213426.215000", "213426.675000", "213427.135000", "213427.595000", "213428.055000", "213428.515000", "213428.975000", "213429.435000", "213429.895000", "213430.355000", "213430.815000", "213431.275000", "213431.735000", "213432.195000", "213432.655000", "213433.115000", "213433.575000", "213434.035000", "213434.495000", "213434.955000", "213435.415000", "213435.875000", "213436.335000", "213436.795000", "213437.255000", "213437.715000", "213438.175000", "213438.635000", "213439.095000", "213439.555000", "213440.015000", "213440.475000", "213440.935000", "213441.395000", "213441.855000", "213442.315000", "213442.775000", "213443.235000", "213443.695000", "213444.155000", "213444.615000", "213445.075000", "213445.535000", "213445.995000", "213446.455000", "213446.915000", "213447.375000", "213447.835000", "213448.295000", "213448.755000", "213449.215000", "213449.675000", "213450.135000", "213450.595000", "213451.055000", "213451.515000", "213451.975000", "213452.435000", "213452.895000", "213453.355000", "213453.815000", "213454.275000", "213454.735000", "213455.195000", "213455.655000", "213456.115000", "213456.575000", "213457.035000", "213457.495000", "213457.955000", "213458.415000", "213458.875000", "213459.335000", "213459.795000", "213500.255000", "213500.715000", "213501.175000", "213501.635000", "213502.095000", "213502.555000", "213503.015000", "213503.475000", "213503.935000", "213504.395000", "213504.855000", "213505.315000", "213505.775000", "213506.235000", "213506.695000", "213507.155000", "213507.615000", "213508.075000", "213508.535000", "213508.995000", "213509.455000", "213509.915000", "213510.375000", "213510.835000", "213511.295000", "213511.755000", "213512.215000", "213512.675000", "213513.135000", "213513.595000", "213514.055000", "213514.515000", "213514.975000", "213515.435000", "213515.895000", "213516.355000", "213516.815000", "213517.275000", "213517.735000", "213518.195000", "213518.655000", "213519.115000", "213519.575000", "213520.035000", "213520.495000", "213520.955000", "213521.415000", "213521.875000", "213522.335000", "213522.795000", "213523.255000", "213523.715000", "213524.175000", "213524.635000", "213525.095000", "213525.555000", "213526.015000", "213526.475000", "213526.935000", "213527.395000", "213527.855000", "213528.315000", "213528.775000", "213529.235000", "213529.695000", "213530.155000", "213530.615000", "213531.075000", "213531.535000", "213531.995000", "213532.455000", "213532.915000", "213533.375000", "213533.835000", "213534.295000", "213534.755000", "213535.215000", "213535.675000", "213536.135000", "213536.595000", "213537.055000", "213537.515000", "213537.975000", "213538.435000", "213538.895000", "213539.355000", "213539.815000", "213540.275000", "213540.735000", "213541.195000", "213541.655000", "213542.115000", "213542.575000", "213543.035000", "213543.495000", "213543.955000", "213544.415000", "213544.875000", "213545.335000", "213545.795000", "213546.255000", "213546.715000", "213547.175000", "213547.635000", "213548.095000", "213548.555000", "213549.015000", "213549.475000", "213549.935000", "213550.395000", "213550.855000", "213551.315000", "213551.775000", "213552.235000", "213552.695000", "213553.155000", "213553.615000", "213554.075000", "213554.535000", "213554.995000", "213555.455000", "213555.915000", "213556.375000", "213556.835000", "213557.295000", "213557.755000", "213558.215000", "213558.675000", "213559.135000", "213559.595000", "213600.055000", "213600.515000", "213600.975000", "213601.435000", "213601.895000", "213602.355000", "213602.815000", "213603.275000", "213603.735000", "213604.195000", "213604.655000", "213605.115000", "213605.575000", "213606.035000", "213606.495000", "213606.955000", "213607.415000", "213607.875000", "213608.335000", "213608.795000", "213609.255000", "213609.715000", "213610.175000", "213610.635000", "213611.095000", "213611.555000", "213612.015000", "213612.475000", "213612.935000", "213613.395000", "213613.855000", "213614.315000", "213614.775000", "213615.235000", "213615.695000", "213616.155000", "213616.615000", "213617.075000", "213617.535000", "213617.995000", "213618.455000", "213618.915000", "213619.375000", "213619.835000", "213620.295000", "213620.755000", "213621.215000", "213621.675000", "213622.135000", "213622.595000", "213623.055000", "213623.515000", "213623.975000", "213624.435000", "213624.895000", "213625.355000", "213625.815000", "213626.275000", "213626.735000", "213627.195000", "213627.655000", "213628.115000", "213628.575000"],
