{
  "AcquisitionMatrixPE": 82,
  "AcquisitionNumber": 1,
  "AcquisitionTime": "20:13:57.462500",
  "BandwidthPerPixelPhaseEncode": 24.888,
  "BaseResolution": 82,
  "BodyPartExamined": "BRAIN",
  "ConsistencyInfo": "N4_VE11E_LATEST_20181129",
  "ConversionSoftware": "dcm2niix",
  "ConversionSoftwareVersion": "v1.0.20201102",
  "DerivedVendorReportedEchoSpacing": 0.00049,
  "DeviceSerialNumber": "66112",
  "DwellTime": 2e-06,
  "EchoTime": 0.0272,
  "EchoTrainLength": 82,
  "EffectiveEchoSpacing": 0.00049,
  "FlipAngle": 44,
  "ImageComments": "Unaliased MB8/PE3",
  "ImageOrientationPatientDICOM": [0.990047, 0.0880212, 0.109817, -0.0874885, 0.996119, -0.00966923],
  "ImageType": [
    "ORIGINAL",
    "PRIMARY",
    "M",
    "MB",
    "ND",
    "NORM",
    "MOSAIC"
],
  "ImagingFrequency": 123.259,
  "InPlanePhaseEncodingDirectionDICOM": "COL",
  "InstitutionAddress": "Maynard 3,Hanover,NH,US,03755",
  "InstitutionName": "Dartmouth College - PBS",
  "InstitutionalDepartmentName": "Department",
  "MRAcquisitionType": "2D",
  "MagneticFieldStrength": 3,
  "Manufacturer": "Siemens",
  "ManufacturersModelName": "Prisma",
  "Modality": "MR",
  "MultibandAccelerationFactor": 8,
  "PartialFourier": 1,
  "PatientPosition": "HFS",
  "PercentPhaseFOV": 100,
  "PercentSampling": 100,
  "PhaseEncodingDirection": "j-",
  "PhaseEncodingSteps": 82,
  "PhaseResolution": 1,
  "PixelBandwidth": 3050,
  "ProcedureStepDescription": "Wager_Wager^1076_spacetop",
  "ProtocolName": "func_run-02_task-social_acq-ap-mb8",
  "PulseSequenceDetails": "%CustomerSeq%\\cmrr_mbep2d_bold",
  "ReceiveCoilActiveElements": "HEA;HEP",
  "ReceiveCoilName": "Head_32",
  "ReconMatrixPE": 82,
  "RepetitionTime": 0.46,
  "SAR": 0.0793046,
  "ScanOptions": "FS",
  "ScanningSequence": "EP",
  "SequenceName": "epfid2d1_82",
  "SequenceVariant": "SK\\SS",
  "SeriesDescription": "func_run-02_task-social_acq-ap-mb8",
  "SeriesNumber": 10,
  "ShimSetting": [4230, -7796, -7292, 371, -114, -169, 61, 36],
  "SliceThickness": 2.7,
  "SliceTiming": [0, 0.2525, 0.0625, 0.315, 0.1275, 0.3775, 0.19, 0, 0.2525, 0.0625, 0.315, 0.1275, 0.3775, 0.19, 0, 0.2525, 0.0625, 0.315, 0.1275, 0.3775, 0.19, 0, 0.2525, 0.0625, 0.315, 0.1275, 0.3775, 0.19, 0, 0.2525, 0.0625, 0.315, 0.1275, 0.3775, 0.19, 0, 0.2525, 0.0625, 0.315, 0.1275, 0.3775, 0.19, 0, 0.2525, 0.0625, 0.315, 0.1275, 0.3775, 0.19, 0, 0.2525, 0.0625, 0.315, 0.1275, 0.3775, 0.19],
  "SoftwareVersions": "syngo MR E11",
  "SpacingBetweenSlices": 2.7,
  "StationName": "AWP66112",
  "TaskName": "social",
  "TotalReadoutTime": 0.03969,
  "TxRefAmp": 236.144,
  "WipMemBlock": "a6b18bc0-d764-42a3-80f8-adaad4466dad||Sequence: R016 ve11e/master r/434b28f1; Aug  7 2019 18:53:46 by eja",
  "dcmmeta_affine": [
    [-2.6562230587005615, -0.23472528159618378, 0.29765287041664124, 115.26358032226562],
    [-0.2361544519662857, 2.672513484954834, 9.378582035424188e-05, -92.82630157470703],
    [0.29463082551956177, 0.02594182640314102, 2.6835429668426514, -102.44097900390625],
    [0.0, 0.0, 0.0, 1.0]
],
  "dcmmeta_reorient_transform": [
    [0.0, -1.0, 0.0, 81.0],
    [1.0, 0.0, 0.0, 0.0],
    [0.0, 0.0, 1.0, 0.0],
    [0.0, 0.0, 0.0, 1.0]
],
  "dcmmeta_shape": [82, 82, 56, 872],
  "dcmmeta_slice_dim": 2,
  "dcmmeta_version": 0.6,
  "global": {
    "const": {
      "AccessionNumber": "A004530",
      "AcquisitionMatrix": [82, 0, 0, 82],
      "AngioFlag": "N",
      "BitsAllocated": 16,
      "BitsStored": 16,
      "BodyPartExamined": "BRAIN",
      "Columns": 656,
      "EchoNumbers": 1,
      "EchoTime": 27.2,
      "EchoTrainLength": 82,
      "FlipAngle": 44.0,
      "HighBit": 15,
      "ImageOrientationPatient": [0.99004671910518, 0.08802120543156, 0.10981694488302, -0.0874885128249, 0.99611860046273, -0.0096692262289],
      "ImagePositionPatient": [-791.2206659029, -958.43495008835, -177.45343506858],
      "ImageType": [
        "ORIGINAL",
        "PRIMARY",
        "M",
        "MB",
        "ND",
        "NORM",
        "MOSAIC"
],
      "ImagedNucleus": "1H",
      "ImagingFrequency": 123.259095,
      "InPlanePhaseEncodingDirection": "COL",
      "MRAcquisitionType": "2D",
      "MagneticFieldStrength": 3.0,
      "Manufacturer": "SIEMENS",
      "ManufacturerModelName": "Prisma",
      "Modality": "MR",
      "NumberOfAverages": 1.0,
      "NumberOfPhaseEncodingSteps": 82,
      "PercentPhaseFieldOfView": 100.0,
      "PercentSampling": 100.0,
      "PerformedProcedureStepStartTime": "195301.974000",
      "PhotometricInterpretation": "MONOCHROME2",
      "PixelBandwidth": 3050.0,
      "PixelRepresentation": 0,
      "PixelSpacing": [2.6829268932343, 2.6829268932343],
      "ProtocolName": "func_run-02_task-social_acq-ap-mb8",
      "RepetitionTime": 460.0,
      "Rows": 656,
      "SAR": 0.07930458166454,
      "SamplesPerPixel": 1,
      "ScanOptions": "FS",
      "ScanningSequence": "EP",
      "SequenceName": "epfid2d1_82",
      "SequenceVariant": [
        "SK",
        "SS"
],
      "SeriesDescription": "func_run-02_task-social_acq-ap-mb8",
      "SeriesNumber": 10,
      "SeriesTime": "201424.818000",
      "SliceLocation": -89.112939447093,
      "SliceThickness": 2.7000000476837,
      "SmallestImagePixelValue": 0,
      "SoftwareVersions": "syngo MR E11",
      "SpacingBetweenSlices": 2.7000000968763,
      "SpecificCharacterSet": "ISO_IR 100",
      "StudyID": "3",
      "StudyTime": "195301.892000",
      "TransmitCoilName": "Body",
      "VariableFlipAngleFlag": "N",
      "WindowCenterWidthExplanation": "Algo1"
    },
    "slices": {}
  },
  "time": {
    "samples": {
      "AcquisitionNumber": [1, 2, 3, 4, 5, 6, 7, 8, 9, 10, 11, 12, 13, 14, 15, 16, 17, 18, 19, 20, 21, 22, 23, 24, 25, 26, 27, 28, 29, 30, 31, 32, 33, 34, 35, 36, 37, 38, 39, 40, 41, 42, 43, 44, 45, 46, 47, 48, 49, 50, 51, 52, 53, 54, 55, 56, 57, 58, 59, 60, 61, 62, 63, 64, 65, 66, 67, 68, 69, 70, 71, 72, 73, 74, 75, 76, 77, 78, 79, 80, 81, 82, 83, 84, 85, 86, 87, 88, 89, 90, 91, 92, 93, 94, 95, 96, 97, 98, 99, 100, 101, 102, 103, 104, 105, 106, 107, 108, 109, 110, 111, 112, 113, 114, 115, 116, 117, 118, 119, 120, 121, 122, 123, 124, 125, 126, 127, 128, 129, 130, 131, 132, 133, 134, 135, 136, 137, 138, 139, 140, 141, 142, 143, 144, 145, 146, 147, 148, 149, 150, 151, 152, 153, 154, 155, 156, 157, 158, 159, 160, 161, 162, 163, 164, 165, 166, 167, 168, 169, 170, 171, 172, 173, 174, 175, 176, 177, 178, 179, 180, 181, 182, 183, 184, 185, 186, 187, 188, 189, 190, 191, 192, 193, 194, 195, 196, 197, 198, 199, 200, 201, 202, 203, 204, 205, 206, 207, 208, 209, 210, 211, 212, 213, 214, 215, 216, 217, 218, 219, 220, 221, 222, 223, 224, 225, 226, 227, 228, 229, 230, 231, 232, 233, 234, 235, 236, 237, 238, 239, 240, 241, 242, 243, 244, 245, 246, 247, 248, 249, 250, 251, 252, 253, 254, 255, 256, 257, 258, 259, 260, 261, 262, 263, 264, 265, 266, 267, 268, 269, 270, 271, 272, 273, 274, 275, 276, 277, 278, 279, 280, 281, 282, 283, 284, 285, 286, 287, 288, 289, 290, 291, 292, 293, 294, 295, 296, 297, 298, 299, 300, 301, 302, 303, 304, 305, 306, 307, 308, 309, 310, 311, 312, 313, 314, 315, 316, 317, 318, 319, 320, 321, 322, 323, 324, 325, 326, 327, 328, 329, 330, 331, 332, 333, 334, 335, 336, 337, 338, 339, 340, 341, 342, 343, 344, 345, 346, 347, 348, 349, 350, 351, 352, 353, 354, 355, 356, 357, 358, 359, 360, 361, 362, 363, 364, 365, 366, 367, 368, 369, 370, 371, 372, 373, 374, 375, 376, 377, 378, 379, 380, 381, 382, 383, 384, 385, 386, 387, 388, 389, 390, 391, 392, 393, 394, 395, 396, 397, 398, 399, 400, 401, 402, 403, 404, 405, 406, 407, 408, 409, 410, 411, 412, 413, 414, 415, 416, 417, 418, 419, 420, 421, 422, 423, 424, 425, 426, 427, 428, 429, 430, 431, 432, 433, 434, 435, 436, 437, 438, 439, 440, 441, 442, 443, 444, 445, 446, 447, 448, 449, 450, 451, 452, 453, 454, 455, 456, 457, 458, 459, 460, 461, 462, 463, 464, 465, 466, 467, 468, 469, 470, 471, 472, 473, 474, 475, 476, 477, 478, 479, 480, 481, 482, 483, 484, 485, 486, 487, 488, 489, 490, 491, 492, 493, 494, 495, 496, 497, 498, 499, 500, 501, 502, 503, 504, 505, 506, 507, 508, 509, 510, 511, 512, 513, 514, 515, 516, 517, 518, 519, 520, 521, 522, 523, 524, 525, 526, 527, 528, 529, 530, 531, 532, 533, 534, 535, 536, 537, 538, 539, 540, 541, 542, 543, 544, 545, 546, 547, 548, 549, 550, 551, 552, 553, 554, 555, 556, 557, 558, 559, 560, 561, 562, 563, 564, 565, 566, 567, 568, 569, 570, 571, 572, 573, 574, 575, 576, 577, 578, 579, 580, 581, 582, 583, 584, 585, 586, 587, 588, 589, 590, 591, 592, 593, 594, 595, 596, 597, 598, 599, 600, 601, 602, 603, 604, 605, 606, 607, 608, 609, 610, 611, 612, 613, 614, 615, 616, 617, 618, 619, 620, 621, 622, 623, 624, 625, 626, 627, 628, 629, 630, 631, 632, 633, 634, 635, 636, 637, 638, 639, 640, 641, 642, 643, 644, 645, 646, 647, 648, 649, 650, 651, 652, 653, 654, 655, 656, 657, 658, 659, 660, 661, 662, 663, 664, 665, 666, 667, 668, 669, 670, 671, 672, 673, 674, 675, 676, 677, 678, 679, 680, 681, 682, 683, 684, 685, 686, 687, 688, 689, 690, 691, 692, 693, 694, 695, 696, 697, 698, 699, 700, 701, 702, 703, 704, 705, 706, 707, 708, 709, 710, 711, 712, 713, 714, 715, 716, 717, 718, 719, 720, 721, 722, 723, 724, 725, 726, 727, 728, 729, 730, 731, 732, 733, 734, 735, 736, 737, 738, 739, 740, 741, 742, 743, 744, 745, 746, 747, 748, 749, 750, 751, 752, 753, 754, 755, 756, 757, 758, 759, 760, 761, 762, 763, 764, 765, 766, 767, 768, 769, 770, 771, 772, 773, 774, 775, 776, 777, 778, 779, 780, 781, 782, 783, 784, 785, 786, 787, 788, 789, 790, 791, 792, 793, 794, 795, 796, 797, 798, 799, 800, 801, 802, 803, 804, 805, 806, 807, 808, 809, 810, 811, 812, 813, 814, 815, 816, 817, 818, 819, 820, 821, 822, 823, 824, 825, 826, 827, 828, 829, 830, 831, 832, 833, 834, 835, 836, 837, 838, 839, 840, 841, 842, 843, 844, 845, 846, 847, 848, 849, 850, 851, 852, 853, 854, 855, 856, 857, 858, 859, 860, 861, 862, 863, 864, 865, 866, 867, 868, 869, 870, 871, 872],
      "AcquisitionTime": ["201357.462500", "201357.922500", "201358.382500", "201358.842500", "201359.302500", "201359.762500", "201400.222500", "201400.682500", "201401.142500", "201401.602500", "201402.062500", "201402.522500", "201402.982500", "201403.442500", "201403.902500", "201404.362500", "201404.822500", "201405.282500", "201405.742500", "201406.202500", "201406.662500", "201407.122500", "201407.582500", "201408.042500", "201408.502500", "201408.962500", "201409.422500", "201409.882500", "201410.342500", "201410.802500", "201411.262500", "201411.722500", "201412.182500", "201412.642500", "201413.102500", "201413.562500", "201414.022500", "201414.482500", "201414.942500", "201415.402500", "201415.862500", "201416.322500", "201416.782500", "201417.242500", "201417.702500", "201418.162500", "201418.622500", "201419.082500", "201419.542500", "201420.002500", "201420.462500", "201420.922500", "201421.382500", "201421.842500", "201422.302500", "201422.762500", "201423.222500", "201423.682500", "201424.142500", "201424.602500", "201425.062500", "201425.522500", "201425.982500", "201426.442500", "201426.902500", "201427.362500", "201427.822500", "201428.282500", "201428.742500", "201429.202500", "201429.662500", "201430.122500", "201430.582500", "201431.042500", "201431.502500", "201431.962500", "201432.422500", "201432.882500", "201433.342500", "201433.802500", "201434.262500", "201434.722500", "201435.182500", "201435.642500", "201436.102500", "201436.562500", "201437.022500", "201437.482500", "201437.942500", "201438.402500", "201438.862500", "201439.322500", "201439.782500", "201440.242500", "201440.702500", "201441.162500", "201441.622500", "201442.082500", "201442.542500", "201443.002500", "201443.462500", "201443.922500", "201444.382500", "201444.842500", "201445.302500", "201445.762500", "201446.222500", "201446.682500", "201447.142500", "201447.602500", "201448.062500", "201448.522500", "201448.982500", "201449.442500", "201449.902500", "201450.362500", "201450.822500", "201451.282500", "201451.742500", "201452.202500", "201452.662500", "201453.122500", "201453.582500", "201454.042500", "201454.502500", "201454.962500", "201455.422500", "201455.882500", "201456.342500", "201456.802500", "201457.262500", "201457.722500", "201458.182500", "201458.642500", "201459.102500", "201459.562500", "201500.022500", "201500.482500", "201500.942500", "201501.402500", "201501.862500", "201502.322500", "201502.782500", "201503.242500", "201503.702500", "201504.162500", "201504.622500", "201505.082500", "201505.542500", "201506.002500", "201506.462500", "201506.922500", "201507.382500", "201507.842500", "201508.302500", "201508.762500", "201509.222500", "201509.682500", "201510.142500", "201510.602500", "201511.062500", "201511.522500", "201511.982500", "201512.442500", "201512.902500", "201513.362500", "201513.822500", "201514.282500", "201514.742500", "201515.202500", "201515.662500", "201516.122500", "201516.582500", "201517.042500", "201517.502500", "201517.962500", "201518.422500", "201518.882500", "201519.342500", "201519.802500", "201520.262500", "201520.722500", "201521.182500", "201521.642500", "201522.102500", "201522.562500", "201523.022500", "201523.482500", "201523.942500", "201524.402500", "201524.862500", "201525.322500", "201525.782500", "201526.242500", "201526.702500", "201527.162500", "201527.622500", "201528.082500", "201528.542500", "201529.002500", "201529.462500", "201529.922500", "201530.382500", "201530.842500", "201531.302500", "201531.762500", "201532.222500", "201532.682500", "201533.142500", "201533.602500", "201534.062500", "201534.522500", "201534.982500", "201535.442500", "201535.902500", "201536.362500", "201536.822500", "201537.282500", "201537.742500", "201538.202500", "201538.662500", "201539.122500", "201539.582500", "201540.042500", "201540.502500", "201540.962500", "201541.422500", "201541.882500", "201542.342500", "201542.802500", "201543.262500", "201543.722500", "201544.182500", "201544.642500", "201545.102500", "201545.562500", "201546.022500", "201546.482500", "201546.942500", "201547.402500", "201547.862500", "201548.322500", "201548.782500", "201549.242500", "201549.702500", "201550.162500", "201550.622500", "201551.082500", "201551.542500", "201552.002500", "201552.462500", "201552.922500", "201553.382500", "201553.842500", "201554.302500", "201554.762500", "201555.222500", "201555.682500", "201556.142500", "201556.602500", "201557.062500", "201557.522500", "201557.982500", "201558.442500", "201558.902500", "201559.362500", "201559.822500", "201600.282500", "201600.742500", "201601.202500", "201601.662500", "201602.122500", "201602.582500", "201603.042500", "201603.502500", "201603.962500", "201604.422500", "201604.882500", "201605.342500", "201605.802500", "201606.262500", "201606.722500", "201607.182500", "201607.642500", "201608.102500", "201608.562500", "201609.022500", "201609.482500", "201609.942500", "201610.402500", "201610.862500", "201611.322500", "201611.782500", "201612.242500", "201612.702500", "201613.162500", "201613.622500", "201614.082500", "201614.542500", "201615.002500", "201615.462500", "201615.922500", "201616.382500", "201616.842500", "201617.302500", "201617.762500", "201618.222500", "201618.682500", "201619.142500", "201619.602500", "201620.062500", "201620.522500", "201620.982500", "201621.442500", "201621.902500", "201622.362500", "201622.822500", "201623.282500", "201623.742500", "201624.202500", "201624.662500", "201625.122500", "201625.582500", "201626.042500", "201626.502500", "201626.962500", "201627.422500", "201627.882500", "201628.342500", "201628.802500", "201629.262500", "201629.722500", "201630.182500", "201630.642500", "201631.102500", "201631.562500", "201632.022500", "201632.482500", "201632.942500", "201633.402500", "201633.862500", "201634.322500", "201634.782500", "201635.242500", "201635.702500", "201636.162500", "201636.622500", "201637.082500", "201637.542500", "201638.002500", "201638.462500", "201638.922500", "201639.382500", "201639.842500", "201640.302500", "201640.762500", "201641.222500", "201641.682500", "201642.142500", "201642.602500", "201643.062500", "201643.522500", "201643.982500", "201644.442500", "201644.902500", "201645.362500", "201645.822500", "201646.282500", "201646.742500", "201647.202500", "201647.662500", "201648.122500", "201648.582500", "201649.042500", "201649.502500", "201649.962500", "201650.422500", "201650.882500", "201651.342500", "201651.802500", "201652.262500", "201652.722500", "201653.182500", "201653.642500", "201654.102500", "201654.562500", "201655.022500", "201655.482500", "201655.942500", "201656.402500", "201656.862500", "201657.322500", "201657.782500", "201658.242500", "201658.702500", "201659.162500", "201659.622500", "201700.082500", "201700.542500", "201701.002500", "201701.462500", "201701.922500", "201702.382500", "201702.842500", "201703.302500", "201703.762500", "201704.222500", "201704.682500", "201705.142500", "201705.602500", "201706.062500", "201706.522500", "201706.982500", "201707.442500", "201707.902500", "201708.362500", "201708.822500", "201709.282500", "201709.742500", "201710.202500", "201710.662500", "201711.122500", "201711.582500", "201712.042500", "201712.502500", "201712.962500", "201713.422500", "201713.882500", "201714.342500", "201714.802500", "201715.262500", "201715.722500", "201716.182500", "201716.642500", "201717.102500", "201717.562500", "201718.022500", "201718.482500", "201718.942500", "201719.402500", "201719.862500", "201720.322500", "201720.782500", "201721.242500", "201721.702500", "201722.162500", "201722.622500", "201723.082500", "201723.542500", "201724.002500", "201724.462500", "201724.922500", "201725.382500", "201725.842500", "201726.302500", "201726.762500", "201727.222500", "201727.682500", "201728.142500", "201728.602500", "201729.062500", "201729.522500", "201729.982500", "201730.442500", "201730.902500", "201731.362500", "201731.822500", "201732.282500", "201732.742500", "201733.202500", "201733.662500", "201734.122500", "201734.582500", "201735.042500", "201735.502500", "201735.962500", "201736.422500", "201736.882500", "201737.342500", "201737.802500", "201738.262500", "201738.722500", "201739.182500", "201739.642500", "201740.102500", "201740.562500", "201741.022500", "201741.482500", "201741.942500", "201742.402500", "201742.862500", "201743.322500", "201743.782500", "201744.242500", "201744.702500", "201745.162500", "201745.622500", "201746.082500", "201746.542500", "201747.002500", "201747.462500", "201747.922500", "201748.382500", "201748.842500", "201749.302500", "201749.762500", "201750.222500", "201750.682500", "201751.142500", "201751.602500", "201752.062500", "201752.522500", "201752.982500", "201753.442500", "201753.902500", "201754.362500", "201754.822500", "201755.282500", "201755.742500", "201756.202500", "201756.662500", "201757.122500", "201757.582500", "201758.042500", "201758.502500", "201758.962500", "201759.422500", "201759.882500", "201800.342500", "201800.802500", "201801.262500", "201801.722500", "201802.182500", "201802.642500", "201803.102500", "201803.562500", "201804.022500", "201804.482500", "201804.942500", "201805.402500", "201805.862500", "201806.322500", "201806.782500", "201807.242500", "201807.702500", "201808.162500", "201808.622500", "201809.082500", "201809.542500", "201810.002500", "201810.462500", "201810.922500", "201811.382500", "201811.842500", "201812.302500", "201812.762500", "201813.222500", "201813.682500", "201814.142500", "201814.602500", "201815.062500", "201815.522500", "201815.982500", "201816.442500", "201816.902500", "201817.362500", "201817.822500", "201818.282500", "201818.742500", "201819.202500", "201819.662500", "201820.122500", "201820.582500", "201821.042500", "201821.502500", "201821.962500", "201822.422500", "201822.882500", "201823.342500", "201823.802500", "201824.262500", "201824.722500", "201825.182500", "201825.642500", "201826.102500", "201826.562500", "201827.022500", "201827.482500", "201827.942500", "201828.402500", "201828.862500", "201829.322500", "201829.782500", "201830.242500", "201830.702500", "201831.162500", "201831.622500", "201832.082500", "201832.542500", "201833.002500", "201833.462500", "201833.922500", "201834.382500", "201834.842500", "201835.302500", "201835.762500", "201836.222500", "201836.682500", "201837.142500", "201837.602500", "201838.062500", "201838.522500", "201838.982500", "201839.442500", "201839.902500", "201840.362500", "201840.822500", "201841.282500", "201841.742500", "201842.202500", "201842.662500", "201843.122500", "201843.582500", "201844.042500", "201844.502500", "201844.962500", "201845.422500", "201845.882500", "201846.342500", "201846.802500", "201847.262500", "201847.722500", "201848.182500", "201848.642500", "201849.102500", "201849.562500", "201850.022500", "201850.482500", "201850.942500", "201851.402500", "201851.862500", "201852.322500", "201852.782500", "201853.242500", "201853.702500", "201854.162500", "201854.622500", "201855.082500", "201855.542500", "201856.002500", "201856.462500", "201856.922500", "201857.382500", "201857.842500", "201858.302500", "201858.762500", "201859.222500", "201859.682500", "201900.142500", "201900.602500", "201901.062500", "201901.522500", "201901.982500", "201902.442500", "201902.902500", "201903.362500", "201903.822500", "201904.282500", "201904.742500", "201905.202500", "201905.662500", "201906.122500", "201906.582500", "201907.042500", "201907.502500", "201907.962500", "201908.422500", "201908.882500", "201909.342500", "201909.802500", "201910.262500", "201910.722500", "201911.182500", "201911.642500", "201912.102500", "201912.562500", "201913.022500", "201913.482500", "201913.942500", "201914.402500", "201914.862500", "201915.322500", "201915.782500", "201916.242500", "201916.702500", "201917.162500", "201917.622500", "201918.082500", "201918.542500", "201919.002500", "201919.462500", "201919.922500", "201920.382500", "201920.842500", "201921.302500", "201921.762500", "201922.222500", "201922.682500", "201923.142500", "201923.602500", "201924.062500", "201924.522500", "201924.982500", "201925.442500", "201925.902500", "201926.362500", "201926.822500", "201927.282500", "201927.742500", "201928.202500", "201928.662500", "201929.122500", "201929.582500", "201930.042500", "201930.502500", "201930.962500", "201931.422500", "201931.882500", "201932.342500", "201932.802500", "201933.262500", "201933.722500", "201934.182500", "201934.642500", "201935.102500", "201935.562500", "201936.022500", "201936.482500", "201936.942500", "201937.402500", "201937.862500", "201938.322500", "201938.782500", "201939.242500", "201939.702500", "201940.162500", "201940.622500", "201941.082500", "201941.542500", "201942.002500", "201942.462500", "201942.922500", "201943.382500", "201943.842500", "201944.302500", "201944.762500", "201945.222500", "201945.682500", "201946.142500", "201946.602500", "201947.062500", "201947.522500", "201947.982500", "201948.442500", "201948.902500", "201949.362500", "201949.822500", "201950.282500", "201950.742500", "201951.202500", "201951.662500", "201952.122500", "201952.582500", "201953.042500", "201953.502500", "201953.962500", "201954.422500", "201954.882500", "201955.342500", "201955.802500", "201956.262500", "201956.722500", "201957.182500", "201957.642500", "201958.102500", "201958.562500", "201959.022500", "201959.482500", "201959.942500", "202000.402500", "202000.862500", "202001.322500", "202001.782500", "202002.242500", "202002.702500", "202003.162500", "202003.622500", "202004.082500", "202004.542500", "202005.002500", "202005.462500", "202005.922500", "202006.382500", "202006.842500", "202007.302500", "202007.762500", "202008.222500", "202008.682500", "202009.142500", "202009.602500", "202010.062500", "202010.522500", "202010.982500", "202011.442500", "202011.902500", "202012.362500", "202012.822500", "202013.282500", "202013.742500", "202014.202500", "202014.662500", "202015.122500", "202015.582500", "202016.042500", "202016.502500", "202016.962500", "202017.422500", "202017.882500", "202018.342500", "202018.802500", "202019.262500", "202019.722500", "202020.182500", "202020.642500", "202021.102500", "202021.562500", "202022.022500", "202022.482500", "202022.942500", "202023.402500", "202023.862500", "202024.322500", "202024.782500", "202025.242500", "202025.702500", "202026.162500", "202026.622500", "202027.082500", "202027.542500", "202028.002500", "202028.462500", "202028.922500", "202029.382500", "202029.842500", "202030.302500", "202030.762500", "202031.222500", "202031.682500", "202032.142500", "202032.602500", "202033.062500", "202033.522500", "202033.982500", "202034.442500", "202034.902500", "202035.362500", "202035.822500", "202036.282500", "202036.742500", "202037.202500", "202037.662500", "202038.122500"],
