{
  "AcquisitionMatrixPE": 82,
  "AcquisitionNumber": 1,
  "AcquisitionTime": "20:21:43.460000",
  "BandwidthPerPixelPhaseEncode": 24.888,
  "BaseResolution": 82,
  "BodyPartExamined": "BRAIN",
  "ConsistencyInfo": "N4_VE11E_LATEST_20181129",
  "ConversionSoftware": "dcm2niix",
  "ConversionSoftwareVersion": "v1.0.20201102",
  "DerivedVendorReportedEchoSpacing": 0.00049,
  "DeviceSerialNumber": "66112",
  "DwellTime": 2e-06,
  "EchoTime": 0.0272,
  "EchoTrainLength": 82,
  "EffectiveEchoSpacing": 0.00049,
  "FlipAngle": 44,
  "ImageComments": "Unaliased MB8/PE3",
  "ImageOrientationPatientDICOM": [0.990047, 0.0880212, 0.109817, -0.0874885, 0.996119, -0.00966923],
  "ImageType": [
    "ORIGINAL",
    "PRIMARY",
    "M",
    "MB",
    "ND",
    "NORM",
    "MOSAIC"
],
  "ImagingFrequency": 123.259,
  "InPlanePhaseEncodingDirectionDICOM": "COL",
  "InstitutionAddress": "Maynard 3,Hanover,NH,US,03755",
  "InstitutionName": "Dartmouth College - PBS",
  "InstitutionalDepartmentName": "Department",
  "MRAcquisitionType": "2D",
  "MagneticFieldStrength": 3,
  "Manufacturer": "Siemens",
  "ManufacturersModelName": "Prisma",
  "Modality": "MR",
  "MultibandAccelerationFactor": 8,
  "PartialFourier": 1,
  "PatientPosition": "HFS",
  "PercentPhaseFOV": 100,
  "PercentSampling": 100,
  "PhaseEncodingDirection": "j-",
  "PhaseEncodingSteps": 82,
  "PhaseResolution": 1,
  "PixelBandwidth": 3050,
  "ProcedureStepDescription": "Wager_Wager^1076_spacetop",
  "ProtocolName": "func_run-03_task-social_acq-ap-mb8",
  "PulseSequenceDetails": "%CustomerSeq%\\cmrr_mbep2d_bold",
  "ReceiveCoilActiveElements": "HEA;HEP",
  "ReceiveCoilName": "Head_32",
  "ReconMatrixPE": 82,
  "RepetitionTime": 0.46,
  "SAR": 0.0793046,
  "ScanOptions": "FS",
  "ScanningSequence": "EP",
  "SequenceName": "epfid2d1_82",
  "SequenceVariant": "SK\\SS",
  "SeriesDescription": "func_run-03_task-social_acq-ap-mb8",
  "SeriesNumber": 12,
  "ShimSetting": [4230, -7796, -7292, 371, -114, -169, 61, 36],
  "SliceThickness": 2.7,
  "SliceTiming": [0, 0.2525, 0.065, 0.315, 0.1275, 0.3775, 0.19, 0, 0.2525, 0.065, 0.315, 0.1275, 0.3775, 0.19, 0, 0.2525, 0.065, 0.315, 0.1275, 0.3775, 0.19, 0, 0.2525, 0.065, 0.315, 0.1275, 0.3775, 0.19, 0, 0.2525, 0.065, 0.315, 0.1275, 0.3775, 0.19, 0, 0.2525, 0.065, 0.315, 0.1275, 0.3775, 0.19, 0, 0.2525, 0.065, 0.315, 0.1275, 0.3775, 0.19, 0, 0.2525, 0.065, 0.315, 0.1275, 0.3775, 0.19],
  "SoftwareVersions": "syngo MR E11",
  "SpacingBetweenSlices": 2.7,
  "StationName": "AWP66112",
  "TaskName": "social",
  "TotalReadoutTime": 0.03969,
  "TxRefAmp": 236.144,
  "WipMemBlock": "939d7566-d76b-4515-abb1-8d83aa66d330||Sequence: R016 ve11e/master r/434b28f1; Aug  7 2019 18:53:46 by eja",
  "dcmmeta_affine": [
    [-2.6562230587005615, -0.23472528159618378, 0.29765287041664124, 115.26358032226562],
    [-0.2361544519662857, 2.672513484954834, 9.378582035424188e-05, -92.82630157470703],
    [0.29463082551956177, 0.02594182640314102, 2.6835429668426514, -102.44097900390625],
    [0.0, 0.0, 0.0, 1.0]
],
  "dcmmeta_reorient_transform": [
    [0.0, -1.0, 0.0, 81.0],
    [1.0, 0.0, 0.0, 0.0],
    [0.0, 0.0, 1.0, 0.0],
    [0.0, 0.0, 0.0, 1.0]
],
  "dcmmeta_shape": [82, 82, 56, 872],
  "dcmmeta_slice_dim": 2,
  "dcmmeta_version": 0.6,
  "global": {
    "const": {
      "AccessionNumber": "A004530",
      "AcquisitionMatrix": [82, 0, 0, 82],
      "AngioFlag": "N",
      "BitsAllocated": 16,
      "BitsStored": 16,
      "BodyPartExamined": "BRAIN",
      "Columns": 656,
      "EchoNumbers": 1,
      "EchoTime": 27.2,
      "EchoTrainLength": 82,
      "FlipAngle": 44.0,
      "HighBit": 15,
      "ImageOrientationPatient": [0.99004671910518, 0.08802120543156, 0.10981694488302, -0.0874885128249, 0.99611860046273, -0.0096692262289],
      "ImagePositionPatient": [-791.2206659029, -958.43495008835, -177.45343506858],
      "ImageType": [
        "ORIGINAL",
        "PRIMARY",
        "M",
        "MB",
        "ND",
        "NORM",
        "MOSAIC"
],
      "ImagedNucleus": "1H",
      "ImagingFrequency": 123.259102,
      "InPlanePhaseEncodingDirection": "COL",
      "MRAcquisitionType": "2D",
      "MagneticFieldStrength": 3.0,
      "Manufacturer": "SIEMENS",
      "ManufacturerModelName": "Prisma",
      "Modality": "MR",
      "NumberOfAverages": 1.0,
      "NumberOfPhaseEncodingSteps": 82,
      "PercentPhaseFieldOfView": 100.0,
      "PercentSampling": 100.0,
      "PerformedProcedureStepStartTime": "195301.974000",
      "PhotometricInterpretation": "MONOCHROME2",
      "PixelBandwidth": 3050.0,
      "PixelRepresentation": 0,
      "PixelSpacing": [2.6829268932343, 2.6829268932343],
      "ProtocolName": "func_run-03_task-social_acq-ap-mb8",
      "RepetitionTime": 460.0,
      "Rows": 656,
      "SAR": 0.07930458166454,
      "SamplesPerPixel": 1,
      "ScanOptions": "FS",
      "ScanningSequence": "EP",
      "SequenceName": "epfid2d1_82",
      "SequenceVariant": [
        "SK",
        "SS"
],
      "SeriesDescription": "func_run-03_task-social_acq-ap-mb8",
      "SeriesNumber": 12,
      "SeriesTime": "202204.907000",
      "SliceLocation": -89.112939447093,
      "SliceThickness": 2.7000000476837,
      "SmallestImagePixelValue": 0,
      "SoftwareVersions": "syngo MR E11",
      "SpacingBetweenSlices": 2.7000000968763,
      "SpecificCharacterSet": "ISO_IR 100",
      "StudyID": "3",
      "StudyTime": "195301.892000",
      "TransmitCoilName": "Body",
      "VariableFlipAngleFlag": "N",
      "WindowCenterWidthExplanation": "Algo1"
    },
    "slices": {}
  },
  "time": {
    "samples": {
      "AcquisitionNumber": [1, 2, 3, 4, 5, 6, 7, 8, 9, 10, 11, 12, 13, 14, 15, 16, 17, 18, 19, 20, 21, 22, 23, 24, 25, 26, 27, 28, 29, 30, 31, 32, 33, 34, 35, 36, 37, 38, 39, 40, 41, 42, 43, 44, 45, 46, 47, 48, 49, 50, 51, 52, 53, 54, 55, 56, 57, 58, 59, 60, 61, 62, 63, 64, 65, 66, 67, 68, 69, 70, 71, 72, 73, 74, 75, 76, 77, 78, 79, 80, 81, 82, 83, 84, 85, 86, 87, 88, 89, 90, 91, 92, 93, 94, 95, 96, 97, 98, 99, 100, 101, 102, 103, 104, 105, 106, 107, 108, 109, 110, 111, 112, 113, 114, 115, 116, 117, 118, 119, 120, 121, 122, 123, 124, 125, 126, 127, 128, 129, 130, 131, 132, 133, 134, 135, 136, 137, 138, 139, 140, 141, 142, 143, 144, 145, 146, 147, 148, 149, 150, 151, 152, 153, 154, 155, 156, 157, 158, 159, 160, 161, 162, 163, 164, 165, 166, 167, 168, 169, 170, 171, 172, 173, 174, 175, 176, 177, 178, 179, 180, 181, 182, 183, 184, 185, 186, 187, 188, 189, 190, 191, 192, 193, 194, 195, 196, 197, 198, 199, 200, 201, 202, 203, 204, 205, 206, 207, 208, 209, 210, 211, 212, 213, 214, 215, 216, 217, 218, 219, 220, 221, 222, 223, 224, 225, 226, 227, 228, 229, 230, 231, 232, 233, 234, 235, 236, 237, 238, 239, 240, 241, 242, 243, 244, 245, 246, 247, 248, 249, 250, 251, 252, 253, 254, 255, 256, 257, 258, 259, 260, 261, 262, 263, 264, 265, 266, 267, 268, 269, 270, 271, 272, 273, 274, 275, 276, 277, 278, 279, 280, 281, 282, 283, 284, 285, 286, 287, 288, 289, 290, 291, 292, 293, 294, 295, 296, 297, 298, 299, 300, 301, 302, 303, 304, 305, 306, 307, 308, 309, 310, 311, 312, 313, 314, 315, 316, 317, 318, 319, 320, 321, 322, 323, 324, 325, 326, 327, 328, 329, 330, 331, 332, 333, 334, 335, 336, 337, 338, 339, 340, 341, 342, 343, 344, 345, 346, 347, 348, 349, 350, 351, 352, 353, 354, 355, 356, 357, 358, 359, 360, 361, 362, 363, 364, 365, 366, 367, 368, 369, 370, 371, 372, 373, 374, 375, 376, 377, 378, 379, 380, 381, 382, 383, 384, 385, 386, 387, 388, 389, 390, 391, 392, 393, 394, 395, 396, 397, 398, 399, 400, 401, 402, 403, 404, 405, 406, 407, 408, 409, 410, 411, 412, 413, 414, 415, 416, 417, 418, 419, 420, 421, 422, 423, 424, 425, 426, 427, 428, 429, 430, 431, 432, 433, 434, 435, 436, 437, 438, 439, 440, 441, 442, 443, 444, 445, 446, 447, 448, 449, 450, 451, 452, 453, 454, 455, 456, 457, 458, 459, 460, 461, 462, 463, 464, 465, 466, 467, 468, 469, 470, 471, 472, 473, 474, 475, 476, 477, 478, 479, 480, 481, 482, 483, 484, 485, 486, 487, 488, 489, 490, 491, 492, 493, 494, 495, 496, 497, 498, 499, 500, 501, 502, 503, 504, 505, 506, 507, 508, 509, 510, 511, 512, 513, 514, 515, 516, 517, 518, 519, 520, 521, 522, 523, 524, 525, 526, 527, 528, 529, 530, 531, 532, 533, 534, 535, 536, 537, 538, 539, 540, 541, 542, 543, 544, 545, 546, 547, 548, 549, 550, 551, 552, 553, 554, 555, 556, 557, 558, 559, 560, 561, 562, 563, 564, 565, 566, 567, 568, 569, 570, 571, 572, 573, 574, 575, 576, 577, 578, 579, 580, 581, 582, 583, 584, 585, 586, 587, 588, 589, 590, 591, 592, 593, 594, 595, 596, 597, 598, 599, 600, 601, 602, 603, 604, 605, 606, 607, 608, 609, 610, 611, 612, 613, 614, 615, 616, 617, 618, 619, 620, 621, 622, 623, 624, 625, 626, 627, 628, 629, 630, 631, 632, 633, 634, 635, 636, 637, 638, 639, 640, 641, 642, 643, 644, 645, 646, 647, 648, 649, 650, 651, 652, 653, 654, 655, 656, 657, 658, 659, 660, 661, 662, 663, 664, 665, 666, 667, 668, 669, 670, 671, 672, 673, 674, 675, 676, 677, 678, 679, 680, 681, 682, 683, 684, 685, 686, 687, 688, 689, 690, 691, 692, 693, 694, 695, 696, 697, 698, 699, 700, 701, 702, 703, 704, 705, 706, 707, 708, 709, 710, 711, 712, 713, 714, 715, 716, 717, 718, 719, 720, 721, 722, 723, 724, 725, 726, 727, 728, 729, 730, 731, 732, 733, 734, 735, 736, 737, 738, 739, 740, 741, 742, 743, 744, 745, 746, 747, 748, 749, 750, 751, 752, 753, 754, 755, 756, 757, 758, 759, 760, 761, 762, 763, 764, 765, 766, 767, 768, 769, 770, 771, 772, 773, 774, 775, 776, 777, 778, 779, 780, 781, 782, 783, 784, 785, 786, 787, 788, 789, 790, 791, 792, 793, 794, 795, 796, 797, 798, 799, 800, 801, 802, 803, 804, 805, 806, 807, 808, 809, 810, 811, 812, 813, 814, 815, 816, 817, 818, 819, 820, 821, 822, 823, 824, 825, 826, 827, 828, 829, 830, 831, 832, 833, 834, 835, 836, 837, 838, 839, 840, 841, 842, 843, 844, 845, 846, 847, 848, 849, 850, 851, 852, 853, 854, 855, 856, 857, 858, 859, 860, 861, 862, 863, 864, 865, 866, 867, 868, 869, 870, 871, 872],
      "AcquisitionTime": ["202143.460000", "202143.920000", "202144.380000", "202144.840000", "202145.300000", "202145.760000", "202146.220000", "202146.680000", "202147.140000", "202147.600000", "202148.060000", "202148.520000", "202148.980000", "202149.440000", "202149.900000", "202150.360000", "202150.820000", "202151.280000", "202151.740000", "202152.200000", "202152.660000", "202153.120000", "202153.580000", "202154.040000", "202154.500000", "202154.960000", "202155.420000", "202155.880000", "202156.340000", "202156.800000", "202157.260000", "202157.720000", "202158.180000", "202158.640000", "202159.100000", "202159.560000", "202200.020000", "202200.480000", "202200.940000", "202201.400000", "202201.860000", "202202.320000", "202202.780000", "202203.240000", "202203.700000", "202204.160000", "202204.620000", "202205.080000", "202205.540000", "202206.000000", "202206.460000", "202206.920000", "202207.380000", "202207.840000", "202208.300000", "202208.760000", "202209.220000", "202209.680000", "202210.140000", "202210.600000", "202211.060000", "202211.520000", "202211.980000", "202212.440000", "202212.900000", "202213.360000", "202213.820000", "202214.280000", "202214.740000", "202215.200000", "202215.660000", "202216.120000", "202216.580000", "202217.040000", "202217.500000", "202217.960000", "202218.420000", "202218.880000", "202219.340000", "202219.800000", "202220.260000", "202220.720000", "202221.180000", "202221.640000", "202222.100000", "202222.560000", "202223.020000", "202223.480000", "202223.940000", "202224.400000", "202224.860000", "202225.320000", "202225.780000", "202226.240000", "202226.700000", "202227.160000", "202227.620000", "202228.080000", "202228.540000", "202229.000000", "202229.460000", "202229.920000", "202230.380000", "202230.840000", "202231.300000", "202231.760000", "202232.220000", "202232.680000", "202233.140000", "202233.600000", "202234.060000", "202234.520000", "202234.980000", "202235.440000", "202235.900000", "202236.360000", "202236.820000", "202237.280000", "202237.740000", "202238.200000", "202238.660000", "202239.120000", "202239.580000", "202240.040000", "202240.500000", "202240.960000", "202241.420000", "202241.880000", "202242.340000", "202242.800000", "202243.260000", "202243.720000", "202244.180000", "202244.640000", "202245.100000", "202245.560000", "202246.020000", "202246.480000", "202246.940000", "202247.400000", "202247.860000", "202248.320000", "202248.780000", "202249.240000", "202249.700000", "202250.160000", "202250.620000", "202251.080000", "202251.540000", "202252.000000", "202252.460000", "202252.920000", "202253.380000", "202253.840000", "202254.300000", "202254.760000", "202255.220000", "202255.680000", "202256.140000", "202256.600000", "202257.060000", "202257.520000", "202257.980000", "202258.440000", "202258.900000", "202259.360000", "202259.820000", "202300.280000", "202300.740000", "202301.200000", "202301.660000", "202302.120000", "202302.580000", "202303.040000", "202303.500000", "202303.960000", "202304.420000", "202304.880000", "202305.340000", "202305.800000", "202306.260000", "202306.720000", "202307.180000", "202307.640000", "202308.100000", "202308.560000", "202309.020000", "202309.480000", "202309.940000", "202310.400000", "202310.860000", "202311.320000", "202311.780000", "202312.240000", "202312.700000", "202313.160000", "202313.620000", "202314.080000", "202314.540000", "202315.000000", "202315.460000", "202315.920000", "202316.380000", "202316.840000", "202317.300000", "202317.760000", "202318.220000", "202318.680000", "202319.140000", "202319.600000", "202320.060000", "202320.520000", "202320.980000", "202321.440000", "202321.900000", "202322.360000", "202322.820000", "202323.280000", "202323.740000", "202324.200000", "202324.660000", "202325.120000", "202325.580000", "202326.040000", "202326.500000", "202326.960000", "202327.420000", "202327.880000", "202328.340000", "202328.800000", "202329.260000", "202329.720000", "202330.180000", "202330.640000", "202331.100000", "202331.560000", "202332.020000", "202332.480000", "202332.940000", "202333.400000", "202333.860000", "202334.320000", "202334.780000", "202335.240000", "202335.700000", "202336.160000", "202336.620000", "202337.080000", "202337.540000", "202338.000000", "202338.460000", "202338.920000", "202339.380000", "202339.840000", "202340.300000", "202340.760000", "202341.220000", "202341.680000", "202342.140000", "202342.600000", "202343.060000", "202343.520000", "202343.980000", "202344.440000", "202344.900000", "202345.360000", "202345.820000", "202346.280000", "202346.740000", "202347.200000", "202347.660000", "202348.120000", "202348.580000", "202349.040000", "202349.500000", "202349.960000", "202350.420000", "202350.880000", "202351.340000", "202351.800000", "202352.260000", "202352.720000", "202353.180000", "202353.640000", "202354.100000", "202354.560000", "202355.020000", "202355.480000", "202355.940000", "202356.400000", "202356.860000", "202357.320000", "202357.780000", "202358.240000", "202358.700000", "202359.160000", "202359.620000", "202400.080000", "202400.540000", "202401.000000", "202401.460000", "202401.920000", "202402.380000", "202402.840000", "202403.300000", "202403.760000", "202404.220000", "202404.680000", "202405.140000", "202405.600000", "202406.060000", "202406.520000", "202406.980000", "202407.440000", "202407.900000", "202408.360000", "202408.820000", "202409.280000", "202409.740000", "202410.200000", "202410.660000", "202411.120000", "202411.580000", "202412.040000", "202412.500000", "202412.960000", "202413.420000", "202413.880000", "202414.340000", "202414.800000", "202415.260000", "202415.720000", "202416.180000", "202416.640000", "202417.100000", "202417.560000", "202418.020000", "202418.480000", "202418.940000", "202419.400000", "202419.860000", "202420.320000", "202420.780000", "202421.240000", "202421.700000", "202422.160000", "202422.620000", "202423.080000", "202423.540000", "202424.000000", "202424.460000", "202424.920000", "202425.380000", "202425.840000", "202426.300000", "202426.760000", "202427.220000", "202427.680000", "202428.140000", "202428.600000", "202429.060000", "202429.520000", "202429.980000", "202430.440000", "202430.900000", "202431.360000", "202431.820000", "202432.280000", "202432.740000", "202433.200000", "202433.660000", "202434.120000", "202434.580000", "202435.040000", "202435.500000", "202435.960000", "202436.420000", "202436.880000", "202437.340000", "202437.800000", "202438.260000", "202438.720000", "202439.180000", "202439.640000", "202440.100000", "202440.560000", "202441.020000", "202441.480000", "202441.940000", "202442.400000", "202442.860000", "202443.320000", "202443.780000", "202444.240000", "202444.700000", "202445.160000", "202445.620000", "202446.080000", "202446.540000", "202447.000000", "202447.460000", "202447.920000", "202448.380000", "202448.840000", "202449.300000", "202449.760000", "202450.220000", "202450.680000", "202451.140000", "202451.600000", "202452.060000", "202452.520000", "202452.980000", "202453.440000", "202453.900000", "202454.360000", "202454.820000", "202455.280000", "202455.740000", "202456.200000", "202456.660000", "202457.120000", "202457.580000", "202458.040000", "202458.500000", "202458.960000", "202459.420000", "202459.880000", "202500.340000", "202500.800000", "202501.260000", "202501.720000", "202502.180000", "202502.640000", "202503.100000", "202503.560000", "202504.020000", "202504.480000", "202504.940000", "202505.400000", "202505.860000", "202506.320000", "202506.780000", "202507.240000", "202507.700000", "202508.160000", "202508.620000", "202509.080000", "202509.540000", "202510.000000", "202510.460000", "202510.920000", "202511.380000", "202511.840000", "202512.300000", "202512.760000", "202513.220000", "202513.680000", "202514.140000", "202514.600000", "202515.060000", "202515.520000", "202515.980000", "202516.440000", "202516.900000", "202517.360000", "202517.820000", "202518.280000", "202518.740000", "202519.200000", "202519.660000", "202520.120000", "202520.580000", "202521.040000", "202521.500000", "202521.960000", "202522.420000", "202522.880000", "202523.340000", "202523.800000", "202524.260000", "202524.720000", "202525.180000", "202525.640000", "202526.100000", "202526.560000", "202527.020000", "202527.480000", "202527.940000", "202528.400000", "202528.860000", "202529.320000", "202529.780000", "202530.240000", "202530.700000", "202531.160000", "202531.620000", "202532.080000", "202532.540000", "202533.000000", "202533.460000", "202533.920000", "202534.380000", "202534.840000", "202535.300000", "202535.760000", "202536.220000", "202536.680000", "202537.140000", "202537.600000", "202538.060000", "202538.520000", "202538.980000", "202539.440000", "202539.900000", "202540.360000", "202540.820000", "202541.280000", "202541.740000", "202542.200000", "202542.660000", "202543.120000", "202543.580000", "202544.040000", "202544.500000", "202544.960000", "202545.420000", "202545.880000", "202546.340000", "202546.800000", "202547.260000", "202547.720000", "202548.180000", "202548.640000", "202549.100000", "202549.560000", "202550.020000", "202550.480000", "202550.940000", "202551.400000", "202551.860000", "202552.320000", "202552.780000", "202553.240000", "202553.700000", "202554.160000", "202554.620000", "202555.080000", "202555.540000", "202556.000000", "202556.460000", "202556.920000", "202557.380000", "202557.840000", "202558.300000", "202558.760000", "202559.220000", "202559.680000", "202600.140000", "202600.600000", "202601.060000", "202601.520000", "202601.980000", "202602.440000", "202602.900000", "202603.360000", "202603.820000", "202604.280000", "202604.740000", "202605.200000", "202605.660000", "202606.120000", "202606.580000", "202607.040000", "202607.500000", "202607.960000", "202608.420000", "202608.880000", "202609.340000", "202609.800000", "202610.260000", "202610.720000", "202611.180000", "202611.640000", "202612.100000", "202612.560000", "202613.020000", "202613.480000", "202613.940000", "202614.400000", "202614.860000", "202615.320000", "202615.780000", "202616.240000", "202616.700000", "202617.160000", "202617.620000", "202618.080000", "202618.540000", "202619.000000", "202619.460000", "202619.920000", "202620.380000", "202620.840000", "202621.300000", "202621.760000", "202622.220000", "202622.680000", "202623.140000", "202623.600000", "202624.060000", "202624.520000", "202624.980000", "202625.440000", "202625.900000", "202626.360000", "202626.820000", "202627.280000", "202627.740000", "202628.200000", "202628.660000", "202629.120000", "202629.580000", "202630.040000", "202630.500000", "202630.960000", "202631.420000", "202631.880000", "202632.340000", "202632.800000", "202633.260000", "202633.720000", "202634.180000", "202634.640000", "202635.100000", "202635.560000", "202636.020000", "202636.480000", "202636.940000", "202637.400000", "202637.860000", "202638.320000", "202638.780000", "202639.240000", "202639.700000", "202640.160000", "202640.620000", "202641.080000", "202641.540000", "202642.000000", "202642.460000", "202642.920000", "202643.380000", "202643.840000", "202644.300000", "202644.760000", "202645.220000", "202645.680000", "202646.140000", "202646.600000", "202647.060000", "202647.520000", "202647.980000", "202648.440000", "202648.900000", "202649.360000", "202649.820000", "202650.280000", "202650.740000", "202651.200000", "202651.660000", "202652.120000", "202652.580000", "202653.040000", "202653.500000", "202653.960000", "202654.420000", "202654.880000", "202655.340000", "202655.800000", "202656.260000", "202656.720000", "202657.180000", "202657.640000", "202658.100000", "202658.560000", "202659.020000", "202659.480000", "202659.940000", "202700.400000", "202700.860000", "202701.320000", "202701.780000", "202702.240000", "202702.700000", "202703.160000", "202703.620000", "202704.080000", "202704.540000", "202705.000000", "202705.460000", "202705.920000", "202706.380000", "202706.840000", "202707.300000", "202707.760000", "202708.220000", "202708.680000", "202709.140000", "202709.600000", "202710.060000", "202710.520000", "202710.980000", "202711.440000", "202711.900000", "202712.360000", "202712.820000", "202713.280000", "202713.740000", "202714.200000", "202714.660000", "202715.120000", "202715.580000", "202716.040000", "202716.500000", "202716.960000", "202717.420000", "202717.880000", "202718.340000", "202718.800000", "202719.260000", "202719.720000", "202720.180000", "202720.640000", "202721.100000", "202721.560000", "202722.020000", "202722.480000", "202722.940000", "202723.400000", "202723.860000", "202724.320000", "202724.780000", "202725.240000", "202725.700000", "202726.160000", "202726.620000", "202727.080000", "202727.540000", "202728.000000", "202728.460000", "202728.920000", "202729.380000", "202729.840000", "202730.300000", "202730.760000", "202731.220000", "202731.680000", "202732.140000", "202732.600000", "202733.060000", "202733.520000", "202733.980000", "202734.440000", "202734.900000", "202735.360000", "202735.820000", "202736.280000", "202736.740000", "202737.200000", "202737.660000", "202738.120000", "202738.580000", "202739.040000", "202739.500000", "202739.960000", "202740.420000", "202740.880000", "202741.340000", "202741.800000", "202742.260000", "202742.720000", "202743.180000", "202743.640000", "202744.100000", "202744.560000", "202745.020000", "202745.480000", "202745.940000", "202746.400000", "202746.860000", "202747.320000", "202747.780000", "202748.240000", "202748.700000", "202749.160000", "202749.620000", "202750.080000", "202750.540000", "202751.000000", "202751.460000", "202751.920000", "202752.380000", "202752.840000", "202753.300000", "202753.760000", "202754.220000", "202754.680000", "202755.140000", "202755.600000", "202756.060000", "202756.520000", "202756.980000", "202757.440000", "202757.900000", "202758.360000", "202758.820000", "202759.280000", "202759.740000", "202800.200000", "202800.660000", "202801.120000", "202801.580000", "202802.040000", "202802.500000", "202802.960000", "202803.420000", "202803.880000", "202804.340000", "202804.800000", "202805.260000", "202805.720000", "202806.180000", "202806.640000", "202807.100000", "202807.560000", "202808.020000", "202808.480000", "202808.940000", "202809.400000", "202809.860000", "202810.320000", "202810.780000", "202811.240000", "202811.700000", "202812.160000", "202812.620000", "202813.080000", "202813.540000", "202814.000000", "202814.460000", "202814.920000", "202815.380000", "202815.840000", "202816.300000", "202816.760000", "202817.220000", "202817.680000", "202818.140000", "202818.600000", "202819.060000", "202819.520000", "202819.980000", "202820.440000", "202820.900000", "202821.360000", "202821.820000", "202822.280000", "202822.740000", "202823.200000", "202823.660000", "202824.120000"],
