{
  "AcquisitionMatrixPE": 82,
  "AcquisitionNumber": 1,
  "AcquisitionTime": "20:35:48.972500",
  "BandwidthPerPixelPhaseEncode": 24.888,
  "BaseResolution": 82,
  "BodyPartExamined": "BRAIN",
  "ConsistencyInfo": "N4_VE11E_LATEST_20181129",
  "ConversionSoftware": "dcm2niix",
  "ConversionSoftwareVersion": "v1.0.20201102",
  "DerivedVendorReportedEchoSpacing": 0.00049,
  "DeviceSerialNumber": "66112",
  "DwellTime": 2e-06,
  "EchoTime": 0.0272,
  "EchoTrainLength": 82,
  "EffectiveEchoSpacing": 0.00049,
  "FlipAngle": 44,
  "ImageComments": "Unaliased MB8/PE3",
  "ImageOrientationPatientDICOM": [0.990047, 0.0880212, 0.109817, -0.0874885, 0.996119, -0.00966923],
  "ImageType": [
    "ORIGINAL",
    "PRIMARY",
    "M",
    "MB",
    "ND",
    "NORM",
    "MOSAIC"
],
  "ImagingFrequency": 123.259,
  "InPlanePhaseEncodingDirectionDICOM": "COL",
  "InstitutionAddress": "Maynard 3,Hanover,NH,US,03755",
  "InstitutionName": "Dartmouth College - PBS",
  "InstitutionalDepartmentName": "Department",
  "MRAcquisitionType": "2D",
  "MagneticFieldStrength": 3,
  "Manufacturer": "Siemens",
  "ManufacturersModelName": "Prisma",
  "Modality": "MR",
  "MultibandAccelerationFactor": 8,
  "PartialFourier": 1,
  "PatientPosition": "HFS",
  "PercentPhaseFOV": 100,
  "PercentSampling": 100,
  "PhaseEncodingDirection": "j-",
  "PhaseEncodingSteps": 82,
  "PhaseResolution": 1,
  "PixelBandwidth": 3050,
  "ProcedureStepDescription": "Wager_Wager^1076_spacetop",
  "ProtocolName": "func_run-05_task-social_acq-ap-mb8",
  "PulseSequenceDetails": "%CustomerSeq%\\cmrr_mbep2d_bold",
  "ReceiveCoilActiveElements": "HEA;HEP",
  "ReceiveCoilName": "Head_32",
  "ReconMatrixPE": 82,
  "RepetitionTime": 0.46,
  "SAR": 0.0793046,
  "ScanOptions": "FS",
  "ScanningSequence": "EP",
  "SequenceName": "epfid2d1_82",
  "SequenceVariant": "SK\\SS",
  "SeriesDescription": "func_run-05_task-social_acq-ap-mb8",
  "SeriesNumber": 16,
  "ShimSetting": [4230, -7796, -7292, 371, -114, -169, 61, 36],
  "SliceThickness": 2.7,
  "SliceTiming": [0, 0.2525, 0.0625, 0.315, 0.125, 0.3775, 0.19, 0, 0.2525, 0.0625, 0.315, 0.125, 0.3775, 0.19, 0, 0.2525, 0.0625, 0.315, 0.125, 0.3775, 0.19, 0, 0.2525, 0.0625, 0.315, 0.125, 0.3775, 0.19, 0, 0.2525, 0.0625, 0.315, 0.125, 0.3775, 0.19, 0, 0.2525, 0.0625, 0.315, 0.125, 0.3775, 0.19, 0, 0.2525, 0.0625, 0.315, 0.125, 0.3775, 0.19, 0, 0.2525, 0.0625, 0.315, 0.125, 0.3775, 0.19],
  "SoftwareVersions": "syngo MR E11",
  "SpacingBetweenSlices": 2.7,
  "StationName": "AWP66112",
  "TaskName": "social",
  "TotalReadoutTime": 0.03969,
  "TxRefAmp": 236.144,
  "WipMemBlock": "5e9aa839-d6d4-4f35-ac06-a801b0dd6728||Sequence: R016 ve11e/master r/434b28f1; Aug  7 2019 18:53:46 by eja",
  "dcmmeta_affine": [
    [-2.6562230587005615, -0.23472528159618378, 0.29765287041664124, 115.26358032226562],
    [-0.2361544519662857, 2.672513484954834, 9.378582035424188e-05, -92.82630157470703],
    [0.29463082551956177, 0.02594182640314102, 2.6835429668426514, -102.44097900390625],
    [0.0, 0.0, 0.0, 1.0]
],
  "dcmmeta_reorient_transform": [
    [0.0, -1.0, 0.0, 81.0],
    [1.0, 0.0, 0.0, 0.0],
    [0.0, 0.0, 1.0, 0.0],
    [0.0, 0.0, 0.0, 1.0]
],
  "dcmmeta_shape": [82, 82, 56, 872],
  "dcmmeta_slice_dim": 2,
  "dcmmeta_version": 0.6,
  "global": {
    "const": {
      "AccessionNumber": "A004530",
      "AcquisitionMatrix": [82, 0, 0, 82],
      "AngioFlag": "N",
      "BitsAllocated": 16,
      "BitsStored": 16,
      "BodyPartExamined": "BRAIN",
      "Columns": 656,
      "EchoNumbers": 1,
      "EchoTime": 27.2,
      "EchoTrainLength": 82,
      "FlipAngle": 44.0,
      "HighBit": 15,
      "ImageOrientationPatient": [0.99004671910518, 0.08802120543156, 0.10981694488302, -0.0874885128249, 0.99611860046273, -0.0096692262289],
      "ImagePositionPatient": [-791.2206659029, -958.43495008835, -177.45343506858],
      "ImageType": [
        "ORIGINAL",
        "PRIMARY",
        "M",
        "MB",
        "ND",
        "NORM",
        "MOSAIC"
],
      "ImagedNucleus": "1H",
      "ImagingFrequency": 123.25911,
      "InPlanePhaseEncodingDirection": "COL",
      "MRAcquisitionType": "2D",
      "MagneticFieldStrength": 3.0,
      "Manufacturer": "SIEMENS",
      "ManufacturerModelName": "Prisma",
      "Modality": "MR",
      "NumberOfAverages": 1.0,
      "NumberOfPhaseEncodingSteps": 82,
      "PercentPhaseFieldOfView": 100.0,
      "PercentSampling": 100.0,
      "PerformedProcedureStepStartTime": "195301.974000",
      "PhotometricInterpretation": "MONOCHROME2",
      "PixelBandwidth": 3050.0,
      "PixelRepresentation": 0,
      "PixelSpacing": [2.6829268932343, 2.6829268932343],
      "ProtocolName": "func_run-05_task-social_acq-ap-mb8",
      "RepetitionTime": 460.0,
      "Rows": 656,
      "SAR": 0.07930458166454,
      "SamplesPerPixel": 1,
      "ScanOptions": "FS",
      "ScanningSequence": "EP",
      "SequenceName": "epfid2d1_82",
      "SequenceVariant": [
        "SK",
        "SS"
],
      "SeriesDescription": "func_run-05_task-social_acq-ap-mb8",
      "SeriesNumber": 16,
      "SeriesTime": "203604.820000",
      "SliceLocation": -89.112939447093,
      "SliceThickness": 2.7000000476837,
      "SmallestImagePixelValue": 0,
      "SoftwareVersions": "syngo MR E11",
      "SpacingBetweenSlices": 2.7000000968763,
      "SpecificCharacterSet": "ISO_IR 100",
      "StudyID": "3",
      "StudyTime": "195301.892000",
      "TransmitCoilName": "Body",
      "VariableFlipAngleFlag": "N",
      "WindowCenterWidthExplanation": "Algo1"
    },
    "slices": {}
  },
  "time": {
    "samples": {
      "AcquisitionNumber": [1, 2, 3, 4, 5, 6, 7, 8, 9, 10, 11, 12, 13, 14, 15, 16, 17, 18, 19, 20, 21, 22, 23, 24, 25, 26, 27, 28, 29, 30, 31, 32, 33, 34, 35, 36, 37, 38, 39, 40, 41, 42, 43, 44, 45, 46, 47, 48, 49, 50, 51, 52, 53, 54, 55, 56, 57, 58, 59, 60, 61, 62, 63, 64, 65, 66, 67, 68, 69, 70, 71, 72, 73, 74, 75, 76, 77, 78, 79, 80, 81, 82, 83, 84, 85, 86, 87, 88, 89, 90, 91, 92, 93, 94, 95, 96, 97, 98, 99, 100, 101, 102, 103, 104, 105, 106, 107, 108, 109, 110, 111, 112, 113, 114, 115, 116, 117, 118, 119, 120, 121, 122, 123, 124, 125, 126, 127, 128, 129, 130, 131, 132, 133, 134, 135, 136, 137, 138, 139, 140, 141, 142, 143, 144, 145, 146, 147, 148, 149, 150, 151, 152, 153, 154, 155, 156, 157, 158, 159, 160, 161, 162, 163, 164, 165, 166, 167, 168, 169, 170, 171, 172, 173, 174, 175, 176, 177, 178, 179, 180, 181, 182, 183, 184, 185, 186, 187, 188, 189, 190, 191, 192, 193, 194, 195, 196, 197, 198, 199, 200, 201, 202, 203, 204, 205, 206, 207, 208, 209, 210, 211, 212, 213, 214, 215, 216, 217, 218, 219, 220, 221, 222, 223, 224, 225, 226, 227, 228, 229, 230, 231, 232, 233, 234, 235, 236, 237, 238, 239, 240, 241, 242, 243, 244, 245, 246, 247, 248, 249, 250, 251, 252, 253, 254, 255, 256, 257, 258, 259, 260, 261, 262, 263, 264, 265, 266, 267, 268, 269, 270, 271, 272, 273, 274, 275, 276, 277, 278, 279, 280, 281, 282, 283, 284, 285, 286, 287, 288, 289, 290, 291, 292, 293, 294, 295, 296, 297, 298, 299, 300, 301, 302, 303, 304, 305, 306, 307, 308, 309, 310, 311, 312, 313, 314, 315, 316, 317, 318, 319, 320, 321, 322, 323, 324, 325, 326, 327, 328, 329, 330, 331, 332, 333, 334, 335, 336, 337, 338, 339, 340, 341, 342, 343, 344, 345, 346, 347, 348, 349, 350, 351, 352, 353, 354, 355, 356, 357, 358, 359, 360, 361, 362, 363, 364, 365, 366, 367, 368, 369, 370, 371, 372, 373, 374, 375, 376, 377, 378, 379, 380, 381, 382, 383, 384, 385, 386, 387, 388, 389, 390, 391, 392, 393, 394, 395, 396, 397, 398, 399, 400, 401, 402, 403, 404, 405, 406, 407, 408, 409, 410, 411, 412, 413, 414, 415, 416, 417, 418, 419, 420, 421, 422, 423, 424, 425, 426, 427, 428, 429, 430, 431, 432, 433, 434, 435, 436, 437, 438, 439, 440, 441, 442, 443, 444, 445, 446, 447, 448, 449, 450, 451, 452, 453, 454, 455, 456, 457, 458, 459, 460, 461, 462, 463, 464, 465, 466, 467, 468, 469, 470, 471, 472, 473, 474, 475, 476, 477, 478, 479, 480, 481, 482, 483, 484, 485, 486, 487, 488, 489, 490, 491, 492, 493, 494, 495, 496, 497, 498, 499, 500, 501, 502, 503, 504, 505, 506, 507, 508, 509, 510, 511, 512, 513, 514, 515, 516, 517, 518, 519, 520, 521, 522, 523, 524, 525, 526, 527, 528, 529, 530, 531, 532, 533, 534, 535, 536, 537, 538, 539, 540, 541, 542, 543, 544, 545, 546, 547, 548, 549, 550, 551, 552, 553, 554, 555, 556, 557, 558, 559, 560, 561, 562, 563, 564, 565, 566, 567, 568, 569, 570, 571, 572, 573, 574, 575, 576, 577, 578, 579, 580, 581, 582, 583, 584, 585, 586, 587, 588, 589, 590, 591, 592, 593, 594, 595, 596, 597, 598, 599, 600, 601, 602, 603, 604, 605, 606, 607, 608, 609, 610, 611, 612, 613, 614, 615, 616, 617, 618, 619, 620, 621, 622, 623, 624, 625, 626, 627, 628, 629, 630, 631, 632, 633, 634, 635, 636, 637, 638, 639, 640, 641, 642, 643, 644, 645, 646, 647, 648, 649, 650, 651, 652, 653, 654, 655, 656, 657, 658, 659, 660, 661, 662, 663, 664, 665, 666, 667, 668, 669, 670, 671, 672, 673, 674, 675, 676, 677, 678, 679, 680, 681, 682, 683, 684, 685, 686, 687, 688, 689, 690, 691, 692, 693, 694, 695, 696, 697, 698, 699, 700, 701, 702, 703, 704, 705, 706, 707, 708, 709, 710, 711, 712, 713, 714, 715, 716, 717, 718, 719, 720, 721, 722, 723, 724, 725, 726, 727, 728, 729, 730, 731, 732, 733, 734, 735, 736, 737, 738, 739, 740, 741, 742, 743, 744, 745, 746, 747, 748, 749, 750, 751, 752, 753, 754, 755, 756, 757, 758, 759, 760, 761, 762, 763, 764, 765, 766, 767, 768, 769, 770, 771, 772, 773, 774, 775, 776, 777, 778, 779, 780, 781, 782, 783, 784, 785, 786, 787, 788, 789, 790, 791, 792, 793, 794, 795, 796, 797, 798, 799, 800, 801, 802, 803, 804, 805, 806, 807, 808, 809, 810, 811, 812, 813, 814, 815, 816, 817, 818, 819, 820, 821, 822, 823, 824, 825, 826, 827, 828, 829, 830, 831, 832, 833, 834, 835, 836, 837, 838, 839, 840, 841, 842, 843, 844, 845, 846, 847, 848, 849, 850, 851, 852, 853, 854, 855, 856, 857, 858, 859, 860, 861, 862, 863, 864, 865, 866, 867, 868, 869, 870, 871, 872],
      "AcquisitionTime": ["203548.972500", "203549.432500", "203549.892500", "203550.352500", "203550.812500", "203551.272500", "203551.732500", "203552.192500", "203552.652500", "203553.112500", "203553.572500", "203554.032500", "203554.492500", "203554.952500", "203555.412500", "203555.872500", "203556.332500", "203556.792500", "203557.252500", "203557.712500", "203558.172500", "203558.632500", "203559.092500", "203559.552500", "203600.012500", "203600.472500", "203600.932500", "203601.392500", "203601.852500", "203602.312500", "203602.772500", "203603.232500", "203603.692500", "203604.152500", "203604.612500", "203605.072500", "203605.532500", "203605.992500", "203606.452500", "203606.912500", "203607.372500", "203607.832500", "203608.292500", "203608.752500", "203609.212500", "203609.672500", "203610.132500", "203610.592500", "203611.052500", "203611.512500", "203611.972500", "203612.432500", "203612.892500", "203613.352500", "203613.812500", "203614.272500", "203614.732500", "203615.192500", "203615.652500", "203616.112500", "203616.572500", "203617.032500", "203617.492500", "203617.952500", "203618.412500", "203618.872500", "203619.332500", "203619.792500", "203620.252500", "203620.712500", "203621.172500", "203621.632500", "203622.092500", "203622.552500", "203623.012500", "203623.472500", "203623.932500", "203624.392500", "203624.852500", "203625.312500", "203625.772500", "203626.232500", "203626.692500", "203627.152500", "203627.612500", "203628.072500", "203628.532500", "203628.992500", "203629.452500", "203629.912500", "203630.372500", "203630.832500", "203631.292500", "203631.752500", "203632.212500", "203632.672500", "203633.132500", "203633.592500", "203634.052500", "203634.512500", "203634.972500", "203635.432500", "203635.892500", "203636.352500", "203636.812500", "203637.272500", "203637.732500", "203638.192500", "203638.652500", "203639.112500", "203639.572500", "203640.032500", "203640.492500", "203640.952500", "203641.412500", "203641.872500", "203642.332500", "203642.792500", "203643.252500", "203643.712500", "203644.172500", "203644.632500", "203645.092500", "203645.552500", "203646.012500", "203646.472500", "203646.932500", "203647.392500", "203647.852500", "203648.312500", "203648.772500", "203649.232500", "203649.692500", "203650.152500", "203650.612500", "203651.072500", "203651.532500", "203651.992500", "203652.452500", "203652.912500", "203653.372500", "203653.832500", "203654.292500", "203654.752500", "203655.212500", "203655.672500", "203656.132500", "203656.592500", "203657.052500", "203657.512500", "203657.972500", "203658.432500", "203658.892500", "203659.352500", "203659.812500", "203700.272500", "203700.732500", "203701.192500", "203701.652500", "203702.112500", "203702.572500", "203703.032500", "203703.492500", "203703.952500", "203704.412500", "203704.872500", "203705.332500", "203705.792500", "203706.252500", "203706.712500", "203707.172500", "203707.632500", "203708.092500", "203708.552500", "203709.012500", "203709.472500", "203709.932500", "203710.392500", "203710.852500", "203711.312500", "203711.772500", "203712.232500", "203712.692500", "203713.152500", "203713.612500", "203714.072500", "203714.532500", "203714.992500", "203715.452500", "203715.912500", "203716.372500", "203716.832500", "203717.292500", "203717.752500", "203718.212500", "203718.672500", "203719.132500", "203719.592500", "203720.052500", "203720.512500", "203720.972500", "203721.432500", "203721.892500", "203722.352500", "203722.812500", "203723.272500", "203723.732500", "203724.192500", "203724.652500", "203725.112500", "203725.572500", "203726.032500", "203726.492500", "203726.952500", "203727.412500", "203727.872500", "203728.332500", "203728.792500", "203729.252500", "203729.712500", "203730.172500", "203730.632500", "203731.092500", "203731.552500", "203732.012500", "203732.472500", "203732.932500", "203733.392500", "203733.852500", "203734.312500", "203734.772500", "203735.232500", "203735.692500", "203736.152500", "203736.612500", "203737.072500", "203737.532500", "203737.992500", "203738.452500", "203738.912500", "203739.372500", "203739.832500", "203740.292500", "203740.752500", "203741.212500", "203741.672500", "203742.132500", "203742.592500", "203743.052500", "203743.512500", "203743.972500", "203744.432500", "203744.892500", "203745.352500", "203745.812500", "203746.272500", "203746.732500", "203747.192500", "203747.652500", "203748.112500", "203748.572500", "203749.032500", "203749.492500", "203749.952500", "203750.412500", "203750.872500", "203751.332500", "203751.792500", "203752.252500", "203752.712500", "203753.172500", "203753.632500", "203754.092500", "203754.552500", "203755.012500", "203755.472500", "203755.932500", "203756.392500", "203756.852500", "203757.312500", "203757.772500", "203758.232500", "203758.692500", "203759.152500", "203759.612500", "203800.072500", "203800.532500", "203800.992500", "203801.452500", "203801.912500", "203802.372500", "203802.832500", "203803.292500", "203803.752500", "203804.212500", "203804.672500", "203805.132500", "203805.592500", "203806.052500", "203806.512500", "203806.972500", "203807.432500", "203807.892500", "203808.352500", "203808.812500", "203809.272500", "203809.732500", "203810.192500", "203810.652500", "203811.112500", "203811.572500", "203812.032500", "203812.492500", "203812.952500", "203813.412500", "203813.872500", "203814.332500", "203814.792500", "203815.252500", "203815.712500", "203816.172500", "203816.632500", "203817.092500", "203817.552500", "203818.012500", "203818.472500", "203818.932500", "203819.392500", "203819.852500", "203820.312500", "203820.772500", "203821.232500", "203821.692500", "203822.152500", "203822.612500", "203823.072500", "203823.532500", "203823.992500", "203824.452500", "203824.912500", "203825.372500", "203825.832500", "203826.292500", "203826.752500", "203827.212500", "203827.672500", "203828.132500", "203828.592500", "203829.052500", "203829.512500", "203829.972500", "203830.432500", "203830.892500", "203831.352500", "203831.812500", "203832.272500", "203832.732500", "203833.192500", "203833.652500", "203834.112500", "203834.572500", "203835.032500", "203835.492500", "203835.952500", "203836.412500", "203836.872500", "203837.332500", "203837.792500", "203838.252500", "203838.712500", "203839.172500", "203839.632500", "203840.092500", "203840.552500", "203841.012500", "203841.472500", "203841.932500", "203842.392500", "203842.852500", "203843.312500", "203843.772500", "203844.232500", "203844.692500", "203845.152500", "203845.612500", "203846.072500", "203846.532500", "203846.992500", "203847.452500", "203847.912500", "203848.372500", "203848.832500", "203849.292500", "203849.752500", "203850.212500", "203850.672500", "203851.132500", "203851.592500", "203852.052500", "203852.512500", "203852.972500", "203853.432500", "203853.892500", "203854.352500", "203854.812500", "203855.272500", "203855.732500", "203856.192500", "203856.652500", "203857.112500", "203857.572500", "203858.032500", "203858.492500", "203858.952500", "203859.412500", "203859.872500", "203900.332500", "203900.792500", "203901.252500", "203901.712500", "203902.172500", "203902.632500", "203903.092500", "203903.552500", "203904.012500", "203904.472500", "203904.932500", "203905.392500", "203905.852500", "203906.312500", "203906.772500", "203907.232500", "203907.692500", "203908.152500", "203908.612500", "203909.072500", "203909.532500", "203909.992500", "203910.452500", "203910.912500", "203911.372500", "203911.832500", "203912.292500", "203912.752500", "203913.212500", "203913.672500", "203914.132500", "203914.592500", "203915.052500", "203915.512500", "203915.972500", "203916.432500", "203916.892500", "203917.352500", "203917.812500", "203918.272500", "203918.732500", "203919.192500", "203919.652500", "203920.112500", "203920.572500", "203921.032500", "203921.492500", "203921.952500", "203922.412500", "203922.872500", "203923.332500", "203923.792500", "203924.252500", "203924.712500", "203925.172500", "203925.632500", "203926.092500", "203926.552500", "203927.012500", "203927.472500", "203927.932500", "203928.392500", "203928.852500", "203929.312500", "203929.772500", "203930.232500", "203930.692500", "203931.152500", "203931.612500", "203932.072500", "203932.532500", "203932.992500", "203933.452500", "203933.912500", "203934.372500", "203934.832500", "203935.292500", "203935.752500", "203936.212500", "203936.672500", "203937.132500", "203937.592500", "203938.052500", "203938.512500", "203938.972500", "203939.432500", "203939.892500", "203940.352500", "203940.812500", "203941.272500", "203941.732500", "203942.192500", "203942.652500", "203943.112500", "203943.572500", "203944.032500", "203944.492500", "203944.952500", "203945.412500", "203945.872500", "203946.332500", "203946.792500", "203947.252500", "203947.712500", "203948.172500", "203948.632500", "203949.092500", "203949.552500", "203950.012500", "203950.472500", "203950.932500", "203951.392500", "203951.852500", "203952.312500", "203952.772500", "203953.232500", "203953.692500", "203954.152500", "203954.612500", "203955.072500", "203955.532500", "203955.992500", "203956.452500", "203956.912500", "203957.372500", "203957.832500", "203958.292500", "203958.752500", "203959.212500", "203959.672500", "204000.132500", "204000.592500", "204001.052500", "204001.512500", "204001.972500", "204002.432500", "204002.892500", "204003.352500", "204003.812500", "204004.272500", "204004.732500", "204005.192500", "204005.652500", "204006.112500", "204006.572500", "204007.032500", "204007.492500", "204007.952500", "204008.412500", "204008.872500", "204009.332500", "204009.792500", "204010.252500", "204010.712500", "204011.172500", "204011.632500", "204012.092500", "204012.552500", "204013.012500", "204013.472500", "204013.932500", "204014.392500", "204014.852500", "204015.312500", "204015.772500", "204016.232500", "204016.692500", "204017.152500", "204017.612500", "204018.072500", "204018.532500", "204018.992500", "204019.452500", "204019.912500", "204020.372500", "204020.832500", "204021.292500", "204021.752500", "204022.212500", "204022.672500", "204023.132500", "204023.592500", "204024.052500", "204024.512500", "204024.972500", "204025.432500", "204025.892500", "204026.352500", "204026.812500", "204027.272500", "204027.732500", "204028.192500", "204028.652500", "204029.112500", "204029.572500", "204030.032500", "204030.492500", "204030.952500", "204031.412500", "204031.872500", "204032.332500", "204032.792500", "204033.252500", "204033.712500", "204034.172500", "204034.632500", "204035.092500", "204035.552500", "204036.012500", "204036.472500", "204036.932500", "204037.392500", "204037.852500", "204038.312500", "204038.772500", "204039.232500", "204039.692500", "204040.152500", "204040.612500", "204041.072500", "204041.532500", "204041.992500", "204042.452500", "204042.912500", "204043.372500", "204043.832500", "204044.292500", "204044.752500", "204045.212500", "204045.672500", "204046.132500", "204046.592500", "204047.052500", "204047.512500", "204047.972500", "204048.432500", "204048.892500", "204049.352500", "204049.812500", "204050.272500", "204050.732500", "204051.192500", "204051.652500", "204052.112500", "204052.572500", "204053.032500", "204053.492500", "204053.952500", "204054.412500", "204054.872500", "204055.332500", "204055.792500", "204056.252500", "204056.712500", "204057.172500", "204057.632500", "204058.092500", "204058.552500", "204059.012500", "204059.472500", "204059.932500", "204100.392500", "204100.852500", "204101.312500", "204101.772500", "204102.232500", "204102.692500", "204103.152500", "204103.612500", "204104.072500", "204104.532500", "204104.992500", "204105.452500", "204105.912500", "204106.372500", "204106.832500", "204107.292500", "204107.752500", "204108.212500", "204108.672500", "204109.132500", "204109.592500", "204110.052500", "204110.512500", "204110.972500", "204111.432500", "204111.892500", "204112.352500", "204112.812500", "204113.272500", "204113.732500", "204114.192500", "204114.652500", "204115.112500", "204115.572500", "204116.032500", "204116.492500", "204116.952500", "204117.412500", "204117.872500", "204118.332500", "204118.792500", "204119.252500", "204119.712500", "204120.172500", "204120.632500", "204121.092500", "204121.552500", "204122.012500", "204122.472500", "204122.932500", "204123.392500", "204123.852500", "204124.312500", "204124.772500", "204125.232500", "204125.692500", "204126.152500", "204126.612500", "204127.072500", "204127.532500", "204127.992500", "204128.452500", "204128.912500", "204129.372500", "204129.832500", "204130.292500", "204130.752500", "204131.212500", "204131.672500", "204132.132500", "204132.592500", "204133.052500", "204133.512500", "204133.972500", "204134.432500", "204134.892500", "204135.352500", "204135.812500", "204136.272500", "204136.732500", "204137.192500", "204137.652500", "204138.112500", "204138.572500", "204139.032500", "204139.492500", "204139.952500", "204140.412500", "204140.872500", "204141.332500", "204141.792500", "204142.252500", "204142.712500", "204143.172500", "204143.632500", "204144.092500", "204144.552500", "204145.012500", "204145.472500", "204145.932500", "204146.392500", "204146.852500", "204147.312500", "204147.772500", "204148.232500", "204148.692500", "204149.152500", "204149.612500", "204150.072500", "204150.532500", "204150.992500", "204151.452500", "204151.912500", "204152.372500", "204152.832500", "204153.292500", "204153.752500", "204154.212500", "204154.672500", "204155.132500", "204155.592500", "204156.052500", "204156.512500", "204156.972500", "204157.432500", "204157.892500", "204158.352500", "204158.812500", "204159.272500", "204159.732500", "204200.192500", "204200.652500", "204201.112500", "204201.572500", "204202.032500", "204202.492500", "204202.952500", "204203.412500", "204203.872500", "204204.332500", "204204.792500", "204205.252500", "204205.712500", "204206.172500", "204206.632500", "204207.092500", "204207.552500", "204208.012500", "204208.472500", "204208.932500", "204209.392500", "204209.852500", "204210.312500", "204210.772500", "204211.232500", "204211.692500", "204212.152500", "204212.612500", "204213.072500", "204213.532500", "204213.992500", "204214.452500", "204214.912500", "204215.372500", "204215.832500", "204216.292500", "204216.752500", "204217.212500", "204217.672500", "204218.132500", "204218.592500", "204219.052500", "204219.512500", "204219.972500", "204220.432500", "204220.892500", "204221.352500", "204221.812500", "204222.272500", "204222.732500", "204223.192500", "204223.652500", "204224.112500", "204224.572500", "204225.032500", "204225.492500", "204225.952500", "204226.412500", "204226.872500", "204227.332500", "204227.792500", "204228.252500", "204228.712500", "204229.172500", "204229.632500"],
