{
  "AcquisitionMatrixPE": 82,
  "AcquisitionNumber": 1,
  "AcquisitionTime": "17:50:42.740000",
  "BandwidthPerPixelPhaseEncode": 24.888,
  "BaseResolution": 82,
  "BodyPartExamined": "BRAIN",
  "ConsistencyInfo": "N4_VE11E_LATEST_20181129",
  "ConversionSoftware": "dcm2niix",
  "ConversionSoftwareVersion": "v1.0.20201102",
  "DerivedVendorReportedEchoSpacing": 0.00049,
  "DeviceSerialNumber": "66112",
  "DwellTime": 2e-06,
  "EchoTime": 0.0272,
  "EchoTrainLength": 82,
  "EffectiveEchoSpacing": 0.00049,
  "FlipAngle": 44,
  "ImageComments": "Unaliased MB8/PE3",
  "ImageOrientationPatientDICOM": [0.999676, 0.0220728, -0.0126497, -0.0165768, 0.94233, 0.334275],
  "ImageType": [
    "ORIGINAL",
    "PRIMARY",
    "M",
    "MB",
    "ND",
    "NORM",
    "MOSAIC"
],
  "ImagingFrequency": 123.252,
  "InPlanePhaseEncodingDirectionDICOM": "COL",
  "InstitutionAddress": "Maynard 3,Hanover,NH,US,03755",
  "InstitutionName": "Dartmouth College - PBS",
  "InstitutionalDepartmentName": "Department",
  "MRAcquisitionType": "2D",
  "MagneticFieldStrength": 3,
  "Manufacturer": "Siemens",
  "ManufacturersModelName": "Prisma",
  "Modality": "MR",
  "MultibandAccelerationFactor": 8,
  "PartialFourier": 1,
  "PatientPosition": "HFS",
  "PercentPhaseFOV": 100,
  "PercentSampling": 100,
  "PhaseEncodingDirection": "j-",
  "PhaseEncodingSteps": 82,
  "PhaseResolution": 1,
  "PixelBandwidth": 3050,
  "ProcedureStepDescription": "Wager_Wager^1076_spacetop",
  "ProtocolName": "func_run-04_task-social_acq-ap-mb8",
  "PulseSequenceDetails": "%CustomerSeq%\\cmrr_mbep2d_bold",
  "ReceiveCoilActiveElements": "HEA;HEP",
  "ReceiveCoilName": "Head_32",
  "ReconMatrixPE": 82,
  "RepetitionTime": 0.46,
  "SAR": 0.107006,
  "ScanOptions": "FS",
  "ScanningSequence": "EP",
  "SequenceName": "epfid2d1_82",
  "SequenceVariant": "SK\\SS",
  "SeriesDescription": "func_run-04_task-social_acq-ap-mb8",
  "SeriesNumber": 18,
  "ShimSetting": [4147, -7826, -7224, 605, -42, -208, 62, 66],
  "SliceThickness": 2.7,
  "SliceTiming": [0, 0.2525, 0.065, 0.315, 0.1275, 0.3775, 0.19, 0, 0.2525, 0.065, 0.315, 0.1275, 0.3775, 0.19, 0, 0.2525, 0.065, 0.315, 0.1275, 0.3775, 0.19, 0, 0.2525, 0.065, 0.315, 0.1275, 0.3775, 0.19, 0, 0.2525, 0.065, 0.315, 0.1275, 0.3775, 0.19, 0, 0.2525, 0.065, 0.315, 0.1275, 0.3775, 0.19, 0, 0.2525, 0.065, 0.315, 0.1275, 0.3775, 0.19, 0, 0.2525, 0.065, 0.315, 0.1275, 0.3775, 0.19],
  "SoftwareVersions": "syngo MR E11",
  "SpacingBetweenSlices": 2.7,
  "StationName": "AWP66112",
  "TaskName": "social",
  "TotalReadoutTime": 0.03969,
  "TxRefAmp": 239.558,
  "WipMemBlock": "97708d38-0daa-49c7-a156-6405c7e21e66||Sequence: R016 ve11e/master r/434b28f1; Aug  7 2019 18:53:46 by eja",
  "dcmmeta_affine": [
    [-2.682058572769165, -0.04447425901889801, -0.05210617929697037, 117.03932189941406],
    [-0.05921979248523712, 2.5282015800476074, 0.9016851186752319, -114.65628051757812],
    [-0.0339382030069828, -0.8968362808227539, 2.544454574584961, -6.75306510925293],
    [0.0, 0.0, 0.0, 1.0]
],
  "dcmmeta_reorient_transform": [
    [0.0, -1.0, 0.0, 81.0],
    [1.0, 0.0, 0.0, 0.0],
    [0.0, 0.0, 1.0, 0.0],
    [0.0, 0.0, 0.0, 1.0]
],
  "dcmmeta_shape": [82, 82, 56, 872],
  "dcmmeta_slice_dim": 2,
  "dcmmeta_version": 0.6,
  "global": {
    "const": {
      "AccessionNumber": "A004115",
      "AcquisitionMatrix": [82, 0, 0, 82],
      "AngioFlag": "N",
      "BitsAllocated": 16,
      "BitsStored": 16,
      "BodyPartExamined": "BRAIN",
      "Columns": 656,
      "EchoNumbers": 1,
      "EchoTime": 27.2,
      "EchoTrainLength": 82,
      "FlipAngle": 44.0,
      "HighBit": 15,
      "ImageOrientationPatient": [0.999676335311, 0.02207283112519, -0.0126496934857, -0.0165767686036, 0.942329673909, 0.33427533024923],
      "ImagePositionPatient": [-870.42359498672, -832.71799640783, -327.04854958276],
      "ImageType": [
        "ORIGINAL",
        "PRIMARY",
        "M",
        "MB",
        "ND",
        "NORM",
        "MOSAIC"
],
      "ImagedNucleus": "1H",
      "ImagingFrequency": 123.252166,
      "InPlanePhaseEncodingDirection": "COL",
      "MRAcquisitionType": "2D",
      "MagneticFieldStrength": 3.0,
      "Manufacturer": "SIEMENS",
      "ManufacturerModelName": "Prisma",
      "Modality": "MR",
      "NumberOfAverages": 1.0,
      "NumberOfPhaseEncodingSteps": 82,
      "PercentPhaseFieldOfView": 100.0,
      "PercentSampling": 100.0,
      "PerformedProcedureStepStartTime": "164920.849000",
      "PhotometricInterpretation": "MONOCHROME2",
      "PixelBandwidth": 3050.0,
      "PixelRepresentation": 0,
      "PixelSpacing": [2.6829268932343, 2.6829268932343],
      "ProtocolName": "func_run-04_task-social_acq-ap-mb8",
      "RepetitionTime": 460.0,
      "Rows": 656,
      "SAR": 0.107006295219,
      "SamplesPerPixel": 1,
      "ScanOptions": "FS",
      "ScanningSequence": "EP",
      "SequenceName": "epfid2d1_82",
      "SequenceVariant": [
        "SK",
        "SS"
],
      "SeriesDescription": "func_run-04_task-social_acq-ap-mb8",
      "SeriesNumber": 18,
      "SeriesTime": "175047.562000",
      "SliceLocation": -46.913037343897,
      "SliceThickness": 2.7000000476837,
      "SmallestImagePixelValue": 0,
      "SoftwareVersions": "syngo MR E11",
      "SpacingBetweenSlices": 2.6999999930798,
      "SpecificCharacterSet": "ISO_IR 100",
      "StudyID": "1",
      "StudyTime": "164920.778000",
      "TransmitCoilName": "Body",
      "VariableFlipAngleFlag": "N",
      "WindowCenterWidthExplanation": "Algo1"
    },
    "slices": {}
  },
  "time": {
    "samples": {
      "AcquisitionNumber": [1, 2, 3, 4, 5, 6, 7, 8, 9, 10, 11, 12, 13, 14, 15, 16, 17, 18, 19, 20, 21, 22, 23, 24, 25, 26, 27, 28, 29, 30, 31, 32, 33, 34, 35, 36, 37, 38, 39, 40, 41, 42, 43, 44, 45, 46, 47, 48, 49, 50, 51, 52, 53, 54, 55, 56, 57, 58, 59, 60, 61, 62, 63, 64, 65, 66, 67, 68, 69, 70, 71, 72, 73, 74, 75, 76, 77, 78, 79, 80, 81, 82, 83, 84, 85, 86, 87, 88, 89, 90, 91, 92, 93, 94, 95, 96, 97, 98, 99, 100, 101, 102, 103, 104, 105, 106, 107, 108, 109, 110, 111, 112, 113, 114, 115, 116, 117, 118, 119, 120, 121, 122, 123, 124, 125, 126, 127, 128, 129, 130, 131, 132, 133, 134, 135, 136, 137, 138, 139, 140, 141, 142, 143, 144, 145, 146, 147, 148, 149, 150, 151, 152, 153, 154, 155, 156, 157, 158, 159, 160, 161, 162, 163, 164, 165, 166, 167, 168, 169, 170, 171, 172, 173, 174, 175, 176, 177, 178, 179, 180, 181, 182, 183, 184, 185, 186, 187, 188, 189, 190, 191, 192, 193, 194, 195, 196, 197, 198, 199, 200, 201, 202, 203, 204, 205, 206, 207, 208, 209, 210, 211, 212, 213, 214, 215, 216, 217, 218, 219, 220, 221, 222, 223, 224, 225, 226, 227, 228, 229, 230, 231, 232, 233, 234, 235, 236, 237, 238, 239, 240, 241, 242, 243, 244, 245, 246, 247, 248, 249, 250, 251, 252, 253, 254, 255, 256, 257, 258, 259, 260, 261, 262, 263, 264, 265, 266, 267, 268, 269, 270, 271, 272, 273, 274, 275, 276, 277, 278, 279, 280, 281, 282, 283, 284, 285, 286, 287, 288, 289, 290, 291, 292, 293, 294, 295, 296, 297, 298, 299, 300, 301, 302, 303, 304, 305, 306, 307, 308, 309, 310, 311, 312, 313, 314, 315, 316, 317, 318, 319, 320, 321, 322, 323, 324, 325, 326, 327, 328, 329, 330, 331, 332, 333, 334, 335, 336, 337, 338, 339, 340, 341, 342, 343, 344, 345, 346, 347, 348, 349, 350, 351, 352, 353, 354, 355, 356, 357, 358, 359, 360, 361, 362, 363, 364, 365, 366, 367, 368, 369, 370, 371, 372, 373, 374, 375, 376, 377, 378, 379, 380, 381, 382, 383, 384, 385, 386, 387, 388, 389, 390, 391, 392, 393, 394, 395, 396, 397, 398, 399, 400, 401, 402, 403, 404, 405, 406, 407, 408, 409, 410, 411, 412, 413, 414, 415, 416, 417, 418, 419, 420, 421, 422, 423, 424, 425, 426, 427, 428, 429, 430, 431, 432, 433, 434, 435, 436, 437, 438, 439, 440, 441, 442, 443, 444, 445, 446, 447, 448, 449, 450, 451, 452, 453, 454, 455, 456, 457, 458, 459, 460, 461, 462, 463, 464, 465, 466, 467, 468, 469, 470, 471, 472, 473, 474, 475, 476, 477, 478, 479, 480, 481, 482, 483, 484, 485, 486, 487, 488, 489, 490, 491, 492, 493, 494, 495, 496, 497, 498, 499, 500, 501, 502, 503, 504, 505, 506, 507, 508, 509, 510, 511, 512, 513, 514, 515, 516, 517, 518, 519, 520, 521, 522, 523, 524, 525, 526, 527, 528, 529, 530, 531, 532, 533, 534, 535, 536, 537, 538, 539, 540, 541, 542, 543, 544, 545, 546, 547, 548, 549, 550, 551, 552, 553, 554, 555, 556, 557, 558, 559, 560, 561, 562, 563, 564, 565, 566, 567, 568, 569, 570, 571, 572, 573, 574, 575, 576, 577, 578, 579, 580, 581, 582, 583, 584, 585, 586, 587, 588, 589, 590, 591, 592, 593, 594, 595, 596, 597, 598, 599, 600, 601, 602, 603, 604, 605, 606, 607, 608, 609, 610, 611, 612, 613, 614, 615, 616, 617, 618, 619, 620, 621, 622, 623, 624, 625, 626, 627, 628, 629, 630, 631, 632, 633, 634, 635, 636, 637, 638, 639, 640, 641, 642, 643, 644, 645, 646, 647, 648, 649, 650, 651, 652, 653, 654, 655, 656, 657, 658, 659, 660, 661, 662, 663, 664, 665, 666, 667, 668, 669, 670, 671, 672, 673, 674, 675, 676, 677, 678, 679, 680, 681, 682, 683, 684, 685, 686, 687, 688, 689, 690, 691, 692, 693, 694, 695, 696, 697, 698, 699, 700, 701, 702, 703, 704, 705, 706, 707, 708, 709, 710, 711, 712, 713, 714, 715, 716, 717, 718, 719, 720, 721, 722, 723, 724, 725, 726, 727, 728, 729, 730, 731, 732, 733, 734, 735, 736, 737, 738, 739, 740, 741, 742, 743, 744, 745, 746, 747, 748, 749, 750, 751, 752, 753, 754, 755, 756, 757, 758, 759, 760, 761, 762, 763, 764, 765, 766, 767, 768, 769, 770, 771, 772, 773, 774, 775, 776, 777, 778, 779, 780, 781, 782, 783, 784, 785, 786, 787, 788, 789, 790, 791, 792, 793, 794, 795, 796, 797, 798, 799, 800, 801, 802, 803, 804, 805, 806, 807, 808, 809, 810, 811, 812, 813, 814, 815, 816, 817, 818, 819, 820, 821, 822, 823, 824, 825, 826, 827, 828, 829, 830, 831, 832, 833, 834, 835, 836, 837, 838, 839, 840, 841, 842, 843, 844, 845, 846, 847, 848, 849, 850, 851, 852, 853, 854, 855, 856, 857, 858, 859, 860, 861, 862, 863, 864, 865, 866, 867, 868, 869, 870, 871, 872],
      "AcquisitionTime": ["175042.740000", "175043.200000", "175043.660000", "175044.120000", "175044.580000", "175045.040000", "175045.500000", "175045.960000", "175046.420000", "175046.880000", "175047.340000", "175047.800000", "175048.260000", "175048.720000", "175049.180000", "175049.640000", "175050.100000", "175050.560000", "175051.020000", "175051.480000", "175051.940000", "175052.400000", "175052.860000", "175053.320000", "175053.780000", "175054.240000", "175054.700000", "175055.160000", "175055.620000", "175056.080000", "175056.540000", "175057.000000", "175057.460000", "175057.920000", "175058.380000", "175058.840000", "175059.300000", "175059.760000", "175100.220000", "175100.680000", "175101.140000", "175101.600000", "175102.060000", "175102.520000", "175102.980000", "175103.440000", "175103.900000", "175104.360000", "175104.820000", "175105.280000", "175105.740000", "175106.200000", "175106.660000", "175107.120000", "175107.580000", "175108.040000", "175108.500000", "175108.960000", "175109.420000", "175109.880000", "175110.340000", "175110.800000", "175111.260000", "175111.720000", "175112.180000", "175112.640000", "175113.100000", "175113.560000", "175114.020000", "175114.480000", "175114.940000", "175115.400000", "175115.860000", "175116.320000", "175116.780000", "175117.240000", "175117.700000", "175118.160000", "175118.620000", "175119.080000", "175119.540000", "175120.000000", "175120.460000", "175120.920000", "175121.380000", "175121.840000", "175122.300000", "175122.760000", "175123.220000", "175123.680000", "175124.140000", "175124.600000", "175125.060000", "175125.520000", "175125.980000", "175126.440000", "175126.900000", "175127.360000", "175127.820000", "175128.280000", "175128.740000", "175129.200000", "175129.660000", "175130.120000", "175130.580000", "175131.040000", "175131.500000", "175131.960000", "175132.420000", "175132.880000", "175133.340000", "175133.800000", "175134.260000", "175134.720000", "175135.180000", "175135.640000", "175136.100000", "175136.560000", "175137.020000", "175137.480000", "175137.940000", "175138.400000", "175138.860000", "175139.320000", "175139.780000", "175140.240000", "175140.700000", "175141.160000", "175141.620000", "175142.080000", "175142.540000", "175143.000000", "175143.460000", "175143.920000", "175144.380000", "175144.840000", "175145.300000", "175145.760000", "175146.220000", "175146.680000", "175147.140000", "175147.600000", "175148.060000", "175148.520000", "175148.980000", "175149.440000", "175149.900000", "175150.360000", "175150.820000", "175151.280000", "175151.740000", "175152.200000", "175152.660000", "175153.120000", "175153.580000", "175154.040000", "175154.500000", "175154.960000", "175155.420000", "175155.880000", "175156.340000", "175156.800000", "175157.260000", "175157.720000", "175158.180000", "175158.640000", "175159.100000", "175159.560000", "175200.020000", "175200.480000", "175200.940000", "175201.400000", "175201.860000", "175202.320000", "175202.780000", "175203.240000", "175203.700000", "175204.160000", "175204.620000", "175205.080000", "175205.540000", "175206.000000", "175206.460000", "175206.920000", "175207.380000", "175207.840000", "175208.300000", "175208.760000", "175209.220000", "175209.680000", "175210.140000", "175210.600000", "175211.060000", "175211.520000", "175211.980000", "175212.440000", "175212.900000", "175213.360000", "175213.820000", "175214.280000", "175214.740000", "175215.200000", "175215.660000", "175216.120000", "175216.580000", "175217.040000", "175217.500000", "175217.960000", "175218.420000", "175218.880000", "175219.340000", "175219.800000", "175220.260000", "175220.720000", "175221.180000", "175221.640000", "175222.100000", "175222.560000", "175223.020000", "175223.480000", "175223.940000", "175224.400000", "175224.860000", "175225.320000", "175225.780000", "175226.240000", "175226.700000", "175227.160000", "175227.620000", "175228.080000", "175228.540000", "175229.000000", "175229.460000", "175229.920000", "175230.380000", "175230.840000", "175231.300000", "175231.760000", "175232.220000", "175232.680000", "175233.140000", "175233.600000", "175234.060000", "175234.520000", "175234.980000", "175235.440000", "175235.900000", "175236.360000", "175236.820000", "175237.280000", "175237.740000", "175238.200000", "175238.660000", "175239.120000", "175239.580000", "175240.040000", "175240.500000", "175240.960000", "175241.420000", "175241.880000", "175242.340000", "175242.800000", "175243.260000", "175243.720000", "175244.180000", "175244.640000", "175245.100000", "175245.560000", "175246.020000", "175246.480000", "175246.940000", "175247.400000", "175247.860000", "175248.320000", "175248.780000", "175249.240000", "175249.700000", "175250.160000", "175250.620000", "175251.080000", "175251.540000", "175252.000000", "175252.460000", "175252.920000", "175253.380000", "175253.840000", "175254.300000", "175254.760000", "175255.220000", "175255.680000", "175256.140000", "175256.600000", "175257.060000", "175257.520000", "175257.980000", "175258.440000", "175258.900000", "175259.360000", "175259.820000", "175300.280000", "175300.740000", "175301.200000", "175301.660000", "175302.120000", "175302.580000", "175303.040000", "175303.500000", "175303.960000", "175304.420000", "175304.880000", "175305.340000", "175305.800000", "175306.260000", "175306.720000", "175307.180000", "175307.640000", "175308.100000", "175308.560000", "175309.020000", "175309.480000", "175309.940000", "175310.400000", "175310.860000", "175311.320000", "175311.780000", "175312.240000", "175312.700000", "175313.160000", "175313.620000", "175314.080000", "175314.540000", "175315.000000", "175315.460000", "175315.920000", "175316.380000", "175316.840000", "175317.300000", "175317.760000", "175318.220000", "175318.680000", "175319.140000", "175319.600000", "175320.060000", "175320.520000", "175320.980000", "175321.440000", "175321.900000", "175322.360000", "175322.820000", "175323.280000", "175323.740000", "175324.200000", "175324.660000", "175325.120000", "175325.580000", "175326.040000", "175326.500000", "175326.960000", "175327.420000", "175327.880000", "175328.340000", "175328.800000", "175329.260000", "175329.720000", "175330.180000", "175330.640000", "175331.100000", "175331.560000", "175332.020000", "175332.480000", "175332.940000", "175333.400000", "175333.860000", "175334.320000", "175334.780000", "175335.240000", "175335.700000", "175336.160000", "175336.620000", "175337.080000", "175337.540000", "175338.000000", "175338.460000", "175338.920000", "175339.380000", "175339.840000", "175340.300000", "175340.760000", "175341.220000", "175341.680000", "175342.140000", "175342.600000", "175343.060000", "175343.520000", "175343.980000", "175344.440000", "175344.900000", "175345.360000", "175345.820000", "175346.280000", "175346.740000", "175347.200000", "175347.660000", "175348.120000", "175348.580000", "175349.040000", "175349.500000", "175349.960000", "175350.420000", "175350.880000", "175351.340000", "175351.800000", "175352.260000", "175352.720000", "175353.180000", "175353.640000", "175354.100000", "175354.560000", "175355.020000", "175355.480000", "175355.940000", "175356.400000", "175356.860000", "175357.320000", "175357.780000", "175358.240000", "175358.700000", "175359.160000", "175359.620000", "175400.080000", "175400.540000", "175401.000000", "175401.460000", "175401.920000", "175402.380000", "175402.840000", "175403.300000", "175403.760000", "175404.220000", "175404.680000", "175405.140000", "175405.600000", "175406.060000", "175406.520000", "175406.980000", "175407.440000", "175407.900000", "175408.360000", "175408.820000", "175409.280000", "175409.740000", "175410.200000", "175410.660000", "175411.120000", "175411.580000", "175412.040000", "175412.500000", "175412.960000", "175413.420000", "175413.880000", "175414.340000", "175414.800000", "175415.260000", "175415.720000", "175416.180000", "175416.640000", "175417.100000", "175417.560000", "175418.020000", "175418.480000", "175418.940000", "175419.400000", "175419.860000", "175420.320000", "175420.780000", "175421.240000", "175421.700000", "175422.160000", "175422.620000", "175423.080000", "175423.540000", "175424.000000", "175424.460000", "175424.920000", "175425.380000", "175425.840000", "175426.300000", "175426.760000", "175427.220000", "175427.680000", "175428.140000", "175428.600000", "175429.060000", "175429.520000", "175429.980000", "175430.440000", "175430.900000", "175431.360000", "175431.820000", "175432.280000", "175432.740000", "175433.200000", "175433.660000", "175434.120000", "175434.580000", "175435.040000", "175435.500000", "175435.960000", "175436.420000", "175436.880000", "175437.340000", "175437.800000", "175438.260000", "175438.720000", "175439.180000", "175439.640000", "175440.100000", "175440.560000", "175441.020000", "175441.480000", "175441.940000", "175442.400000", "175442.860000", "175443.320000", "175443.780000", "175444.240000", "175444.700000", "175445.160000", "175445.620000", "175446.080000", "175446.540000", "175447.000000", "175447.460000", "175447.920000", "175448.380000", "175448.840000", "175449.300000", "175449.760000", "175450.220000", "175450.680000", "175451.140000", "175451.600000", "175452.060000", "175452.520000", "175452.980000", "175453.440000", "175453.900000", "175454.360000", "175454.820000", "175455.280000", "175455.740000", "175456.200000", "175456.660000", "175457.120000", "175457.580000", "175458.040000", "175458.500000", "175458.960000", "175459.420000", "175459.880000", "175500.340000", "175500.800000", "175501.260000", "175501.720000", "175502.180000", "175502.640000", "175503.100000", "175503.560000", "175504.020000", "175504.480000", "175504.940000", "175505.400000", "175505.860000", "175506.320000", "175506.780000", "175507.240000", "175507.700000", "175508.160000", "175508.620000", "175509.080000", "175509.540000", "175510.000000", "175510.460000", "175510.920000", "175511.380000", "175511.840000", "175512.300000", "175512.760000", "175513.220000", "175513.680000", "175514.140000", "175514.600000", "175515.060000", "175515.520000", "175515.980000", "175516.440000", "175516.900000", "175517.360000", "175517.820000", "175518.280000", "175518.740000", "175519.200000", "175519.660000", "175520.120000", "175520.580000", "175521.040000", "175521.500000", "175521.960000", "175522.420000", "175522.880000", "175523.340000", "175523.800000", "175524.260000", "175524.720000", "175525.180000", "175525.640000", "175526.100000", "175526.560000", "175527.020000", "175527.480000", "175527.940000", "175528.400000", "175528.860000", "175529.320000", "175529.780000", "175530.240000", "175530.700000", "175531.160000", "175531.620000", "175532.080000", "175532.540000", "175533.000000", "175533.460000", "175533.920000", "175534.380000", "175534.840000", "175535.300000", "175535.760000", "175536.220000", "175536.680000", "175537.140000", "175537.600000", "175538.060000", "175538.520000", "175538.980000", "175539.440000", "175539.900000", "175540.360000", "175540.820000", "175541.280000", "175541.740000", "175542.200000", "175542.660000", "175543.120000", "175543.580000", "175544.040000", "175544.500000", "175544.960000", "175545.420000", "175545.880000", "175546.340000", "175546.800000", "175547.260000", "175547.720000", "175548.180000", "175548.640000", "175549.100000", "175549.560000", "175550.020000", "175550.480000", "175550.940000", "175551.400000", "175551.860000", "175552.320000", "175552.780000", "175553.240000", "175553.700000", "175554.160000", "175554.620000", "175555.080000", "175555.540000", "175556.000000", "175556.460000", "175556.920000", "175557.380000", "175557.840000", "175558.300000", "175558.760000", "175559.220000", "175559.680000", "175600.140000", "175600.600000", "175601.060000", "175601.520000", "175601.980000", "175602.440000", "175602.900000", "175603.360000", "175603.820000", "175604.280000", "175604.740000", "175605.200000", "175605.660000", "175606.120000", "175606.580000", "175607.040000", "175607.500000", "175607.960000", "175608.420000", "175608.880000", "175609.340000", "175609.800000", "175610.260000", "175610.720000", "175611.180000", "175611.640000", "175612.100000", "175612.560000", "175613.020000", "175613.480000", "175613.940000", "175614.400000", "175614.860000", "175615.320000", "175615.780000", "175616.240000", "175616.700000", "175617.160000", "175617.620000", "175618.080000", "175618.540000", "175619.000000", "175619.460000", "175619.920000", "175620.380000", "175620.840000", "175621.300000", "175621.760000", "175622.220000", "175622.680000", "175623.140000", "175623.600000", "175624.060000", "175624.520000", "175624.980000", "175625.440000", "175625.900000", "175626.360000", "175626.820000", "175627.280000", "175627.740000", "175628.200000", "175628.660000", "175629.120000", "175629.580000", "175630.040000", "175630.500000", "175630.960000", "175631.420000", "175631.880000", "175632.340000", "175632.800000", "175633.260000", "175633.720000", "175634.180000", "175634.640000", "175635.100000", "175635.560000", "175636.020000", "175636.480000", "175636.940000", "175637.400000", "175637.860000", "175638.320000", "175638.780000", "175639.240000", "175639.700000", "175640.160000", "175640.620000", "175641.080000", "175641.540000", "175642.000000", "175642.460000", "175642.920000", "175643.380000", "175643.840000", "175644.300000", "175644.760000", "175645.220000", "175645.680000", "175646.140000", "175646.600000", "175647.060000", "175647.520000", "175647.980000", "175648.440000", "175648.900000", "175649.360000", "175649.820000", "175650.280000", "175650.740000", "175651.200000", "175651.660000", "175652.120000", "175652.580000", "175653.040000", "175653.500000", "175653.960000", "175654.420000", "175654.880000", "175655.340000", "175655.800000", "175656.260000", "175656.720000", "175657.180000", "175657.640000", "175658.100000", "175658.560000", "175659.020000", "175659.480000", "175659.940000", "175700.400000", "175700.860000", "175701.320000", "175701.780000", "175702.240000", "175702.700000", "175703.160000", "175703.620000", "175704.080000", "175704.540000", "175705.000000", "175705.460000", "175705.920000", "175706.380000", "175706.840000", "175707.300000", "175707.760000", "175708.220000", "175708.680000", "175709.140000", "175709.600000", "175710.060000", "175710.520000", "175710.980000", "175711.440000", "175711.900000", "175712.360000", "175712.820000", "175713.280000", "175713.740000", "175714.200000", "175714.660000", "175715.120000", "175715.580000", "175716.040000", "175716.500000", "175716.960000", "175717.420000", "175717.880000", "175718.340000", "175718.800000", "175719.260000", "175719.720000", "175720.180000", "175720.640000", "175721.100000", "175721.560000", "175722.020000", "175722.480000", "175722.940000", "175723.400000"],
