{
  "AcquisitionMatrixPE": 82,
  "AcquisitionNumber": 1,
  "AcquisitionTime": "18:44:13.695000",
  "BandwidthPerPixelPhaseEncode": 24.888,
  "BaseResolution": 82,
  "BodyPartExamined": "BRAIN",
  "ConsistencyInfo": "N4_VE11E_LATEST_20181129",
  "ConversionSoftware": "dcm2niix",
  "ConversionSoftwareVersion": "v1.0.20201102",
  "DerivedVendorReportedEchoSpacing": 0.00049,
  "DeviceSerialNumber": "66112",
  "DwellTime": 2e-06,
  "EchoTime": 0.0272,
  "EchoTrainLength": 82,
  "EffectiveEchoSpacing": 0.00049,
  "FlipAngle": 44,
  "ImageComments": "Unaliased MB8/PE3",
  "ImageOrientationPatientDICOM": [0.99895, 0.0454609, -0.00561308, -0.0416938, 0.95316, 0.299579],
  "ImageType": [
    "ORIGINAL",
    "PRIMARY",
    "M",
    "MB",
    "ND",
    "NORM",
    "MOSAIC"
],
  "ImagingFrequency": 123.252,
  "InPlanePhaseEncodingDirectionDICOM": "COL",
  "InstitutionAddress": "Maynard 3,Hanover,NH,US,03755",
  "InstitutionName": "Dartmouth College - PBS",
  "InstitutionalDepartmentName": "Department",
  "MRAcquisitionType": "2D",
  "MagneticFieldStrength": 3,
  "Manufacturer": "Siemens",
  "ManufacturersModelName": "Prisma",
  "Modality": "MR",
  "MultibandAccelerationFactor": 8,
  "PartialFourier": 1,
  "PatientPosition": "HFS",
  "PercentPhaseFOV": 100,
  "PercentSampling": 100,
  "PhaseEncodingDirection": "j-",
  "PhaseEncodingSteps": 82,
  "PhaseResolution": 1,
  "PixelBandwidth": 3050,
  "ProcedureStepDescription": "Wager_Wager^1076_spacetop",
  "ProtocolName": "func_run-03_task-alignvideo_acq-ap-mb8",
  "PulseSequenceDetails": "%CustomerSeq%\\cmrr_mbep2d_bold",
  "ReceiveCoilActiveElements": "HEA;HEP",
  "ReceiveCoilName": "Head_32",
  "ReconMatrixPE": 82,
  "RepetitionTime": 0.46,
  "SAR": 0.109055,
  "ScanOptions": "FS",
  "ScanningSequence": "EP",
  "SequenceName": "epfid2d1_82",
  "SequenceVariant": "SK\\SS",
  "SeriesDescription": "func_run-03_task-alignvideo_acq-ap-mb8",
  "SeriesNumber": 40,
  "ShimSetting": [4152, -7827, -7206, 602, -68, -238, 34, 99],
  "SliceThickness": 2.7,
  "SliceTiming": [0, 0.2525, 0.065, 0.315, 0.1275, 0.3775, 0.19, 0, 0.2525, 0.065, 0.315, 0.1275, 0.3775, 0.19, 0, 0.2525, 0.065, 0.315, 0.1275, 0.3775, 0.19, 0, 0.2525, 0.065, 0.315, 0.1275, 0.3775, 0.19, 0, 0.2525, 0.065, 0.315, 0.1275, 0.3775, 0.19, 0, 0.2525, 0.065, 0.315, 0.1275, 0.3775, 0.19, 0, 0.2525, 0.065, 0.315, 0.1275, 0.3775, 0.19, 0, 0.2525, 0.065, 0.315, 0.1275, 0.3775, 0.19],
  "SoftwareVersions": "syngo MR E11",
  "SpacingBetweenSlices": 2.7,
  "StationName": "AWP66112",
  "TaskName": "alignvideo",
  "TotalReadoutTime": 0.03969,
  "TxRefAmp": 239.834,
  "WipMemBlock": "4927bef2-c64e-4c86-9e73-9e74df381fc5||Sequence: R016 ve11e/master r/434b28f1; Aug  7 2019 18:53:46 by eja",
  "dcmmeta_affine": [
    [-2.6801106929779053, -0.11186132580041885, -0.05121707171201706, 117.1335220336914],
    [-0.12196838110685349, 2.5572590827941895, 0.807381272315979, -111.5793228149414],
    [-0.015059475786983967, -0.8037474155426025, 2.57594895362854, -7.375750541687012],
    [0.0, 0.0, 0.0, 1.0]
],
  "dcmmeta_reorient_transform": [
    [0.0, -1.0, 0.0, 81.0],
    [1.0, 0.0, 0.0, 0.0],
    [0.0, 0.0, 1.0, 0.0],
    [0.0, 0.0, 0.0, 1.0]
],
  "dcmmeta_shape": [82, 82, 56, 1016],
  "dcmmeta_slice_dim": 2,
  "dcmmeta_version": 0.6,
  "global": {
    "const": {
      "AccessionNumber": "A004115",
      "AcquisitionMatrix": [82, 0, 0, 82],
      "AngioFlag": "N",
      "BitsAllocated": 16,
      "BitsStored": 16,
      "BodyPartExamined": "BRAIN",
      "Columns": 656,
      "EchoNumbers": 1,
      "EchoTime": 27.2,
      "EchoTrainLength": 82,
      "FlipAngle": 44.0,
      "HighBit": 15,
      "ImageOrientationPatient": [0.99895034718457, 0.04546094174858, -0.0056130771562, -0.0416937652788, 0.95316016951258, 0.29957857265103],
      "ImagePositionPatient": [-845.16034209509, -864.49693363956, -298.83272768283],
      "ImageType": [
        "ORIGINAL",
        "PRIMARY",
        "M",
        "MB",
        "ND",
        "NORM",
        "MOSAIC"
],
      "ImagedNucleus": "1H",
      "ImagingFrequency": 123.252166,
      "InPlanePhaseEncodingDirection": "COL",
      "MRAcquisitionType": "2D",
      "MagneticFieldStrength": 3.0,
      "Manufacturer": "SIEMENS",
      "ManufacturerModelName": "Prisma",
      "Modality": "MR",
      "NumberOfAverages": 1.0,
      "NumberOfPhaseEncodingSteps": 82,
      "PercentPhaseFieldOfView": 100.0,
      "PercentSampling": 100.0,
      "PerformedProcedureStepStartTime": "164920.849000",
      "PhotometricInterpretation": "MONOCHROME2",
      "PixelBandwidth": 3050.0,
      "PixelRepresentation": 0,
      "PixelSpacing": [2.6829268932343, 2.6829268932343],
      "ProtocolName": "func_run-03_task-alignvideo_acq-ap-mb8",
      "RepetitionTime": 460.0,
      "Rows": 656,
      "SAR": 0.10905517047584,
      "SamplesPerPixel": 1,
      "ScanOptions": "FS",
      "ScanningSequence": "EP",
      "SequenceName": "epfid2d1_82",
      "SequenceVariant": [
        "SK",
        "SS"
],
      "SeriesDescription": "func_run-03_task-alignvideo_acq-ap-mb8",
      "SeriesNumber": 40,
      "SeriesTime": "184427.560000",
      "SliceLocation": -42.624386949824,
      "SliceThickness": 2.7000000476837,
      "SmallestImagePixelValue": 0,
      "SoftwareVersions": "syngo MR E11",
      "SpacingBetweenSlices": 2.7000000591179,
      "SpecificCharacterSet": "ISO_IR 100",
      "StudyID": "1",
      "StudyTime": "164920.778000",
      "TransmitCoilName": "Body",
      "VariableFlipAngleFlag": "N",
      "WindowCenterWidthExplanation": "Algo1"
    },
    "slices": {}
  },
  "time": {
    "samples": {
      "AcquisitionNumber": [1, 2, 3, 4, 5, 6, 7, 8, 9, 10, 11, 12, 13, 14, 15, 16, 17, 18, 19, 20, 21, 22, 23, 24, 25, 26, 27, 28, 29, 30, 31, 32, 33, 34, 35, 36, 37, 38, 39, 40, 41, 42, 43, 44, 45, 46, 47, 48, 49, 50, 51, 52, 53, 54, 55, 56, 57, 58, 59, 60, 61, 62, 63, 64, 65, 66, 67, 68, 69, 70, 71, 72, 73, 74, 75, 76, 77, 78, 79, 80, 81, 82, 83, 84, 85, 86, 87, 88, 89, 90, 91, 92, 93, 94, 95, 96, 97, 98, 99, 100, 101, 102, 103, 104, 105, 106, 107, 108, 109, 110, 111, 112, 113, 114, 115, 116, 117, 118, 119, 120, 121, 122, 123, 124, 125, 126, 127, 128, 129, 130, 131, 132, 133, 134, 135, 136, 137, 138, 139, 140, 141, 142, 143, 144, 145, 146, 147, 148, 149, 150, 151, 152, 153, 154, 155, 156, 157, 158, 159, 160, 161, 162, 163, 164, 165, 166, 167, 168, 169, 170, 171, 172, 173, 174, 175, 176, 177, 178, 179, 180, 181, 182, 183, 184, 185, 186, 187, 188, 189, 190, 191, 192, 193, 194, 195, 196, 197, 198, 199, 200, 201, 202, 203, 204, 205, 206, 207, 208, 209, 210, 211, 212, 213, 214, 215, 216, 217, 218, 219, 220, 221, 222, 223, 224, 225, 226, 227, 228, 229, 230, 231, 232, 233, 234, 235, 236, 237, 238, 239, 240, 241, 242, 243, 244, 245, 246, 247, 248, 249, 250, 251, 252, 253, 254, 255, 256, 257, 258, 259, 260, 261, 262, 263, 264, 265, 266, 267, 268, 269, 270, 271, 272, 273, 274, 275, 276, 277, 278, 279, 280, 281, 282, 283, 284, 285, 286, 287, 288, 289, 290, 291, 292, 293, 294, 295, 296, 297, 298, 299, 300, 301, 302, 303, 304, 305, 306, 307, 308, 309, 310, 311, 312, 313, 314, 315, 316, 317, 318, 319, 320, 321, 322, 323, 324, 325, 326, 327, 328, 329, 330, 331, 332, 333, 334, 335, 336, 337, 338, 339, 340, 341, 342, 343, 344, 345, 346, 347, 348, 349, 350, 351, 352, 353, 354, 355, 356, 357, 358, 359, 360, 361, 362, 363, 364, 365, 366, 367, 368, 369, 370, 371, 372, 373, 374, 375, 376, 377, 378, 379, 380, 381, 382, 383, 384, 385, 386, 387, 388, 389, 390, 391, 392, 393, 394, 395, 396, 397, 398, 399, 400, 401, 402, 403, 404, 405, 406, 407, 408, 409, 410, 411, 412, 413, 414, 415, 416, 417, 418, 419, 420, 421, 422, 423, 424, 425, 426, 427, 428, 429, 430, 431, 432, 433, 434, 435, 436, 437, 438, 439, 440, 441, 442, 443, 444, 445, 446, 447, 448, 449, 450, 451, 452, 453, 454, 455, 456, 457, 458, 459, 460, 461, 462, 463, 464, 465, 466, 467, 468, 469, 470, 471, 472, 473, 474, 475, 476, 477, 478, 479, 480, 481, 482, 483, 484, 485, 486, 487, 488, 489, 490, 491, 492, 493, 494, 495, 496, 497, 498, 499, 500, 501, 502, 503, 504, 505, 506, 507, 508, 509, 510, 511, 512, 513, 514, 515, 516, 517, 518, 519, 520, 521, 522, 523, 524, 525, 526, 527, 528, 529, 530, 531, 532, 533, 534, 535, 536, 537, 538, 539, 540, 541, 542, 543, 544, 545, 546, 547, 548, 549, 550, 551, 552, 553, 554, 555, 556, 557, 558, 559, 560, 561, 562, 563, 564, 565, 566, 567, 568, 569, 570, 571, 572, 573, 574, 575, 576, 577, 578, 579, 580, 581, 582, 583, 584, 585, 586, 587, 588, 589, 590, 591, 592, 593, 594, 595, 596, 597, 598, 599, 600, 601, 602, 603, 604, 605, 606, 607, 608, 609, 610, 611, 612, 613, 614, 615, 616, 617, 618, 619, 620, 621, 622, 623, 624, 625, 626, 627, 628, 629, 630, 631, 632, 633, 634, 635, 636, 637, 638, 639, 640, 641, 642, 643, 644, 645, 646, 647, 648, 649, 650, 651, 652, 653, 654, 655, 656, 657, 658, 659, 660, 661, 662, 663, 664, 665, 666, 667, 668, 669, 670, 671, 672, 673, 674, 675, 676, 677, 678, 679, 680, 681, 682, 683, 684, 685, 686, 687, 688, 689, 690, 691, 692, 693, 694, 695, 696, 697, 698, 699, 700, 701, 702, 703, 704, 705, 706, 707, 708, 709, 710, 711, 712, 713, 714, 715, 716, 717, 718, 719, 720, 721, 722, 723, 724, 725, 726, 727, 728, 729, 730, 731, 732, 733, 734, 735, 736, 737, 738, 739, 740, 741, 742, 743, 744, 745, 746, 747, 748, 749, 750, 751, 752, 753, 754, 755, 756, 757, 758, 759, 760, 761, 762, 763, 764, 765, 766, 767, 768, 769, 770, 771, 772, 773, 774, 775, 776, 777, 778, 779, 780, 781, 782, 783, 784, 785, 786, 787, 788, 789, 790, 791, 792, 793, 794, 795, 796, 797, 798, 799, 800, 801, 802, 803, 804, 805, 806, 807, 808, 809, 810, 811, 812, 813, 814, 815, 816, 817, 818, 819, 820, 821, 822, 823, 824, 825, 826, 827, 828, 829, 830, 831, 832, 833, 834, 835, 836, 837, 838, 839, 840, 841, 842, 843, 844, 845, 846, 847, 848, 849, 850, 851, 852, 853, 854, 855, 856, 857, 858, 859, 860, 861, 862, 863, 864, 865, 866, 867, 868, 869, 870, 871, 872, 873, 874, 875, 876, 877, 878, 879, 880, 881, 882, 883, 884, 885, 886, 887, 888, 889, 890, 891, 892, 893, 894, 895, 896, 897, 898, 899, 900, 901, 902, 903, 904, 905, 906, 907, 908, 909, 910, 911, 912, 913, 914, 915, 916, 917, 918, 919, 920, 921, 922, 923, 924, 925, 926, 927, 928, 929, 930, 931, 932, 933, 934, 935, 936, 937, 938, 939, 940, 941, 942, 943, 944, 945, 946, 947, 948, 949, 950, 951, 952, 953, 954, 955, 956, 957, 958, 959, 960, 961, 962, 963, 964, 965, 966, 967, 968, 969, 970, 971, 972, 973, 974, 975, 976, 977, 978, 979, 980, 981, 982, 983, 984, 985, 986, 987, 988, 989, 990, 991, 992, 993, 994, 995, 996, 997, 998, 999, 1000, 1001, 1002, 1003, 1004, 1005, 1006, 1007, 1008, 1009, 1010, 1011, 1012, 1013, 1014, 1015, 1016],
      "AcquisitionTime": ["184413.695000", "184414.155000", "184414.615000", "184415.075000", "184415.535000", "184415.995000", "184416.455000", "184416.915000", "184417.375000", "184417.835000", "184418.295000", "184418.755000", "184419.215000", "184419.675000", "184420.135000", "184420.595000", "184421.055000", "184421.515000", "184421.975000", "184422.435000", "184422.895000", "184423.355000", "184423.815000", "184424.275000", "184424.735000", "184425.195000", "184425.655000", "184426.115000", "184426.575000", "184427.035000", "184427.495000", "184427.955000", "184428.415000", "184428.875000", "184429.335000", "184429.795000", "184430.255000", "184430.715000", "184431.175000", "184431.635000", "184432.095000", "184432.555000", "184433.015000", "184433.475000", "184433.935000", "184434.395000", "184434.855000", "184435.315000", "184435.775000", "184436.235000", "184436.695000", "184437.155000", "184437.615000", "184438.075000", "184438.535000", "184438.995000", "184439.455000", "184439.915000", "184440.375000", "184440.835000", "184441.295000", "184441.755000", "184442.215000", "184442.675000", "184443.135000", "184443.595000", "184444.055000", "184444.515000", "184444.975000", "184445.435000", "184445.895000", "184446.355000", "184446.815000", "184447.275000", "184447.735000", "184448.195000", "184448.655000", "184449.115000", "184449.575000", "184450.035000", "184450.495000", "184450.955000", "184451.415000", "184451.875000", "184452.335000", "184452.795000", "184453.255000", "184453.715000", "184454.175000", "184454.635000", "184455.095000", "184455.555000", "184456.015000", "184456.475000", "184456.935000", "184457.395000", "184457.855000", "184458.315000", "184458.775000", "184459.235000", "184459.695000", "184500.155000", "184500.615000", "184501.075000", "184501.535000", "184501.995000", "184502.455000", "184502.915000", "184503.375000", "184503.835000", "184504.295000", "184504.755000", "184505.215000", "184505.675000", "184506.135000", "184506.595000", "184507.055000", "184507.515000", "184507.975000", "184508.435000", "184508.895000", "184509.355000", "184509.815000", "184510.275000", "184510.735000", "184511.195000", "184511.655000", "184512.115000", "184512.575000", "184513.035000", "184513.495000", "184513.955000", "184514.415000", "184514.875000", "184515.335000", "184515.795000", "184516.255000", "184516.715000", "184517.175000", "184517.635000", "184518.095000", "184518.555000", "184519.015000", "184519.475000", "184519.935000", "184520.395000", "184520.855000", "184521.315000", "184521.775000", "184522.235000", "184522.695000", "184523.155000", "184523.615000", "184524.075000", "184524.535000", "184524.995000", "184525.455000", "184525.915000", "184526.375000", "184526.835000", "184527.295000", "184527.755000", "184528.215000", "184528.675000", "184529.135000", "184529.595000", "184530.055000", "184530.515000", "184530.975000", "184531.435000", "184531.895000", "184532.355000", "184532.815000", "184533.275000", "184533.735000", "184534.195000", "184534.655000", "184535.115000", "184535.575000", "184536.035000", "184536.495000", "184536.955000", "184537.415000", "184537.875000", "184538.335000", "184538.795000", "184539.255000", "184539.715000", "184540.175000", "184540.635000", "184541.095000", "184541.555000", "184542.015000", "184542.475000", "184542.935000", "184543.395000", "184543.855000", "184544.315000", "184544.775000", "184545.235000", "184545.695000", "184546.155000", "184546.615000", "184547.075000", "184547.535000", "184547.995000", "184548.455000", "184548.915000", "184549.375000", "184549.835000", "184550.295000", "184550.755000", "184551.215000", "184551.675000", "184552.135000", "184552.595000", "184553.055000", "184553.515000", "184553.975000", "184554.435000", "184554.895000", "184555.355000", "184555.815000", "184556.275000", "184556.735000", "184557.195000", "184557.655000", "184558.115000", "184558.575000", "184559.035000", "184559.495000", "184559.955000", "184600.415000", "184600.875000", "184601.335000", "184601.795000", "184602.255000", "184602.715000", "184603.175000", "184603.635000", "184604.095000", "184604.555000", "184605.015000", "184605.475000", "184605.935000", "184606.395000", "184606.855000", "184607.315000", "184607.775000", "184608.235000", "184608.695000", "184609.155000", "184609.615000", "184610.075000", "184610.535000", "184610.995000", "184611.455000", "184611.915000", "184612.375000", "184612.835000", "184613.295000", "184613.755000", "184614.215000", "184614.675000", "184615.135000", "184615.595000", "184616.055000", "184616.515000", "184616.975000", "184617.435000", "184617.895000", "184618.355000", "184618.815000", "184619.275000", "184619.735000", "184620.195000", "184620.655000", "184621.115000", "184621.575000", "184622.035000", "184622.495000", "184622.955000", "184623.415000", "184623.875000", "184624.335000", "184624.795000", "184625.255000", "184625.715000", "184626.175000", "184626.635000", "184627.095000", "184627.555000", "184628.015000", "184628.475000", "184628.935000", "184629.395000", "184629.855000", "184630.315000", "184630.775000", "184631.235000", "184631.695000", "184632.155000", "184632.615000", "184633.075000", "184633.535000", "184633.995000", "184634.455000", "184634.915000", "184635.375000", "184635.835000", "184636.295000", "184636.755000", "184637.215000", "184637.675000", "184638.135000", "184638.595000", "184639.055000", "184639.515000", "184639.975000", "184640.435000", "184640.895000", "184641.355000", "184641.815000", "184642.275000", "184642.735000", "184643.195000", "184643.655000", "184644.115000", "184644.575000", "184645.035000", "184645.495000", "184645.955000", "184646.415000", "184646.875000", "184647.335000", "184647.795000", "184648.255000", "184648.715000", "184649.175000", "184649.635000", "184650.095000", "184650.555000", "184651.015000", "184651.475000", "184651.935000", "184652.395000", "184652.855000", "184653.315000", "184653.775000", "184654.235000", "184654.695000", "184655.155000", "184655.615000", "184656.075000", "184656.535000", "184656.995000", "184657.455000", "184657.915000", "184658.375000", "184658.835000", "184659.295000", "184659.755000", "184700.215000", "184700.675000", "184701.135000", "184701.595000", "184702.055000", "184702.515000", "184702.975000", "184703.435000", "184703.895000", "184704.355000", "184704.815000", "184705.275000", "184705.735000", "184706.195000", "184706.655000", "184707.115000", "184707.575000", "184708.035000", "184708.495000", "184708.955000", "184709.415000", "184709.875000", "184710.335000", "184710.795000", "184711.255000", "184711.715000", "184712.175000", "184712.635000", "184713.095000", "184713.555000", "184714.015000", "184714.475000", "184714.935000", "184715.395000", "184715.855000", "184716.315000", "184716.775000", "184717.235000", "184717.695000", "184718.155000", "184718.615000", "184719.075000", "184719.535000", "184719.995000", "184720.455000", "184720.915000", "184721.375000", "184721.835000", "184722.295000", "184722.755000", "184723.215000", "184723.675000", "184724.135000", "184724.595000", "184725.055000", "184725.515000", "184725.975000", "184726.435000", "184726.895000", "184727.355000", "184727.815000", "184728.275000", "184728.735000", "184729.195000", "184729.655000", "184730.115000", "184730.575000", "184731.035000", "184731.495000", "184731.955000", "184732.415000", "184732.875000", "184733.335000", "184733.795000", "184734.255000", "184734.715000", "184735.175000", "184735.635000", "184736.095000", "184736.555000", "184737.015000", "184737.475000", "184737.935000", "184738.395000", "184738.855000", "184739.315000", "184739.775000", "184740.235000", "184740.695000", "184741.155000", "184741.615000", "184742.075000", "184742.535000", "184742.995000", "184743.455000", "184743.915000", "184744.375000", "184744.835000", "184745.295000", "184745.755000", "184746.215000", "184746.675000", "184747.135000", "184747.595000", "184748.055000", "184748.515000", "184748.975000", "184749.435000", "184749.895000", "184750.355000", "184750.815000", "184751.275000", "184751.735000", "184752.195000", "184752.655000", "184753.115000", "184753.575000", "184754.035000", "184754.495000", "184754.955000", "184755.415000", "184755.875000", "184756.335000", "184756.795000", "184757.255000", "184757.715000", "184758.175000", "184758.635000", "184759.095000", "184759.555000", "184800.015000", "184800.475000", "184800.935000", "184801.395000", "184801.855000", "184802.315000", "184802.775000", "184803.235000", "184803.695000", "184804.155000", "184804.615000", "184805.075000", "184805.535000", "184805.995000", "184806.455000", "184806.915000", "184807.375000", "184807.835000", "184808.295000", "184808.755000", "184809.215000", "184809.675000", "184810.135000", "184810.595000", "184811.055000", "184811.515000", "184811.975000", "184812.435000", "184812.895000", "184813.355000", "184813.815000", "184814.275000", "184814.735000", "184815.195000", "184815.655000", "184816.115000", "184816.575000", "184817.035000", "184817.495000", "184817.955000", "184818.415000", "184818.875000", "184819.335000", "184819.795000", "184820.255000", "184820.715000", "184821.175000", "184821.635000", "184822.095000", "184822.555000", "184823.015000", "184823.475000", "184823.935000", "184824.395000", "184824.855000", "184825.315000", "184825.775000", "184826.235000", "184826.695000", "184827.155000", "184827.615000", "184828.075000", "184828.535000", "184828.995000", "184829.455000", "184829.915000", "184830.375000", "184830.835000", "184831.295000", "184831.755000", "184832.215000", "184832.675000", "184833.135000", "184833.595000", "184834.055000", "184834.515000", "184834.975000", "184835.435000", "184835.895000", "184836.355000", "184836.815000", "184837.275000", "184837.735000", "184838.195000", "184838.655000", "184839.115000", "184839.575000", "184840.035000", "184840.495000", "184840.955000", "184841.415000", "184841.875000", "184842.335000", "184842.795000", "184843.255000", "184843.715000", "184844.175000", "184844.635000", "184845.095000", "184845.555000", "184846.015000", "184846.475000", "184846.935000", "184847.395000", "184847.855000", "184848.315000", "184848.775000", "184849.235000", "184849.695000", "184850.155000", "184850.615000", "184851.075000", "184851.535000", "184851.995000", "184852.455000", "184852.915000", "184853.375000", "184853.835000", "184854.295000", "184854.755000", "184855.215000", "184855.675000", "184856.135000", "184856.595000", "184857.055000", "184857.515000", "184857.975000", "184858.435000", "184858.895000", "184859.355000", "184859.815000", "184900.275000", "184900.735000", "184901.195000", "184901.655000", "184902.115000", "184902.575000", "184903.035000", "184903.495000", "184903.955000", "184904.415000", "184904.875000", "184905.335000", "184905.795000", "184906.255000", "184906.715000", "184907.175000", "184907.635000", "184908.095000", "184908.555000", "184909.015000", "184909.475000", "184909.935000", "184910.395000", "184910.855000", "184911.315000", "184911.775000", "184912.235000", "184912.695000", "184913.155000", "184913.615000", "184914.075000", "184914.535000", "184914.995000", "184915.455000", "184915.915000", "184916.375000", "184916.835000", "184917.295000", "184917.755000", "184918.215000", "184918.675000", "184919.135000", "184919.595000", "184920.055000", "184920.515000", "184920.975000", "184921.435000", "184921.895000", "184922.355000", "184922.815000", "184923.275000", "184923.735000", "184924.195000", "184924.655000", "184925.115000", "184925.575000", "184926.035000", "184926.495000", "184926.955000", "184927.415000", "184927.875000", "184928.335000", "184928.795000", "184929.255000", "184929.715000", "184930.175000", "184930.635000", "184931.095000", "184931.555000", "184932.015000", "184932.475000", "184932.935000", "184933.395000", "184933.855000", "184934.315000", "184934.775000", "184935.235000", "184935.695000", "184936.155000", "184936.615000", "184937.075000", "184937.535000", "184937.995000", "184938.455000", "184938.915000", "184939.375000", "184939.835000", "184940.295000", "184940.755000", "184941.215000", "184941.675000", "184942.135000", "184942.595000", "184943.055000", "184943.515000", "184943.975000", "184944.435000", "184944.895000", "184945.355000", "184945.815000", "184946.275000", "184946.735000", "184947.195000", "184947.655000", "184948.115000", "184948.575000", "184949.035000", "184949.495000", "184949.955000", "184950.415000", "184950.875000", "184951.335000", "184951.795000", "184952.255000", "184952.715000", "184953.175000", "184953.635000", "184954.095000", "184954.555000", "184955.015000", "184955.475000", "184955.935000", "184956.395000", "184956.855000", "184957.315000", "184957.775000", "184958.235000", "184958.695000", "184959.155000", "184959.615000", "185000.075000", "185000.535000", "185000.995000", "185001.455000", "185001.915000", "185002.375000", "185002.835000", "185003.295000", "185003.755000", "185004.215000", "185004.675000", "185005.135000", "185005.595000", "185006.055000", "185006.515000", "185006.975000", "185007.435000", "185007.895000", "185008.355000", "185008.815000", "185009.275000", "185009.735000", "185010.195000", "185010.655000", "185011.115000", "185011.575000", "185012.035000", "185012.495000", "185012.955000", "185013.415000", "185013.875000", "185014.335000", "185014.795000", "185015.255000", "185015.715000", "185016.175000", "185016.635000", "185017.095000", "185017.555000", "185018.015000", "185018.475000", "185018.935000", "185019.395000", "185019.855000", "185020.315000", "185020.775000", "185021.235000", "185021.695000", "185022.155000", "185022.615000", "185023.075000", "185023.535000", "185023.995000", "185024.455000", "185024.915000", "185025.375000", "185025.835000", "185026.295000", "185026.755000", "185027.215000", "185027.675000", "185028.135000", "185028.595000", "185029.055000", "185029.515000", "185029.975000", "185030.435000", "185030.895000", "185031.355000", "185031.815000", "185032.275000", "185032.735000", "185033.195000", "185033.655000", "185034.115000", "185034.575000", "185035.035000", "185035.495000", "185035.955000", "185036.415000", "185036.875000", "185037.335000", "185037.795000", "185038.255000", "185038.715000", "185039.175000", "185039.635000", "185040.095000", "185040.555000", "185041.015000", "185041.475000", "185041.935000", "185042.395000", "185042.855000", "185043.315000", "185043.775000", "185044.235000", "185044.695000", "185045.155000", "185045.615000", "185046.075000", "185046.535000", "185046.995000", "185047.455000", "185047.915000", "185048.375000", "185048.835000", "185049.295000", "185049.755000", "185050.215000", "185050.675000", "185051.135000", "185051.595000", "185052.055000", "185052.515000", "185052.975000", "185053.435000", "185053.895000", "185054.355000", "185054.815000", "185055.275000", "185055.735000", "185056.195000", "185056.655000", "185057.115000", "185057.575000", "185058.035000", "185058.495000", "185058.955000", "185059.415000", "185059.875000", "185100.335000", "185100.795000", "185101.255000", "185101.715000", "185102.175000", "185102.635000", "185103.095000", "185103.555000", "185104.015000", "185104.475000", "185104.935000", "185105.395000", "185105.855000", "185106.315000", "185106.775000", "185107.235000", "185107.695000", "185108.155000", "185108.615000", "185109.075000", "185109.535000", "185109.995000", "185110.455000", "185110.915000", "185111.375000", "185111.835000", "185112.295000", "185112.755000", "185113.215000", "185113.675000", "185114.135000", "185114.595000", "185115.055000", "185115.515000", "185115.975000", "185116.435000", "185116.895000", "185117.355000", "185117.815000", "185118.275000", "185118.735000", "185119.195000", "185119.655000", "185120.115000", "185120.575000", "185121.035000", "185121.495000", "185121.955000", "185122.415000", "185122.875000", "185123.335000", "185123.795000", "185124.255000", "185124.715000", "185125.175000", "185125.635000", "185126.095000", "185126.555000", "185127.015000", "185127.475000", "185127.935000", "185128.395000", "185128.855000", "185129.315000", "185129.775000", "185130.235000", "185130.695000", "185131.155000", "185131.615000", "185132.075000", "185132.535000", "185132.995000", "185133.455000", "185133.915000", "185134.375000", "185134.835000", "185135.295000", "185135.755000", "185136.215000", "185136.675000", "185137.135000", "185137.595000", "185138.055000", "185138.515000", "185138.975000", "185139.435000", "185139.895000", "185140.355000", "185140.815000", "185141.275000", "185141.735000", "185142.195000", "185142.655000", "185143.115000", "185143.575000", "185144.035000", "185144.495000", "185144.955000", "185145.415000", "185145.875000", "185146.335000", "185146.795000", "185147.255000", "185147.715000", "185148.175000", "185148.635000", "185149.095000", "185149.555000", "185150.015000", "185150.475000", "185150.935000", "185151.395000", "185151.855000", "185152.315000", "185152.775000", "185153.235000", "185153.695000", "185154.155000", "185154.615000", "185155.075000", "185155.535000", "185155.995000", "185156.455000", "185156.915000", "185157.375000", "185157.835000", "185158.295000", "185158.755000", "185159.215000", "185159.675000", "185200.135000", "185200.595000"],
