{
  "AcquisitionMatrixPE": 82,
  "AcquisitionNumber": 1,
  "AcquisitionTime": "17:41:2.820000",
  "BandwidthPerPixelPhaseEncode": 24.888,
  "BaseResolution": 82,
  "BodyPartExamined": "BRAIN",
  "ConsistencyInfo": "N4_VE11E_LATEST_20181129",
  "ConversionSoftware": "dcm2niix",
  "ConversionSoftwareVersion": "v1.0.20201102",
  "DerivedVendorReportedEchoSpacing": 0.00049,
  "DeviceSerialNumber": "66112",
  "DwellTime": 2e-06,
  "EchoTime": 0.0272,
  "EchoTrainLength": 82,
  "EffectiveEchoSpacing": 0.00049,
  "FlipAngle": 44,
  "ImageComments": "Unaliased MB8/PE3",
  "ImageOrientationPatientDICOM": [0.999676, 0.0220728, -0.0126497, -0.0165768, 0.94233, 0.334275],
  "ImageType": [
    "ORIGINAL",
    "PRIMARY",
    "M",
    "MB",
    "ND",
    "NORM",
    "MOSAIC"
],
  "ImagingFrequency": 123.252,
  "InPlanePhaseEncodingDirectionDICOM": "COL",
  "InstitutionAddress": "Maynard 3,Hanover,NH,US,03755",
  "InstitutionName": "Dartmouth College - PBS",
  "InstitutionalDepartmentName": "Department",
  "MRAcquisitionType": "2D",
  "MagneticFieldStrength": 3,
  "Manufacturer": "Siemens",
  "ManufacturersModelName": "Prisma",
  "Modality": "MR",
  "MultibandAccelerationFactor": 8,
  "PartialFourier": 1,
  "PatientPosition": "HFS",
  "PercentPhaseFOV": 100,
  "PercentSampling": 100,
  "PhaseEncodingDirection": "j-",
  "PhaseEncodingSteps": 82,
  "PhaseResolution": 1,
  "PixelBandwidth": 3050,
  "ProcedureStepDescription": "Wager_Wager^1076_spacetop",
  "ProtocolName": "func_run-03_task-social_acq-ap-mb8",
  "PulseSequenceDetails": "%CustomerSeq%\\cmrr_mbep2d_bold",
  "ReceiveCoilActiveElements": "HEA;HEP",
  "ReceiveCoilName": "Head_32",
  "ReconMatrixPE": 82,
  "RepetitionTime": 0.46,
  "SAR": 0.107006,
  "ScanOptions": "FS",
  "ScanningSequence": "EP",
  "SequenceName": "epfid2d1_82",
  "SequenceVariant": "SK\\SS",
  "SeriesDescription": "func_run-03_task-social_acq-ap-mb8",
  "SeriesNumber": 16,
  "ShimSetting": [4147, -7826, -7224, 605, -42, -208, 62, 66],
  "SliceThickness": 2.7,
  "SliceTiming": [0, 0.25, 0.0625, 0.315, 0.125, 0.3775, 0.1875, 0, 0.25, 0.0625, 0.315, 0.125, 0.3775, 0.1875, 0, 0.25, 0.0625, 0.315, 0.125, 0.3775, 0.1875, 0, 0.25, 0.0625, 0.315, 0.125, 0.3775, 0.1875, 0, 0.25, 0.0625, 0.315, 0.125, 0.3775, 0.1875, 0, 0.25, 0.0625, 0.315, 0.125, 0.3775, 0.1875, 0, 0.25, 0.0625, 0.315, 0.125, 0.3775, 0.1875, 0, 0.25, 0.0625, 0.315, 0.125, 0.3775, 0.1875],
  "SoftwareVersions": "syngo MR E11",
  "SpacingBetweenSlices": 2.7,
  "StationName": "AWP66112",
  "TaskName": "social",
  "TotalReadoutTime": 0.03969,
  "TxRefAmp": 239.558,
  "WipMemBlock": "1311cb14-8637-4415-adb0-739f4f7ec524||Sequence: R016 ve11e/master r/434b28f1; Aug  7 2019 18:53:46 by eja",
  "dcmmeta_affine": [
    [-2.682058572769165, -0.04447425901889801, -0.05210617929697037, 117.03932189941406],
    [-0.05921979248523712, 2.5282015800476074, 0.9016851186752319, -114.65628051757812],
    [-0.0339382030069828, -0.8968362808227539, 2.544454574584961, -6.75306510925293],
    [0.0, 0.0, 0.0, 1.0]
],
  "dcmmeta_reorient_transform": [
    [0.0, -1.0, 0.0, 81.0],
    [1.0, 0.0, 0.0, 0.0],
    [0.0, 0.0, 1.0, 0.0],
    [0.0, 0.0, 0.0, 1.0]
],
  "dcmmeta_shape": [82, 82, 56, 872],
  "dcmmeta_slice_dim": 2,
  "dcmmeta_version": 0.6,
  "global": {
    "const": {
      "AccessionNumber": "A004115",
      "AcquisitionMatrix": [82, 0, 0, 82],
      "AngioFlag": "N",
      "BitsAllocated": 16,
      "BitsStored": 16,
      "BodyPartExamined": "BRAIN",
      "Columns": 656,
      "EchoNumbers": 1,
      "EchoTime": 27.2,
      "EchoTrainLength": 82,
      "FlipAngle": 44.0,
      "HighBit": 15,
      "ImageOrientationPatient": [0.999676335311, 0.02207283112519, -0.0126496934857, -0.0165767686036, 0.942329673909, 0.33427533024923],
      "ImagePositionPatient": [-870.42359498672, -832.71799640783, -327.04854958276],
      "ImageType": [
        "ORIGINAL",
        "PRIMARY",
        "M",
        "MB",
        "ND",
        "NORM",
        "MOSAIC"
],
      "ImagedNucleus": "1H",
      "ImagingFrequency": 123.252161,
      "InPlanePhaseEncodingDirection": "COL",
      "MRAcquisitionType": "2D",
      "MagneticFieldStrength": 3.0,
      "Manufacturer": "SIEMENS",
      "ManufacturerModelName": "Prisma",
      "Modality": "MR",
      "NumberOfAverages": 1.0,
      "NumberOfPhaseEncodingSteps": 82,
      "PercentPhaseFieldOfView": 100.0,
      "PercentSampling": 100.0,
      "PerformedProcedureStepStartTime": "164920.849000",
      "PhotometricInterpretation": "MONOCHROME2",
      "PixelBandwidth": 3050.0,
      "PixelRepresentation": 0,
      "PixelSpacing": [2.6829268932343, 2.6829268932343],
      "ProtocolName": "func_run-03_task-social_acq-ap-mb8",
      "RepetitionTime": 460.0,
      "Rows": 656,
      "SAR": 0.107006295219,
      "SamplesPerPixel": 1,
      "ScanOptions": "FS",
      "ScanningSequence": "EP",
      "SequenceName": "epfid2d1_82",
      "SequenceVariant": [
        "SK",
        "SS"
],
      "SeriesDescription": "func_run-03_task-social_acq-ap-mb8",
      "SeriesNumber": 16,
      "SeriesTime": "174127.472000",
      "SliceLocation": -46.913037343897,
      "SliceThickness": 2.7000000476837,
      "SmallestImagePixelValue": 0,
      "SoftwareVersions": "syngo MR E11",
      "SpacingBetweenSlices": 2.6999999930798,
      "SpecificCharacterSet": "ISO_IR 100",
      "StudyID": "1",
      "StudyTime": "164920.778000",
      "TransmitCoilName": "Body",
      "VariableFlipAngleFlag": "N",
      "WindowCenterWidthExplanation": "Algo1"
    },
    "slices": {}
  },
  "time": {
    "samples": {
      "AcquisitionNumber": [1, 2, 3, 4, 5, 6, 7, 8, 9, 10, 11, 12, 13, 14, 15, 16, 17, 18, 19, 20, 21, 22, 23, 24, 25, 26, 27, 28, 29, 30, 31, 32, 33, 34, 35, 36, 37, 38, 39, 40, 41, 42, 43, 44, 45, 46, 47, 48, 49, 50, 51, 52, 53, 54, 55, 56, 57, 58, 59, 60, 61, 62, 63, 64, 65, 66, 67, 68, 69, 70, 71, 72, 73, 74, 75, 76, 77, 78, 79, 80, 81, 82, 83, 84, 85, 86, 87, 88, 89, 90, 91, 92, 93, 94, 95, 96, 97, 98, 99, 100, 101, 102, 103, 104, 105, 106, 107, 108, 109, 110, 111, 112, 113, 114, 115, 116, 117, 118, 119, 120, 121, 122, 123, 124, 125, 126, 127, 128, 129, 130, 131, 132, 133, 134, 135, 136, 137, 138, 139, 140, 141, 142, 143, 144, 145, 146, 147, 148, 149, 150, 151, 152, 153, 154, 155, 156, 157, 158, 159, 160, 161, 162, 163, 164, 165, 166, 167, 168, 169, 170, 171, 172, 173, 174, 175, 176, 177, 178, 179, 180, 181, 182, 183, 184, 185, 186, 187, 188, 189, 190, 191, 192, 193, 194, 195, 196, 197, 198, 199, 200, 201, 202, 203, 204, 205, 206, 207, 208, 209, 210, 211, 212, 213, 214, 215, 216, 217, 218, 219, 220, 221, 222, 223, 224, 225, 226, 227, 228, 229, 230, 231, 232, 233, 234, 235, 236, 237, 238, 239, 240, 241, 242, 243, 244, 245, 246, 247, 248, 249, 250, 251, 252, 253, 254, 255, 256, 257, 258, 259, 260, 261, 262, 263, 264, 265, 266, 267, 268, 269, 270, 271, 272, 273, 274, 275, 276, 277, 278, 279, 280, 281, 282, 283, 284, 285, 286, 287, 288, 289, 290, 291, 292, 293, 294, 295, 296, 297, 298, 299, 300, 301, 302, 303, 304, 305, 306, 307, 308, 309, 310, 311, 312, 313, 314, 315, 316, 317, 318, 319, 320, 321, 322, 323, 324, 325, 326, 327, 328, 329, 330, 331, 332, 333, 334, 335, 336, 337, 338, 339, 340, 341, 342, 343, 344, 345, 346, 347, 348, 349, 350, 351, 352, 353, 354, 355, 356, 357, 358, 359, 360, 361, 362, 363, 364, 365, 366, 367, 368, 369, 370, 371, 372, 373, 374, 375, 376, 377, 378, 379, 380, 381, 382, 383, 384, 385, 386, 387, 388, 389, 390, 391, 392, 393, 394, 395, 396, 397, 398, 399, 400, 401, 402, 403, 404, 405, 406, 407, 408, 409, 410, 411, 412, 413, 414, 415, 416, 417, 418, 419, 420, 421, 422, 423, 424, 425, 426, 427, 428, 429, 430, 431, 432, 433, 434, 435, 436, 437, 438, 439, 440, 441, 442, 443, 444, 445, 446, 447, 448, 449, 450, 451, 452, 453, 454, 455, 456, 457, 458, 459, 460, 461, 462, 463, 464, 465, 466, 467, 468, 469, 470, 471, 472, 473, 474, 475, 476, 477, 478, 479, 480, 481, 482, 483, 484, 485, 486, 487, 488, 489, 490, 491, 492, 493, 494, 495, 496, 497, 498, 499, 500, 501, 502, 503, 504, 505, 506, 507, 508, 509, 510, 511, 512, 513, 514, 515, 516, 517, 518, 519, 520, 521, 522, 523, 524, 525, 526, 527, 528, 529, 530, 531, 532, 533, 534, 535, 536, 537, 538, 539, 540, 541, 542, 543, 544, 545, 546, 547, 548, 549, 550, 551, 552, 553, 554, 555, 556, 557, 558, 559, 560, 561, 562, 563, 564, 565, 566, 567, 568, 569, 570, 571, 572, 573, 574, 575, 576, 577, 578, 579, 580, 581, 582, 583, 584, 585, 586, 587, 588, 589, 590, 591, 592, 593, 594, 595, 596, 597, 598, 599, 600, 601, 602, 603, 604, 605, 606, 607, 608, 609, 610, 611, 612, 613, 614, 615, 616, 617, 618, 619, 620, 621, 622, 623, 624, 625, 626, 627, 628, 629, 630, 631, 632, 633, 634, 635, 636, 637, 638, 639, 640, 641, 642, 643, 644, 645, 646, 647, 648, 649, 650, 651, 652, 653, 654, 655, 656, 657, 658, 659, 660, 661, 662, 663, 664, 665, 666, 667, 668, 669, 670, 671, 672, 673, 674, 675, 676, 677, 678, 679, 680, 681, 682, 683, 684, 685, 686, 687, 688, 689, 690, 691, 692, 693, 694, 695, 696, 697, 698, 699, 700, 701, 702, 703, 704, 705, 706, 707, 708, 709, 710, 711, 712, 713, 714, 715, 716, 717, 718, 719, 720, 721, 722, 723, 724, 725, 726, 727, 728, 729, 730, 731, 732, 733, 734, 735, 736, 737, 738, 739, 740, 741, 742, 743, 744, 745, 746, 747, 748, 749, 750, 751, 752, 753, 754, 755, 756, 757, 758, 759, 760, 761, 762, 763, 764, 765, 766, 767, 768, 769, 770, 771, 772, 773, 774, 775, 776, 777, 778, 779, 780, 781, 782, 783, 784, 785, 786, 787, 788, 789, 790, 791, 792, 793, 794, 795, 796, 797, 798, 799, 800, 801, 802, 803, 804, 805, 806, 807, 808, 809, 810, 811, 812, 813, 814, 815, 816, 817, 818, 819, 820, 821, 822, 823, 824, 825, 826, 827, 828, 829, 830, 831, 832, 833, 834, 835, 836, 837, 838, 839, 840, 841, 842, 843, 844, 845, 846, 847, 848, 849, 850, 851, 852, 853, 854, 855, 856, 857, 858, 859, 860, 861, 862, 863, 864, 865, 866, 867, 868, 869, 870, 871, 872],
      "AcquisitionTime": ["174102.820000", "174103.280000", "174103.740000", "174104.200000", "174104.660000", "174105.120000", "174105.580000", "174106.040000", "174106.500000", "174106.960000", "174107.420000", "174107.880000", "174108.340000", "174108.800000", "174109.260000", "174109.720000", "174110.180000", "174110.640000", "174111.100000", "174111.560000", "174112.020000", "174112.480000", "174112.940000", "174113.400000", "174113.860000", "174114.320000", "174114.780000", "174115.240000", "174115.700000", "174116.160000", "174116.620000", "174117.080000", "174117.540000", "174118.000000", "174118.460000", "174118.920000", "174119.380000", "174119.840000", "174120.300000", "174120.760000", "174121.220000", "174121.680000", "174122.140000", "174122.600000", "174123.060000", "174123.520000", "174123.980000", "174124.440000", "174124.900000", "174125.360000", "174125.820000", "174126.280000", "174126.740000", "174127.200000", "174127.660000", "174128.120000", "174128.580000", "174129.040000", "174129.500000", "174129.960000", "174130.420000", "174130.880000", "174131.340000", "174131.800000", "174132.260000", "174132.720000", "174133.180000", "174133.640000", "174134.100000", "174134.560000", "174135.020000", "174135.480000", "174135.940000", "174136.400000", "174136.860000", "174137.320000", "174137.780000", "174138.240000", "174138.700000", "174139.160000", "174139.620000", "174140.080000", "174140.540000", "174141.000000", "174141.460000", "174141.920000", "174142.380000", "174142.840000", "174143.300000", "174143.760000", "174144.220000", "174144.680000", "174145.140000", "174145.600000", "174146.060000", "174146.520000", "174146.980000", "174147.440000", "174147.900000", "174148.360000", "174148.820000", "174149.280000", "174149.740000", "174150.200000", "174150.660000", "174151.120000", "174151.580000", "174152.040000", "174152.500000", "174152.960000", "174153.420000", "174153.880000", "174154.340000", "174154.800000", "174155.260000", "174155.720000", "174156.180000", "174156.640000", "174157.100000", "174157.560000", "174158.020000", "174158.480000", "174158.940000", "174159.400000", "174159.860000", "174200.320000", "174200.780000", "174201.240000", "174201.700000", "174202.160000", "174202.620000", "174203.080000", "174203.540000", "174204.000000", "174204.460000", "174204.920000", "174205.380000", "174205.840000", "174206.300000", "174206.760000", "174207.220000", "174207.680000", "174208.140000", "174208.600000", "174209.060000", "174209.520000", "174209.980000", "174210.440000", "174210.900000", "174211.360000", "174211.820000", "174212.280000", "174212.740000", "174213.200000", "174213.660000", "174214.120000", "174214.580000", "174215.040000", "174215.500000", "174215.960000", "174216.420000", "174216.880000", "174217.340000", "174217.800000", "174218.260000", "174218.720000", "174219.180000", "174219.640000", "174220.100000", "174220.560000", "174221.020000", "174221.480000", "174221.940000", "174222.400000", "174222.860000", "174223.320000", "174223.780000", "174224.240000", "174224.700000", "174225.160000", "174225.620000", "174226.080000", "174226.540000", "174227.000000", "174227.460000", "174227.920000", "174228.380000", "174228.840000", "174229.300000", "174229.760000", "174230.220000", "174230.680000", "174231.140000", "174231.600000", "174232.060000", "174232.520000", "174232.980000", "174233.440000", "174233.900000", "174234.360000", "174234.820000", "174235.280000", "174235.740000", "174236.200000", "174236.660000", "174237.120000", "174237.580000", "174238.040000", "174238.500000", "174238.960000", "174239.420000", "174239.880000", "174240.340000", "174240.800000", "174241.260000", "174241.720000", "174242.180000", "174242.640000", "174243.100000", "174243.560000", "174244.020000", "174244.480000", "174244.940000", "174245.400000", "174245.860000", "174246.320000", "174246.780000", "174247.240000", "174247.700000", "174248.160000", "174248.620000", "174249.080000", "174249.540000", "174250.000000", "174250.460000", "174250.920000", "174251.380000", "174251.840000", "174252.300000", "174252.760000", "174253.220000", "174253.680000", "174254.140000", "174254.600000", "174255.060000", "174255.520000", "174255.980000", "174256.440000", "174256.900000", "174257.360000", "174257.820000", "174258.280000", "174258.740000", "174259.200000", "174259.660000", "174300.120000", "174300.580000", "174301.040000", "174301.500000", "174301.960000", "174302.420000", "174302.880000", "174303.340000", "174303.800000", "174304.260000", "174304.720000", "174305.180000", "174305.640000", "174306.100000", "174306.560000", "174307.020000", "174307.480000", "174307.940000", "174308.400000", "174308.860000", "174309.320000", "174309.780000", "174310.240000", "174310.700000", "174311.160000", "174311.620000", "174312.080000", "174312.540000", "174313.000000", "174313.460000", "174313.920000", "174314.380000", "174314.840000", "174315.300000", "174315.760000", "174316.220000", "174316.680000", "174317.140000", "174317.600000", "174318.060000", "174318.520000", "174318.980000", "174319.440000", "174319.900000", "174320.360000", "174320.820000", "174321.280000", "174321.740000", "174322.200000", "174322.660000", "174323.120000", "174323.580000", "174324.040000", "174324.500000", "174324.960000", "174325.420000", "174325.880000", "174326.340000", "174326.800000", "174327.260000", "174327.720000", "174328.180000", "174328.640000", "174329.100000", "174329.560000", "174330.020000", "174330.480000", "174330.940000", "174331.400000", "174331.860000", "174332.320000", "174332.780000", "174333.240000", "174333.700000", "174334.160000", "174334.620000", "174335.080000", "174335.540000", "174336.000000", "174336.460000", "174336.920000", "174337.380000", "174337.840000", "174338.300000", "174338.760000", "174339.220000", "174339.680000", "174340.140000", "174340.600000", "174341.060000", "174341.520000", "174341.980000", "174342.440000", "174342.900000", "174343.360000", "174343.820000", "174344.280000", "174344.740000", "174345.200000", "174345.660000", "174346.120000", "174346.580000", "174347.040000", "174347.500000", "174347.960000", "174348.420000", "174348.880000", "174349.340000", "174349.800000", "174350.260000", "174350.720000", "174351.180000", "174351.640000", "174352.100000", "174352.560000", "174353.020000", "174353.480000", "174353.940000", "174354.400000", "174354.860000", "174355.320000", "174355.780000", "174356.240000", "174356.700000", "174357.160000", "174357.620000", "174358.080000", "174358.540000", "174359.000000", "174359.460000", "174359.920000", "174400.380000", "174400.840000", "174401.300000", "174401.760000", "174402.220000", "174402.680000", "174403.140000", "174403.600000", "174404.060000", "174404.520000", "174404.980000", "174405.440000", "174405.900000", "174406.360000", "174406.820000", "174407.280000", "174407.740000", "174408.200000", "174408.660000", "174409.120000", "174409.580000", "174410.040000", "174410.500000", "174410.960000", "174411.420000", "174411.880000", "174412.340000", "174412.800000", "174413.260000", "174413.720000", "174414.180000", "174414.640000", "174415.100000", "174415.560000", "174416.020000", "174416.480000", "174416.940000", "174417.400000", "174417.860000", "174418.320000", "174418.780000", "174419.240000", "174419.700000", "174420.160000", "174420.620000", "174421.080000", "174421.540000", "174422.000000", "174422.460000", "174422.920000", "174423.380000", "174423.840000", "174424.300000", "174424.760000", "174425.220000", "174425.680000", "174426.140000", "174426.600000", "174427.060000", "174427.520000", "174427.980000", "174428.440000", "174428.900000", "174429.360000", "174429.820000", "174430.280000", "174430.740000", "174431.200000", "174431.660000", "174432.120000", "174432.580000", "174433.040000", "174433.500000", "174433.960000", "174434.420000", "174434.880000", "174435.340000", "174435.800000", "174436.260000", "174436.720000", "174437.180000", "174437.640000", "174438.100000", "174438.560000", "174439.020000", "174439.480000", "174439.940000", "174440.400000", "174440.860000", "174441.320000", "174441.780000", "174442.240000", "174442.700000", "174443.160000", "174443.620000", "174444.080000", "174444.540000", "174445.000000", "174445.460000", "174445.920000", "174446.380000", "174446.840000", "174447.300000", "174447.760000", "174448.220000", "174448.680000", "174449.140000", "174449.600000", "174450.060000", "174450.520000", "174450.980000", "174451.440000", "174451.900000", "174452.360000", "174452.820000", "174453.280000", "174453.740000", "174454.200000", "174454.660000", "174455.120000", "174455.580000", "174456.040000", "174456.500000", "174456.960000", "174457.420000", "174457.880000", "174458.340000", "174458.800000", "174459.260000", "174459.720000", "174500.180000", "174500.640000", "174501.100000", "174501.560000", "174502.020000", "174502.480000", "174502.940000", "174503.400000", "174503.860000", "174504.320000", "174504.780000", "174505.240000", "174505.700000", "174506.160000", "174506.620000", "174507.080000", "174507.540000", "174508.000000", "174508.460000", "174508.920000", "174509.380000", "174509.840000", "174510.300000", "174510.760000", "174511.220000", "174511.680000", "174512.140000", "174512.600000", "174513.060000", "174513.520000", "174513.980000", "174514.440000", "174514.900000", "174515.360000", "174515.820000", "174516.280000", "174516.740000", "174517.200000", "174517.660000", "174518.120000", "174518.580000", "174519.040000", "174519.500000", "174519.960000", "174520.420000", "174520.880000", "174521.340000", "174521.800000", "174522.260000", "174522.720000", "174523.180000", "174523.640000", "174524.100000", "174524.560000", "174525.020000", "174525.480000", "174525.940000", "174526.400000", "174526.860000", "174527.320000", "174527.780000", "174528.240000", "174528.700000", "174529.160000", "174529.620000", "174530.080000", "174530.540000", "174531.000000", "174531.460000", "174531.920000", "174532.380000", "174532.840000", "174533.300000", "174533.760000", "174534.220000", "174534.680000", "174535.140000", "174535.600000", "174536.060000", "174536.520000", "174536.980000", "174537.440000", "174537.900000", "174538.360000", "174538.820000", "174539.280000", "174539.740000", "174540.200000", "174540.660000", "174541.120000", "174541.580000", "174542.040000", "174542.500000", "174542.960000", "174543.420000", "174543.880000", "174544.340000", "174544.800000", "174545.260000", "174545.720000", "174546.180000", "174546.640000", "174547.100000", "174547.560000", "174548.020000", "174548.480000", "174548.940000", "174549.400000", "174549.860000", "174550.320000", "174550.780000", "174551.240000", "174551.700000", "174552.160000", "174552.620000", "174553.080000", "174553.540000", "174554.000000", "174554.460000", "174554.920000", "174555.380000", "174555.840000", "174556.300000", "174556.760000", "174557.220000", "174557.680000", "174558.140000", "174558.600000", "174559.060000", "174559.520000", "174559.980000", "174600.440000", "174600.900000", "174601.360000", "174601.820000", "174602.280000", "174602.740000", "174603.200000", "174603.660000", "174604.120000", "174604.580000", "174605.040000", "174605.500000", "174605.960000", "174606.420000", "174606.880000", "174607.340000", "174607.800000", "174608.260000", "174608.720000", "174609.180000", "174609.640000", "174610.100000", "174610.560000", "174611.020000", "174611.480000", "174611.940000", "174612.400000", "174612.860000", "174613.320000", "174613.780000", "174614.240000", "174614.700000", "174615.160000", "174615.620000", "174616.080000", "174616.540000", "174617.000000", "174617.460000", "174617.920000", "174618.380000", "174618.840000", "174619.300000", "174619.760000", "174620.220000", "174620.680000", "174621.140000", "174621.600000", "174622.060000", "174622.520000", "174622.980000", "174623.440000", "174623.900000", "174624.360000", "174624.820000", "174625.280000", "174625.740000", "174626.200000", "174626.660000", "174627.120000", "174627.580000", "174628.040000", "174628.500000", "174628.960000", "174629.420000", "174629.880000", "174630.340000", "174630.800000", "174631.260000", "174631.720000", "174632.180000", "174632.640000", "174633.100000", "174633.560000", "174634.020000", "174634.480000", "174634.940000", "174635.400000", "174635.860000", "174636.320000", "174636.780000", "174637.240000", "174637.700000", "174638.160000", "174638.620000", "174639.080000", "174639.540000", "174640.000000", "174640.460000", "174640.920000", "174641.380000", "174641.840000", "174642.300000", "174642.760000", "174643.220000", "174643.680000", "174644.140000", "174644.600000", "174645.060000", "174645.520000", "174645.980000", "174646.440000", "174646.900000", "174647.360000", "174647.820000", "174648.280000", "174648.740000", "174649.200000", "174649.660000", "174650.120000", "174650.580000", "174651.040000", "174651.500000", "174651.960000", "174652.420000", "174652.880000", "174653.340000", "174653.800000", "174654.260000", "174654.720000", "174655.180000", "174655.640000", "174656.100000", "174656.560000", "174657.020000", "174657.480000", "174657.940000", "174658.400000", "174658.860000", "174659.320000", "174659.780000", "174700.240000", "174700.700000", "174701.160000", "174701.620000", "174702.080000", "174702.540000", "174703.000000", "174703.460000", "174703.920000", "174704.380000", "174704.840000", "174705.300000", "174705.760000", "174706.220000", "174706.680000", "174707.140000", "174707.600000", "174708.060000", "174708.520000", "174708.980000", "174709.440000", "174709.900000", "174710.360000", "174710.820000", "174711.280000", "174711.740000", "174712.200000", "174712.660000", "174713.120000", "174713.580000", "174714.040000", "174714.500000", "174714.960000", "174715.420000", "174715.880000", "174716.340000", "174716.800000", "174717.260000", "174717.720000", "174718.180000", "174718.640000", "174719.100000", "174719.560000", "174720.020000", "174720.480000", "174720.940000", "174721.400000", "174721.860000", "174722.320000", "174722.780000", "174723.240000", "174723.700000", "174724.160000", "174724.620000", "174725.080000", "174725.540000", "174726.000000", "174726.460000", "174726.920000", "174727.380000", "174727.840000", "174728.300000", "174728.760000", "174729.220000", "174729.680000", "174730.140000", "174730.600000", "174731.060000", "174731.520000", "174731.980000", "174732.440000", "174732.900000", "174733.360000", "174733.820000", "174734.280000", "174734.740000", "174735.200000", "174735.660000", "174736.120000", "174736.580000", "174737.040000", "174737.500000", "174737.960000", "174738.420000", "174738.880000", "174739.340000", "174739.800000", "174740.260000", "174740.720000", "174741.180000", "174741.640000", "174742.100000", "174742.560000", "174743.020000", "174743.480000"],
