{
  "AcquisitionMatrixPE": 82,
  "AcquisitionNumber": 1,
  "AcquisitionTime": "18:07:29.002500",
  "BandwidthPerPixelPhaseEncode": 24.888,
  "BaseResolution": 82,
  "BodyPartExamined": "BRAIN",
  "ConsistencyInfo": "N4_VE11E_LATEST_20181129",
  "ConversionSoftware": "dcm2niix",
  "ConversionSoftwareVersion": "v1.0.20201102",
  "DerivedVendorReportedEchoSpacing": 0.00049,
  "DeviceSerialNumber": "66112",
  "DwellTime": 2e-06,
  "EchoTime": 0.0272,
  "EchoTrainLength": 82,
  "EffectiveEchoSpacing": 0.00049,
  "FlipAngle": 44,
  "ImageComments": "Unaliased MB8/PE3",
  "ImageOrientationPatientDICOM": [0.999559, 0.0265317, 0.0133157, -0.029317, 0.952741, 0.302367],
  "ImageType": [
    "ORIGINAL",
    "PRIMARY",
    "M",
    "MB",
    "ND",
    "NORM",
    "MOSAIC"
],
  "ImagingFrequency": 123.252,
  "InPlanePhaseEncodingDirectionDICOM": "COL",
  "InstitutionAddress": "Maynard 3,Hanover,NH,US,03755",
  "InstitutionName": "Dartmouth College - PBS",
  "InstitutionalDepartmentName": "Department",
  "MRAcquisitionType": "2D",
  "MagneticFieldStrength": 3,
  "Manufacturer": "Siemens",
  "ManufacturersModelName": "Prisma",
  "Modality": "MR",
  "MultibandAccelerationFactor": 8,
  "PartialFourier": 1,
  "PatientPosition": "HFS",
  "PercentPhaseFOV": 100,
  "PercentSampling": 100,
  "PhaseEncodingDirection": "j-",
  "PhaseEncodingSteps": 82,
  "PhaseResolution": 1,
  "PixelBandwidth": 3050,
  "ProcedureStepDescription": "Wager_Wager^1076_spacetop",
  "ProtocolName": "func_run-05_task-social_acq-ap-mb8",
  "PulseSequenceDetails": "%CustomerSeq%\\cmrr_mbep2d_bold",
  "ReceiveCoilActiveElements": "HEA;HEP",
  "ReceiveCoilName": "Head_32",
  "ReconMatrixPE": 82,
  "RepetitionTime": 0.46,
  "SAR": 0.108959,
  "ScanOptions": "FS",
  "ScanningSequence": "EP",
  "SequenceName": "epfid2d1_82",
  "SequenceVariant": "SK\\SS",
  "SeriesDescription": "func_run-05_task-social_acq-ap-mb8",
  "SeriesNumber": 26,
  "ShimSetting": [4152, -7827, -7207, 599, -68, -239, 34, 99],
  "SliceThickness": 2.7,
  "SliceTiming": [0, 0.25, 0.0625, 0.315, 0.125, 0.3775, 0.1875, 0, 0.25, 0.0625, 0.315, 0.125, 0.3775, 0.1875, 0, 0.25, 0.0625, 0.315, 0.125, 0.3775, 0.1875, 0, 0.25, 0.0625, 0.315, 0.125, 0.3775, 0.1875, 0, 0.25, 0.0625, 0.315, 0.125, 0.3775, 0.1875, 0, 0.25, 0.0625, 0.315, 0.125, 0.3775, 0.1875, 0, 0.25, 0.0625, 0.315, 0.125, 0.3775, 0.1875, 0, 0.25, 0.0625, 0.315, 0.125, 0.3775, 0.1875],
  "SoftwareVersions": "syngo MR E11",
  "SpacingBetweenSlices": 2.7,
  "StationName": "AWP66112",
  "TaskName": "social",
  "TotalReadoutTime": 0.03969,
  "TxRefAmp": 239.834,
  "WipMemBlock": "7d60c450-f278-4ffe-8957-a74358032b27||Sequence: R016 ve11e/master r/434b28f1; Aug  7 2019 18:53:46 by eja",
  "dcmmeta_affine": [
    [-2.6817445755004883, -0.07865540683269501, 0.012593116611242294, 114.111572265625],
    [-0.07118268311023712, 2.556133508682251, 0.8170852661132812, -113.45447540283203],
    [0.03572513535618782, -0.8112287521362305, 2.573366165161133, -9.286981582641602],
    [0.0, 0.0, 0.0, 1.0]
],
  "dcmmeta_reorient_transform": [
    [0.0, -1.0, 0.0, 81.0],
    [1.0, 0.0, 0.0, 0.0],
    [0.0, 0.0, 1.0, 0.0],
    [0.0, 0.0, 0.0, 1.0]
],
  "dcmmeta_shape": [82, 82, 56, 872],
  "dcmmeta_slice_dim": 2,
  "dcmmeta_version": 0.6,
  "global": {
    "const": {
      "AccessionNumber": "A004115",
      "AcquisitionMatrix": [82, 0, 0, 82],
      "AngioFlag": "N",
      "BitsAllocated": 16,
      "BitsStored": 16,
      "BodyPartExamined": "BRAIN",
      "Columns": 656,
      "EchoNumbers": 1,
      "EchoTime": 27.2,
      "EchoTrainLength": 82,
      "FlipAngle": 44.0,
      "HighBit": 15,
      "ImageOrientationPatient": [0.99955928224279, 0.02653172779318, 0.01331573139496, -0.0293170136736, 0.95274061091487, 0.30236706338955],
      "ImagePositionPatient": [-854.82705260437, -847.63205123629, -318.07226648531],
      "ImageType": [
        "ORIGINAL",
        "PRIMARY",
        "M",
        "MB",
        "ND",
        "NORM",
        "MOSAIC"
],
      "ImagedNucleus": "1H",
      "ImagingFrequency": 123.252155,
      "InPlanePhaseEncodingDirection": "COL",
      "MRAcquisitionType": "2D",
      "MagneticFieldStrength": 3.0,
      "Manufacturer": "SIEMENS",
      "ManufacturerModelName": "Prisma",
      "Modality": "MR",
      "NumberOfAverages": 1.0,
      "NumberOfPhaseEncodingSteps": 82,
      "PercentPhaseFieldOfView": 100.0,
      "PercentSampling": 100.0,
      "PerformedProcedureStepStartTime": "164920.849000",
      "PhotometricInterpretation": "MONOCHROME2",
      "PixelBandwidth": 3050.0,
      "PixelRepresentation": 0,
      "PixelSpacing": [2.6829268932343, 2.6829268932343],
      "ProtocolName": "func_run-05_task-social_acq-ap-mb8",
      "RepetitionTime": 460.0,
      "Rows": 656,
      "SAR": 0.1089591015024,
      "SamplesPerPixel": 1,
      "ScanOptions": "FS",
      "ScanningSequence": "EP",
      "SequenceName": "epfid2d1_82",
      "SequenceVariant": [
        "SK",
        "SS"
],
      "SeriesDescription": "func_run-05_task-social_acq-ap-mb8",
      "SeriesNumber": 26,
      "SeriesTime": "180747.472000",
      "SliceLocation": -42.653246499267,
      "SliceThickness": 2.7000000476837,
      "SmallestImagePixelValue": 0,
      "SoftwareVersions": "syngo MR E11",
      "SpacingBetweenSlices": 2.6999999793686,
      "SpecificCharacterSet": "ISO_IR 100",
      "StudyID": "1",
      "StudyTime": "164920.778000",
      "TransmitCoilName": "Body",
      "VariableFlipAngleFlag": "N",
      "WindowCenterWidthExplanation": "Algo1"
    },
    "slices": {}
  },
  "time": {
    "samples": {
      "AcquisitionNumber": [1, 2, 3, 4, 5, 6, 7, 8, 9, 10, 11, 12, 13, 14, 15, 16, 17, 18, 19, 20, 21, 22, 23, 24, 25, 26, 27, 28, 29, 30, 31, 32, 33, 34, 35, 36, 37, 38, 39, 40, 41, 42, 43, 44, 45, 46, 47, 48, 49, 50, 51, 52, 53, 54, 55, 56, 57, 58, 59, 60, 61, 62, 63, 64, 65, 66, 67, 68, 69, 70, 71, 72, 73, 74, 75, 76, 77, 78, 79, 80, 81, 82, 83, 84, 85, 86, 87, 88, 89, 90, 91, 92, 93, 94, 95, 96, 97, 98, 99, 100, 101, 102, 103, 104, 105, 106, 107, 108, 109, 110, 111, 112, 113, 114, 115, 116, 117, 118, 119, 120, 121, 122, 123, 124, 125, 126, 127, 128, 129, 130, 131, 132, 133, 134, 135, 136, 137, 138, 139, 140, 141, 142, 143, 144, 145, 146, 147, 148, 149, 150, 151, 152, 153, 154, 155, 156, 157, 158, 159, 160, 161, 162, 163, 164, 165, 166, 167, 168, 169, 170, 171, 172, 173, 174, 175, 176, 177, 178, 179, 180, 181, 182, 183, 184, 185, 186, 187, 188, 189, 190, 191, 192, 193, 194, 195, 196, 197, 198, 199, 200, 201, 202, 203, 204, 205, 206, 207, 208, 209, 210, 211, 212, 213, 214, 215, 216, 217, 218, 219, 220, 221, 222, 223, 224, 225, 226, 227, 228, 229, 230, 231, 232, 233, 234, 235, 236, 237, 238, 239, 240, 241, 242, 243, 244, 245, 246, 247, 248, 249, 250, 251, 252, 253, 254, 255, 256, 257, 258, 259, 260, 261, 262, 263, 264, 265, 266, 267, 268, 269, 270, 271, 272, 273, 274, 275, 276, 277, 278, 279, 280, 281, 282, 283, 284, 285, 286, 287, 288, 289, 290, 291, 292, 293, 294, 295, 296, 297, 298, 299, 300, 301, 302, 303, 304, 305, 306, 307, 308, 309, 310, 311, 312, 313, 314, 315, 316, 317, 318, 319, 320, 321, 322, 323, 324, 325, 326, 327, 328, 329, 330, 331, 332, 333, 334, 335, 336, 337, 338, 339, 340, 341, 342, 343, 344, 345, 346, 347, 348, 349, 350, 351, 352, 353, 354, 355, 356, 357, 358, 359, 360, 361, 362, 363, 364, 365, 366, 367, 368, 369, 370, 371, 372, 373, 374, 375, 376, 377, 378, 379, 380, 381, 382, 383, 384, 385, 386, 387, 388, 389, 390, 391, 392, 393, 394, 395, 396, 397, 398, 399, 400, 401, 402, 403, 404, 405, 406, 407, 408, 409, 410, 411, 412, 413, 414, 415, 416, 417, 418, 419, 420, 421, 422, 423, 424, 425, 426, 427, 428, 429, 430, 431, 432, 433, 434, 435, 436, 437, 438, 439, 440, 441, 442, 443, 444, 445, 446, 447, 448, 449, 450, 451, 452, 453, 454, 455, 456, 457, 458, 459, 460, 461, 462, 463, 464, 465, 466, 467, 468, 469, 470, 471, 472, 473, 474, 475, 476, 477, 478, 479, 480, 481, 482, 483, 484, 485, 486, 487, 488, 489, 490, 491, 492, 493, 494, 495, 496, 497, 498, 499, 500, 501, 502, 503, 504, 505, 506, 507, 508, 509, 510, 511, 512, 513, 514, 515, 516, 517, 518, 519, 520, 521, 522, 523, 524, 525, 526, 527, 528, 529, 530, 531, 532, 533, 534, 535, 536, 537, 538, 539, 540, 541, 542, 543, 544, 545, 546, 547, 548, 549, 550, 551, 552, 553, 554, 555, 556, 557, 558, 559, 560, 561, 562, 563, 564, 565, 566, 567, 568, 569, 570, 571, 572, 573, 574, 575, 576, 577, 578, 579, 580, 581, 582, 583, 584, 585, 586, 587, 588, 589, 590, 591, 592, 593, 594, 595, 596, 597, 598, 599, 600, 601, 602, 603, 604, 605, 606, 607, 608, 609, 610, 611, 612, 613, 614, 615, 616, 617, 618, 619, 620, 621, 622, 623, 624, 625, 626, 627, 628, 629, 630, 631, 632, 633, 634, 635, 636, 637, 638, 639, 640, 641, 642, 643, 644, 645, 646, 647, 648, 649, 650, 651, 652, 653, 654, 655, 656, 657, 658, 659, 660, 661, 662, 663, 664, 665, 666, 667, 668, 669, 670, 671, 672, 673, 674, 675, 676, 677, 678, 679, 680, 681, 682, 683, 684, 685, 686, 687, 688, 689, 690, 691, 692, 693, 694, 695, 696, 697, 698, 699, 700, 701, 702, 703, 704, 705, 706, 707, 708, 709, 710, 711, 712, 713, 714, 715, 716, 717, 718, 719, 720, 721, 722, 723, 724, 725, 726, 727, 728, 729, 730, 731, 732, 733, 734, 735, 736, 737, 738, 739, 740, 741, 742, 743, 744, 745, 746, 747, 748, 749, 750, 751, 752, 753, 754, 755, 756, 757, 758, 759, 760, 761, 762, 763, 764, 765, 766, 767, 768, 769, 770, 771, 772, 773, 774, 775, 776, 777, 778, 779, 780, 781, 782, 783, 784, 785, 786, 787, 788, 789, 790, 791, 792, 793, 794, 795, 796, 797, 798, 799, 800, 801, 802, 803, 804, 805, 806, 807, 808, 809, 810, 811, 812, 813, 814, 815, 816, 817, 818, 819, 820, 821, 822, 823, 824, 825, 826, 827, 828, 829, 830, 831, 832, 833, 834, 835, 836, 837, 838, 839, 840, 841, 842, 843, 844, 845, 846, 847, 848, 849, 850, 851, 852, 853, 854, 855, 856, 857, 858, 859, 860, 861, 862, 863, 864, 865, 866, 867, 868, 869, 870, 871, 872],
      "AcquisitionTime": ["180729.002500", "180729.462500", "180729.922500", "180730.382500", "180730.842500", "180731.302500", "180731.762500", "180732.222500", "180732.682500", "180733.142500", "180733.602500", "180734.062500", "180734.522500", "180734.982500", "180735.442500", "180735.902500", "180736.362500", "180736.822500", "180737.282500", "180737.742500", "180738.202500", "180738.662500", "180739.122500", "180739.582500", "180740.042500", "180740.502500", "180740.962500", "180741.422500", "180741.882500", "180742.342500", "180742.802500", "180743.262500", "180743.722500", "180744.182500", "180744.642500", "180745.102500", "180745.562500", "180746.022500", "180746.482500", "180746.942500", "180747.402500", "180747.862500", "180748.322500", "180748.782500", "180749.242500", "180749.702500", "180750.162500", "180750.622500", "180751.082500", "180751.542500", "180752.002500", "180752.462500", "180752.922500", "180753.382500", "180753.842500", "180754.302500", "180754.762500", "180755.222500", "180755.682500", "180756.142500", "180756.602500", "180757.062500", "180757.522500", "180757.982500", "180758.442500", "180758.902500", "180759.362500", "180759.822500", "180800.282500", "180800.742500", "180801.202500", "180801.662500", "180802.122500", "180802.582500", "180803.042500", "180803.502500", "180803.962500", "180804.422500", "180804.882500", "180805.342500", "180805.802500", "180806.262500", "180806.722500", "180807.182500", "180807.642500", "180808.102500", "180808.562500", "180809.022500", "180809.482500", "180809.942500", "180810.402500", "180810.862500", "180811.322500", "180811.782500", "180812.242500", "180812.702500", "180813.162500", "180813.622500", "180814.082500", "180814.542500", "180815.002500", "180815.462500", "180815.922500", "180816.382500", "180816.842500", "180817.302500", "180817.762500", "180818.222500", "180818.682500", "180819.142500", "180819.602500", "180820.062500", "180820.522500", "180820.982500", "180821.442500", "180821.902500", "180822.362500", "180822.822500", "180823.282500", "180823.742500", "180824.202500", "180824.662500", "180825.122500", "180825.582500", "180826.042500", "180826.502500", "180826.962500", "180827.422500", "180827.882500", "180828.342500", "180828.802500", "180829.262500", "180829.722500", "180830.182500", "180830.642500", "180831.102500", "180831.562500", "180832.022500", "180832.482500", "180832.942500", "180833.402500", "180833.862500", "180834.322500", "180834.782500", "180835.242500", "180835.702500", "180836.162500", "180836.622500", "180837.082500", "180837.542500", "180838.002500", "180838.462500", "180838.922500", "180839.382500", "180839.842500", "180840.302500", "180840.762500", "180841.222500", "180841.682500", "180842.142500", "180842.602500", "180843.062500", "180843.522500", "180843.982500", "180844.442500", "180844.902500", "180845.362500", "180845.822500", "180846.282500", "180846.742500", "180847.202500", "180847.662500", "180848.122500", "180848.582500", "180849.042500", "180849.502500", "180849.962500", "180850.422500", "180850.882500", "180851.342500", "180851.802500", "180852.262500", "180852.722500", "180853.182500", "180853.642500", "180854.102500", "180854.562500", "180855.022500", "180855.482500", "180855.942500", "180856.402500", "180856.862500", "180857.322500", "180857.782500", "180858.242500", "180858.702500", "180859.162500", "180859.622500", "180900.082500", "180900.542500", "180901.002500", "180901.462500", "180901.922500", "180902.382500", "180902.842500", "180903.302500", "180903.762500", "180904.222500", "180904.682500", "180905.142500", "180905.602500", "180906.062500", "180906.522500", "180906.982500", "180907.442500", "180907.902500", "180908.362500", "180908.822500", "180909.282500", "180909.742500", "180910.202500", "180910.662500", "180911.122500", "180911.582500", "180912.042500", "180912.502500", "180912.962500", "180913.422500", "180913.882500", "180914.342500", "180914.802500", "180915.262500", "180915.722500", "180916.182500", "180916.642500", "180917.102500", "180917.562500", "180918.022500", "180918.482500", "180918.942500", "180919.402500", "180919.862500", "180920.322500", "180920.782500", "180921.242500", "180921.702500", "180922.162500", "180922.622500", "180923.082500", "180923.542500", "180924.002500", "180924.462500", "180924.922500", "180925.382500", "180925.842500", "180926.302500", "180926.762500", "180927.222500", "180927.682500", "180928.142500", "180928.602500", "180929.062500", "180929.522500", "180929.982500", "180930.442500", "180930.902500", "180931.362500", "180931.822500", "180932.282500", "180932.742500", "180933.202500", "180933.662500", "180934.122500", "180934.582500", "180935.042500", "180935.502500", "180935.962500", "180936.422500", "180936.882500", "180937.342500", "180937.802500", "180938.262500", "180938.722500", "180939.182500", "180939.642500", "180940.102500", "180940.562500", "180941.022500", "180941.482500", "180941.942500", "180942.402500", "180942.862500", "180943.322500", "180943.782500", "180944.242500", "180944.702500", "180945.162500", "180945.622500", "180946.082500", "180946.542500", "180947.002500", "180947.462500", "180947.922500", "180948.382500", "180948.842500", "180949.302500", "180949.762500", "180950.222500", "180950.682500", "180951.142500", "180951.602500", "180952.062500", "180952.522500", "180952.982500", "180953.442500", "180953.902500", "180954.362500", "180954.822500", "180955.282500", "180955.742500", "180956.202500", "180956.662500", "180957.122500", "180957.582500", "180958.042500", "180958.502500", "180958.962500", "180959.422500", "180959.882500", "181000.342500", "181000.802500", "181001.262500", "181001.722500", "181002.182500", "181002.642500", "181003.102500", "181003.562500", "181004.022500", "181004.482500", "181004.942500", "181005.402500", "181005.862500", "181006.322500", "181006.782500", "181007.242500", "181007.702500", "181008.162500", "181008.622500", "181009.082500", "181009.542500", "181010.002500", "181010.462500", "181010.922500", "181011.382500", "181011.842500", "181012.302500", "181012.762500", "181013.222500", "181013.682500", "181014.142500", "181014.602500", "181015.062500", "181015.522500", "181015.982500", "181016.442500", "181016.902500", "181017.362500", "181017.822500", "181018.282500", "181018.742500", "181019.202500", "181019.662500", "181020.122500", "181020.582500", "181021.042500", "181021.502500", "181021.962500", "181022.422500", "181022.882500", "181023.342500", "181023.802500", "181024.262500", "181024.722500", "181025.182500", "181025.642500", "181026.102500", "181026.562500", "181027.022500", "181027.482500", "181027.942500", "181028.402500", "181028.862500", "181029.322500", "181029.782500", "181030.242500", "181030.702500", "181031.162500", "181031.622500", "181032.082500", "181032.542500", "181033.002500", "181033.462500", "181033.922500", "181034.382500", "181034.842500", "181035.302500", "181035.762500", "181036.222500", "181036.682500", "181037.142500", "181037.602500", "181038.062500", "181038.522500", "181038.982500", "181039.442500", "181039.902500", "181040.362500", "181040.822500", "181041.282500", "181041.742500", "181042.202500", "181042.662500", "181043.122500", "181043.582500", "181044.042500", "181044.502500", "181044.962500", "181045.422500", "181045.882500", "181046.342500", "181046.802500", "181047.262500", "181047.722500", "181048.182500", "181048.642500", "181049.102500", "181049.562500", "181050.022500", "181050.482500", "181050.942500", "181051.402500", "181051.862500", "181052.322500", "181052.782500", "181053.242500", "181053.702500", "181054.162500", "181054.622500", "181055.082500", "181055.542500", "181056.002500", "181056.462500", "181056.922500", "181057.382500", "181057.842500", "181058.302500", "181058.762500", "181059.222500", "181059.682500", "181100.142500", "181100.602500", "181101.062500", "181101.522500", "181101.982500", "181102.442500", "181102.902500", "181103.362500", "181103.822500", "181104.282500", "181104.742500", "181105.202500", "181105.662500", "181106.122500", "181106.582500", "181107.042500", "181107.502500", "181107.962500", "181108.422500", "181108.882500", "181109.342500", "181109.802500", "181110.262500", "181110.722500", "181111.182500", "181111.642500", "181112.102500", "181112.562500", "181113.022500", "181113.482500", "181113.942500", "181114.402500", "181114.862500", "181115.322500", "181115.782500", "181116.242500", "181116.702500", "181117.162500", "181117.622500", "181118.082500", "181118.542500", "181119.002500", "181119.462500", "181119.922500", "181120.382500", "181120.842500", "181121.302500", "181121.762500", "181122.222500", "181122.682500", "181123.142500", "181123.602500", "181124.062500", "181124.522500", "181124.982500", "181125.442500", "181125.902500", "181126.362500", "181126.822500", "181127.282500", "181127.742500", "181128.202500", "181128.662500", "181129.122500", "181129.582500", "181130.042500", "181130.502500", "181130.962500", "181131.422500", "181131.882500", "181132.342500", "181132.802500", "181133.262500", "181133.722500", "181134.182500", "181134.642500", "181135.102500", "181135.562500", "181136.022500", "181136.482500", "181136.942500", "181137.402500", "181137.862500", "181138.322500", "181138.782500", "181139.242500", "181139.702500", "181140.162500", "181140.622500", "181141.082500", "181141.542500", "181142.002500", "181142.462500", "181142.922500", "181143.382500", "181143.842500", "181144.302500", "181144.762500", "181145.222500", "181145.682500", "181146.142500", "181146.602500", "181147.062500", "181147.522500", "181147.982500", "181148.442500", "181148.902500", "181149.362500", "181149.822500", "181150.282500", "181150.742500", "181151.202500", "181151.662500", "181152.122500", "181152.582500", "181153.042500", "181153.502500", "181153.962500", "181154.422500", "181154.882500", "181155.342500", "181155.802500", "181156.262500", "181156.722500", "181157.182500", "181157.642500", "181158.102500", "181158.562500", "181159.022500", "181159.482500", "181159.942500", "181200.402500", "181200.862500", "181201.322500", "181201.782500", "181202.242500", "181202.702500", "181203.162500", "181203.622500", "181204.082500", "181204.542500", "181205.002500", "181205.462500", "181205.922500", "181206.382500", "181206.842500", "181207.302500", "181207.762500", "181208.222500", "181208.682500", "181209.142500", "181209.602500", "181210.062500", "181210.522500", "181210.982500", "181211.442500", "181211.902500", "181212.362500", "181212.822500", "181213.282500", "181213.742500", "181214.202500", "181214.662500", "181215.122500", "181215.582500", "181216.042500", "181216.502500", "181216.962500", "181217.422500", "181217.882500", "181218.342500", "181218.802500", "181219.262500", "181219.722500", "181220.182500", "181220.642500", "181221.102500", "181221.562500", "181222.022500", "181222.482500", "181222.942500", "181223.402500", "181223.862500", "181224.322500", "181224.782500", "181225.242500", "181225.702500", "181226.162500", "181226.622500", "181227.082500", "181227.542500", "181228.002500", "181228.462500", "181228.922500", "181229.382500", "181229.842500", "181230.302500", "181230.762500", "181231.222500", "181231.682500", "181232.142500", "181232.602500", "181233.062500", "181233.522500", "181233.982500", "181234.442500", "181234.902500", "181235.362500", "181235.822500", "181236.282500", "181236.742500", "181237.202500", "181237.662500", "181238.122500", "181238.582500", "181239.042500", "181239.502500", "181239.962500", "181240.422500", "181240.882500", "181241.342500", "181241.802500", "181242.262500", "181242.722500", "181243.182500", "181243.642500", "181244.102500", "181244.562500", "181245.022500", "181245.482500", "181245.942500", "181246.402500", "181246.862500", "181247.322500", "181247.782500", "181248.242500", "181248.702500", "181249.162500", "181249.622500", "181250.082500", "181250.542500", "181251.002500", "181251.462500", "181251.922500", "181252.382500", "181252.842500", "181253.302500", "181253.762500", "181254.222500", "181254.682500", "181255.142500", "181255.602500", "181256.062500", "181256.522500", "181256.982500", "181257.442500", "181257.902500", "181258.362500", "181258.822500", "181259.282500", "181259.742500", "181300.202500", "181300.662500", "181301.122500", "181301.582500", "181302.042500", "181302.502500", "181302.962500", "181303.422500", "181303.882500", "181304.342500", "181304.802500", "181305.262500", "181305.722500", "181306.182500", "181306.642500", "181307.102500", "181307.562500", "181308.022500", "181308.482500", "181308.942500", "181309.402500", "181309.862500", "181310.322500", "181310.782500", "181311.242500", "181311.702500", "181312.162500", "181312.622500", "181313.082500", "181313.542500", "181314.002500", "181314.462500", "181314.922500", "181315.382500", "181315.842500", "181316.302500", "181316.762500", "181317.222500", "181317.682500", "181318.142500", "181318.602500", "181319.062500", "181319.522500", "181319.982500", "181320.442500", "181320.902500", "181321.362500", "181321.822500", "181322.282500", "181322.742500", "181323.202500", "181323.662500", "181324.122500", "181324.582500", "181325.042500", "181325.502500", "181325.962500", "181326.422500", "181326.882500", "181327.342500", "181327.802500", "181328.262500", "181328.722500", "181329.182500", "181329.642500", "181330.102500", "181330.562500", "181331.022500", "181331.482500", "181331.942500", "181332.402500", "181332.862500", "181333.322500", "181333.782500", "181334.242500", "181334.702500", "181335.162500", "181335.622500", "181336.082500", "181336.542500", "181337.002500", "181337.462500", "181337.922500", "181338.382500", "181338.842500", "181339.302500", "181339.762500", "181340.222500", "181340.682500", "181341.142500", "181341.602500", "181342.062500", "181342.522500", "181342.982500", "181343.442500", "181343.902500", "181344.362500", "181344.822500", "181345.282500", "181345.742500", "181346.202500", "181346.662500", "181347.122500", "181347.582500", "181348.042500", "181348.502500", "181348.962500", "181349.422500", "181349.882500", "181350.342500", "181350.802500", "181351.262500", "181351.722500", "181352.182500", "181352.642500", "181353.102500", "181353.562500", "181354.022500", "181354.482500", "181354.942500", "181355.402500", "181355.862500", "181356.322500", "181356.782500", "181357.242500", "181357.702500", "181358.162500", "181358.622500", "181359.082500", "181359.542500", "181400.002500", "181400.462500", "181400.922500", "181401.382500", "181401.842500", "181402.302500", "181402.762500", "181403.222500", "181403.682500", "181404.142500", "181404.602500", "181405.062500", "181405.522500", "181405.982500", "181406.442500", "181406.902500", "181407.362500", "181407.822500", "181408.282500", "181408.742500", "181409.202500", "181409.662500"],
