{
  "AcquisitionMatrixPE": 82,
  "AcquisitionNumber": 1,
  "AcquisitionTime": "18:14:39.692500",
  "BandwidthPerPixelPhaseEncode": 24.888,
  "BaseResolution": 82,
  "BodyPartExamined": "BRAIN",
  "ConsistencyInfo": "N4_VE11E_LATEST_20181129",
  "ConversionSoftware": "dcm2niix",
  "ConversionSoftwareVersion": "v1.0.20201102",
  "DerivedVendorReportedEchoSpacing": 0.00049,
  "DeviceSerialNumber": "66112",
  "DwellTime": 2e-06,
  "EchoTime": 0.0272,
  "EchoTrainLength": 82,
  "EffectiveEchoSpacing": 0.00049,
  "FlipAngle": 44,
  "ImageComments": "Unaliased MB8/PE3",
  "ImageOrientationPatientDICOM": [0.999559, 0.0265317, 0.0133157, -0.029317, 0.952741, 0.302367],
  "ImageType": [
    "ORIGINAL",
    "PRIMARY",
    "M",
    "MB",
    "ND",
    "NORM",
    "MOSAIC"
],
  "ImagingFrequency": 123.252,
  "InPlanePhaseEncodingDirectionDICOM": "COL",
  "InstitutionAddress": "Maynard 3,Hanover,NH,US,03755",
  "InstitutionName": "Dartmouth College - PBS",
  "InstitutionalDepartmentName": "Department",
  "MRAcquisitionType": "2D",
  "MagneticFieldStrength": 3,
  "Manufacturer": "Siemens",
  "ManufacturersModelName": "Prisma",
  "Modality": "MR",
  "MultibandAccelerationFactor": 8,
  "PartialFourier": 1,
  "PatientPosition": "HFS",
  "PercentPhaseFOV": 100,
  "PercentSampling": 100,
  "PhaseEncodingDirection": "j-",
  "PhaseEncodingSteps": 82,
  "PhaseResolution": 1,
  "PixelBandwidth": 3050,
  "ProcedureStepDescription": "Wager_Wager^1076_spacetop",
  "ProtocolName": "func_run-06_task-social_acq-ap-mb8",
  "PulseSequenceDetails": "%CustomerSeq%\\cmrr_mbep2d_bold",
  "ReceiveCoilActiveElements": "HEA;HEP",
  "ReceiveCoilName": "Head_32",
  "ReconMatrixPE": 82,
  "RepetitionTime": 0.46,
  "SAR": 0.108959,
  "ScanOptions": "FS",
  "ScanningSequence": "EP",
  "SequenceName": "epfid2d1_82",
  "SequenceVariant": "SK\\SS",
  "SeriesDescription": "func_run-06_task-social_acq-ap-mb8",
  "SeriesNumber": 28,
  "ShimSetting": [4152, -7827, -7207, 599, -68, -239, 34, 99],
  "SliceThickness": 2.7,
  "SliceTiming": [0, 0.2525, 0.065, 0.315, 0.1275, 0.3775, 0.19, 0, 0.2525, 0.065, 0.315, 0.1275, 0.3775, 0.19, 0, 0.2525, 0.065, 0.315, 0.1275, 0.3775, 0.19, 0, 0.2525, 0.065, 0.315, 0.1275, 0.3775, 0.19, 0, 0.2525, 0.065, 0.315, 0.1275, 0.3775, 0.19, 0, 0.2525, 0.065, 0.315, 0.1275, 0.3775, 0.19, 0, 0.2525, 0.065, 0.315, 0.1275, 0.3775, 0.19, 0, 0.2525, 0.065, 0.315, 0.1275, 0.3775, 0.19],
  "SoftwareVersions": "syngo MR E11",
  "SpacingBetweenSlices": 2.7,
  "StationName": "AWP66112",
  "TaskName": "social",
  "TotalReadoutTime": 0.03969,
  "TxRefAmp": 239.834,
  "WipMemBlock": "683b7f3d-31b0-45e2-9584-dd2d0fe74544||Sequence: R016 ve11e/master r/434b28f1; Aug  7 2019 18:53:46 by eja",
  "dcmmeta_affine": [
    [-2.6817445755004883, -0.07865540683269501, 0.012593116611242294, 114.111572265625],
    [-0.07118268311023712, 2.556133508682251, 0.8170852661132812, -113.45447540283203],
    [0.03572513535618782, -0.8112287521362305, 2.573366165161133, -9.286981582641602],
    [0.0, 0.0, 0.0, 1.0]
],
  "dcmmeta_reorient_transform": [
    [0.0, -1.0, 0.0, 81.0],
    [1.0, 0.0, 0.0, 0.0],
    [0.0, 0.0, 1.0, 0.0],
    [0.0, 0.0, 0.0, 1.0]
],
  "dcmmeta_shape": [82, 82, 56, 872],
  "dcmmeta_slice_dim": 2,
  "dcmmeta_version": 0.6,
  "global": {
    "const": {
      "AccessionNumber": "A004115",
      "AcquisitionMatrix": [82, 0, 0, 82],
      "AngioFlag": "N",
      "BitsAllocated": 16,
      "BitsStored": 16,
      "BodyPartExamined": "BRAIN",
      "Columns": 656,
      "EchoNumbers": 1,
      "EchoTime": 27.2,
      "EchoTrainLength": 82,
      "FlipAngle": 44.0,
      "HighBit": 15,
      "ImageOrientationPatient": [0.99955928224279, 0.02653172779318, 0.01331573139496, -0.0293170136736, 0.95274061091487, 0.30236706338955],
      "ImagePositionPatient": [-854.82705260437, -847.63205123629, -318.07226648531],
      "ImageType": [
        "ORIGINAL",
        "PRIMARY",
        "M",
        "MB",
        "ND",
        "NORM",
        "MOSAIC"
],
      "ImagedNucleus": "1H",
      "ImagingFrequency": 123.252158,
      "InPlanePhaseEncodingDirection": "COL",
      "MRAcquisitionType": "2D",
      "MagneticFieldStrength": 3.0,
      "Manufacturer": "SIEMENS",
      "ManufacturerModelName": "Prisma",
      "Modality": "MR",
      "NumberOfAverages": 1.0,
      "NumberOfPhaseEncodingSteps": 82,
      "PercentPhaseFieldOfView": 100.0,
      "PercentSampling": 100.0,
      "PerformedProcedureStepStartTime": "164920.849000",
      "PhotometricInterpretation": "MONOCHROME2",
      "PixelBandwidth": 3050.0,
      "PixelRepresentation": 0,
      "PixelSpacing": [2.6829268932343, 2.6829268932343],
      "ProtocolName": "func_run-06_task-social_acq-ap-mb8",
      "RepetitionTime": 460.0,
      "Rows": 656,
      "SAR": 0.1089591015024,
      "SamplesPerPixel": 1,
      "ScanOptions": "FS",
      "ScanningSequence": "EP",
      "SequenceName": "epfid2d1_82",
      "SequenceVariant": [
        "SK",
        "SS"
],
      "SeriesDescription": "func_run-06_task-social_acq-ap-mb8",
      "SeriesNumber": 28,
      "SeriesTime": "181507.564000",
      "SliceLocation": -42.653246499267,
      "SliceThickness": 2.7000000476837,
      "SmallestImagePixelValue": 0,
      "SoftwareVersions": "syngo MR E11",
      "SpacingBetweenSlices": 2.6999999793686,
      "SpecificCharacterSet": "ISO_IR 100",
      "StudyID": "1",
      "StudyTime": "164920.778000",
      "TransmitCoilName": "Body",
      "VariableFlipAngleFlag": "N",
      "WindowCenterWidthExplanation": "Algo1"
    },
    "slices": {}
  },
  "time": {
    "samples": {
      "AcquisitionNumber": [1, 2, 3, 4, 5, 6, 7, 8, 9, 10, 11, 12, 13, 14, 15, 16, 17, 18, 19, 20, 21, 22, 23, 24, 25, 26, 27, 28, 29, 30, 31, 32, 33, 34, 35, 36, 37, 38, 39, 40, 41, 42, 43, 44, 45, 46, 47, 48, 49, 50, 51, 52, 53, 54, 55, 56, 57, 58, 59, 60, 61, 62, 63, 64, 65, 66, 67, 68, 69, 70, 71, 72, 73, 74, 75, 76, 77, 78, 79, 80, 81, 82, 83, 84, 85, 86, 87, 88, 89, 90, 91, 92, 93, 94, 95, 96, 97, 98, 99, 100, 101, 102, 103, 104, 105, 106, 107, 108, 109, 110, 111, 112, 113, 114, 115, 116, 117, 118, 119, 120, 121, 122, 123, 124, 125, 126, 127, 128, 129, 130, 131, 132, 133, 134, 135, 136, 137, 138, 139, 140, 141, 142, 143, 144, 145, 146, 147, 148, 149, 150, 151, 152, 153, 154, 155, 156, 157, 158, 159, 160, 161, 162, 163, 164, 165, 166, 167, 168, 169, 170, 171, 172, 173, 174, 175, 176, 177, 178, 179, 180, 181, 182, 183, 184, 185, 186, 187, 188, 189, 190, 191, 192, 193, 194, 195, 196, 197, 198, 199, 200, 201, 202, 203, 204, 205, 206, 207, 208, 209, 210, 211, 212, 213, 214, 215, 216, 217, 218, 219, 220, 221, 222, 223, 224, 225, 226, 227, 228, 229, 230, 231, 232, 233, 234, 235, 236, 237, 238, 239, 240, 241, 242, 243, 244, 245, 246, 247, 248, 249, 250, 251, 252, 253, 254, 255, 256, 257, 258, 259, 260, 261, 262, 263, 264, 265, 266, 267, 268, 269, 270, 271, 272, 273, 274, 275, 276, 277, 278, 279, 280, 281, 282, 283, 284, 285, 286, 287, 288, 289, 290, 291, 292, 293, 294, 295, 296, 297, 298, 299, 300, 301, 302, 303, 304, 305, 306, 307, 308, 309, 310, 311, 312, 313, 314, 315, 316, 317, 318, 319, 320, 321, 322, 323, 324, 325, 326, 327, 328, 329, 330, 331, 332, 333, 334, 335, 336, 337, 338, 339, 340, 341, 342, 343, 344, 345, 346, 347, 348, 349, 350, 351, 352, 353, 354, 355, 356, 357, 358, 359, 360, 361, 362, 363, 364, 365, 366, 367, 368, 369, 370, 371, 372, 373, 374, 375, 376, 377, 378, 379, 380, 381, 382, 383, 384, 385, 386, 387, 388, 389, 390, 391, 392, 393, 394, 395, 396, 397, 398, 399, 400, 401, 402, 403, 404, 405, 406, 407, 408, 409, 410, 411, 412, 413, 414, 415, 416, 417, 418, 419, 420, 421, 422, 423, 424, 425, 426, 427, 428, 429, 430, 431, 432, 433, 434, 435, 436, 437, 438, 439, 440, 441, 442, 443, 444, 445, 446, 447, 448, 449, 450, 451, 452, 453, 454, 455, 456, 457, 458, 459, 460, 461, 462, 463, 464, 465, 466, 467, 468, 469, 470, 471, 472, 473, 474, 475, 476, 477, 478, 479, 480, 481, 482, 483, 484, 485, 486, 487, 488, 489, 490, 491, 492, 493, 494, 495, 496, 497, 498, 499, 500, 501, 502, 503, 504, 505, 506, 507, 508, 509, 510, 511, 512, 513, 514, 515, 516, 517, 518, 519, 520, 521, 522, 523, 524, 525, 526, 527, 528, 529, 530, 531, 532, 533, 534, 535, 536, 537, 538, 539, 540, 541, 542, 543, 544, 545, 546, 547, 548, 549, 550, 551, 552, 553, 554, 555, 556, 557, 558, 559, 560, 561, 562, 563, 564, 565, 566, 567, 568, 569, 570, 571, 572, 573, 574, 575, 576, 577, 578, 579, 580, 581, 582, 583, 584, 585, 586, 587, 588, 589, 590, 591, 592, 593, 594, 595, 596, 597, 598, 599, 600, 601, 602, 603, 604, 605, 606, 607, 608, 609, 610, 611, 612, 613, 614, 615, 616, 617, 618, 619, 620, 621, 622, 623, 624, 625, 626, 627, 628, 629, 630, 631, 632, 633, 634, 635, 636, 637, 638, 639, 640, 641, 642, 643, 644, 645, 646, 647, 648, 649, 650, 651, 652, 653, 654, 655, 656, 657, 658, 659, 660, 661, 662, 663, 664, 665, 666, 667, 668, 669, 670, 671, 672, 673, 674, 675, 676, 677, 678, 679, 680, 681, 682, 683, 684, 685, 686, 687, 688, 689, 690, 691, 692, 693, 694, 695, 696, 697, 698, 699, 700, 701, 702, 703, 704, 705, 706, 707, 708, 709, 710, 711, 712, 713, 714, 715, 716, 717, 718, 719, 720, 721, 722, 723, 724, 725, 726, 727, 728, 729, 730, 731, 732, 733, 734, 735, 736, 737, 738, 739, 740, 741, 742, 743, 744, 745, 746, 747, 748, 749, 750, 751, 752, 753, 754, 755, 756, 757, 758, 759, 760, 761, 762, 763, 764, 765, 766, 767, 768, 769, 770, 771, 772, 773, 774, 775, 776, 777, 778, 779, 780, 781, 782, 783, 784, 785, 786, 787, 788, 789, 790, 791, 792, 793, 794, 795, 796, 797, 798, 799, 800, 801, 802, 803, 804, 805, 806, 807, 808, 809, 810, 811, 812, 813, 814, 815, 816, 817, 818, 819, 820, 821, 822, 823, 824, 825, 826, 827, 828, 829, 830, 831, 832, 833, 834, 835, 836, 837, 838, 839, 840, 841, 842, 843, 844, 845, 846, 847, 848, 849, 850, 851, 852, 853, 854, 855, 856, 857, 858, 859, 860, 861, 862, 863, 864, 865, 866, 867, 868, 869, 870, 871, 872],
      "AcquisitionTime": ["181439.692500", "181440.152500", "181440.612500", "181441.072500", "181441.532500", "181441.992500", "181442.452500", "181442.912500", "181443.372500", "181443.832500", "181444.292500", "181444.752500", "181445.212500", "181445.672500", "181446.132500", "181446.592500", "181447.052500", "181447.512500", "181447.972500", "181448.432500", "181448.892500", "181449.352500", "181449.812500", "181450.272500", "181450.732500", "181451.192500", "181451.652500", "181452.112500", "181452.572500", "181453.032500", "181453.492500", "181453.952500", "181454.412500", "181454.872500", "181455.332500", "181455.792500", "181456.252500", "181456.712500", "181457.172500", "181457.632500", "181458.092500", "181458.552500", "181459.012500", "181459.472500", "181459.932500", "181500.392500", "181500.852500", "181501.312500", "181501.772500", "181502.232500", "181502.692500", "181503.152500", "181503.612500", "181504.072500", "181504.532500", "181504.992500", "181505.452500", "181505.912500", "181506.372500", "181506.832500", "181507.292500", "181507.752500", "181508.212500", "181508.672500", "181509.132500", "181509.592500", "181510.052500", "181510.512500", "181510.972500", "181511.432500", "181511.892500", "181512.352500", "181512.812500", "181513.272500", "181513.732500", "181514.192500", "181514.652500", "181515.112500", "181515.572500", "181516.032500", "181516.492500", "181516.952500", "181517.412500", "181517.872500", "181518.332500", "181518.792500", "181519.252500", "181519.712500", "181520.172500", "181520.632500", "181521.092500", "181521.552500", "181522.012500", "181522.472500", "181522.932500", "181523.392500", "181523.852500", "181524.312500", "181524.772500", "181525.232500", "181525.692500", "181526.152500", "181526.612500", "181527.072500", "181527.532500", "181527.992500", "181528.452500", "181528.912500", "181529.372500", "181529.832500", "181530.292500", "181530.752500", "181531.212500", "181531.672500", "181532.132500", "181532.592500", "181533.052500", "181533.512500", "181533.972500", "181534.432500", "181534.892500", "181535.352500", "181535.812500", "181536.272500", "181536.732500", "181537.192500", "181537.652500", "181538.112500", "181538.572500", "181539.032500", "181539.492500", "181539.952500", "181540.412500", "181540.872500", "181541.332500", "181541.792500", "181542.252500", "181542.712500", "181543.172500", "181543.632500", "181544.092500", "181544.552500", "181545.012500", "181545.472500", "181545.932500", "181546.392500", "181546.852500", "181547.312500", "181547.772500", "181548.232500", "181548.692500", "181549.152500", "181549.612500", "181550.072500", "181550.532500", "181550.992500", "181551.452500", "181551.912500", "181552.372500", "181552.832500", "181553.292500", "181553.752500", "181554.212500", "181554.672500", "181555.132500", "181555.592500", "181556.052500", "181556.512500", "181556.972500", "181557.432500", "181557.892500", "181558.352500", "181558.812500", "181559.272500", "181559.732500", "181600.192500", "181600.652500", "181601.112500", "181601.572500", "181602.032500", "181602.492500", "181602.952500", "181603.412500", "181603.872500", "181604.332500", "181604.792500", "181605.252500", "181605.712500", "181606.172500", "181606.632500", "181607.092500", "181607.552500", "181608.012500", "181608.472500", "181608.932500", "181609.392500", "181609.852500", "181610.312500", "181610.772500", "181611.232500", "181611.692500", "181612.152500", "181612.612500", "181613.072500", "181613.532500", "181613.992500", "181614.452500", "181614.912500", "181615.372500", "181615.832500", "181616.292500", "181616.752500", "181617.212500", "181617.672500", "181618.132500", "181618.592500", "181619.052500", "181619.512500", "181619.972500", "181620.432500", "181620.892500", "181621.352500", "181621.812500", "181622.272500", "181622.732500", "181623.192500", "181623.652500", "181624.112500", "181624.572500", "181625.032500", "181625.492500", "181625.952500", "181626.412500", "181626.872500", "181627.332500", "181627.792500", "181628.252500", "181628.712500", "181629.172500", "181629.632500", "181630.092500", "181630.552500", "181631.012500", "181631.472500", "181631.932500", "181632.392500", "181632.852500", "181633.312500", "181633.772500", "181634.232500", "181634.692500", "181635.152500", "181635.612500", "181636.072500", "181636.532500", "181636.992500", "181637.452500", "181637.912500", "181638.372500", "181638.832500", "181639.292500", "181639.752500", "181640.212500", "181640.672500", "181641.132500", "181641.592500", "181642.052500", "181642.512500", "181642.972500", "181643.432500", "181643.892500", "181644.352500", "181644.812500", "181645.272500", "181645.732500", "181646.192500", "181646.652500", "181647.112500", "181647.572500", "181648.032500", "181648.492500", "181648.952500", "181649.412500", "181649.872500", "181650.332500", "181650.792500", "181651.252500", "181651.712500", "181652.172500", "181652.632500", "181653.092500", "181653.552500", "181654.012500", "181654.472500", "181654.932500", "181655.392500", "181655.852500", "181656.312500", "181656.772500", "181657.232500", "181657.692500", "181658.152500", "181658.612500", "181659.072500", "181659.532500", "181659.992500", "181700.452500", "181700.912500", "181701.372500", "181701.832500", "181702.292500", "181702.752500", "181703.212500", "181703.672500", "181704.132500", "181704.592500", "181705.052500", "181705.512500", "181705.972500", "181706.432500", "181706.892500", "181707.352500", "181707.812500", "181708.272500", "181708.732500", "181709.192500", "181709.652500", "181710.112500", "181710.572500", "181711.032500", "181711.492500", "181711.952500", "181712.412500", "181712.872500", "181713.332500", "181713.792500", "181714.252500", "181714.712500", "181715.172500", "181715.632500", "181716.092500", "181716.552500", "181717.012500", "181717.472500", "181717.932500", "181718.392500", "181718.852500", "181719.312500", "181719.772500", "181720.232500", "181720.692500", "181721.152500", "181721.612500", "181722.072500", "181722.532500", "181722.992500", "181723.452500", "181723.912500", "181724.372500", "181724.832500", "181725.292500", "181725.752500", "181726.212500", "181726.672500", "181727.132500", "181727.592500", "181728.052500", "181728.512500", "181728.972500", "181729.432500", "181729.892500", "181730.352500", "181730.812500", "181731.272500", "181731.732500", "181732.192500", "181732.652500", "181733.112500", "181733.572500", "181734.032500", "181734.492500", "181734.952500", "181735.412500", "181735.872500", "181736.332500", "181736.792500", "181737.252500", "181737.712500", "181738.172500", "181738.632500", "181739.092500", "181739.552500", "181740.012500", "181740.472500", "181740.932500", "181741.392500", "181741.852500", "181742.312500", "181742.772500", "181743.232500", "181743.692500", "181744.152500", "181744.612500", "181745.072500", "181745.532500", "181745.992500", "181746.452500", "181746.912500", "181747.372500", "181747.832500", "181748.292500", "181748.752500", "181749.212500", "181749.672500", "181750.132500", "181750.592500", "181751.052500", "181751.512500", "181751.972500", "181752.432500", "181752.892500", "181753.352500", "181753.812500", "181754.272500", "181754.732500", "181755.192500", "181755.652500", "181756.112500", "181756.572500", "181757.032500", "181757.492500", "181757.952500", "181758.412500", "181758.872500", "181759.332500", "181759.792500", "181800.252500", "181800.712500", "181801.172500", "181801.632500", "181802.092500", "181802.552500", "181803.012500", "181803.472500", "181803.932500", "181804.392500", "181804.852500", "181805.312500", "181805.772500", "181806.232500", "181806.692500", "181807.152500", "181807.612500", "181808.072500", "181808.532500", "181808.992500", "181809.452500", "181809.912500", "181810.372500", "181810.832500", "181811.292500", "181811.752500", "181812.212500", "181812.672500", "181813.132500", "181813.592500", "181814.052500", "181814.512500", "181814.972500", "181815.432500", "181815.892500", "181816.352500", "181816.812500", "181817.272500", "181817.732500", "181818.192500", "181818.652500", "181819.112500", "181819.572500", "181820.032500", "181820.492500", "181820.952500", "181821.412500", "181821.872500", "181822.332500", "181822.792500", "181823.252500", "181823.712500", "181824.172500", "181824.632500", "181825.092500", "181825.552500", "181826.012500", "181826.472500", "181826.932500", "181827.392500", "181827.852500", "181828.312500", "181828.772500", "181829.232500", "181829.692500", "181830.152500", "181830.612500", "181831.072500", "181831.532500", "181831.992500", "181832.452500", "181832.912500", "181833.372500", "181833.832500", "181834.292500", "181834.752500", "181835.212500", "181835.672500", "181836.132500", "181836.592500", "181837.052500", "181837.512500", "181837.972500", "181838.432500", "181838.892500", "181839.352500", "181839.812500", "181840.272500", "181840.732500", "181841.192500", "181841.652500", "181842.112500", "181842.572500", "181843.032500", "181843.492500", "181843.952500", "181844.412500", "181844.872500", "181845.332500", "181845.792500", "181846.252500", "181846.712500", "181847.172500", "181847.632500", "181848.092500", "181848.552500", "181849.012500", "181849.472500", "181849.932500", "181850.392500", "181850.852500", "181851.312500", "181851.772500", "181852.232500", "181852.692500", "181853.152500", "181853.612500", "181854.072500", "181854.532500", "181854.992500", "181855.452500", "181855.912500", "181856.372500", "181856.832500", "181857.292500", "181857.752500", "181858.212500", "181858.672500", "181859.132500", "181859.592500", "181900.052500", "181900.512500", "181900.972500", "181901.432500", "181901.892500", "181902.352500", "181902.812500", "181903.272500", "181903.732500", "181904.192500", "181904.652500", "181905.112500", "181905.572500", "181906.032500", "181906.492500", "181906.952500", "181907.412500", "181907.872500", "181908.332500", "181908.792500", "181909.252500", "181909.712500", "181910.172500", "181910.632500", "181911.092500", "181911.552500", "181912.012500", "181912.472500", "181912.932500", "181913.392500", "181913.852500", "181914.312500", "181914.772500", "181915.232500", "181915.692500", "181916.152500", "181916.612500", "181917.072500", "181917.532500", "181917.992500", "181918.452500", "181918.912500", "181919.372500", "181919.832500", "181920.292500", "181920.752500", "181921.212500", "181921.672500", "181922.132500", "181922.592500", "181923.052500", "181923.512500", "181923.972500", "181924.432500", "181924.892500", "181925.352500", "181925.812500", "181926.272500", "181926.732500", "181927.192500", "181927.652500", "181928.112500", "181928.572500", "181929.032500", "181929.492500", "181929.952500", "181930.412500", "181930.872500", "181931.332500", "181931.792500", "181932.252500", "181932.712500", "181933.172500", "181933.632500", "181934.092500", "181934.552500", "181935.012500", "181935.472500", "181935.932500", "181936.392500", "181936.852500", "181937.312500", "181937.772500", "181938.232500", "181938.692500", "181939.152500", "181939.612500", "181940.072500", "181940.532500", "181940.992500", "181941.452500", "181941.912500", "181942.372500", "181942.832500", "181943.292500", "181943.752500", "181944.212500", "181944.672500", "181945.132500", "181945.592500", "181946.052500", "181946.512500", "181946.972500", "181947.432500", "181947.892500", "181948.352500", "181948.812500", "181949.272500", "181949.732500", "181950.192500", "181950.652500", "181951.112500", "181951.572500", "181952.032500", "181952.492500", "181952.952500", "181953.412500", "181953.872500", "181954.332500", "181954.792500", "181955.252500", "181955.712500", "181956.172500", "181956.632500", "181957.092500", "181957.552500", "181958.012500", "181958.472500", "181958.932500", "181959.392500", "181959.852500", "182000.312500", "182000.772500", "182001.232500", "182001.692500", "182002.152500", "182002.612500", "182003.072500", "182003.532500", "182003.992500", "182004.452500", "182004.912500", "182005.372500", "182005.832500", "182006.292500", "182006.752500", "182007.212500", "182007.672500", "182008.132500", "182008.592500", "182009.052500", "182009.512500", "182009.972500", "182010.432500", "182010.892500", "182011.352500", "182011.812500", "182012.272500", "182012.732500", "182013.192500", "182013.652500", "182014.112500", "182014.572500", "182015.032500", "182015.492500", "182015.952500", "182016.412500", "182016.872500", "182017.332500", "182017.792500", "182018.252500", "182018.712500", "182019.172500", "182019.632500", "182020.092500", "182020.552500", "182021.012500", "182021.472500", "182021.932500", "182022.392500", "182022.852500", "182023.312500", "182023.772500", "182024.232500", "182024.692500", "182025.152500", "182025.612500", "182026.072500", "182026.532500", "182026.992500", "182027.452500", "182027.912500", "182028.372500", "182028.832500", "182029.292500", "182029.752500", "182030.212500", "182030.672500", "182031.132500", "182031.592500", "182032.052500", "182032.512500", "182032.972500", "182033.432500", "182033.892500", "182034.352500", "182034.812500", "182035.272500", "182035.732500", "182036.192500", "182036.652500", "182037.112500", "182037.572500", "182038.032500", "182038.492500", "182038.952500", "182039.412500", "182039.872500", "182040.332500", "182040.792500", "182041.252500", "182041.712500", "182042.172500", "182042.632500", "182043.092500", "182043.552500", "182044.012500", "182044.472500", "182044.932500", "182045.392500", "182045.852500", "182046.312500", "182046.772500", "182047.232500", "182047.692500", "182048.152500", "182048.612500", "182049.072500", "182049.532500", "182049.992500", "182050.452500", "182050.912500", "182051.372500", "182051.832500", "182052.292500", "182052.752500", "182053.212500", "182053.672500", "182054.132500", "182054.592500", "182055.052500", "182055.512500", "182055.972500", "182056.432500", "182056.892500", "182057.352500", "182057.812500", "182058.272500", "182058.732500", "182059.192500", "182059.652500", "182100.112500", "182100.572500", "182101.032500", "182101.492500", "182101.952500", "182102.412500", "182102.872500", "182103.332500", "182103.792500", "182104.252500", "182104.712500", "182105.172500", "182105.632500", "182106.092500", "182106.552500", "182107.012500", "182107.472500", "182107.932500", "182108.392500", "182108.852500", "182109.312500", "182109.772500", "182110.232500", "182110.692500", "182111.152500", "182111.612500", "182112.072500", "182112.532500", "182112.992500", "182113.452500", "182113.912500", "182114.372500", "182114.832500", "182115.292500", "182115.752500", "182116.212500", "182116.672500", "182117.132500", "182117.592500", "182118.052500", "182118.512500", "182118.972500", "182119.432500", "182119.892500", "182120.352500"],
