{
  "AcquisitionMatrixPE": 82,
  "AcquisitionNumber": 1,
  "AcquisitionTime": "10:29:4.730000",
  "BandwidthPerPixelPhaseEncode": 24.888,
  "BaseResolution": 82,
  "BodyPartExamined": "BRAIN",
  "ConsistencyInfo": "N4_VE11C_LATEST_20160120",
  "ConversionSoftware": "dcm2niix",
  "ConversionSoftwareVersion": "v1.0.20201102",
  "DerivedVendorReportedEchoSpacing": 0.00049,
  "DeviceSerialNumber": "66112",
  "DwellTime": 2e-06,
  "EchoTime": 0.0272,
  "EchoTrainLength": 82,
  "EffectiveEchoSpacing": 0.00049,
  "FlipAngle": 44,
  "ImageComments": "Unaliased MB8/PE3",
  "ImageOrientationPatientDICOM": [0.999495, 0.0149046, -0.028062, -0.00959473, 0.983504, 0.18063],
  "ImageType": [
    "ORIGINAL",
    "PRIMARY",
    "M",
    "MB",
    "ND",
    "NORM",
    "MOSAIC"
],
  "ImagingFrequency": 123.252,
  "InPlanePhaseEncodingDirectionDICOM": "COL",
  "InstitutionAddress": "Maynard 3,Hanover,NH,US,03755",
  "InstitutionName": "Dartmouth College - PBS",
  "InstitutionalDepartmentName": "Department",
  "MRAcquisitionType": "2D",
  "MagneticFieldStrength": 3,
  "Manufacturer": "Siemens",
  "ManufacturersModelName": "Prisma",
  "Modality": "MR",
  "MultibandAccelerationFactor": 8,
  "PartialFourier": 1,
  "PatientPosition": "HFS",
  "PercentPhaseFOV": 100,
  "PercentSampling": 100,
  "PhaseEncodingDirection": "j-",
  "PhaseEncodingSteps": 82,
  "PhaseResolution": 1,
  "PixelBandwidth": 3050,
  "ProcedureStepDescription": "Wager_Wager^1076_spacetop",
  "ProtocolName": "func_run-04_task-social_acq-ap-mb8",
  "PulseSequenceDetails": "%CustomerSeq%\\cmrr_mbep2d_bold",
  "ReceiveCoilActiveElements": "HEA;HEP",
  "ReceiveCoilName": "Head_32",
  "ReconMatrixPE": 82,
  "RepetitionTime": 0.46,
  "SAR": 0.0980213,
  "ScanOptions": "FS",
  "ScanningSequence": "EP",
  "SequenceName": "epfid2d1_82",
  "SequenceVariant": "SK\\SS",
  "SeriesDescription": "func_run-04_task-social_acq-ap-mb8",
  "SeriesNumber": 20,
  "ShimSetting": [4132, -7773, -7257, 553, -67, -238, 52, 121],
  "SliceThickness": 2.7,
  "SliceTiming": [0, 0.25, 0.0625, 0.3125, 0.125, 0.375, 0.1875, 0, 0.25, 0.0625, 0.3125, 0.125, 0.375, 0.1875, 0, 0.25, 0.0625, 0.3125, 0.125, 0.375, 0.1875, 0, 0.25, 0.0625, 0.3125, 0.125, 0.375, 0.1875, 0, 0.25, 0.0625, 0.3125, 0.125, 0.375, 0.1875, 0, 0.25, 0.0625, 0.3125, 0.125, 0.375, 0.1875, 0, 0.25, 0.0625, 0.3125, 0.125, 0.375, 0.1875, 0, 0.25, 0.0625, 0.3125, 0.125, 0.375, 0.1875],
  "SoftwareVersions": "syngo MR E11",
  "SpacingBetweenSlices": 2.7,
  "StationName": "AWP66112",
  "TaskName": "social",
  "TotalReadoutTime": 0.03969,
  "TxRefAmp": 230.35,
  "WipMemBlock": "12208895-041b-4ac5-8993-f9d3f32b8985||Sequence: R016 ve11c/master r/e634e98; Dec 19 2017 11:00:25 by eja",
  "dcmmeta_affine": [
    [-2.681572198867798, -0.025741970166563988, -0.08178658038377762, 115.00567626953125],
    [-0.03998791426420212, 2.6386702060699463, 0.4867272675037384, -100.88549041748047],
    [-0.0752883329987526, -0.48461657762527466, 2.6545069217681885, -26.169879913330078],
    [0.0, 0.0, 0.0, 1.0]
],
  "dcmmeta_reorient_transform": [
    [0.0, -1.0, 0.0, 81.0],
    [1.0, 0.0, 0.0, 0.0],
    [0.0, 0.0, 1.0, 0.0],
    [0.0, 0.0, 0.0, 1.0]
],
  "dcmmeta_shape": [82, 82, 56, 872],
  "dcmmeta_slice_dim": 2,
  "dcmmeta_version": 0.6,
  "global": {
    "const": {
      "AccessionNumber": "A003444",
      "AcquisitionMatrix": [82, 0, 0, 82],
      "AngioFlag": "N",
      "BitsAllocated": 16,
      "BitsStored": 16,
      "BodyPartExamined": "BRAIN",
      "Columns": 656,
      "EchoNumbers": 1,
      "EchoTime": 27.2,
      "EchoTrainLength": 82,
      "FlipAngle": 44.0,
      "HighBit": 15,
      "ImageOrientationPatient": [0.99949506088242, 0.0149045860856, -0.0280620132076, -0.0095947339328, 0.98350435318113, 0.18062981025989],
      "ImagePositionPatient": [-875.14384792472, -881.62170232532, -182.90102965831],
      "ImageType": [
        "ORIGINAL",
        "PRIMARY",
        "M",
        "MB",
        "ND",
        "NORM",
        "MOSAIC"
],
      "ImagedNucleus": "1H",
      "ImagingFrequency": 123.252143,
      "InPlanePhaseEncodingDirection": "COL",
      "MRAcquisitionType": "2D",
      "MagneticFieldStrength": 3.0,
      "Manufacturer": "SIEMENS",
      "ManufacturerModelName": "Prisma",
      "Modality": "MR",
      "NumberOfAverages": 1.0,
      "NumberOfPhaseEncodingSteps": 82,
      "PercentPhaseFieldOfView": 100.0,
      "PercentSampling": 100.0,
      "PerformedProcedureStepStartTime": "093846.417000",
      "PhotometricInterpretation": "MONOCHROME2",
      "PixelBandwidth": 3050.0,
      "PixelRepresentation": 0,
      "PixelSpacing": [2.6829268932343, 2.6829268932343],
      "ProtocolName": "func_run-04_task-social_acq-ap-mb8",
      "RepetitionTime": 460.0,
      "Rows": 656,
      "SAR": 0.09802131134208,
      "SamplesPerPixel": 1,
      "ScanOptions": "FS",
      "ScanningSequence": "EP",
      "SequenceName": "epfid2d1_82",
      "SequenceVariant": [
        "SK",
        "SS"
],
      "SeriesDescription": "func_run-04_task-social_acq-ap-mb8",
      "SeriesNumber": 20,
      "SeriesTime": "102931.645000",
      "SliceLocation": -47.399174536788,
      "SliceThickness": 2.7000000476837,
      "SmallestImagePixelValue": 0,
      "SoftwareVersions": "syngo MR E11",
      "SpacingBetweenSlices": 2.7000000036644,
      "SpecificCharacterSet": "ISO_IR 100",
      "StudyID": "2",
      "StudyTime": "093846.365000",
      "TransmitCoilName": "Body",
      "VariableFlipAngleFlag": "N",
      "WindowCenterWidthExplanation": "Algo1",
      "dBdt": 0.0},
    "slices": {}
  },
  "time": {
    "samples": {
      "AcquisitionNumber": [1, 2, 3, 4, 5, 6, 7, 8, 9, 10, 11, 12, 13, 14, 15, 16, 17, 18, 19, 20, 21, 22, 23, 24, 25, 26, 27, 28, 29, 30, 31, 32, 33, 34, 35, 36, 37, 38, 39, 40, 41, 42, 43, 44, 45, 46, 47, 48, 49, 50, 51, 52, 53, 54, 55, 56, 57, 58, 59, 60, 61, 62, 63, 64, 65, 66, 67, 68, 69, 70, 71, 72, 73, 74, 75, 76, 77, 78, 79, 80, 81, 82, 83, 84, 85, 86, 87, 88, 89, 90, 91, 92, 93, 94, 95, 96, 97, 98, 99, 100, 101, 102, 103, 104, 105, 106, 107, 108, 109, 110, 111, 112, 113, 114, 115, 116, 117, 118, 119, 120, 121, 122, 123, 124, 125, 126, 127, 128, 129, 130, 131, 132, 133, 134, 135, 136, 137, 138, 139, 140, 141, 142, 143, 144, 145, 146, 147, 148, 149, 150, 151, 152, 153, 154, 155, 156, 157, 158, 159, 160, 161, 162, 163, 164, 165, 166, 167, 168, 169, 170, 171, 172, 173, 174, 175, 176, 177, 178, 179, 180, 181, 182, 183, 184, 185, 186, 187, 188, 189, 190, 191, 192, 193, 194, 195, 196, 197, 198, 199, 200, 201, 202, 203, 204, 205, 206, 207, 208, 209, 210, 211, 212, 213, 214, 215, 216, 217, 218, 219, 220, 221, 222, 223, 224, 225, 226, 227, 228, 229, 230, 231, 232, 233, 234, 235, 236, 237, 238, 239, 240, 241, 242, 243, 244, 245, 246, 247, 248, 249, 250, 251, 252, 253, 254, 255, 256, 257, 258, 259, 260, 261, 262, 263, 264, 265, 266, 267, 268, 269, 270, 271, 272, 273, 274, 275, 276, 277, 278, 279, 280, 281, 282, 283, 284, 285, 286, 287, 288, 289, 290, 291, 292, 293, 294, 295, 296, 297, 298, 299, 300, 301, 302, 303, 304, 305, 306, 307, 308, 309, 310, 311, 312, 313, 314, 315, 316, 317, 318, 319, 320, 321, 322, 323, 324, 325, 326, 327, 328, 329, 330, 331, 332, 333, 334, 335, 336, 337, 338, 339, 340, 341, 342, 343, 344, 345, 346, 347, 348, 349, 350, 351, 352, 353, 354, 355, 356, 357, 358, 359, 360, 361, 362, 363, 364, 365, 366, 367, 368, 369, 370, 371, 372, 373, 374, 375, 376, 377, 378, 379, 380, 381, 382, 383, 384, 385, 386, 387, 388, 389, 390, 391, 392, 393, 394, 395, 396, 397, 398, 399, 400, 401, 402, 403, 404, 405, 406, 407, 408, 409, 410, 411, 412, 413, 414, 415, 416, 417, 418, 419, 420, 421, 422, 423, 424, 425, 426, 427, 428, 429, 430, 431, 432, 433, 434, 435, 436, 437, 438, 439, 440, 441, 442, 443, 444, 445, 446, 447, 448, 449, 450, 451, 452, 453, 454, 455, 456, 457, 458, 459, 460, 461, 462, 463, 464, 465, 466, 467, 468, 469, 470, 471, 472, 473, 474, 475, 476, 477, 478, 479, 480, 481, 482, 483, 484, 485, 486, 487, 488, 489, 490, 491, 492, 493, 494, 495, 496, 497, 498, 499, 500, 501, 502, 503, 504, 505, 506, 507, 508, 509, 510, 511, 512, 513, 514, 515, 516, 517, 518, 519, 520, 521, 522, 523, 524, 525, 526, 527, 528, 529, 530, 531, 532, 533, 534, 535, 536, 537, 538, 539, 540, 541, 542, 543, 544, 545, 546, 547, 548, 549, 550, 551, 552, 553, 554, 555, 556, 557, 558, 559, 560, 561, 562, 563, 564, 565, 566, 567, 568, 569, 570, 571, 572, 573, 574, 575, 576, 577, 578, 579, 580, 581, 582, 583, 584, 585, 586, 587, 588, 589, 590, 591, 592, 593, 594, 595, 596, 597, 598, 599, 600, 601, 602, 603, 604, 605, 606, 607, 608, 609, 610, 611, 612, 613, 614, 615, 616, 617, 618, 619, 620, 621, 622, 623, 624, 625, 626, 627, 628, 629, 630, 631, 632, 633, 634, 635, 636, 637, 638, 639, 640, 641, 642, 643, 644, 645, 646, 647, 648, 649, 650, 651, 652, 653, 654, 655, 656, 657, 658, 659, 660, 661, 662, 663, 664, 665, 666, 667, 668, 669, 670, 671, 672, 673, 674, 675, 676, 677, 678, 679, 680, 681, 682, 683, 684, 685, 686, 687, 688, 689, 690, 691, 692, 693, 694, 695, 696, 697, 698, 699, 700, 701, 702, 703, 704, 705, 706, 707, 708, 709, 710, 711, 712, 713, 714, 715, 716, 717, 718, 719, 720, 721, 722, 723, 724, 725, 726, 727, 728, 729, 730, 731, 732, 733, 734, 735, 736, 737, 738, 739, 740, 741, 742, 743, 744, 745, 746, 747, 748, 749, 750, 751, 752, 753, 754, 755, 756, 757, 758, 759, 760, 761, 762, 763, 764, 765, 766, 767, 768, 769, 770, 771, 772, 773, 774, 775, 776, 777, 778, 779, 780, 781, 782, 783, 784, 785, 786, 787, 788, 789, 790, 791, 792, 793, 794, 795, 796, 797, 798, 799, 800, 801, 802, 803, 804, 805, 806, 807, 808, 809, 810, 811, 812, 813, 814, 815, 816, 817, 818, 819, 820, 821, 822, 823, 824, 825, 826, 827, 828, 829, 830, 831, 832, 833, 834, 835, 836, 837, 838, 839, 840, 841, 842, 843, 844, 845, 846, 847, 848, 849, 850, 851, 852, 853, 854, 855, 856, 857, 858, 859, 860, 861, 862, 863, 864, 865, 866, 867, 868, 869, 870, 871, 872],
      "AcquisitionTime": ["102904.730000", "102905.190000", "102905.650000", "102906.110000", "102906.570000", "102907.030000", "102907.490000", "102907.950000", "102908.410000", "102908.870000", "102909.330000", "102909.790000", "102910.250000", "102910.710000", "102911.170000", "102911.630000", "102912.090000", "102912.550000", "102913.010000", "102913.470000", "102913.930000", "102914.390000", "102914.850000", "102915.310000", "102915.770000", "102916.230000", "102916.690000", "102917.150000", "102917.610000", "102918.070000", "102918.530000", "102918.990000", "102919.450000", "102919.910000", "102920.370000", "102920.830000", "102921.290000", "102921.750000", "102922.210000", "102922.670000", "102923.130000", "102923.590000", "102924.050000", "102924.510000", "102924.970000", "102925.430000", "102925.890000", "102926.350000", "102926.810000", "102927.270000", "102927.730000", "102928.190000", "102928.650000", "102929.110000", "102929.570000", "102930.030000", "102930.490000", "102930.950000", "102931.410000", "102931.870000", "102932.330000", "102932.790000", "102933.250000", "102933.710000", "102934.170000", "102934.630000", "102935.090000", "102935.550000", "102936.010000", "102936.470000", "102936.930000", "102937.390000", "102937.850000", "102938.310000", "102938.770000", "102939.230000", "102939.690000", "102940.150000", "102940.610000", "102941.070000", "102941.530000", "102941.990000", "102942.450000", "102942.910000", "102943.370000", "102943.830000", "102944.290000", "102944.750000", "102945.210000", "102945.670000", "102946.130000", "102946.590000", "102947.050000", "102947.510000", "102947.970000", "102948.430000", "102948.890000", "102949.350000", "102949.810000", "102950.270000", "102950.730000", "102951.190000", "102951.650000", "102952.110000", "102952.570000", "102953.030000", "102953.490000", "102953.950000", "102954.410000", "102954.870000", "102955.330000", "102955.790000", "102956.250000", "102956.710000", "102957.170000", "102957.630000", "102958.090000", "102958.550000", "102959.010000", "102959.470000", "102959.930000", "103000.390000", "103000.850000", "103001.310000", "103001.770000", "103002.230000", "103002.690000", "103003.150000", "103003.610000", "103004.070000", "103004.530000", "103004.990000", "103005.450000", "103005.910000", "103006.370000", "103006.830000", "103007.290000", "103007.750000", "103008.210000", "103008.670000", "103009.130000", "103009.590000", "103010.050000", "103010.510000", "103010.970000", "103011.430000", "103011.890000", "103012.350000", "103012.810000", "103013.270000", "103013.730000", "103014.190000", "103014.650000", "103015.110000", "103015.570000", "103016.030000", "103016.490000", "103016.950000", "103017.410000", "103017.870000", "103018.330000", "103018.790000", "103019.250000", "103019.710000", "103020.170000", "103020.630000", "103021.090000", "103021.550000", "103022.010000", "103022.470000", "103022.930000", "103023.390000", "103023.850000", "103024.310000", "103024.770000", "103025.230000", "103025.690000", "103026.150000", "103026.610000", "103027.070000", "103027.530000", "103027.990000", "103028.450000", "103028.910000", "103029.370000", "103029.830000", "103030.290000", "103030.750000", "103031.210000", "103031.670000", "103032.130000", "103032.590000", "103033.050000", "103033.510000", "103033.970000", "103034.430000", "103034.890000", "103035.350000", "103035.810000", "103036.270000", "103036.730000", "103037.190000", "103037.650000", "103038.110000", "103038.570000", "103039.030000", "103039.490000", "103039.950000", "103040.410000", "103040.870000", "103041.330000", "103041.790000", "103042.250000", "103042.710000", "103043.170000", "103043.630000", "103044.090000", "103044.550000", "103045.010000", "103045.470000", "103045.930000", "103046.390000", "103046.850000", "103047.310000", "103047.770000", "103048.230000", "103048.690000", "103049.150000", "103049.610000", "103050.070000", "103050.530000", "103050.990000", "103051.450000", "103051.910000", "103052.370000", "103052.830000", "103053.290000", "103053.750000", "103054.210000", "103054.670000", "103055.130000", "103055.590000", "103056.050000", "103056.510000", "103056.970000", "103057.430000", "103057.890000", "103058.350000", "103058.810000", "103059.270000", "103059.730000", "103100.190000", "103100.650000", "103101.110000", "103101.570000", "103102.030000", "103102.490000", "103102.950000", "103103.410000", "103103.870000", "103104.330000", "103104.790000", "103105.250000", "103105.710000", "103106.170000", "103106.630000", "103107.090000", "103107.550000", "103108.010000", "103108.470000", "103108.930000", "103109.390000", "103109.850000", "103110.310000", "103110.770000", "103111.230000", "103111.690000", "103112.150000", "103112.610000", "103113.070000", "103113.530000", "103113.990000", "103114.450000", "103114.910000", "103115.370000", "103115.830000", "103116.290000", "103116.750000", "103117.210000", "103117.670000", "103118.130000", "103118.590000", "103119.050000", "103119.510000", "103119.970000", "103120.430000", "103120.890000", "103121.350000", "103121.810000", "103122.270000", "103122.730000", "103123.190000", "103123.650000", "103124.110000", "103124.570000", "103125.030000", "103125.490000", "103125.950000", "103126.410000", "103126.870000", "103127.330000", "103127.790000", "103128.250000", "103128.710000", "103129.170000", "103129.630000", "103130.090000", "103130.550000", "103131.010000", "103131.470000", "103131.930000", "103132.390000", "103132.850000", "103133.310000", "103133.770000", "103134.230000", "103134.690000", "103135.150000", "103135.610000", "103136.070000", "103136.530000", "103136.990000", "103137.450000", "103137.910000", "103138.370000", "103138.830000", "103139.290000", "103139.750000", "103140.210000", "103140.670000", "103141.130000", "103141.590000", "103142.050000", "103142.510000", "103142.970000", "103143.430000", "103143.890000", "103144.350000", "103144.810000", "103145.270000", "103145.730000", "103146.190000", "103146.650000", "103147.110000", "103147.570000", "103148.030000", "103148.490000", "103148.950000", "103149.410000", "103149.870000", "103150.330000", "103150.790000", "103151.250000", "103151.710000", "103152.170000", "103152.630000", "103153.090000", "103153.550000", "103154.010000", "103154.470000", "103154.930000", "103155.390000", "103155.850000", "103156.310000", "103156.770000", "103157.230000", "103157.690000", "103158.150000", "103158.610000", "103159.070000", "103159.530000", "103159.990000", "103200.450000", "103200.910000", "103201.370000", "103201.830000", "103202.290000", "103202.750000", "103203.210000", "103203.670000", "103204.130000", "103204.590000", "103205.050000", "103205.510000", "103205.970000", "103206.430000", "103206.890000", "103207.350000", "103207.810000", "103208.270000", "103208.730000", "103209.190000", "103209.650000", "103210.110000", "103210.570000", "103211.030000", "103211.490000", "103211.950000", "103212.410000", "103212.870000", "103213.330000", "103213.790000", "103214.250000", "103214.710000", "103215.170000", "103215.630000", "103216.090000", "103216.550000", "103217.010000", "103217.470000", "103217.930000", "103218.390000", "103218.850000", "103219.310000", "103219.770000", "103220.230000", "103220.690000", "103221.150000", "103221.610000", "103222.070000", "103222.530000", "103222.990000", "103223.450000", "103223.910000", "103224.370000", "103224.830000", "103225.290000", "103225.750000", "103226.210000", "103226.670000", "103227.130000", "103227.590000", "103228.050000", "103228.510000", "103228.970000", "103229.430000", "103229.890000", "103230.350000", "103230.810000", "103231.270000", "103231.730000", "103232.190000", "103232.650000", "103233.110000", "103233.570000", "103234.030000", "103234.490000", "103234.950000", "103235.410000", "103235.870000", "103236.330000", "103236.790000", "103237.250000", "103237.710000", "103238.170000", "103238.630000", "103239.090000", "103239.550000", "103240.010000", "103240.470000", "103240.930000", "103241.390000", "103241.850000", "103242.310000", "103242.770000", "103243.230000", "103243.690000", "103244.150000", "103244.610000", "103245.070000", "103245.530000", "103245.990000", "103246.450000", "103246.910000", "103247.370000", "103247.830000", "103248.290000", "103248.750000", "103249.210000", "103249.670000", "103250.130000", "103250.590000", "103251.050000", "103251.510000", "103251.970000", "103252.430000", "103252.890000", "103253.350000", "103253.810000", "103254.270000", "103254.730000", "103255.190000", "103255.650000", "103256.110000", "103256.570000", "103257.030000", "103257.490000", "103257.950000", "103258.410000", "103258.870000", "103259.330000", "103259.790000", "103300.250000", "103300.710000", "103301.170000", "103301.630000", "103302.090000", "103302.550000", "103303.010000", "103303.470000", "103303.930000", "103304.390000", "103304.850000", "103305.310000", "103305.770000", "103306.230000", "103306.690000", "103307.150000", "103307.610000", "103308.070000", "103308.530000", "103308.990000", "103309.450000", "103309.910000", "103310.370000", "103310.830000", "103311.290000", "103311.750000", "103312.210000", "103312.670000", "103313.130000", "103313.590000", "103314.050000", "103314.510000", "103314.970000", "103315.430000", "103315.890000", "103316.350000", "103316.810000", "103317.270000", "103317.730000", "103318.190000", "103318.650000", "103319.110000", "103319.570000", "103320.030000", "103320.490000", "103320.950000", "103321.410000", "103321.870000", "103322.330000", "103322.790000", "103323.250000", "103323.710000", "103324.170000", "103324.630000", "103325.090000", "103325.550000", "103326.010000", "103326.470000", "103326.930000", "103327.390000", "103327.850000", "103328.310000", "103328.770000", "103329.230000", "103329.690000", "103330.150000", "103330.610000", "103331.070000", "103331.530000", "103331.990000", "103332.450000", "103332.910000", "103333.370000", "103333.830000", "103334.290000", "103334.750000", "103335.210000", "103335.670000", "103336.130000", "103336.590000", "103337.050000", "103337.510000", "103337.970000", "103338.430000", "103338.890000", "103339.350000", "103339.810000", "103340.270000", "103340.730000", "103341.190000", "103341.650000", "103342.110000", "103342.570000", "103343.030000", "103343.490000", "103343.950000", "103344.410000", "103344.870000", "103345.330000", "103345.790000", "103346.250000", "103346.710000", "103347.170000", "103347.630000", "103348.090000", "103348.550000", "103349.010000", "103349.470000", "103349.930000", "103350.390000", "103350.850000", "103351.310000", "103351.770000", "103352.230000", "103352.690000", "103353.150000", "103353.610000", "103354.070000", "103354.530000", "103354.990000", "103355.450000", "103355.910000", "103356.370000", "103356.830000", "103357.290000", "103357.750000", "103358.210000", "103358.670000", "103359.130000", "103359.590000", "103400.050000", "103400.510000", "103400.970000", "103401.430000", "103401.890000", "103402.350000", "103402.810000", "103403.270000", "103403.730000", "103404.190000", "103404.650000", "103405.110000", "103405.570000", "103406.030000", "103406.490000", "103406.950000", "103407.410000", "103407.870000", "103408.330000", "103408.790000", "103409.250000", "103409.710000", "103410.170000", "103410.630000", "103411.090000", "103411.550000", "103412.010000", "103412.470000", "103412.930000", "103413.390000", "103413.850000", "103414.310000", "103414.770000", "103415.230000", "103415.690000", "103416.150000", "103416.610000", "103417.070000", "103417.530000", "103417.990000", "103418.450000", "103418.910000", "103419.370000", "103419.830000", "103420.290000", "103420.750000", "103421.210000", "103421.670000", "103422.130000", "103422.590000", "103423.050000", "103423.510000", "103423.970000", "103424.430000", "103424.890000", "103425.350000", "103425.810000", "103426.270000", "103426.730000", "103427.190000", "103427.650000", "103428.110000", "103428.570000", "103429.030000", "103429.490000", "103429.950000", "103430.410000", "103430.870000", "103431.330000", "103431.790000", "103432.250000", "103432.710000", "103433.170000", "103433.630000", "103434.090000", "103434.550000", "103435.010000", "103435.470000", "103435.930000", "103436.390000", "103436.850000", "103437.310000", "103437.770000", "103438.230000", "103438.690000", "103439.150000", "103439.610000", "103440.070000", "103440.530000", "103440.990000", "103441.450000", "103441.910000", "103442.370000", "103442.830000", "103443.290000", "103443.750000", "103444.210000", "103444.670000", "103445.130000", "103445.590000", "103446.050000", "103446.510000", "103446.970000", "103447.430000", "103447.890000", "103448.350000", "103448.810000", "103449.270000", "103449.730000", "103450.190000", "103450.650000", "103451.110000", "103451.570000", "103452.030000", "103452.490000", "103452.950000", "103453.410000", "103453.870000", "103454.330000", "103454.790000", "103455.250000", "103455.710000", "103456.170000", "103456.630000", "103457.090000", "103457.550000", "103458.010000", "103458.470000", "103458.930000", "103459.390000", "103459.850000", "103500.310000", "103500.770000", "103501.230000", "103501.690000", "103502.150000", "103502.610000", "103503.070000", "103503.530000", "103503.990000", "103504.450000", "103504.910000", "103505.370000", "103505.830000", "103506.290000", "103506.750000", "103507.210000", "103507.670000", "103508.130000", "103508.590000", "103509.050000", "103509.510000", "103509.970000", "103510.430000", "103510.890000", "103511.350000", "103511.810000", "103512.270000", "103512.730000", "103513.190000", "103513.650000", "103514.110000", "103514.570000", "103515.030000", "103515.490000", "103515.950000", "103516.410000", "103516.870000", "103517.330000", "103517.790000", "103518.250000", "103518.710000", "103519.170000", "103519.630000", "103520.090000", "103520.550000", "103521.010000", "103521.470000", "103521.930000", "103522.390000", "103522.850000", "103523.310000", "103523.770000", "103524.230000", "103524.690000", "103525.150000", "103525.610000", "103526.070000", "103526.530000", "103526.990000", "103527.450000", "103527.910000", "103528.370000", "103528.830000", "103529.290000", "103529.750000", "103530.210000", "103530.670000", "103531.130000", "103531.590000", "103532.050000", "103532.510000", "103532.970000", "103533.430000", "103533.890000", "103534.350000", "103534.810000", "103535.270000", "103535.730000", "103536.190000", "103536.650000", "103537.110000", "103537.570000", "103538.030000", "103538.490000", "103538.950000", "103539.410000", "103539.870000", "103540.330000", "103540.790000", "103541.250000", "103541.710000", "103542.170000", "103542.630000", "103543.090000", "103543.550000", "103544.010000", "103544.470000", "103544.930000", "103545.390000"],
