{
  "AcquisitionMatrixPE": 140,
  "AcquisitionNumber": 1,
  "AcquisitionTime": "09:17:19.065000",
  "BandwidthPerPixelPhaseEncode": 10.352,
  "BaseResolution": 140,
  "BodyPartExamined": "BRAIN",
  "ConsistencyInfo": "N4_VE11E_LATEST_20181129",
  "ConversionSoftware": "dcm2niix",
  "ConversionSoftwareVersion": "v1.0.20201102",
  "DerivedVendorReportedEchoSpacing": 0.000689998,
  "DeviceSerialNumber": "66112",
  "DiffusionScheme": "Monopolar",
  "DwellTime": 2.1e-06,
  "EchoTime": 0.0884,
  "EchoTrainLength": 105,
  "EffectiveEchoSpacing": 0.000689998,
  "FlipAngle": 90,
  "ImageComments": "Unaliased MB3/PE3 SENSE1",
  "ImageOrientationPatientDICOM": [0.998781, 0.0266522, 0.0415364, -0.0278985, 0.999169, 0.0297194],
  "ImageType": [
    "ORIGINAL",
    "PRIMARY",
    "DIFFUSION",
    "NONE",
    "MB",
    "ND",
    "MOSAIC"
],
  "ImagingFrequency": 123.259,
  "InPlanePhaseEncodingDirectionDICOM": "COL",
  "InstitutionAddress": "Maynard 3,Hanover,NH,US,03755",
  "InstitutionName": "Dartmouth College - PBS",
  "InstitutionalDepartmentName": "Department",
  "MRAcquisitionType": "2D",
  "MagneticFieldStrength": 3,
  "Manufacturer": "Siemens",
  "ManufacturersModelName": "Prisma",
  "Modality": "MR",
  "MultibandAccelerationFactor": 3,
  "PartialFourier": 0.75,
  "PatientPosition": "HFS",
  "PercentPhaseFOV": 100,
  "PercentSampling": 100,
  "PhaseEncodingDirection": "j-",
  "PhaseEncodingSteps": 105,
  "PhaseResolution": 1,
  "PixelBandwidth": 1700,
  "ProcedureStepDescription": "Wager_Wager^1076_spacetop",
  "ProtocolName": "dwi_acq-96dir-6b0-mb",
  "PulseSequenceDetails": "%CustomerSeq%\\cmrr_mbep2d_diff",
  "ReceiveCoilActiveElements": "HEA;HEP",
  "ReceiveCoilName": "Head_32",
  "ReconMatrixPE": 140,
  "RepetitionTime": 4.11,
  "SAR": 0.209143,
  "ScanOptions": "PFP\\FS",
  "ScanningSequence": "EP",
  "SequenceName": "ep_b5#1",
  "SequenceVariant": "SK\\SS",
  "SeriesDescription": "dwi_acq-96dir-6b0-mb",
  "SeriesNumber": 8,
  "ShimSetting": [4223, -7755, -7289, 379, -116, -195, 53, 87],
  "SliceThickness": 1.7,
  "SliceTiming": [0, 2.12, 0.1525, 2.2725, 0.3025, 2.4225, 0.455, 2.575, 0.605, 2.7275, 0.7575, 2.8775, 0.91, 3.03, 1.06, 3.18, 1.2125, 3.3325, 1.3625, 3.485, 1.515, 3.635, 1.665, 3.7875, 1.8175, 3.9375, 1.97, 0, 2.12, 0.1525, 2.2725, 0.3025, 2.4225, 0.455, 2.575, 0.605, 2.7275, 0.7575, 2.8775, 0.91, 3.03, 1.06, 3.18, 1.2125, 3.3325, 1.3625, 3.485, 1.515, 3.635, 1.665, 3.7875, 1.8175, 3.9375, 1.97, 0, 2.12, 0.1525, 2.2725, 0.3025, 2.4225, 0.455, 2.575, 0.605, 2.7275, 0.7575, 2.8775, 0.91, 3.03, 1.06, 3.18, 1.2125, 3.3325, 1.3625, 3.485, 1.515, 3.635, 1.665, 3.7875, 1.8175, 3.9375, 1.97],
  "SoftwareVersions": "syngo MR E11",
  "SpacingBetweenSlices": 1.7,
  "StationName": "AWP66112",
  "TotalReadoutTime": 0.0959097,
  "TxRefAmp": 234.918,
  "WipMemBlock": "853bc28c-eb19-4b57-bc59-ef7ebbd72c30||Sequence: R016 ve11e/master r/434b28f1; Aug  7 2019 19:06:17 by eja",
  "dcmmeta_affine": [
    [-1.7121968269348145, -0.047825995832681656, 0.0692065954208374, 125.38127899169922],
    [-0.04568951204419136, 1.7128609418869019, 0.052431415766477585, -96.44110107421875],
    [0.0712052509188652, -0.05094761401414871, 1.6977802515029907, -79.04818725585938],
    [0.0, 0.0, 0.0, 1.0]
],
  "dcmmeta_reorient_transform": [
    [0.0, -1.0, 0.0, 139.0],
    [1.0, 0.0, 0.0, 0.0],
    [0.0, 0.0, 1.0, 0.0],
    [0.0, 0.0, 0.0, 1.0]
],
  "dcmmeta_shape": [140, 140, 81, 103],
  "dcmmeta_slice_dim": 2,
  "dcmmeta_version": 0.6,
  "global": {
    "const": {
      "AccessionNumber": "A004511",
      "AcquisitionMatrix": [140, 0, 0, 140],
      "AngioFlag": "N",
      "BitsAllocated": 16,
      "BitsStored": 16,
      "BodyPartExamined": "BRAIN",
      "Columns": 1260,
      "EchoNumbers": 1,
      "EchoTime": 88.4,
      "EchoTrainLength": 105,
      "FlipAngle": 90.0,
      "HighBit": 15,
      "ImageOrientationPatient": [0.99878145117199, 0.02665221469353, 0.04153639665048, -0.0278984973582, 0.99916886896319, 0.02971944043833],
      "ImagePositionPatient": [-1050.7811119412, -1126.4348217451, -154.53551319443],
      "ImageType": [
        "ORIGINAL",
        "PRIMARY",
        "DIFFUSION",
        "NONE",
        "MB",
        "ND",
        "MOSAIC"
],
      "ImagedNucleus": "1H",
      "ImagingFrequency": 123.259097,
      "InPlanePhaseEncodingDirection": "COL",
      "MRAcquisitionType": "2D",
      "MagneticFieldStrength": 3.0,
      "Manufacturer": "SIEMENS",
      "ManufacturerModelName": "Prisma",
      "Modality": "MR",
      "NumberOfAverages": 1.0,
      "NumberOfPhaseEncodingSteps": 105,
      "PercentPhaseFieldOfView": 100.0,
      "PercentSampling": 100.0,
      "PerformedProcedureStepStartTime": "085829.463000",
      "PhotometricInterpretation": "MONOCHROME2",
      "PixelBandwidth": 1700.0,
      "PixelRepresentation": 0,
      "PixelSpacing": [1.7142857313156, 1.7142857313156],
      "ProtocolName": "dwi_acq-96dir-6b0-mb",
      "RepetitionTime": 4110.0,
      "Rows": 1260,
      "SAR": 0.20914255087997,
      "SamplesPerPixel": 1,
      "ScanOptions": [
        "PFP",
        "FS"
],
      "ScanningSequence": "EP",
      "SequenceVariant": [
        "SK",
        "SS"
],
      "SeriesDescription": "dwi_acq-96dir-6b0-mb",
      "SeriesNumber": 8,
      "SeriesTime": "091846.048000",
      "SliceLocation": -76.815218236814,
      "SliceThickness": 1.7000000476837,
      "SmallestImagePixelValue": 0,
      "SoftwareVersions": "syngo MR E11",
      "SpacingBetweenSlices": 1.6999989619003,
      "SpecificCharacterSet": "ISO_IR 100",
      "StudyID": "1",
      "StudyTime": "085829.306000",
      "TransmitCoilName": "Body",
      "VariableFlipAngleFlag": "N",
      "WindowCenterWidthExplanation": "Algo1"
    },
    "slices": {}
  },
  "time": {
    "samples": {
      "AcquisitionNumber": [1, 2, 3, 4, 5, 6, 7, 8, 9, 10, 11, 12, 13, 14, 15, 16, 17, 18, 19, 20, 21, 22, 23, 24, 25, 26, 27, 28, 29, 30, 31, 32, 33, 34, 35, 36, 37, 38, 39, 40, 41, 42, 43, 44, 45, 46, 47, 48, 49, 50, 51, 52, 53, 54, 55, 56, 57, 58, 59, 60, 61, 62, 63, 64, 65, 66, 67, 68, 69, 70, 71, 72, 73, 74, 75, 76, 77, 78, 79, 80, 81, 82, 83, 84, 85, 86, 87, 88, 89, 90, 91, 92, 93, 94, 95, 96, 97, 98, 99, 100, 101, 102, 103],
      "AcquisitionTime": ["091719.065000", "091723.175000", "091727.285000", "091731.395000", "091735.505000", "091739.615000", "091743.725000", "091747.835000", "091751.945000", "091756.055000", "091800.165000", "091804.275000", "091808.385000", "091812.495000", "091816.605000", "091820.715000", "091824.825000", "091828.935000", "091833.045000", "091837.155000", "091841.265000", "091845.375000", "091849.485000", "091853.595000", "091857.705000", "091901.815000", "091905.925000", "091910.035000", "091914.145000", "091918.255000", "091922.365000", "091926.475000", "091930.585000", "091934.695000", "091938.805000", "091942.915000", "091947.025000", "091951.135000", "091955.245000", "091959.355000", "092003.465000", "092007.575000", "092011.685000", "092015.795000", "092019.905000", "092024.015000", "092028.125000", "092032.235000", "092036.345000", "092040.455000", "092044.565000", "092048.675000", "092052.785000", "092056.895000", "092101.005000", "092105.115000", "092109.225000", "092113.335000", "092117.445000", "092121.555000", "092125.665000", "092129.775000", "092133.885000", "092137.995000", "092142.105000", "092146.215000", "092150.325000", "092154.435000", "092158.545000", "092202.655000", "092206.765000", "092210.875000", "092214.985000", "092219.095000", "092223.205000", "092227.315000", "092231.425000", "092235.535000", "092239.645000", "092243.755000", "092247.865000", "092251.975000", "092256.085000", "092300.195000", "092304.305000", "092308.415000", "092312.525000", "092316.635000", "092320.745000", "092324.855000", "092328.965000", "092333.075000", "092337.185000", "092341.295000", "092345.405000", "092349.515000", "092353.625000", "092357.735000", "092401.845000", "092405.955000", "092410.065000", "092414.175000", "092418.285000"],
      "ContentTime": ["091846.052000", "091846.056000", "091846.070000", "091846.073000", "091846.076000", "091846.085000", "091846.088000", "091846.091000", "091846.094000", "091846.097000", "091846.106000", "091846.109000", "091846.116000", "091846.119000", "091846.122000", "091846.125000", "091846.128000", "091846.131000", "091846.133000", "091846.136000", "092006.048000", "092006.060000", "092006.063000", "092006.066000", "092006.069000", "092006.072000", "092006.075000", "092006.078000", "092006.081000", "092006.084000", "092006.087000", "092006.090000", "092006.093000", "092006.096000", "092006.099000", "092006.102000", "092006.105000", "092006.108000", "092006.111000", "092006.114000", "092146.048000", "092146.051000", "092146.054000", "092146.057000", "092146.061000", "092146.063000", "092146.066000", "092146.069000", "092146.072000", "092146.075000", "092146.078000", "092146.090000", "092146.093000", "092146.096000", "092146.098000", "092146.101000", "092146.104000", "092146.107000", "092146.110000", "092146.113000", "092146.116000", "092146.119000", "092146.122000", "092146.125000", "092306.047000", "092306.050000", "092306.053000", "092306.056000", "092306.059000", "092306.062000", "092306.065000", "092306.068000", "092306.071000", "092306.074000", "092306.077000", "092306.080000", "092306.083000", "092306.094000", "092306.097000", "092306.100000", "092306.103000", "092306.106000", "092306.109000", "092306.112000", "092423.366000", "092423.370000", "092423.373000", "092423.376000", "092423.379000", "092423.382000", "092423.385000", "092423.388000", "092423.391000", "092423.394000", "092423.397000", "092423.400000", "092423.403000", "092423.406000", "092423.409000", "092423.412000", "092423.415000", "092423.418000", "092423.421000"],
      "InstanceCreationTime": ["091846.052000", "091846.056000", "091846.070000", "091846.073000", "091846.076000", "091846.085000", "091846.088000", "091846.091000", "091846.094000", "091846.097000", "091846.106000", "091846.109000", "091846.116000", "091846.119000", "091846.122000", "091846.125000", "091846.128000", "091846.131000", "091846.133000", "091846.136000", "092006.048000", "092006.060000", "092006.063000", "092006.066000", "092006.069000", "092006.072000", "092006.075000", "092006.078000", "092006.081000", "092006.084000", "092006.087000", "092006.090000", "092006.093000", "092006.096000", "092006.099000", "092006.102000", "092006.105000", "092006.108000", "092006.111000", "092006.114000", "092146.048000", "092146.051000", "092146.054000", "092146.057000", "092146.061000", "092146.063000", "092146.066000", "092146.069000", "092146.072000", "092146.075000", "092146.078000", "092146.090000", "092146.093000", "092146.096000", "092146.098000", "092146.101000", "092146.104000", "092146.107000", "092146.110000", "092146.113000", "092146.116000", "092146.119000", "092146.122000", "092146.125000", "092306.047000", "092306.050000", "092306.053000", "092306.056000", "092306.059000", "092306.062000", "092306.065000", "092306.068000", "092306.071000", "092306.074000", "092306.077000", "092306.080000", "092306.083000", "092306.094000", "092306.097000", "092306.100000", "092306.103000", "092306.106000", "092306.109000", "092306.112000", "092423.366000", "092423.370000", "092423.373000", "092423.376000", "092423.379000", "092423.382000", "092423.385000", "092423.388000", "092423.391000", "092423.394000", "092423.397000", "092423.400000", "092423.403000", "092423.406000", "092423.409000", "092423.412000", "092423.415000", "092423.418000", "092423.421000"],
      "InstanceNumber": [1, 2, 3, 4, 5, 6, 7, 8, 9, 10, 11, 12, 13, 14, 15, 16, 17, 18, 19, 20, 21, 22, 23, 24, 25, 26, 27, 28, 29, 30, 31, 32, 33, 34, 35, 36, 37, 38, 39, 40, 41, 42, 43, 44, 45, 46, 47, 48, 49, 50, 51, 52, 53, 54, 55, 56, 57, 58, 59, 60, 61, 62, 63, 64, 65, 66, 67, 68, 69, 70, 71, 72, 73, 74, 75, 76, 77, 78, 79, 80, 81, 82, 83, 84, 85, 86, 87, 88, 89, 90, 91, 92, 93, 94, 95, 96, 97, 98, 99, 100, 101, 102, 103],
      "LargestImagePixelValue": [65535, 65535, 44689, 44157, 44121, 47050, 44243, 46964, 65535, 32674, 33959, 31689, 31910, 28414, 33413, 32166, 30920, 32403, 32477, 31568, 32058, 30328, 32562, 31135, 65535, 18095, 17636, 18809, 16062, 19117, 19859, 16251, 17286, 16120, 16825, 18020, 17545, 15589, 16003, 16523, 65535, 10275, 10308, 11936, 12045, 8843, 9846, 10450, 9216, 11660, 11329, 12072, 8932, 12231, 11338, 9827, 13034, 9770, 11012, 11621, 9315, 12283, 10028, 9470, 9192, 10634, 9430, 9668, 10860, 10456, 11218, 9854, 11387, 65535, 11871, 9580, 10793, 9139, 10291, 10657, 10463, 11259, 9270, 13768, 9698, 10791, 9776, 12207, 13477, 12664, 12115, 9051, 11053, 10331, 11885, 13180, 8383, 8956, 12377, 9496, 12536, 9415, 65535],
      "SequenceName": [
 "ep_b5#1",
 "ep_b5#1",
 "ep_b500#2",
 "ep_b495#3",
 "ep_b500#4",
 "ep_b505#5",
 "ep_b495#6",
 "ep_b500#7",
 "ep_b5#8",
 "ep_b1000#9",
 "ep_b1005#10",
 "ep_b995#11",
 "ep_b1005#12",
 "ep_b995#13",
 "ep_b995#14",
 "ep_b1005#15",
 "ep_b1000#16",
 "ep_b1005#17",
 "ep_b1000#18",
 "ep_b1000#19",
 "ep_b995#20",
 "ep_b1000#21",
 "ep_b1005#22",
 "ep_b1005#23",
 "ep_b5#24",
 "ep_b2000#25",
 "ep_b1995#26",
 "ep_b1990#27",
 "ep_b2000#28",
 "ep_b2005#29",
 "ep_b2010#30",
 "ep_b2000#31",
 "ep_b2010#32",
 "ep_b1995#33",
 "ep_b1995#34",
 "ep_b1995#35",
 "ep_b2005#36",
 "ep_b2000#37",
 "ep_b2005#38",
 "ep_b1995#39",
 "ep_b5#40",
 "ep_b3000#41",
 "ep_b3005#42",
 "ep_b3010#43",
 "ep_b3010#44",
 "ep_b3000#45",
 "ep_b3000#46",
 "ep_b2990#47",
 "ep_b3005#48",
 "ep_b3005#49",
 "ep_b2990#50",
 "ep_b2990#51",
 "ep_b2995#52",
 "ep_b2995#53",
 "ep_b3010#54",
 "ep_b3000#55",
 "ep_b2995#56",
 "ep_b2995#57",
 "ep_b2990#58",
 "ep_b2990#59",
 "ep_b3000#60",
 "ep_b2990#61",
 "ep_b2990#62",
 "ep_b2995#63",
 "ep_b3000#64",
 "ep_b3010#65",
 "ep_b3000#66",
 "ep_b3005#67",
 "ep_b3010#68",
 "ep_b3005#69",
 "ep_b3005#70",
 "ep_b3005#71",
 "ep_b2990#72",
 "ep_b5#73",
 "ep_b3010#74",
 "ep_b3000#75",
 "ep_b3005#76",
 "ep_b3000#77",
 "ep_b2990#78",
 "ep_b3005#79",
 "ep_b2995#80",
 "ep_b3010#81",
 "ep_b3005#82",
 "ep_b3005#83",
 "ep_b3000#84",
 "ep_b3000#85",
 "ep_b3010#86",
 "ep_b3010#87",
 "ep_b2990#88",
 "ep_b3010#89",
 "ep_b2995#90",
 "ep_b2995#91",
 "ep_b2990#92",
 "ep_b2995#93",
 "ep_b3005#94",
 "ep_b3005#95",
 "ep_b2995#96",
 "ep_b3000#97",
 "ep_b2990#98",
 "ep_b2995#99",
 "ep_b2995#100",
 "ep_b2995#101",
 "ep_b5#102"
],
      "WindowCenter": [10612.0, 10635.0, 7660.0, 7661.0, 7636.0, 7656.0, 7684.0, 7677.0, 10616.0, 5901.0, 5903.0, 5899.0, 5877.0, 5907.0, 5956.0, 5882.0, 5855.0, 5869.0, 5904.0, 5852.0, 5923.0, 5861.0, 5905.0, 5846.0, 10625.0, 3817.0, 3784.0, 3859.0, 3738.0, 3830.0, 3827.0, 3731.0, 3808.0, 3757.0, 3794.0, 3823.0, 3768.0, 3716.0, 3754.0, 3739.0, 10612.0, 2652.0, 2611.0, 2705.0, 2700.0, 2561.0, 2580.0, 2673.0, 2558.0, 2660.0, 2708.0, 2740.0, 2575.0, 2696.0, 2665.0, 2583.0, 2721.0, 2579.0, 2667.0, 2709.0, 2532.0, 2732.0, 2647.0, 2573.0, 2557.0, 2653.0, 2572.0, 2574.0, 2657.0, 2635.0, 2674.0, 2601.0, 2704.0, 10592.0, 2685.0, 2554.0, 2636.0, 2550.0, 2654.0, 2611.0, 2629.0, 2690.0, 2595.0, 2729.0, 2600.0, 2634.0, 2629.0, 2699.0, 2767.0, 2722.0, 2738.0, 2563.0, 2680.0, 2633.0, 2678.0, 2730.0, 2545.0, 2525.0, 2729.0, 2559.0, 2693.0, 2583.0, 10598.0],
      "WindowWidth": [23715.0, 23787.0, 16388.0, 16386.0, 16322.0, 16361.0, 16436.0, 16398.0, 23737.0, 12732.0, 12725.0, 12740.0, 12699.0, 12782.0, 12842.0, 12688.0, 12648.0, 12685.0, 12736.0, 12640.0, 12776.0, 12661.0, 12733.0, 12616.0, 23760.0, 8608.0, 8562.0, 8696.0, 8473.0, 8634.0, 8617.0, 8466.0, 8605.0, 8520.0, 8587.0, 8637.0, 8530.0, 8432.0, 8500.0, 8471.0, 23723.0, 6357.0, 6244.0, 6429.0, 6390.0, 6200.0, 6181.0, 6382.0, 6143.0, 6364.0, 6427.0, 6467.0, 6224.0, 6426.0, 6354.0, 6226.0, 6466.0, 6172.0, 6361.0, 6429.0, 6095.0, 6471.0, 6345.0, 6185.0, 6145.0, 6335.0, 6209.0, 6188.0, 6350.0, 6321.0, 6392.0, 6241.0, 6423.0, 23652.0, 6362.0, 6129.0, 6288.0, 6146.0, 6327.0, 6249.0, 6293.0, 6384.0, 6245.0, 6471.0, 6265.0, 6316.0, 6285.0, 6394.0, 6530.0, 6424.0, 6511.0, 6163.0, 6377.0, 6316.0, 6378.0, 6477.0, 6164.0, 6102.0, 6464.0, 6151.0, 6409.0, 6230.0, 23675.0]
    },
    "slices": {}
  }
}