{
  "AcquisitionMatrixPE": 82,
  "AcquisitionNumber": 1,
  "AcquisitionTime": "15:44:33.192500",
  "BandwidthPerPixelPhaseEncode": 24.888,
  "BaseResolution": 82,
  "BodyPartExamined": "BRAIN",
  "ConsistencyInfo": "N4_VE11C_LATEST_20160120",
  "ConversionSoftware": "dcm2niix",
  "ConversionSoftwareVersion": "v1.0.20201102",
  "DerivedVendorReportedEchoSpacing": 0.00049,
  "DeviceSerialNumber": "66112",
  "DwellTime": 2e-06,
  "EchoTime": 0.0272,
  "EchoTrainLength": 82,
  "EffectiveEchoSpacing": 0.00049,
  "FlipAngle": 44,
  "ImageComments": "Unaliased MB8/PE3",
  "ImageOrientationPatientDICOM": [0.998587, -0.00855548, 0.0524487, 0.0029629, 0.994384, 0.105793],
  "ImageType": [
    "ORIGINAL",
    "PRIMARY",
    "M",
    "MB",
    "ND",
    "NORM",
    "MOSAIC"
],
  "ImagingFrequency": 123.252,
  "InPlanePhaseEncodingDirectionDICOM": "COL",
  "InstitutionAddress": "Maynard 3,Hanover,NH,US,03755",
  "InstitutionName": "Dartmouth College - PBS",
  "InstitutionalDepartmentName": "Department",
  "MRAcquisitionType": "2D",
  "MagneticFieldStrength": 3,
  "Manufacturer": "Siemens",
  "ManufacturersModelName": "Prisma",
  "Modality": "MR",
  "MultibandAccelerationFactor": 8,
  "PartialFourier": 1,
  "PatientPosition": "HFS",
  "PercentPhaseFOV": 100,
  "PercentSampling": 100,
  "PhaseEncodingDirection": "j-",
  "PhaseEncodingSteps": 82,
  "PhaseResolution": 1,
  "PixelBandwidth": 3050,
  "ProcedureStepDescription": "Wager_Wager^1076_spacetop",
  "ProtocolName": "func_run-04_task-social_acq-ap-mb8",
  "PulseSequenceDetails": "%CustomerSeq%\\cmrr_mbep2d_bold",
  "ReceiveCoilActiveElements": "HEA;HEP",
  "ReceiveCoilName": "Head_32",
  "ReconMatrixPE": 82,
  "RepetitionTime": 0.46,
  "SAR": 0.0827258,
  "ScanOptions": "FS",
  "ScanningSequence": "EP",
  "SequenceName": "epfid2d1_82",
  "SequenceVariant": "SK\\SS",
  "SeriesDescription": "func_run-04_task-social_acq-ap-mb8",
  "SeriesNumber": 20,
  "ShimSetting": [4166, -7734, -7234, 662, 17, -227, -2, 42],
  "SliceThickness": 2.7,
  "SliceTiming": [0, 0.25, 0.0625, 0.3125, 0.125, 0.375, 0.1875, 0, 0.25, 0.0625, 0.3125, 0.125, 0.375, 0.1875, 0, 0.25, 0.0625, 0.3125, 0.125, 0.375, 0.1875, 0, 0.25, 0.0625, 0.3125, 0.125, 0.375, 0.1875, 0, 0.25, 0.0625, 0.3125, 0.125, 0.375, 0.1875, 0, 0.25, 0.0625, 0.3125, 0.125, 0.375, 0.1875, 0, 0.25, 0.0625, 0.3125, 0.125, 0.375, 0.1875, 0, 0.25, 0.0625, 0.3125, 0.125, 0.375, 0.1875],
  "SoftwareVersions": "syngo MR E11",
  "SpacingBetweenSlices": 2.7,
  "StationName": "AWP66112",
  "TaskName": "social",
  "TotalReadoutTime": 0.03969,
  "TxRefAmp": 229.334,
  "WipMemBlock": "5a4aeda3-cbc9-45af-a956-594bbdef00e4||Sequence: R016 ve11c/master r/e634e98; Dec 19 2017 11:00:25 by eja",
  "dcmmeta_affine": [
    [-2.679135799407959, 0.007949253544211388, 0.1432598978281021, 112.84645080566406],
    [0.022953718900680542, 2.667858839035034, 0.2848183214664459, -105.16840362548828],
    [0.14071595668792725, -0.2838352918624878, 2.6811108589172363, -58.781314849853516],
    [0.0, 0.0, 0.0, 1.0]
],
  "dcmmeta_reorient_transform": [
    [0.0, -1.0, 0.0, 81.0],
    [1.0, 0.0, 0.0, 0.0],
    [0.0, 0.0, 1.0, 0.0],
    [0.0, 0.0, 0.0, 1.0]
],
  "dcmmeta_shape": [82, 82, 56, 872],
  "dcmmeta_slice_dim": 2,
  "dcmmeta_version": 0.6,
  "global": {
    "const": {
      "AccessionNumber": "A003480",
      "AcquisitionMatrix": [82, 0, 0, 82],
      "AngioFlag": "N",
      "BitsAllocated": 16,
      "BitsStored": 16,
      "BodyPartExamined": "BRAIN",
      "Columns": 656,
      "EchoNumbers": 1,
      "EchoTime": 27.2,
      "EchoTrainLength": 82,
      "FlipAngle": 44.0,
      "HighBit": 15,
      "ImageOrientationPatient": [0.99858697197534, -0.0085554769456, 0.05244867219824, 0.00296290343234, 0.99438374377207, 0.10579315348878],
      "ImagePositionPatient": [-884.68375943272, -870.01594912354, -203.61818162872],
      "ImageType": [
        "ORIGINAL",
        "PRIMARY",
        "M",
        "MB",
        "ND",
        "NORM",
        "MOSAIC"
],
      "ImagedNucleus": "1H",
      "ImagingFrequency": 123.25215,
      "InPlanePhaseEncodingDirection": "COL",
      "MRAcquisitionType": "2D",
      "MagneticFieldStrength": 3.0,
      "Manufacturer": "SIEMENS",
      "ManufacturerModelName": "Prisma",
      "Modality": "MR",
      "NumberOfAverages": 1.0,
      "NumberOfPhaseEncodingSteps": 82,
      "PercentPhaseFieldOfView": 100.0,
      "PercentSampling": 100.0,
      "PerformedProcedureStepStartTime": "145425.929000",
      "PhotometricInterpretation": "MONOCHROME2",
      "PixelBandwidth": 3050.0,
      "PixelRepresentation": 0,
      "PixelSpacing": [2.6829268932343, 2.6829268932343],
      "ProtocolName": "func_run-04_task-social_acq-ap-mb8",
      "RepetitionTime": 460.0,
      "Rows": 656,
      "SAR": 0.08272578200867,
      "SamplesPerPixel": 1,
      "ScanOptions": "FS",
      "ScanningSequence": "EP",
      "SequenceName": "epfid2d1_82",
      "SequenceVariant": [
        "SK",
        "SS"
],
      "SeriesDescription": "func_run-04_task-social_acq-ap-mb8",
      "SeriesNumber": 20,
      "SeriesTime": "154444.078000",
      "SliceLocation": -63.47656809749,
      "SliceThickness": 2.7000000476837,
      "SmallestImagePixelValue": 0,
      "SoftwareVersions": "syngo MR E11",
      "SpacingBetweenSlices": 2.700000065836,
      "SpecificCharacterSet": "ISO_IR 100",
      "StudyID": "3",
      "StudyTime": "145425.871000",
      "TransmitCoilName": "Body",
      "VariableFlipAngleFlag": "N",
      "WindowCenterWidthExplanation": "Algo1",
      "dBdt": 0.0},
    "slices": {}
  },
  "time": {
    "samples": {
      "AcquisitionNumber": [1, 2, 3, 4, 5, 6, 7, 8, 9, 10, 11, 12, 13, 14, 15, 16, 17, 18, 19, 20, 21, 22, 23, 24, 25, 26, 27, 28, 29, 30, 31, 32, 33, 34, 35, 36, 37, 38, 39, 40, 41, 42, 43, 44, 45, 46, 47, 48, 49, 50, 51, 52, 53, 54, 55, 56, 57, 58, 59, 60, 61, 62, 63, 64, 65, 66, 67, 68, 69, 70, 71, 72, 73, 74, 75, 76, 77, 78, 79, 80, 81, 82, 83, 84, 85, 86, 87, 88, 89, 90, 91, 92, 93, 94, 95, 96, 97, 98, 99, 100, 101, 102, 103, 104, 105, 106, 107, 108, 109, 110, 111, 112, 113, 114, 115, 116, 117, 118, 119, 120, 121, 122, 123, 124, 125, 126, 127, 128, 129, 130, 131, 132, 133, 134, 135, 136, 137, 138, 139, 140, 141, 142, 143, 144, 145, 146, 147, 148, 149, 150, 151, 152, 153, 154, 155, 156, 157, 158, 159, 160, 161, 162, 163, 164, 165, 166, 167, 168, 169, 170, 171, 172, 173, 174, 175, 176, 177, 178, 179, 180, 181, 182, 183, 184, 185, 186, 187, 188, 189, 190, 191, 192, 193, 194, 195, 196, 197, 198, 199, 200, 201, 202, 203, 204, 205, 206, 207, 208, 209, 210, 211, 212, 213, 214, 215, 216, 217, 218, 219, 220, 221, 222, 223, 224, 225, 226, 227, 228, 229, 230, 231, 232, 233, 234, 235, 236, 237, 238, 239, 240, 241, 242, 243, 244, 245, 246, 247, 248, 249, 250, 251, 252, 253, 254, 255, 256, 257, 258, 259, 260, 261, 262, 263, 264, 265, 266, 267, 268, 269, 270, 271, 272, 273, 274, 275, 276, 277, 278, 279, 280, 281, 282, 283, 284, 285, 286, 287, 288, 289, 290, 291, 292, 293, 294, 295, 296, 297, 298, 299, 300, 301, 302, 303, 304, 305, 306, 307, 308, 309, 310, 311, 312, 313, 314, 315, 316, 317, 318, 319, 320, 321, 322, 323, 324, 325, 326, 327, 328, 329, 330, 331, 332, 333, 334, 335, 336, 337, 338, 339, 340, 341, 342, 343, 344, 345, 346, 347, 348, 349, 350, 351, 352, 353, 354, 355, 356, 357, 358, 359, 360, 361, 362, 363, 364, 365, 366, 367, 368, 369, 370, 371, 372, 373, 374, 375, 376, 377, 378, 379, 380, 381, 382, 383, 384, 385, 386, 387, 388, 389, 390, 391, 392, 393, 394, 395, 396, 397, 398, 399, 400, 401, 402, 403, 404, 405, 406, 407, 408, 409, 410, 411, 412, 413, 414, 415, 416, 417, 418, 419, 420, 421, 422, 423, 424, 425, 426, 427, 428, 429, 430, 431, 432, 433, 434, 435, 436, 437, 438, 439, 440, 441, 442, 443, 444, 445, 446, 447, 448, 449, 450, 451, 452, 453, 454, 455, 456, 457, 458, 459, 460, 461, 462, 463, 464, 465, 466, 467, 468, 469, 470, 471, 472, 473, 474, 475, 476, 477, 478, 479, 480, 481, 482, 483, 484, 485, 486, 487, 488, 489, 490, 491, 492, 493, 494, 495, 496, 497, 498, 499, 500, 501, 502, 503, 504, 505, 506, 507, 508, 509, 510, 511, 512, 513, 514, 515, 516, 517, 518, 519, 520, 521, 522, 523, 524, 525, 526, 527, 528, 529, 530, 531, 532, 533, 534, 535, 536, 537, 538, 539, 540, 541, 542, 543, 544, 545, 546, 547, 548, 549, 550, 551, 552, 553, 554, 555, 556, 557, 558, 559, 560, 561, 562, 563, 564, 565, 566, 567, 568, 569, 570, 571, 572, 573, 574, 575, 576, 577, 578, 579, 580, 581, 582, 583, 584, 585, 586, 587, 588, 589, 590, 591, 592, 593, 594, 595, 596, 597, 598, 599, 600, 601, 602, 603, 604, 605, 606, 607, 608, 609, 610, 611, 612, 613, 614, 615, 616, 617, 618, 619, 620, 621, 622, 623, 624, 625, 626, 627, 628, 629, 630, 631, 632, 633, 634, 635, 636, 637, 638, 639, 640, 641, 642, 643, 644, 645, 646, 647, 648, 649, 650, 651, 652, 653, 654, 655, 656, 657, 658, 659, 660, 661, 662, 663, 664, 665, 666, 667, 668, 669, 670, 671, 672, 673, 674, 675, 676, 677, 678, 679, 680, 681, 682, 683, 684, 685, 686, 687, 688, 689, 690, 691, 692, 693, 694, 695, 696, 697, 698, 699, 700, 701, 702, 703, 704, 705, 706, 707, 708, 709, 710, 711, 712, 713, 714, 715, 716, 717, 718, 719, 720, 721, 722, 723, 724, 725, 726, 727, 728, 729, 730, 731, 732, 733, 734, 735, 736, 737, 738, 739, 740, 741, 742, 743, 744, 745, 746, 747, 748, 749, 750, 751, 752, 753, 754, 755, 756, 757, 758, 759, 760, 761, 762, 763, 764, 765, 766, 767, 768, 769, 770, 771, 772, 773, 774, 775, 776, 777, 778, 779, 780, 781, 782, 783, 784, 785, 786, 787, 788, 789, 790, 791, 792, 793, 794, 795, 796, 797, 798, 799, 800, 801, 802, 803, 804, 805, 806, 807, 808, 809, 810, 811, 812, 813, 814, 815, 816, 817, 818, 819, 820, 821, 822, 823, 824, 825, 826, 827, 828, 829, 830, 831, 832, 833, 834, 835, 836, 837, 838, 839, 840, 841, 842, 843, 844, 845, 846, 847, 848, 849, 850, 851, 852, 853, 854, 855, 856, 857, 858, 859, 860, 861, 862, 863, 864, 865, 866, 867, 868, 869, 870, 871, 872],
      "AcquisitionTime": ["154433.192500", "154433.652500", "154434.112500", "154434.572500", "154435.032500", "154435.492500", "154435.952500", "154436.412500", "154436.872500", "154437.332500", "154437.792500", "154438.252500", "154438.712500", "154439.172500", "154439.632500", "154440.092500", "154440.552500", "154441.012500", "154441.472500", "154441.932500", "154442.392500", "154442.852500", "154443.312500", "154443.772500", "154444.232500", "154444.692500", "154445.152500", "154445.612500", "154446.072500", "154446.532500", "154446.992500", "154447.452500", "154447.912500", "154448.372500", "154448.832500", "154449.292500", "154449.752500", "154450.212500", "154450.672500", "154451.132500", "154451.592500", "154452.052500", "154452.512500", "154452.972500", "154453.432500", "154453.892500", "154454.352500", "154454.812500", "154455.272500", "154455.732500", "154456.192500", "154456.652500", "154457.112500", "154457.572500", "154458.032500", "154458.492500", "154458.952500", "154459.412500", "154459.872500", "154500.332500", "154500.792500", "154501.252500", "154501.712500", "154502.172500", "154502.632500", "154503.092500", "154503.552500", "154504.012500", "154504.472500", "154504.932500", "154505.392500", "154505.852500", "154506.312500", "154506.772500", "154507.232500", "154507.692500", "154508.152500", "154508.612500", "154509.072500", "154509.532500", "154509.992500", "154510.452500", "154510.912500", "154511.372500", "154511.832500", "154512.292500", "154512.752500", "154513.212500", "154513.672500", "154514.132500", "154514.592500", "154515.052500", "154515.512500", "154515.972500", "154516.432500", "154516.892500", "154517.352500", "154517.812500", "154518.272500", "154518.732500", "154519.192500", "154519.652500", "154520.112500", "154520.572500", "154521.032500", "154521.492500", "154521.952500", "154522.412500", "154522.872500", "154523.332500", "154523.792500", "154524.252500", "154524.712500", "154525.172500", "154525.632500", "154526.092500", "154526.552500", "154527.012500", "154527.472500", "154527.932500", "154528.392500", "154528.852500", "154529.312500", "154529.772500", "154530.232500", "154530.692500", "154531.152500", "154531.612500", "154532.072500", "154532.532500", "154532.992500", "154533.452500", "154533.912500", "154534.372500", "154534.832500", "154535.292500", "154535.752500", "154536.212500", "154536.672500", "154537.132500", "154537.592500", "154538.052500", "154538.512500", "154538.972500", "154539.432500", "154539.892500", "154540.352500", "154540.812500", "154541.272500", "154541.732500", "154542.192500", "154542.652500", "154543.112500", "154543.572500", "154544.032500", "154544.492500", "154544.952500", "154545.412500", "154545.872500", "154546.332500", "154546.792500", "154547.252500", "154547.712500", "154548.172500", "154548.632500", "154549.092500", "154549.552500", "154550.012500", "154550.472500", "154550.932500", "154551.392500", "154551.852500", "154552.312500", "154552.772500", "154553.232500", "154553.692500", "154554.152500", "154554.612500", "154555.072500", "154555.532500", "154555.992500", "154556.452500", "154556.912500", "154557.372500", "154557.832500", "154558.292500", "154558.752500", "154559.212500", "154559.672500", "154600.132500", "154600.592500", "154601.052500", "154601.512500", "154601.972500", "154602.432500", "154602.892500", "154603.352500", "154603.812500", "154604.272500", "154604.732500", "154605.192500", "154605.652500", "154606.112500", "154606.572500", "154607.032500", "154607.492500", "154607.952500", "154608.412500", "154608.872500", "154609.332500", "154609.792500", "154610.252500", "154610.712500", "154611.172500", "154611.632500", "154612.092500", "154612.552500", "154613.012500", "154613.472500", "154613.932500", "154614.392500", "154614.852500", "154615.312500", "154615.772500", "154616.232500", "154616.692500", "154617.152500", "154617.612500", "154618.072500", "154618.532500", "154618.992500", "154619.452500", "154619.912500", "154620.372500", "154620.832500", "154621.292500", "154621.752500", "154622.212500", "154622.672500", "154623.132500", "154623.592500", "154624.052500", "154624.512500", "154624.972500", "154625.432500", "154625.892500", "154626.352500", "154626.812500", "154627.272500", "154627.732500", "154628.192500", "154628.652500", "154629.112500", "154629.572500", "154630.032500", "154630.492500", "154630.952500", "154631.412500", "154631.872500", "154632.332500", "154632.792500", "154633.252500", "154633.712500", "154634.172500", "154634.632500", "154635.092500", "154635.552500", "154636.012500", "154636.472500", "154636.932500", "154637.392500", "154637.852500", "154638.312500", "154638.772500", "154639.232500", "154639.692500", "154640.152500", "154640.612500", "154641.072500", "154641.532500", "154641.992500", "154642.452500", "154642.912500", "154643.372500", "154643.832500", "154644.292500", "154644.752500", "154645.212500", "154645.672500", "154646.132500", "154646.592500", "154647.052500", "154647.512500", "154647.972500", "154648.432500", "154648.892500", "154649.352500", "154649.812500", "154650.272500", "154650.732500", "154651.192500", "154651.652500", "154652.112500", "154652.572500", "154653.032500", "154653.492500", "154653.952500", "154654.412500", "154654.872500", "154655.332500", "154655.792500", "154656.252500", "154656.712500", "154657.172500", "154657.632500", "154658.092500", "154658.552500", "154659.012500", "154659.472500", "154659.932500", "154700.392500", "154700.852500", "154701.312500", "154701.772500", "154702.232500", "154702.692500", "154703.152500", "154703.612500", "154704.072500", "154704.532500", "154704.992500", "154705.452500", "154705.912500", "154706.372500", "154706.832500", "154707.292500", "154707.752500", "154708.212500", "154708.672500", "154709.132500", "154709.592500", "154710.052500", "154710.512500", "154710.972500", "154711.432500", "154711.892500", "154712.352500", "154712.812500", "154713.272500", "154713.732500", "154714.192500", "154714.652500", "154715.112500", "154715.572500", "154716.032500", "154716.492500", "154716.952500", "154717.412500", "154717.872500", "154718.332500", "154718.792500", "154719.252500", "154719.712500", "154720.172500", "154720.632500", "154721.092500", "154721.552500", "154722.012500", "154722.472500", "154722.932500", "154723.392500", "154723.852500", "154724.312500", "154724.772500", "154725.232500", "154725.692500", "154726.152500", "154726.612500", "154727.072500", "154727.532500", "154727.992500", "154728.452500", "154728.912500", "154729.372500", "154729.832500", "154730.292500", "154730.752500", "154731.212500", "154731.672500", "154732.132500", "154732.592500", "154733.052500", "154733.512500", "154733.972500", "154734.432500", "154734.892500", "154735.352500", "154735.812500", "154736.272500", "154736.732500", "154737.192500", "154737.652500", "154738.112500", "154738.572500", "154739.032500", "154739.492500", "154739.952500", "154740.412500", "154740.872500", "154741.332500", "154741.792500", "154742.252500", "154742.712500", "154743.172500", "154743.632500", "154744.092500", "154744.552500", "154745.012500", "154745.472500", "154745.932500", "154746.392500", "154746.852500", "154747.312500", "154747.772500", "154748.232500", "154748.692500", "154749.152500", "154749.612500", "154750.072500", "154750.532500", "154750.992500", "154751.452500", "154751.912500", "154752.372500", "154752.832500", "154753.292500", "154753.752500", "154754.212500", "154754.672500", "154755.132500", "154755.592500", "154756.052500", "154756.512500", "154756.972500", "154757.432500", "154757.892500", "154758.352500", "154758.812500", "154759.272500", "154759.732500", "154800.192500", "154800.652500", "154801.112500", "154801.572500", "154802.032500", "154802.492500", "154802.952500", "154803.412500", "154803.872500", "154804.332500", "154804.792500", "154805.252500", "154805.712500", "154806.172500", "154806.632500", "154807.092500", "154807.552500", "154808.012500", "154808.472500", "154808.932500", "154809.392500", "154809.852500", "154810.312500", "154810.772500", "154811.232500", "154811.692500", "154812.152500", "154812.612500", "154813.072500", "154813.532500", "154813.992500", "154814.452500", "154814.912500", "154815.372500", "154815.832500", "154816.292500", "154816.752500", "154817.212500", "154817.672500", "154818.132500", "154818.592500", "154819.052500", "154819.512500", "154819.972500", "154820.432500", "154820.892500", "154821.352500", "154821.812500", "154822.272500", "154822.732500", "154823.192500", "154823.652500", "154824.112500", "154824.572500", "154825.032500", "154825.492500", "154825.952500", "154826.412500", "154826.872500", "154827.332500", "154827.792500", "154828.252500", "154828.712500", "154829.172500", "154829.632500", "154830.092500", "154830.552500", "154831.012500", "154831.472500", "154831.932500", "154832.392500", "154832.852500", "154833.312500", "154833.772500", "154834.232500", "154834.692500", "154835.152500", "154835.612500", "154836.072500", "154836.532500", "154836.992500", "154837.452500", "154837.912500", "154838.372500", "154838.832500", "154839.292500", "154839.752500", "154840.212500", "154840.672500", "154841.132500", "154841.592500", "154842.052500", "154842.512500", "154842.972500", "154843.432500", "154843.892500", "154844.352500", "154844.812500", "154845.272500", "154845.732500", "154846.192500", "154846.652500", "154847.112500", "154847.572500", "154848.032500", "154848.492500", "154848.952500", "154849.412500", "154849.872500", "154850.332500", "154850.792500", "154851.252500", "154851.712500", "154852.172500", "154852.632500", "154853.092500", "154853.552500", "154854.012500", "154854.472500", "154854.932500", "154855.392500", "154855.852500", "154856.312500", "154856.772500", "154857.232500", "154857.692500", "154858.152500", "154858.612500", "154859.072500", "154859.532500", "154859.992500", "154900.452500", "154900.912500", "154901.372500", "154901.832500", "154902.292500", "154902.752500", "154903.212500", "154903.672500", "154904.132500", "154904.592500", "154905.052500", "154905.512500", "154905.972500", "154906.432500", "154906.892500", "154907.352500", "154907.812500", "154908.272500", "154908.732500", "154909.192500", "154909.652500", "154910.112500", "154910.572500", "154911.032500", "154911.492500", "154911.952500", "154912.412500", "154912.872500", "154913.332500", "154913.792500", "154914.252500", "154914.712500", "154915.172500", "154915.632500", "154916.092500", "154916.552500", "154917.012500", "154917.472500", "154917.932500", "154918.392500", "154918.852500", "154919.312500", "154919.772500", "154920.232500", "154920.692500", "154921.152500", "154921.612500", "154922.072500", "154922.532500", "154922.992500", "154923.452500", "154923.912500", "154924.372500", "154924.832500", "154925.292500", "154925.752500", "154926.212500", "154926.672500", "154927.132500", "154927.592500", "154928.052500", "154928.512500", "154928.972500", "154929.432500", "154929.892500", "154930.352500", "154930.812500", "154931.272500", "154931.732500", "154932.192500", "154932.652500", "154933.112500", "154933.572500", "154934.032500", "154934.492500", "154934.952500", "154935.412500", "154935.872500", "154936.332500", "154936.792500", "154937.252500", "154937.712500", "154938.172500", "154938.632500", "154939.092500", "154939.552500", "154940.012500", "154940.472500", "154940.932500", "154941.392500", "154941.852500", "154942.312500", "154942.772500", "154943.232500", "154943.692500", "154944.152500", "154944.612500", "154945.072500", "154945.532500", "154945.992500", "154946.452500", "154946.912500", "154947.372500", "154947.832500", "154948.292500", "154948.752500", "154949.212500", "154949.672500", "154950.132500", "154950.592500", "154951.052500", "154951.512500", "154951.972500", "154952.432500", "154952.892500", "154953.352500", "154953.812500", "154954.272500", "154954.732500", "154955.192500", "154955.652500", "154956.112500", "154956.572500", "154957.032500", "154957.492500", "154957.952500", "154958.412500", "154958.872500", "154959.332500", "154959.792500", "155000.252500", "155000.712500", "155001.172500", "155001.632500", "155002.092500", "155002.552500", "155003.012500", "155003.472500", "155003.932500", "155004.392500", "155004.852500", "155005.312500", "155005.772500", "155006.232500", "155006.692500", "155007.152500", "155007.612500", "155008.072500", "155008.532500", "155008.992500", "155009.452500", "155009.912500", "155010.372500", "155010.832500", "155011.292500", "155011.752500", "155012.212500", "155012.672500", "155013.132500", "155013.592500", "155014.052500", "155014.512500", "155014.972500", "155015.432500", "155015.892500", "155016.352500", "155016.812500", "155017.272500", "155017.732500", "155018.192500", "155018.652500", "155019.112500", "155019.572500", "155020.032500", "155020.492500", "155020.952500", "155021.412500", "155021.872500", "155022.332500", "155022.792500", "155023.252500", "155023.712500", "155024.172500", "155024.632500", "155025.092500", "155025.552500", "155026.012500", "155026.472500", "155026.932500", "155027.392500", "155027.852500", "155028.312500", "155028.772500", "155029.232500", "155029.692500", "155030.152500", "155030.612500", "155031.072500", "155031.532500", "155031.992500", "155032.452500", "155032.912500", "155033.372500", "155033.832500", "155034.292500", "155034.752500", "155035.212500", "155035.672500", "155036.132500", "155036.592500", "155037.052500", "155037.512500", "155037.972500", "155038.432500", "155038.892500", "155039.352500", "155039.812500", "155040.272500", "155040.732500", "155041.192500", "155041.652500", "155042.112500", "155042.572500", "155043.032500", "155043.492500", "155043.952500", "155044.412500", "155044.872500", "155045.332500", "155045.792500", "155046.252500", "155046.712500", "155047.172500", "155047.632500", "155048.092500", "155048.552500", "155049.012500", "155049.472500", "155049.932500", "155050.392500", "155050.852500", "155051.312500", "155051.772500", "155052.232500", "155052.692500", "155053.152500", "155053.612500", "155054.072500", "155054.532500", "155054.992500", "155055.452500", "155055.912500", "155056.372500", "155056.832500", "155057.292500", "155057.752500", "155058.212500", "155058.672500", "155059.132500", "155059.592500", "155100.052500", "155100.512500", "155100.972500", "155101.432500", "155101.892500", "155102.352500", "155102.812500", "155103.272500", "155103.732500", "155104.192500", "155104.652500", "155105.112500", "155105.572500", "155106.032500", "155106.492500", "155106.952500", "155107.412500", "155107.872500", "155108.332500", "155108.792500", "155109.252500", "155109.712500", "155110.172500", "155110.632500", "155111.092500", "155111.552500", "155112.012500", "155112.472500", "155112.932500", "155113.392500", "155113.852500"],
