{
  "AcquisitionMatrixPE": 82,
  "AcquisitionNumber": 1,
  "AcquisitionTime": "15:22:12.817500",
  "BandwidthPerPixelPhaseEncode": 24.888,
  "BaseResolution": 82,
  "BodyPartExamined": "BRAIN",
  "ConsistencyInfo": "N4_VE11C_LATEST_20160120",
  "ConversionSoftware": "dcm2niix",
  "ConversionSoftwareVersion": "v1.0.20201102",
  "DerivedVendorReportedEchoSpacing": 0.00049,
  "DeviceSerialNumber": "66112",
  "DwellTime": 2e-06,
  "EchoTime": 0.0272,
  "EchoTrainLength": 82,
  "EffectiveEchoSpacing": 0.00049,
  "FlipAngle": 44,
  "ImageComments": "Unaliased MB8/PE3",
  "ImageOrientationPatientDICOM": [0.998587, -0.00855548, 0.0524487, 0.0029629, 0.994384, 0.105793],
  "ImageType": [
    "ORIGINAL",
    "PRIMARY",
    "M",
    "MB",
    "ND",
    "NORM",
    "MOSAIC"
],
  "ImagingFrequency": 123.252,
  "InPlanePhaseEncodingDirectionDICOM": "COL",
  "InstitutionAddress": "Maynard 3,Hanover,NH,US,03755",
  "InstitutionName": "Dartmouth College - PBS",
  "InstitutionalDepartmentName": "Department",
  "MRAcquisitionType": "2D",
  "MagneticFieldStrength": 3,
  "Manufacturer": "Siemens",
  "ManufacturersModelName": "Prisma",
  "Modality": "MR",
  "MultibandAccelerationFactor": 8,
  "PartialFourier": 1,
  "PatientPosition": "HFS",
  "PercentPhaseFOV": 100,
  "PercentSampling": 100,
  "PhaseEncodingDirection": "j-",
  "PhaseEncodingSteps": 82,
  "PhaseResolution": 1,
  "PixelBandwidth": 3050,
  "ProcedureStepDescription": "Wager_Wager^1076_spacetop",
  "ProtocolName": "func_run-02_task-social_acq-ap-mb8",
  "PulseSequenceDetails": "%CustomerSeq%\\cmrr_mbep2d_bold",
  "ReceiveCoilActiveElements": "HEA;HEP",
  "ReceiveCoilName": "Head_32",
  "ReconMatrixPE": 82,
  "RepetitionTime": 0.46,
  "SAR": 0.0827258,
  "ScanOptions": "FS",
  "ScanningSequence": "EP",
  "SequenceName": "epfid2d1_82",
  "SequenceVariant": "SK\\SS",
  "SeriesDescription": "func_run-02_task-social_acq-ap-mb8",
  "SeriesNumber": 10,
  "ShimSetting": [4166, -7734, -7234, 662, 17, -227, -2, 42],
  "SliceThickness": 2.7,
  "SliceTiming": [0, 0.25, 0.0625, 0.315, 0.125, 0.3775, 0.1875, 0, 0.25, 0.0625, 0.315, 0.125, 0.3775, 0.1875, 0, 0.25, 0.0625, 0.315, 0.125, 0.3775, 0.1875, 0, 0.25, 0.0625, 0.315, 0.125, 0.3775, 0.1875, 0, 0.25, 0.0625, 0.315, 0.125, 0.3775, 0.1875, 0, 0.25, 0.0625, 0.315, 0.125, 0.3775, 0.1875, 0, 0.25, 0.0625, 0.315, 0.125, 0.3775, 0.1875, 0, 0.25, 0.0625, 0.315, 0.125, 0.3775, 0.1875],
  "SoftwareVersions": "syngo MR E11",
  "SpacingBetweenSlices": 2.7,
  "StationName": "AWP66112",
  "TaskName": "social",
  "TotalReadoutTime": 0.03969,
  "TxRefAmp": 229.334,
  "WipMemBlock": "e30c8d08-5ba7-4b1f-b018-b28b858cab26||Sequence: R016 ve11c/master r/e634e98; Dec 19 2017 11:00:25 by eja",
  "dcmmeta_affine": [
    [-2.679135799407959, 0.007949253544211388, 0.1432598978281021, 112.84645080566406],
    [0.022953718900680542, 2.667858839035034, 0.2848183214664459, -105.16840362548828],
    [0.14071595668792725, -0.2838352918624878, 2.6811108589172363, -58.781314849853516],
    [0.0, 0.0, 0.0, 1.0]
],
  "dcmmeta_reorient_transform": [
    [0.0, -1.0, 0.0, 81.0],
    [1.0, 0.0, 0.0, 0.0],
    [0.0, 0.0, 1.0, 0.0],
    [0.0, 0.0, 0.0, 1.0]
],
  "dcmmeta_shape": [82, 82, 56, 872],
  "dcmmeta_slice_dim": 2,
  "dcmmeta_version": 0.6,
  "global": {
    "const": {
      "AccessionNumber": "A003480",
      "AcquisitionMatrix": [82, 0, 0, 82],
      "AngioFlag": "N",
      "BitsAllocated": 16,
      "BitsStored": 16,
      "BodyPartExamined": "BRAIN",
      "Columns": 656,
      "EchoNumbers": 1,
      "EchoTime": 27.2,
      "EchoTrainLength": 82,
      "FlipAngle": 44.0,
      "HighBit": 15,
      "ImageOrientationPatient": [0.99858697197534, -0.0085554769456, 0.05244867219824, 0.00296290343234, 0.99438374377207, 0.10579315348878],
      "ImagePositionPatient": [-884.68375943272, -870.01594912354, -203.61818162872],
      "ImageType": [
        "ORIGINAL",
        "PRIMARY",
        "M",
        "MB",
        "ND",
        "NORM",
        "MOSAIC"
],
      "ImagedNucleus": "1H",
      "ImagingFrequency": 123.252146,
      "InPlanePhaseEncodingDirection": "COL",
      "MRAcquisitionType": "2D",
      "MagneticFieldStrength": 3.0,
      "Manufacturer": "SIEMENS",
      "ManufacturerModelName": "Prisma",
      "Modality": "MR",
      "NumberOfAverages": 1.0,
      "NumberOfPhaseEncodingSteps": 82,
      "PercentPhaseFieldOfView": 100.0,
      "PercentSampling": 100.0,
      "PerformedProcedureStepStartTime": "145425.929000",
      "PhotometricInterpretation": "MONOCHROME2",
      "PixelBandwidth": 3050.0,
      "PixelRepresentation": 0,
      "PixelSpacing": [2.6829268932343, 2.6829268932343],
      "ProtocolName": "func_run-02_task-social_acq-ap-mb8",
      "RepetitionTime": 460.0,
      "Rows": 656,
      "SAR": 0.08272578200867,
      "SamplesPerPixel": 1,
      "ScanOptions": "FS",
      "ScanningSequence": "EP",
      "SequenceName": "epfid2d1_82",
      "SequenceVariant": [
        "SK",
        "SS"
],
      "SeriesDescription": "func_run-02_task-social_acq-ap-mb8",
      "SeriesNumber": 10,
      "SeriesTime": "152224.130000",
      "SliceLocation": -63.47656809749,
      "SliceThickness": 2.7000000476837,
      "SmallestImagePixelValue": 0,
      "SoftwareVersions": "syngo MR E11",
      "SpacingBetweenSlices": 2.700000065836,
      "SpecificCharacterSet": "ISO_IR 100",
      "StudyID": "3",
      "StudyTime": "145425.871000",
      "TransmitCoilName": "Body",
      "VariableFlipAngleFlag": "N",
      "WindowCenterWidthExplanation": "Algo1",
      "dBdt": 0.0},
    "slices": {}
  },
  "time": {
    "samples": {
      "AcquisitionNumber": [1, 2, 3, 4, 5, 6, 7, 8, 9, 10, 11, 12, 13, 14, 15, 16, 17, 18, 19, 20, 21, 22, 23, 24, 25, 26, 27, 28, 29, 30, 31, 32, 33, 34, 35, 36, 37, 38, 39, 40, 41, 42, 43, 44, 45, 46, 47, 48, 49, 50, 51, 52, 53, 54, 55, 56, 57, 58, 59, 60, 61, 62, 63, 64, 65, 66, 67, 68, 69, 70, 71, 72, 73, 74, 75, 76, 77, 78, 79, 80, 81, 82, 83, 84, 85, 86, 87, 88, 89, 90, 91, 92, 93, 94, 95, 96, 97, 98, 99, 100, 101, 102, 103, 104, 105, 106, 107, 108, 109, 110, 111, 112, 113, 114, 115, 116, 117, 118, 119, 120, 121, 122, 123, 124, 125, 126, 127, 128, 129, 130, 131, 132, 133, 134, 135, 136, 137, 138, 139, 140, 141, 142, 143, 144, 145, 146, 147, 148, 149, 150, 151, 152, 153, 154, 155, 156, 157, 158, 159, 160, 161, 162, 163, 164, 165, 166, 167, 168, 169, 170, 171, 172, 173, 174, 175, 176, 177, 178, 179, 180, 181, 182, 183, 184, 185, 186, 187, 188, 189, 190, 191, 192, 193, 194, 195, 196, 197, 198, 199, 200, 201, 202, 203, 204, 205, 206, 207, 208, 209, 210, 211, 212, 213, 214, 215, 216, 217, 218, 219, 220, 221, 222, 223, 224, 225, 226, 227, 228, 229, 230, 231, 232, 233, 234, 235, 236, 237, 238, 239, 240, 241, 242, 243, 244, 245, 246, 247, 248, 249, 250, 251, 252, 253, 254, 255, 256, 257, 258, 259, 260, 261, 262, 263, 264, 265, 266, 267, 268, 269, 270, 271, 272, 273, 274, 275, 276, 277, 278, 279, 280, 281, 282, 283, 284, 285, 286, 287, 288, 289, 290, 291, 292, 293, 294, 295, 296, 297, 298, 299, 300, 301, 302, 303, 304, 305, 306, 307, 308, 309, 310, 311, 312, 313, 314, 315, 316, 317, 318, 319, 320, 321, 322, 323, 324, 325, 326, 327, 328, 329, 330, 331, 332, 333, 334, 335, 336, 337, 338, 339, 340, 341, 342, 343, 344, 345, 346, 347, 348, 349, 350, 351, 352, 353, 354, 355, 356, 357, 358, 359, 360, 361, 362, 363, 364, 365, 366, 367, 368, 369, 370, 371, 372, 373, 374, 375, 376, 377, 378, 379, 380, 381, 382, 383, 384, 385, 386, 387, 388, 389, 390, 391, 392, 393, 394, 395, 396, 397, 398, 399, 400, 401, 402, 403, 404, 405, 406, 407, 408, 409, 410, 411, 412, 413, 414, 415, 416, 417, 418, 419, 420, 421, 422, 423, 424, 425, 426, 427, 428, 429, 430, 431, 432, 433, 434, 435, 436, 437, 438, 439, 440, 441, 442, 443, 444, 445, 446, 447, 448, 449, 450, 451, 452, 453, 454, 455, 456, 457, 458, 459, 460, 461, 462, 463, 464, 465, 466, 467, 468, 469, 470, 471, 472, 473, 474, 475, 476, 477, 478, 479, 480, 481, 482, 483, 484, 485, 486, 487, 488, 489, 490, 491, 492, 493, 494, 495, 496, 497, 498, 499, 500, 501, 502, 503, 504, 505, 506, 507, 508, 509, 510, 511, 512, 513, 514, 515, 516, 517, 518, 519, 520, 521, 522, 523, 524, 525, 526, 527, 528, 529, 530, 531, 532, 533, 534, 535, 536, 537, 538, 539, 540, 541, 542, 543, 544, 545, 546, 547, 548, 549, 550, 551, 552, 553, 554, 555, 556, 557, 558, 559, 560, 561, 562, 563, 564, 565, 566, 567, 568, 569, 570, 571, 572, 573, 574, 575, 576, 577, 578, 579, 580, 581, 582, 583, 584, 585, 586, 587, 588, 589, 590, 591, 592, 593, 594, 595, 596, 597, 598, 599, 600, 601, 602, 603, 604, 605, 606, 607, 608, 609, 610, 611, 612, 613, 614, 615, 616, 617, 618, 619, 620, 621, 622, 623, 624, 625, 626, 627, 628, 629, 630, 631, 632, 633, 634, 635, 636, 637, 638, 639, 640, 641, 642, 643, 644, 645, 646, 647, 648, 649, 650, 651, 652, 653, 654, 655, 656, 657, 658, 659, 660, 661, 662, 663, 664, 665, 666, 667, 668, 669, 670, 671, 672, 673, 674, 675, 676, 677, 678, 679, 680, 681, 682, 683, 684, 685, 686, 687, 688, 689, 690, 691, 692, 693, 694, 695, 696, 697, 698, 699, 700, 701, 702, 703, 704, 705, 706, 707, 708, 709, 710, 711, 712, 713, 714, 715, 716, 717, 718, 719, 720, 721, 722, 723, 724, 725, 726, 727, 728, 729, 730, 731, 732, 733, 734, 735, 736, 737, 738, 739, 740, 741, 742, 743, 744, 745, 746, 747, 748, 749, 750, 751, 752, 753, 754, 755, 756, 757, 758, 759, 760, 761, 762, 763, 764, 765, 766, 767, 768, 769, 770, 771, 772, 773, 774, 775, 776, 777, 778, 779, 780, 781, 782, 783, 784, 785, 786, 787, 788, 789, 790, 791, 792, 793, 794, 795, 796, 797, 798, 799, 800, 801, 802, 803, 804, 805, 806, 807, 808, 809, 810, 811, 812, 813, 814, 815, 816, 817, 818, 819, 820, 821, 822, 823, 824, 825, 826, 827, 828, 829, 830, 831, 832, 833, 834, 835, 836, 837, 838, 839, 840, 841, 842, 843, 844, 845, 846, 847, 848, 849, 850, 851, 852, 853, 854, 855, 856, 857, 858, 859, 860, 861, 862, 863, 864, 865, 866, 867, 868, 869, 870, 871, 872],
      "AcquisitionTime": ["152212.817500", "152213.277500", "152213.737500", "152214.197500", "152214.657500", "152215.117500", "152215.577500", "152216.037500", "152216.497500", "152216.957500", "152217.417500", "152217.877500", "152218.337500", "152218.797500", "152219.257500", "152219.717500", "152220.177500", "152220.637500", "152221.097500", "152221.557500", "152222.017500", "152222.477500", "152222.937500", "152223.397500", "152223.857500", "152224.317500", "152224.777500", "152225.237500", "152225.697500", "152226.157500", "152226.617500", "152227.077500", "152227.537500", "152227.997500", "152228.457500", "152228.917500", "152229.377500", "152229.837500", "152230.297500", "152230.757500", "152231.217500", "152231.677500", "152232.137500", "152232.597500", "152233.057500", "152233.517500", "152233.977500", "152234.437500", "152234.897500", "152235.357500", "152235.817500", "152236.277500", "152236.737500", "152237.197500", "152237.657500", "152238.117500", "152238.577500", "152239.037500", "152239.497500", "152239.957500", "152240.417500", "152240.877500", "152241.337500", "152241.797500", "152242.257500", "152242.717500", "152243.177500", "152243.637500", "152244.097500", "152244.557500", "152245.017500", "152245.477500", "152245.937500", "152246.397500", "152246.857500", "152247.317500", "152247.777500", "152248.237500", "152248.697500", "152249.157500", "152249.617500", "152250.077500", "152250.537500", "152250.997500", "152251.457500", "152251.917500", "152252.377500", "152252.837500", "152253.297500", "152253.757500", "152254.217500", "152254.677500", "152255.137500", "152255.597500", "152256.057500", "152256.517500", "152256.977500", "152257.437500", "152257.897500", "152258.357500", "152258.817500", "152259.277500", "152259.737500", "152300.197500", "152300.657500", "152301.117500", "152301.577500", "152302.037500", "152302.497500", "152302.957500", "152303.417500", "152303.877500", "152304.337500", "152304.797500", "152305.257500", "152305.717500", "152306.177500", "152306.637500", "152307.097500", "152307.557500", "152308.017500", "152308.477500", "152308.937500", "152309.397500", "152309.857500", "152310.317500", "152310.777500", "152311.237500", "152311.697500", "152312.157500", "152312.617500", "152313.077500", "152313.537500", "152313.997500", "152314.457500", "152314.917500", "152315.377500", "152315.837500", "152316.297500", "152316.757500", "152317.217500", "152317.677500", "152318.137500", "152318.597500", "152319.057500", "152319.517500", "152319.977500", "152320.437500", "152320.897500", "152321.357500", "152321.817500", "152322.277500", "152322.737500", "152323.197500", "152323.657500", "152324.117500", "152324.577500", "152325.037500", "152325.497500", "152325.957500", "152326.417500", "152326.877500", "152327.337500", "152327.797500", "152328.257500", "152328.717500", "152329.177500", "152329.637500", "152330.097500", "152330.557500", "152331.017500", "152331.477500", "152331.937500", "152332.397500", "152332.857500", "152333.317500", "152333.777500", "152334.237500", "152334.697500", "152335.157500", "152335.617500", "152336.077500", "152336.537500", "152336.997500", "152337.457500", "152337.917500", "152338.377500", "152338.837500", "152339.297500", "152339.757500", "152340.217500", "152340.677500", "152341.137500", "152341.597500", "152342.057500", "152342.517500", "152342.977500", "152343.437500", "152343.897500", "152344.357500", "152344.817500", "152345.277500", "152345.737500", "152346.197500", "152346.657500", "152347.117500", "152347.577500", "152348.037500", "152348.497500", "152348.957500", "152349.417500", "152349.877500", "152350.337500", "152350.797500", "152351.257500", "152351.717500", "152352.177500", "152352.637500", "152353.097500", "152353.557500", "152354.017500", "152354.477500", "152354.937500", "152355.397500", "152355.857500", "152356.317500", "152356.777500", "152357.237500", "152357.697500", "152358.157500", "152358.617500", "152359.077500", "152359.537500", "152359.997500", "152400.457500", "152400.917500", "152401.377500", "152401.837500", "152402.297500", "152402.757500", "152403.217500", "152403.677500", "152404.137500", "152404.597500", "152405.057500", "152405.517500", "152405.977500", "152406.437500", "152406.897500", "152407.357500", "152407.817500", "152408.277500", "152408.737500", "152409.197500", "152409.657500", "152410.117500", "152410.577500", "152411.037500", "152411.497500", "152411.957500", "152412.417500", "152412.877500", "152413.337500", "152413.797500", "152414.257500", "152414.717500", "152415.177500", "152415.637500", "152416.097500", "152416.557500", "152417.017500", "152417.477500", "152417.937500", "152418.397500", "152418.857500", "152419.317500", "152419.777500", "152420.237500", "152420.697500", "152421.157500", "152421.617500", "152422.077500", "152422.537500", "152422.997500", "152423.457500", "152423.917500", "152424.377500", "152424.837500", "152425.297500", "152425.757500", "152426.217500", "152426.677500", "152427.137500", "152427.597500", "152428.057500", "152428.517500", "152428.977500", "152429.437500", "152429.897500", "152430.357500", "152430.817500", "152431.277500", "152431.737500", "152432.197500", "152432.657500", "152433.117500", "152433.577500", "152434.037500", "152434.497500", "152434.957500", "152435.417500", "152435.877500", "152436.337500", "152436.797500", "152437.257500", "152437.717500", "152438.177500", "152438.637500", "152439.097500", "152439.557500", "152440.017500", "152440.477500", "152440.937500", "152441.397500", "152441.857500", "152442.317500", "152442.777500", "152443.237500", "152443.697500", "152444.157500", "152444.617500", "152445.077500", "152445.537500", "152445.997500", "152446.457500", "152446.917500", "152447.377500", "152447.837500", "152448.297500", "152448.757500", "152449.217500", "152449.677500", "152450.137500", "152450.597500", "152451.057500", "152451.517500", "152451.977500", "152452.437500", "152452.897500", "152453.357500", "152453.817500", "152454.277500", "152454.737500", "152455.197500", "152455.657500", "152456.117500", "152456.577500", "152457.037500", "152457.497500", "152457.957500", "152458.417500", "152458.877500", "152459.337500", "152459.797500", "152500.257500", "152500.717500", "152501.177500", "152501.637500", "152502.097500", "152502.557500", "152503.017500", "152503.477500", "152503.937500", "152504.397500", "152504.857500", "152505.317500", "152505.777500", "152506.237500", "152506.697500", "152507.157500", "152507.617500", "152508.077500", "152508.537500", "152508.997500", "152509.457500", "152509.917500", "152510.377500", "152510.837500", "152511.297500", "152511.757500", "152512.217500", "152512.677500", "152513.137500", "152513.597500", "152514.057500", "152514.517500", "152514.977500", "152515.437500", "152515.897500", "152516.357500", "152516.817500", "152517.277500", "152517.737500", "152518.197500", "152518.657500", "152519.117500", "152519.577500", "152520.037500", "152520.497500", "152520.957500", "152521.417500", "152521.877500", "152522.337500", "152522.797500", "152523.257500", "152523.717500", "152524.177500", "152524.637500", "152525.097500", "152525.557500", "152526.017500", "152526.477500", "152526.937500", "152527.397500", "152527.857500", "152528.317500", "152528.777500", "152529.237500", "152529.697500", "152530.157500", "152530.617500", "152531.077500", "152531.537500", "152531.997500", "152532.457500", "152532.917500", "152533.377500", "152533.837500", "152534.297500", "152534.757500", "152535.217500", "152535.677500", "152536.137500", "152536.597500", "152537.057500", "152537.517500", "152537.977500", "152538.437500", "152538.897500", "152539.357500", "152539.817500", "152540.277500", "152540.737500", "152541.197500", "152541.657500", "152542.117500", "152542.577500", "152543.037500", "152543.497500", "152543.957500", "152544.417500", "152544.877500", "152545.337500", "152545.797500", "152546.257500", "152546.717500", "152547.177500", "152547.637500", "152548.097500", "152548.557500", "152549.017500", "152549.477500", "152549.937500", "152550.397500", "152550.857500", "152551.317500", "152551.777500", "152552.237500", "152552.697500", "152553.157500", "152553.617500", "152554.077500", "152554.537500", "152554.997500", "152555.457500", "152555.917500", "152556.377500", "152556.837500", "152557.297500", "152557.757500", "152558.217500", "152558.677500", "152559.137500", "152559.597500", "152600.057500", "152600.517500", "152600.977500", "152601.437500", "152601.897500", "152602.357500", "152602.817500", "152603.277500", "152603.737500", "152604.197500", "152604.657500", "152605.117500", "152605.577500", "152606.037500", "152606.497500", "152606.957500", "152607.417500", "152607.877500", "152608.337500", "152608.797500", "152609.257500", "152609.717500", "152610.177500", "152610.637500", "152611.097500", "152611.557500", "152612.017500", "152612.477500", "152612.937500", "152613.397500", "152613.857500", "152614.317500", "152614.777500", "152615.237500", "152615.697500", "152616.157500", "152616.617500", "152617.077500", "152617.537500", "152617.997500", "152618.457500", "152618.917500", "152619.377500", "152619.837500", "152620.297500", "152620.757500", "152621.217500", "152621.677500", "152622.137500", "152622.597500", "152623.057500", "152623.517500", "152623.977500", "152624.437500", "152624.897500", "152625.357500", "152625.817500", "152626.277500", "152626.737500", "152627.197500", "152627.657500", "152628.117500", "152628.577500", "152629.037500", "152629.497500", "152629.957500", "152630.417500", "152630.877500", "152631.337500", "152631.797500", "152632.257500", "152632.717500", "152633.177500", "152633.637500", "152634.097500", "152634.557500", "152635.017500", "152635.477500", "152635.937500", "152636.397500", "152636.857500", "152637.317500", "152637.777500", "152638.237500", "152638.697500", "152639.157500", "152639.617500", "152640.077500", "152640.537500", "152640.997500", "152641.457500", "152641.917500", "152642.377500", "152642.837500", "152643.297500", "152643.757500", "152644.217500", "152644.677500", "152645.137500", "152645.597500", "152646.057500", "152646.517500", "152646.977500", "152647.437500", "152647.897500", "152648.357500", "152648.817500", "152649.277500", "152649.737500", "152650.197500", "152650.657500", "152651.117500", "152651.577500", "152652.037500", "152652.497500", "152652.957500", "152653.417500", "152653.877500", "152654.337500", "152654.797500", "152655.257500", "152655.717500", "152656.177500", "152656.637500", "152657.097500", "152657.557500", "152658.017500", "152658.477500", "152658.937500", "152659.397500", "152659.857500", "152700.317500", "152700.777500", "152701.237500", "152701.697500", "152702.157500", "152702.617500", "152703.077500", "152703.537500", "152703.997500", "152704.457500", "152704.917500", "152705.377500", "152705.837500", "152706.297500", "152706.757500", "152707.217500", "152707.677500", "152708.137500", "152708.597500", "152709.057500", "152709.517500", "152709.977500", "152710.437500", "152710.897500", "152711.357500", "152711.817500", "152712.277500", "152712.737500", "152713.197500", "152713.657500", "152714.117500", "152714.577500", "152715.037500", "152715.497500", "152715.957500", "152716.417500", "152716.877500", "152717.337500", "152717.797500", "152718.257500", "152718.717500", "152719.177500", "152719.637500", "152720.097500", "152720.557500", "152721.017500", "152721.477500", "152721.937500", "152722.397500", "152722.857500", "152723.317500", "152723.777500", "152724.237500", "152724.697500", "152725.157500", "152725.617500", "152726.077500", "152726.537500", "152726.997500", "152727.457500", "152727.917500", "152728.377500", "152728.837500", "152729.297500", "152729.757500", "152730.217500", "152730.677500", "152731.137500", "152731.597500", "152732.057500", "152732.517500", "152732.977500", "152733.437500", "152733.897500", "152734.357500", "152734.817500", "152735.277500", "152735.737500", "152736.197500", "152736.657500", "152737.117500", "152737.577500", "152738.037500", "152738.497500", "152738.957500", "152739.417500", "152739.877500", "152740.337500", "152740.797500", "152741.257500", "152741.717500", "152742.177500", "152742.637500", "152743.097500", "152743.557500", "152744.017500", "152744.477500", "152744.937500", "152745.397500", "152745.857500", "152746.317500", "152746.777500", "152747.237500", "152747.697500", "152748.157500", "152748.617500", "152749.077500", "152749.537500", "152749.997500", "152750.457500", "152750.917500", "152751.377500", "152751.837500", "152752.297500", "152752.757500", "152753.217500", "152753.677500", "152754.137500", "152754.597500", "152755.057500", "152755.517500", "152755.977500", "152756.437500", "152756.897500", "152757.357500", "152757.817500", "152758.277500", "152758.737500", "152759.197500", "152759.657500", "152800.117500", "152800.577500", "152801.037500", "152801.497500", "152801.957500", "152802.417500", "152802.877500", "152803.337500", "152803.797500", "152804.257500", "152804.717500", "152805.177500", "152805.637500", "152806.097500", "152806.557500", "152807.017500", "152807.477500", "152807.937500", "152808.397500", "152808.857500", "152809.317500", "152809.777500", "152810.237500", "152810.697500", "152811.157500", "152811.617500", "152812.077500", "152812.537500", "152812.997500", "152813.457500", "152813.917500", "152814.377500", "152814.837500", "152815.297500", "152815.757500", "152816.217500", "152816.677500", "152817.137500", "152817.597500", "152818.057500", "152818.517500", "152818.977500", "152819.437500", "152819.897500", "152820.357500", "152820.817500", "152821.277500", "152821.737500", "152822.197500", "152822.657500", "152823.117500", "152823.577500", "152824.037500", "152824.497500", "152824.957500", "152825.417500", "152825.877500", "152826.337500", "152826.797500", "152827.257500", "152827.717500", "152828.177500", "152828.637500", "152829.097500", "152829.557500", "152830.017500", "152830.477500", "152830.937500", "152831.397500", "152831.857500", "152832.317500", "152832.777500", "152833.237500", "152833.697500", "152834.157500", "152834.617500", "152835.077500", "152835.537500", "152835.997500", "152836.457500", "152836.917500", "152837.377500", "152837.837500", "152838.297500", "152838.757500", "152839.217500", "152839.677500", "152840.137500", "152840.597500", "152841.057500", "152841.517500", "152841.977500", "152842.437500", "152842.897500", "152843.357500", "152843.817500", "152844.277500", "152844.737500", "152845.197500", "152845.657500", "152846.117500", "152846.577500", "152847.037500", "152847.497500", "152847.957500", "152848.417500", "152848.877500", "152849.337500", "152849.797500", "152850.257500", "152850.717500", "152851.177500", "152851.637500", "152852.097500", "152852.557500", "152853.017500", "152853.477500"],
