{
  "AcquisitionMatrixPE": 82,
  "AcquisitionNumber": 1,
  "AcquisitionTime": "15:47:28.285000",
  "BandwidthPerPixelPhaseEncode": 24.888,
  "BaseResolution": 82,
  "BodyPartExamined": "BRAIN",
  "ConsistencyInfo": "N4_VE11C_LATEST_20160120",
  "ConversionSoftware": "dcm2niix",
  "ConversionSoftwareVersion": "v1.0.20201102",
  "DerivedVendorReportedEchoSpacing": 0.00049,
  "DeviceSerialNumber": "66112",
  "DwellTime": 2e-06,
  "EchoTime": 0.0272,
  "EchoTrainLength": 82,
  "EffectiveEchoSpacing": 0.00049,
  "FlipAngle": 44,
  "ImageComments": "Unaliased MB8/PE3",
  "ImageOrientationPatientDICOM": [0.998954, 0.00268722, 0.0456377, -0.0104614, 0.98522, 0.170977],
  "ImageType": [
    "ORIGINAL",
    "PRIMARY",
    "M",
    "MB",
    "ND",
    "NORM",
    "MOSAIC"
],
  "ImagingFrequency": 123.252,
  "InPlanePhaseEncodingDirectionDICOM": "COL",
  "InstitutionAddress": "Maynard 3,Hanover,NH,US,03755",
  "InstitutionName": "Dartmouth College - PBS",
  "InstitutionalDepartmentName": "Department",
  "MRAcquisitionType": "2D",
  "MagneticFieldStrength": 3,
  "Manufacturer": "Siemens",
  "ManufacturersModelName": "Prisma",
  "Modality": "MR",
  "MultibandAccelerationFactor": 8,
  "PartialFourier": 1,
  "PatientPosition": "HFS",
  "PercentPhaseFOV": 100,
  "PercentSampling": 100,
  "PhaseEncodingDirection": "j-",
  "PhaseEncodingSteps": 82,
  "PhaseResolution": 1,
  "PixelBandwidth": 3050,
  "ProcedureStepDescription": "Wager_Wager^1076_spacetop",
  "ProtocolName": "func_run-01_task-faces_acq-ap-mb8",
  "PulseSequenceDetails": "%CustomerSeq%\\cmrr_mbep2d_bold",
  "ReceiveCoilActiveElements": "HEA;HEP",
  "ReceiveCoilName": "Head_32",
  "ReconMatrixPE": 82,
  "RepetitionTime": 0.46,
  "SAR": 0.0954469,
  "ScanOptions": "FS",
  "ScanningSequence": "EP",
  "SequenceName": "epfid2d1_82",
  "SequenceVariant": "SK\\SS",
  "SeriesDescription": "func_run-01_task-faces_acq-ap-mb8",
  "SeriesNumber": 16,
  "ShimSetting": [4157, -7747, -7256, 476, -80, -26, 54, 51],
  "SliceThickness": 2.7,
  "SliceTiming": [0, 0.2525, 0.0625, 0.315, 0.1275, 0.3775, 0.19, 0, 0.2525, 0.0625, 0.315, 0.1275, 0.3775, 0.19, 0, 0.2525, 0.0625, 0.315, 0.1275, 0.3775, 0.19, 0, 0.2525, 0.0625, 0.315, 0.1275, 0.3775, 0.19, 0, 0.2525, 0.0625, 0.315, 0.1275, 0.3775, 0.19, 0, 0.2525, 0.0625, 0.315, 0.1275, 0.3775, 0.19, 0, 0.2525, 0.0625, 0.315, 0.1275, 0.3775, 0.19, 0, 0.2525, 0.0625, 0.315, 0.1275, 0.3775, 0.19],
  "SoftwareVersions": "syngo MR E11",
  "SpacingBetweenSlices": 2.7,
  "StationName": "AWP66112",
  "TaskName": "faces",
  "TotalReadoutTime": 0.03969,
  "TxRefAmp": 251.355,
  "WipMemBlock": "32baca58-baba-4928-9699-380010dce58d||Sequence: R016 ve11c/master r/e634e98; Dec 19 2017 11:00:25 by eja",
  "dcmmeta_affine": [
    [-2.680121660232544, -0.028067218139767647, 0.12015999108552933, 109.26372528076172],
    [-0.007209617178887129, 2.6432721614837646, 0.46244311332702637, -105.91155242919922],
    [0.12244260311126709, -0.45871761441230774, 2.6573874950408936, -49.01698303222656],
    [0.0, 0.0, 0.0, 1.0]
],
  "dcmmeta_reorient_transform": [
    [0.0, -1.0, 0.0, 81.0],
    [1.0, 0.0, 0.0, 0.0],
    [0.0, 0.0, 1.0, 0.0],
    [0.0, 0.0, 0.0, 1.0]
],
  "dcmmeta_shape": [82, 82, 56, 914],
  "dcmmeta_slice_dim": 2,
  "dcmmeta_version": 0.6,
  "global": {
    "const": {
      "AccessionNumber": "A003535",
      "AcquisitionMatrix": [82, 0, 0, 82],
      "AngioFlag": "N",
      "BitsAllocated": 16,
      "BitsStored": 16,
      "BodyPartExamined": "BRAIN",
      "Columns": 656,
      "EchoNumbers": 1,
      "EchoTime": 27.2,
      "EchoTrainLength": 82,
      "FlipAngle": 44.0,
      "HighBit": 15,
      "ImageOrientationPatient": [0.99895444313757, 0.00268722094789, 0.04563769691049, -0.0104614171408, 0.98521955628193, 0.17097656175934],
      "ImagePositionPatient": [-868.12992585865, -868.88171687472, -252.96609126722],
      "ImageType": [
        "ORIGINAL",
        "PRIMARY",
        "M",
        "MB",
        "ND",
        "NORM",
        "MOSAIC"
],
      "ImagedNucleus": "1H",
      "ImagingFrequency": 123.252157,
      "InPlanePhaseEncodingDirection": "COL",
      "MRAcquisitionType": "2D",
      "MagneticFieldStrength": 3.0,
      "Manufacturer": "SIEMENS",
      "ManufacturerModelName": "Prisma",
      "Modality": "MR",
      "NumberOfAverages": 1.0,
      "NumberOfPhaseEncodingSteps": 82,
      "PercentPhaseFieldOfView": 100.0,
      "PercentSampling": 100.0,
      "PerformedProcedureStepStartTime": "144428.811000",
      "PhotometricInterpretation": "MONOCHROME2",
      "PixelBandwidth": 3050.0,
      "PixelRepresentation": 0,
      "PixelSpacing": [2.6829268932343, 2.6829268932343],
      "ProtocolName": "func_run-01_task-faces_acq-ap-mb8",
      "RepetitionTime": 460.0,
      "Rows": 656,
      "SAR": 0.09544693370067,
      "SamplesPerPixel": 1,
      "ScanOptions": "FS",
      "ScanningSequence": "EP",
      "SequenceName": "epfid2d1_82",
      "SequenceVariant": [
        "SK",
        "SS"
],
      "SeriesDescription": "func_run-01_task-faces_acq-ap-mb8",
      "SeriesNumber": 16,
      "SeriesTime": "154743.494000",
      "SliceLocation": -61.520760149093,
      "SliceThickness": 2.7000000476837,
      "SmallestImagePixelValue": 0,
      "SoftwareVersions": "syngo MR E11",
      "SpacingBetweenSlices": 2.6999999748409,
      "SpecificCharacterSet": "ISO_IR 100",
      "StudyID": "1",
      "StudyTime": "144428.752000",
      "TransmitCoilName": "Body",
      "VariableFlipAngleFlag": "N",
      "WindowCenterWidthExplanation": "Algo1",
      "dBdt": 0.0},
    "slices": {}
  },
  "time": {
    "samples": {
      "AcquisitionNumber": [1, 2, 3, 4, 5, 6, 7, 8, 9, 10, 11, 12, 13, 14, 15, 16, 17, 18, 19, 20, 21, 22, 23, 24, 25, 26, 27, 28, 29, 30, 31, 32, 33, 34, 35, 36, 37, 38, 39, 40, 41, 42, 43, 44, 45, 46, 47, 48, 49, 50, 51, 52, 53, 54, 55, 56, 57, 58, 59, 60, 61, 62, 63, 64, 65, 66, 67, 68, 69, 70, 71, 72, 73, 74, 75, 76, 77, 78, 79, 80, 81, 82, 83, 84, 85, 86, 87, 88, 89, 90, 91, 92, 93, 94, 95, 96, 97, 98, 99, 100, 101, 102, 103, 104, 105, 106, 107, 108, 109, 110, 111, 112, 113, 114, 115, 116, 117, 118, 119, 120, 121, 122, 123, 124, 125, 126, 127, 128, 129, 130, 131, 132, 133, 134, 135, 136, 137, 138, 139, 140, 141, 142, 143, 144, 145, 146, 147, 148, 149, 150, 151, 152, 153, 154, 155, 156, 157, 158, 159, 160, 161, 162, 163, 164, 165, 166, 167, 168, 169, 170, 171, 172, 173, 174, 175, 176, 177, 178, 179, 180, 181, 182, 183, 184, 185, 186, 187, 188, 189, 190, 191, 192, 193, 194, 195, 196, 197, 198, 199, 200, 201, 202, 203, 204, 205, 206, 207, 208, 209, 210, 211, 212, 213, 214, 215, 216, 217, 218, 219, 220, 221, 222, 223, 224, 225, 226, 227, 228, 229, 230, 231, 232, 233, 234, 235, 236, 237, 238, 239, 240, 241, 242, 243, 244, 245, 246, 247, 248, 249, 250, 251, 252, 253, 254, 255, 256, 257, 258, 259, 260, 261, 262, 263, 264, 265, 266, 267, 268, 269, 270, 271, 272, 273, 274, 275, 276, 277, 278, 279, 280, 281, 282, 283, 284, 285, 286, 287, 288, 289, 290, 291, 292, 293, 294, 295, 296, 297, 298, 299, 300, 301, 302, 303, 304, 305, 306, 307, 308, 309, 310, 311, 312, 313, 314, 315, 316, 317, 318, 319, 320, 321, 322, 323, 324, 325, 326, 327, 328, 329, 330, 331, 332, 333, 334, 335, 336, 337, 338, 339, 340, 341, 342, 343, 344, 345, 346, 347, 348, 349, 350, 351, 352, 353, 354, 355, 356, 357, 358, 359, 360, 361, 362, 363, 364, 365, 366, 367, 368, 369, 370, 371, 372, 373, 374, 375, 376, 377, 378, 379, 380, 381, 382, 383, 384, 385, 386, 387, 388, 389, 390, 391, 392, 393, 394, 395, 396, 397, 398, 399, 400, 401, 402, 403, 404, 405, 406, 407, 408, 409, 410, 411, 412, 413, 414, 415, 416, 417, 418, 419, 420, 421, 422, 423, 424, 425, 426, 427, 428, 429, 430, 431, 432, 433, 434, 435, 436, 437, 438, 439, 440, 441, 442, 443, 444, 445, 446, 447, 448, 449, 450, 451, 452, 453, 454, 455, 456, 457, 458, 459, 460, 461, 462, 463, 464, 465, 466, 467, 468, 469, 470, 471, 472, 473, 474, 475, 476, 477, 478, 479, 480, 481, 482, 483, 484, 485, 486, 487, 488, 489, 490, 491, 492, 493, 494, 495, 496, 497, 498, 499, 500, 501, 502, 503, 504, 505, 506, 507, 508, 509, 510, 511, 512, 513, 514, 515, 516, 517, 518, 519, 520, 521, 522, 523, 524, 525, 526, 527, 528, 529, 530, 531, 532, 533, 534, 535, 536, 537, 538, 539, 540, 541, 542, 543, 544, 545, 546, 547, 548, 549, 550, 551, 552, 553, 554, 555, 556, 557, 558, 559, 560, 561, 562, 563, 564, 565, 566, 567, 568, 569, 570, 571, 572, 573, 574, 575, 576, 577, 578, 579, 580, 581, 582, 583, 584, 585, 586, 587, 588, 589, 590, 591, 592, 593, 594, 595, 596, 597, 598, 599, 600, 601, 602, 603, 604, 605, 606, 607, 608, 609, 610, 611, 612, 613, 614, 615, 616, 617, 618, 619, 620, 621, 622, 623, 624, 625, 626, 627, 628, 629, 630, 631, 632, 633, 634, 635, 636, 637, 638, 639, 640, 641, 642, 643, 644, 645, 646, 647, 648, 649, 650, 651, 652, 653, 654, 655, 656, 657, 658, 659, 660, 661, 662, 663, 664, 665, 666, 667, 668, 669, 670, 671, 672, 673, 674, 675, 676, 677, 678, 679, 680, 681, 682, 683, 684, 685, 686, 687, 688, 689, 690, 691, 692, 693, 694, 695, 696, 697, 698, 699, 700, 701, 702, 703, 704, 705, 706, 707, 708, 709, 710, 711, 712, 713, 714, 715, 716, 717, 718, 719, 720, 721, 722, 723, 724, 725, 726, 727, 728, 729, 730, 731, 732, 733, 734, 735, 736, 737, 738, 739, 740, 741, 742, 743, 744, 745, 746, 747, 748, 749, 750, 751, 752, 753, 754, 755, 756, 757, 758, 759, 760, 761, 762, 763, 764, 765, 766, 767, 768, 769, 770, 771, 772, 773, 774, 775, 776, 777, 778, 779, 780, 781, 782, 783, 784, 785, 786, 787, 788, 789, 790, 791, 792, 793, 794, 795, 796, 797, 798, 799, 800, 801, 802, 803, 804, 805, 806, 807, 808, 809, 810, 811, 812, 813, 814, 815, 816, 817, 818, 819, 820, 821, 822, 823, 824, 825, 826, 827, 828, 829, 830, 831, 832, 833, 834, 835, 836, 837, 838, 839, 840, 841, 842, 843, 844, 845, 846, 847, 848, 849, 850, 851, 852, 853, 854, 855, 856, 857, 858, 859, 860, 861, 862, 863, 864, 865, 866, 867, 868, 869, 870, 871, 872, 873, 874, 875, 876, 877, 878, 879, 880, 881, 882, 883, 884, 885, 886, 887, 888, 889, 890, 891, 892, 893, 894, 895, 896, 897, 898, 899, 900, 901, 902, 903, 904, 905, 906, 907, 908, 909, 910, 911, 912, 913, 914],
      "AcquisitionTime": ["154728.285000", "154728.745000", "154729.205000", "154729.665000", "154730.125000", "154730.585000", "154731.045000", "154731.505000", "154731.965000", "154732.425000", "154732.885000", "154733.345000", "154733.805000", "154734.265000", "154734.725000", "154735.185000", "154735.645000", "154736.105000", "154736.565000", "154737.025000", "154737.485000", "154737.945000", "154738.405000", "154738.865000", "154739.325000", "154739.785000", "154740.245000", "154740.705000", "154741.165000", "154741.625000", "154742.085000", "154742.545000", "154743.005000", "154743.465000", "154743.925000", "154744.385000", "154744.845000", "154745.305000", "154745.765000", "154746.225000", "154746.685000", "154747.145000", "154747.605000", "154748.065000", "154748.525000", "154748.985000", "154749.445000", "154749.905000", "154750.365000", "154750.825000", "154751.285000", "154751.745000", "154752.205000", "154752.665000", "154753.125000", "154753.585000", "154754.045000", "154754.505000", "154754.965000", "154755.425000", "154755.885000", "154756.345000", "154756.805000", "154757.265000", "154757.725000", "154758.185000", "154758.645000", "154759.105000", "154759.565000", "154800.025000", "154800.485000", "154800.945000", "154801.405000", "154801.865000", "154802.325000", "154802.785000", "154803.245000", "154803.705000", "154804.165000", "154804.625000", "154805.085000", "154805.545000", "154806.005000", "154806.465000", "154806.925000", "154807.385000", "154807.845000", "154808.305000", "154808.765000", "154809.225000", "154809.685000", "154810.145000", "154810.605000", "154811.065000", "154811.525000", "154811.985000", "154812.445000", "154812.905000", "154813.365000", "154813.825000", "154814.285000", "154814.745000", "154815.205000", "154815.665000", "154816.125000", "154816.585000", "154817.045000", "154817.505000", "154817.965000", "154818.425000", "154818.885000", "154819.345000", "154819.805000", "154820.265000", "154820.725000", "154821.185000", "154821.645000", "154822.105000", "154822.565000", "154823.025000", "154823.485000", "154823.945000", "154824.405000", "154824.865000", "154825.325000", "154825.785000", "154826.245000", "154826.705000", "154827.165000", "154827.625000", "154828.085000", "154828.545000", "154829.005000", "154829.465000", "154829.925000", "154830.385000", "154830.845000", "154831.305000", "154831.765000", "154832.225000", "154832.685000", "154833.145000", "154833.605000", "154834.065000", "154834.525000", "154834.985000", "154835.445000", "154835.905000", "154836.365000", "154836.825000", "154837.285000", "154837.745000", "154838.205000", "154838.665000", "154839.125000", "154839.585000", "154840.045000", "154840.505000", "154840.965000", "154841.425000", "154841.885000", "154842.345000", "154842.805000", "154843.265000", "154843.725000", "154844.185000", "154844.645000", "154845.105000", "154845.565000", "154846.025000", "154846.485000", "154846.945000", "154847.405000", "154847.865000", "154848.325000", "154848.785000", "154849.245000", "154849.705000", "154850.165000", "154850.625000", "154851.085000", "154851.545000", "154852.005000", "154852.465000", "154852.925000", "154853.385000", "154853.845000", "154854.305000", "154854.765000", "154855.225000", "154855.685000", "154856.145000", "154856.605000", "154857.065000", "154857.525000", "154857.985000", "154858.445000", "154858.905000", "154859.365000", "154859.825000", "154900.285000", "154900.745000", "154901.205000", "154901.665000", "154902.125000", "154902.585000", "154903.045000", "154903.505000", "154903.965000", "154904.425000", "154904.885000", "154905.345000", "154905.805000", "154906.265000", "154906.725000", "154907.185000", "154907.645000", "154908.105000", "154908.565000", "154909.025000", "154909.485000", "154909.945000", "154910.405000", "154910.865000", "154911.325000", "154911.785000", "154912.245000", "154912.705000", "154913.165000", "154913.625000", "154914.085000", "154914.545000", "154915.005000", "154915.465000", "154915.925000", "154916.385000", "154916.845000", "154917.305000", "154917.765000", "154918.225000", "154918.685000", "154919.145000", "154919.605000", "154920.065000", "154920.525000", "154920.985000", "154921.445000", "154921.905000", "154922.365000", "154922.825000", "154923.285000", "154923.745000", "154924.205000", "154924.665000", "154925.125000", "154925.585000", "154926.045000", "154926.505000", "154926.965000", "154927.425000", "154927.885000", "154928.345000", "154928.805000", "154929.265000", "154929.725000", "154930.185000", "154930.645000", "154931.105000", "154931.565000", "154932.025000", "154932.485000", "154932.945000", "154933.405000", "154933.865000", "154934.325000", "154934.785000", "154935.245000", "154935.705000", "154936.165000", "154936.625000", "154937.085000", "154937.545000", "154938.005000", "154938.465000", "154938.925000", "154939.385000", "154939.845000", "154940.305000", "154940.765000", "154941.225000", "154941.685000", "154942.145000", "154942.605000", "154943.065000", "154943.525000", "154943.985000", "154944.445000", "154944.905000", "154945.365000", "154945.825000", "154946.285000", "154946.745000", "154947.205000", "154947.665000", "154948.125000", "154948.585000", "154949.045000", "154949.505000", "154949.965000", "154950.425000", "154950.885000", "154951.345000", "154951.805000", "154952.265000", "154952.725000", "154953.185000", "154953.645000", "154954.105000", "154954.565000", "154955.025000", "154955.485000", "154955.945000", "154956.405000", "154956.865000", "154957.325000", "154957.785000", "154958.245000", "154958.705000", "154959.165000", "154959.625000", "155000.085000", "155000.545000", "155001.005000", "155001.465000", "155001.925000", "155002.385000", "155002.845000", "155003.305000", "155003.765000", "155004.225000", "155004.685000", "155005.145000", "155005.605000", "155006.065000", "155006.525000", "155006.985000", "155007.445000", "155007.905000", "155008.365000", "155008.825000", "155009.285000", "155009.745000", "155010.205000", "155010.665000", "155011.125000", "155011.585000", "155012.045000", "155012.505000", "155012.965000", "155013.425000", "155013.885000", "155014.345000", "155014.805000", "155015.265000", "155015.725000", "155016.185000", "155016.645000", "155017.105000", "155017.565000", "155018.025000", "155018.485000", "155018.945000", "155019.405000", "155019.865000", "155020.325000", "155020.785000", "155021.245000", "155021.705000", "155022.165000", "155022.625000", "155023.085000", "155023.545000", "155024.005000", "155024.465000", "155024.925000", "155025.385000", "155025.845000", "155026.305000", "155026.765000", "155027.225000", "155027.685000", "155028.145000", "155028.605000", "155029.065000", "155029.525000", "155029.985000", "155030.445000", "155030.905000", "155031.365000", "155031.825000", "155032.285000", "155032.745000", "155033.205000", "155033.665000", "155034.125000", "155034.585000", "155035.045000", "155035.505000", "155035.965000", "155036.425000", "155036.885000", "155037.345000", "155037.805000", "155038.265000", "155038.725000", "155039.185000", "155039.645000", "155040.105000", "155040.565000", "155041.025000", "155041.485000", "155041.945000", "155042.405000", "155042.865000", "155043.325000", "155043.785000", "155044.245000", "155044.705000", "155045.165000", "155045.625000", "155046.085000", "155046.545000", "155047.005000", "155047.465000", "155047.925000", "155048.385000", "155048.845000", "155049.305000", "155049.765000", "155050.225000", "155050.685000", "155051.145000", "155051.605000", "155052.065000", "155052.525000", "155052.985000", "155053.445000", "155053.905000", "155054.365000", "155054.825000", "155055.285000", "155055.745000", "155056.205000", "155056.665000", "155057.125000", "155057.585000", "155058.045000", "155058.505000", "155058.965000", "155059.425000", "155059.885000", "155100.345000", "155100.805000", "155101.265000", "155101.725000", "155102.185000", "155102.645000", "155103.105000", "155103.565000", "155104.025000", "155104.485000", "155104.945000", "155105.405000", "155105.865000", "155106.325000", "155106.785000", "155107.245000", "155107.705000", "155108.165000", "155108.625000", "155109.085000", "155109.545000", "155110.005000", "155110.465000", "155110.925000", "155111.385000", "155111.845000", "155112.305000", "155112.765000", "155113.225000", "155113.685000", "155114.145000", "155114.605000", "155115.065000", "155115.525000", "155115.985000", "155116.445000", "155116.905000", "155117.365000", "155117.825000", "155118.285000", "155118.745000", "155119.205000", "155119.665000", "155120.125000", "155120.585000", "155121.045000", "155121.505000", "155121.965000", "155122.425000", "155122.885000", "155123.345000", "155123.805000", "155124.265000", "155124.725000", "155125.185000", "155125.645000", "155126.105000", "155126.565000", "155127.025000", "155127.485000", "155127.945000", "155128.405000", "155128.865000", "155129.325000", "155129.785000", "155130.245000", "155130.705000", "155131.165000", "155131.625000", "155132.085000", "155132.545000", "155133.005000", "155133.465000", "155133.925000", "155134.385000", "155134.845000", "155135.305000", "155135.765000", "155136.225000", "155136.685000", "155137.145000", "155137.605000", "155138.065000", "155138.525000", "155138.985000", "155139.445000", "155139.905000", "155140.365000", "155140.825000", "155141.285000", "155141.745000", "155142.205000", "155142.665000", "155143.125000", "155143.585000", "155144.045000", "155144.505000", "155144.965000", "155145.425000", "155145.885000", "155146.345000", "155146.805000", "155147.265000", "155147.725000", "155148.185000", "155148.645000", "155149.105000", "155149.565000", "155150.025000", "155150.485000", "155150.945000", "155151.405000", "155151.865000", "155152.325000", "155152.785000", "155153.245000", "155153.705000", "155154.165000", "155154.625000", "155155.085000", "155155.545000", "155156.005000", "155156.465000", "155156.925000", "155157.385000", "155157.845000", "155158.305000", "155158.765000", "155159.225000", "155159.685000", "155200.145000", "155200.605000", "155201.065000", "155201.525000", "155201.985000", "155202.445000", "155202.905000", "155203.365000", "155203.825000", "155204.285000", "155204.745000", "155205.205000", "155205.665000", "155206.125000", "155206.585000", "155207.045000", "155207.505000", "155207.965000", "155208.425000", "155208.885000", "155209.345000", "155209.805000", "155210.265000", "155210.725000", "155211.185000", "155211.645000", "155212.105000", "155212.565000", "155213.025000", "155213.485000", "155213.945000", "155214.405000", "155214.865000", "155215.325000", "155215.785000", "155216.245000", "155216.705000", "155217.165000", "155217.625000", "155218.085000", "155218.545000", "155219.005000", "155219.465000", "155219.925000", "155220.385000", "155220.845000", "155221.305000", "155221.765000", "155222.225000", "155222.685000", "155223.145000", "155223.605000", "155224.065000", "155224.525000", "155224.985000", "155225.445000", "155225.905000", "155226.365000", "155226.825000", "155227.285000", "155227.745000", "155228.205000", "155228.665000", "155229.125000", "155229.585000", "155230.045000", "155230.505000", "155230.965000", "155231.425000", "155231.885000", "155232.345000", "155232.805000", "155233.265000", "155233.725000", "155234.185000", "155234.645000", "155235.105000", "155235.565000", "155236.025000", "155236.485000", "155236.945000", "155237.405000", "155237.865000", "155238.325000", "155238.785000", "155239.245000", "155239.705000", "155240.165000", "155240.625000", "155241.085000", "155241.545000", "155242.005000", "155242.465000", "155242.925000", "155243.385000", "155243.845000", "155244.305000", "155244.765000", "155245.225000", "155245.685000", "155246.145000", "155246.605000", "155247.065000", "155247.525000", "155247.985000", "155248.445000", "155248.905000", "155249.365000", "155249.825000", "155250.285000", "155250.745000", "155251.205000", "155251.665000", "155252.125000", "155252.585000", "155253.045000", "155253.505000", "155253.965000", "155254.425000", "155254.885000", "155255.345000", "155255.805000", "155256.265000", "155256.725000", "155257.185000", "155257.645000", "155258.105000", "155258.565000", "155259.025000", "155259.485000", "155259.945000", "155300.405000", "155300.865000", "155301.325000", "155301.785000", "155302.245000", "155302.705000", "155303.165000", "155303.625000", "155304.085000", "155304.545000", "155305.005000", "155305.465000", "155305.925000", "155306.385000", "155306.845000", "155307.305000", "155307.765000", "155308.225000", "155308.685000", "155309.145000", "155309.605000", "155310.065000", "155310.525000", "155310.985000", "155311.445000", "155311.905000", "155312.365000", "155312.825000", "155313.285000", "155313.745000", "155314.205000", "155314.665000", "155315.125000", "155315.585000", "155316.045000", "155316.505000", "155316.965000", "155317.425000", "155317.885000", "155318.345000", "155318.805000", "155319.265000", "155319.725000", "155320.185000", "155320.645000", "155321.105000", "155321.565000", "155322.025000", "155322.485000", "155322.945000", "155323.405000", "155323.865000", "155324.325000", "155324.785000", "155325.245000", "155325.705000", "155326.165000", "155326.625000", "155327.085000", "155327.545000", "155328.005000", "155328.465000", "155328.925000", "155329.385000", "155329.845000", "155330.305000", "155330.765000", "155331.225000", "155331.685000", "155332.145000", "155332.605000", "155333.065000", "155333.525000", "155333.985000", "155334.445000", "155334.905000", "155335.365000", "155335.825000", "155336.285000", "155336.745000", "155337.205000", "155337.665000", "155338.125000", "155338.585000", "155339.045000", "155339.505000", "155339.965000", "155340.425000", "155340.885000", "155341.345000", "155341.805000", "155342.265000", "155342.725000", "155343.185000", "155343.645000", "155344.105000", "155344.565000", "155345.025000", "155345.485000", "155345.945000", "155346.405000", "155346.865000", "155347.325000", "155347.785000", "155348.245000", "155348.705000", "155349.165000", "155349.625000", "155350.085000", "155350.545000", "155351.005000", "155351.465000", "155351.925000", "155352.385000", "155352.845000", "155353.305000", "155353.765000", "155354.225000", "155354.685000", "155355.145000", "155355.605000", "155356.065000", "155356.525000", "155356.985000", "155357.445000", "155357.905000", "155358.365000", "155358.825000", "155359.285000", "155359.745000", "155400.205000", "155400.665000", "155401.125000", "155401.585000", "155402.045000", "155402.505000", "155402.965000", "155403.425000", "155403.885000", "155404.345000", "155404.805000", "155405.265000", "155405.725000", "155406.185000", "155406.645000", "155407.105000", "155407.565000", "155408.025000", "155408.485000", "155408.945000", "155409.405000", "155409.865000", "155410.325000", "155410.785000", "155411.245000", "155411.705000", "155412.165000", "155412.625000", "155413.085000", "155413.545000", "155414.005000", "155414.465000", "155414.925000", "155415.385000", "155415.845000", "155416.305000", "155416.765000", "155417.225000", "155417.685000", "155418.145000", "155418.605000", "155419.065000", "155419.525000", "155419.985000", "155420.445000", "155420.905000", "155421.365000", "155421.825000", "155422.285000", "155422.745000", "155423.205000", "155423.665000", "155424.125000", "155424.585000", "155425.045000", "155425.505000", "155425.965000", "155426.425000", "155426.885000", "155427.345000", "155427.805000", "155428.265000"],
