{
  "AcquisitionMatrixPE": 82,
  "AcquisitionNumber": 1,
  "AcquisitionTime": "15:13:38.915000",
  "BandwidthPerPixelPhaseEncode": 24.888,
  "BaseResolution": 82,
  "BodyPartExamined": "BRAIN",
  "ConsistencyInfo": "N4_VE11C_LATEST_20160120",
  "ConversionSoftware": "dcm2niix",
  "ConversionSoftwareVersion": "v1.0.20201102",
  "DerivedVendorReportedEchoSpacing": 0.00049,
  "DeviceSerialNumber": "66112",
  "DwellTime": 2e-06,
  "EchoTime": 0.0272,
  "EchoTrainLength": 82,
  "EffectiveEchoSpacing": 0.00049,
  "FlipAngle": 44,
  "ImageComments": "Unaliased MB8/PE3",
  "ImageOrientationPatientDICOM": [0.998954, 0.00268722, 0.0456377, -0.0104614, 0.98522, 0.170977],
  "ImageType": [
    "ORIGINAL",
    "PRIMARY",
    "M",
    "MB",
    "ND",
    "NORM",
    "MOSAIC"
],
  "ImagingFrequency": 123.252,
  "InPlanePhaseEncodingDirectionDICOM": "COL",
  "InstitutionAddress": "Maynard 3,Hanover,NH,US,03755",
  "InstitutionName": "Dartmouth College - PBS",
  "InstitutionalDepartmentName": "Department",
  "MRAcquisitionType": "2D",
  "MagneticFieldStrength": 3,
  "Manufacturer": "Siemens",
  "ManufacturersModelName": "Prisma",
  "Modality": "MR",
  "MultibandAccelerationFactor": 8,
  "PartialFourier": 1,
  "PatientPosition": "HFS",
  "PercentPhaseFOV": 100,
  "PercentSampling": 100,
  "PhaseEncodingDirection": "j-",
  "PhaseEncodingSteps": 82,
  "PhaseResolution": 1,
  "PixelBandwidth": 3050,
  "ProcedureStepDescription": "Wager_Wager^1076_spacetop",
  "ProtocolName": "func_run-02_task-narratives_acq-ap-mb8",
  "PulseSequenceDetails": "%CustomerSeq%\\cmrr_mbep2d_bold",
  "ReceiveCoilActiveElements": "HEA;HEP",
  "ReceiveCoilName": "Head_32",
  "ReconMatrixPE": 82,
  "RepetitionTime": 0.46,
  "SAR": 0.095542,
  "ScanOptions": "FS",
  "ScanningSequence": "EP",
  "SequenceName": "epfid2d1_82",
  "SequenceVariant": "SK\\SS",
  "SeriesDescription": "func_run-02_task-narratives_acq-ap-mb8",
  "SeriesNumber": 10,
  "ShimSetting": [4157, -7747, -7256, 476, -80, -26, 54, 51],
  "SliceThickness": 2.7,
  "SliceTiming": [0, 0.2525, 0.065, 0.315, 0.1275, 0.3775, 0.19, 0, 0.2525, 0.065, 0.315, 0.1275, 0.3775, 0.19, 0, 0.2525, 0.065, 0.315, 0.1275, 0.3775, 0.19, 0, 0.2525, 0.065, 0.315, 0.1275, 0.3775, 0.19, 0, 0.2525, 0.065, 0.315, 0.1275, 0.3775, 0.19, 0, 0.2525, 0.065, 0.315, 0.1275, 0.3775, 0.19, 0, 0.2525, 0.065, 0.315, 0.1275, 0.3775, 0.19, 0, 0.2525, 0.065, 0.315, 0.1275, 0.3775, 0.19],
  "SoftwareVersions": "syngo MR E11",
  "SpacingBetweenSlices": 2.7,
  "StationName": "AWP66112",
  "TaskName": "narratives",
  "TotalReadoutTime": 0.03969,
  "TxRefAmp": 251.355,
  "WipMemBlock": "390e3a65-8d16-4617-ba3a-9d978f8a99b2||Sequence: R016 ve11c/master r/e634e98; Dec 19 2017 11:00:25 by eja",
  "dcmmeta_affine": [
    [-2.680121660232544, -0.028067218139767647, 0.12015999108552933, 109.26372528076172],
    [-0.007209617178887129, 2.6432721614837646, 0.46244311332702637, -105.91155242919922],
    [0.12244260311126709, -0.45871761441230774, 2.6573874950408936, -49.01698303222656],
    [0.0, 0.0, 0.0, 1.0]
],
  "dcmmeta_reorient_transform": [
    [0.0, -1.0, 0.0, 81.0],
    [1.0, 0.0, 0.0, 0.0],
    [0.0, 0.0, 1.0, 0.0],
    [0.0, 0.0, 0.0, 1.0]
],
  "dcmmeta_shape": [82, 82, 56, 1098],
  "dcmmeta_slice_dim": 2,
  "dcmmeta_version": 0.6,
  "global": {
    "const": {
      "AccessionNumber": "A003535",
      "AcquisitionMatrix": [82, 0, 0, 82],
      "AngioFlag": "N",
      "BitsAllocated": 16,
      "BitsStored": 16,
      "BodyPartExamined": "BRAIN",
      "Columns": 656,
      "EchoNumbers": 1,
      "EchoTime": 27.2,
      "EchoTrainLength": 82,
      "FlipAngle": 44.0,
      "HighBit": 15,
      "ImageOrientationPatient": [0.99895444313757, 0.00268722094789, 0.04563769691049, -0.0104614171408, 0.98521955628193, 0.17097656175934],
      "ImagePositionPatient": [-868.12992585865, -868.88171687472, -252.96609126722],
      "ImageType": [
        "ORIGINAL",
        "PRIMARY",
        "M",
        "MB",
        "ND",
        "NORM",
        "MOSAIC"
],
      "ImagedNucleus": "1H",
      "ImagingFrequency": 123.252148,
      "InPlanePhaseEncodingDirection": "COL",
      "MRAcquisitionType": "2D",
      "MagneticFieldStrength": 3.0,
      "Manufacturer": "SIEMENS",
      "ManufacturerModelName": "Prisma",
      "Modality": "MR",
      "NumberOfAverages": 1.0,
      "NumberOfPhaseEncodingSteps": 82,
      "PercentPhaseFieldOfView": 100.0,
      "PercentSampling": 100.0,
      "PerformedProcedureStepStartTime": "144428.811000",
      "PhotometricInterpretation": "MONOCHROME2",
      "PixelBandwidth": 3050.0,
      "PixelRepresentation": 0,
      "PixelSpacing": [2.6829268932343, 2.6829268932343],
      "ProtocolName": "func_run-02_task-narratives_acq-ap-mb8",
      "RepetitionTime": 460.0,
      "Rows": 656,
      "SAR": 0.09554200427162,
      "SamplesPerPixel": 1,
      "ScanOptions": "FS",
      "ScanningSequence": "EP",
      "SequenceName": "epfid2d1_82",
      "SequenceVariant": [
        "SK",
        "SS"
],
      "SeriesDescription": "func_run-02_task-narratives_acq-ap-mb8",
      "SeriesNumber": 10,
      "SeriesTime": "151403.502000",
      "SliceLocation": -61.520760149093,
      "SliceThickness": 2.7000000476837,
      "SmallestImagePixelValue": 0,
      "SoftwareVersions": "syngo MR E11",
      "SpacingBetweenSlices": 2.6999999748409,
      "SpecificCharacterSet": "ISO_IR 100",
      "StudyID": "1",
      "StudyTime": "144428.752000",
      "TransmitCoilName": "Body",
      "VariableFlipAngleFlag": "N",
      "WindowCenterWidthExplanation": "Algo1",
      "dBdt": 0.0},
    "slices": {}
  },
  "time": {
    "samples": {
      "AcquisitionNumber": [1, 2, 3, 4, 5, 6, 7, 8, 9, 10, 11, 12, 13, 14, 15, 16, 17, 18, 19, 20, 21, 22, 23, 24, 25, 26, 27, 28, 29, 30, 31, 32, 33, 34, 35, 36, 37, 38, 39, 40, 41, 42, 43, 44, 45, 46, 47, 48, 49, 50, 51, 52, 53, 54, 55, 56, 57, 58, 59, 60, 61, 62, 63, 64, 65, 66, 67, 68, 69, 70, 71, 72, 73, 74, 75, 76, 77, 78, 79, 80, 81, 82, 83, 84, 85, 86, 87, 88, 89, 90, 91, 92, 93, 94, 95, 96, 97, 98, 99, 100, 101, 102, 103, 104, 105, 106, 107, 108, 109, 110, 111, 112, 113, 114, 115, 116, 117, 118, 119, 120, 121, 122, 123, 124, 125, 126, 127, 128, 129, 130, 131, 132, 133, 134, 135, 136, 137, 138, 139, 140, 141, 142, 143, 144, 145, 146, 147, 148, 149, 150, 151, 152, 153, 154, 155, 156, 157, 158, 159, 160, 161, 162, 163, 164, 165, 166, 167, 168, 169, 170, 171, 172, 173, 174, 175, 176, 177, 178, 179, 180, 181, 182, 183, 184, 185, 186, 187, 188, 189, 190, 191, 192, 193, 194, 195, 196, 197, 198, 199, 200, 201, 202, 203, 204, 205, 206, 207, 208, 209, 210, 211, 212, 213, 214, 215, 216, 217, 218, 219, 220, 221, 222, 223, 224, 225, 226, 227, 228, 229, 230, 231, 232, 233, 234, 235, 236, 237, 238, 239, 240, 241, 242, 243, 244, 245, 246, 247, 248, 249, 250, 251, 252, 253, 254, 255, 256, 257, 258, 259, 260, 261, 262, 263, 264, 265, 266, 267, 268, 269, 270, 271, 272, 273, 274, 275, 276, 277, 278, 279, 280, 281, 282, 283, 284, 285, 286, 287, 288, 289, 290, 291, 292, 293, 294, 295, 296, 297, 298, 299, 300, 301, 302, 303, 304, 305, 306, 307, 308, 309, 310, 311, 312, 313, 314, 315, 316, 317, 318, 319, 320, 321, 322, 323, 324, 325, 326, 327, 328, 329, 330, 331, 332, 333, 334, 335, 336, 337, 338, 339, 340, 341, 342, 343, 344, 345, 346, 347, 348, 349, 350, 351, 352, 353, 354, 355, 356, 357, 358, 359, 360, 361, 362, 363, 364, 365, 366, 367, 368, 369, 370, 371, 372, 373, 374, 375, 376, 377, 378, 379, 380, 381, 382, 383, 384, 385, 386, 387, 388, 389, 390, 391, 392, 393, 394, 395, 396, 397, 398, 399, 400, 401, 402, 403, 404, 405, 406, 407, 408, 409, 410, 411, 412, 413, 414, 415, 416, 417, 418, 419, 420, 421, 422, 423, 424, 425, 426, 427, 428, 429, 430, 431, 432, 433, 434, 435, 436, 437, 438, 439, 440, 441, 442, 443, 444, 445, 446, 447, 448, 449, 450, 451, 452, 453, 454, 455, 456, 457, 458, 459, 460, 461, 462, 463, 464, 465, 466, 467, 468, 469, 470, 471, 472, 473, 474, 475, 476, 477, 478, 479, 480, 481, 482, 483, 484, 485, 486, 487, 488, 489, 490, 491, 492, 493, 494, 495, 496, 497, 498, 499, 500, 501, 502, 503, 504, 505, 506, 507, 508, 509, 510, 511, 512, 513, 514, 515, 516, 517, 518, 519, 520, 521, 522, 523, 524, 525, 526, 527, 528, 529, 530, 531, 532, 533, 534, 535, 536, 537, 538, 539, 540, 541, 542, 543, 544, 545, 546, 547, 548, 549, 550, 551, 552, 553, 554, 555, 556, 557, 558, 559, 560, 561, 562, 563, 564, 565, 566, 567, 568, 569, 570, 571, 572, 573, 574, 575, 576, 577, 578, 579, 580, 581, 582, 583, 584, 585, 586, 587, 588, 589, 590, 591, 592, 593, 594, 595, 596, 597, 598, 599, 600, 601, 602, 603, 604, 605, 606, 607, 608, 609, 610, 611, 612, 613, 614, 615, 616, 617, 618, 619, 620, 621, 622, 623, 624, 625, 626, 627, 628, 629, 630, 631, 632, 633, 634, 635, 636, 637, 638, 639, 640, 641, 642, 643, 644, 645, 646, 647, 648, 649, 650, 651, 652, 653, 654, 655, 656, 657, 658, 659, 660, 661, 662, 663, 664, 665, 666, 667, 668, 669, 670, 671, 672, 673, 674, 675, 676, 677, 678, 679, 680, 681, 682, 683, 684, 685, 686, 687, 688, 689, 690, 691, 692, 693, 694, 695, 696, 697, 698, 699, 700, 701, 702, 703, 704, 705, 706, 707, 708, 709, 710, 711, 712, 713, 714, 715, 716, 717, 718, 719, 720, 721, 722, 723, 724, 725, 726, 727, 728, 729, 730, 731, 732, 733, 734, 735, 736, 737, 738, 739, 740, 741, 742, 743, 744, 745, 746, 747, 748, 749, 750, 751, 752, 753, 754, 755, 756, 757, 758, 759, 760, 761, 762, 763, 764, 765, 766, 767, 768, 769, 770, 771, 772, 773, 774, 775, 776, 777, 778, 779, 780, 781, 782, 783, 784, 785, 786, 787, 788, 789, 790, 791, 792, 793, 794, 795, 796, 797, 798, 799, 800, 801, 802, 803, 804, 805, 806, 807, 808, 809, 810, 811, 812, 813, 814, 815, 816, 817, 818, 819, 820, 821, 822, 823, 824, 825, 826, 827, 828, 829, 830, 831, 832, 833, 834, 835, 836, 837, 838, 839, 840, 841, 842, 843, 844, 845, 846, 847, 848, 849, 850, 851, 852, 853, 854, 855, 856, 857, 858, 859, 860, 861, 862, 863, 864, 865, 866, 867, 868, 869, 870, 871, 872, 873, 874, 875, 876, 877, 878, 879, 880, 881, 882, 883, 884, 885, 886, 887, 888, 889, 890, 891, 892, 893, 894, 895, 896, 897, 898, 899, 900, 901, 902, 903, 904, 905, 906, 907, 908, 909, 910, 911, 912, 913, 914, 915, 916, 917, 918, 919, 920, 921, 922, 923, 924, 925, 926, 927, 928, 929, 930, 931, 932, 933, 934, 935, 936, 937, 938, 939, 940, 941, 942, 943, 944, 945, 946, 947, 948, 949, 950, 951, 952, 953, 954, 955, 956, 957, 958, 959, 960, 961, 962, 963, 964, 965, 966, 967, 968, 969, 970, 971, 972, 973, 974, 975, 976, 977, 978, 979, 980, 981, 982, 983, 984, 985, 986, 987, 988, 989, 990, 991, 992, 993, 994, 995, 996, 997, 998, 999, 1000, 1001, 1002, 1003, 1004, 1005, 1006, 1007, 1008, 1009, 1010, 1011, 1012, 1013, 1014, 1015, 1016, 1017, 1018, 1019, 1020, 1021, 1022, 1023, 1024, 1025, 1026, 1027, 1028, 1029, 1030, 1031, 1032, 1033, 1034, 1035, 1036, 1037, 1038, 1039, 1040, 1041, 1042, 1043, 1044, 1045, 1046, 1047, 1048, 1049, 1050, 1051, 1052, 1053, 1054, 1055, 1056, 1057, 1058, 1059, 1060, 1061, 1062, 1063, 1064, 1065, 1066, 1067, 1068, 1069, 1070, 1071, 1072, 1073, 1074, 1075, 1076, 1077, 1078, 1079, 1080, 1081, 1082, 1083, 1084, 1085, 1086, 1087, 1088, 1089, 1090, 1091, 1092, 1093, 1094, 1095, 1096, 1097, 1098],
      "AcquisitionTime": ["151338.915000", "151339.375000", "151339.835000", "151340.295000", "151340.755000", "151341.215000", "151341.675000", "151342.135000", "151342.595000", "151343.055000", "151343.515000", "151343.975000", "151344.435000", "151344.895000", "151345.355000", "151345.815000", "151346.275000", "151346.735000", "151347.195000", "151347.655000", "151348.115000", "151348.575000", "151349.035000", "151349.495000", "151349.955000", "151350.415000", "151350.875000", "151351.335000", "151351.795000", "151352.255000", "151352.715000", "151353.175000", "151353.635000", "151354.095000", "151354.555000", "151355.015000", "151355.475000", "151355.935000", "151356.395000", "151356.855000", "151357.315000", "151357.775000", "151358.235000", "151358.695000", "151359.155000", "151359.615000", "151400.075000", "151400.535000", "151400.995000", "151401.455000", "151401.915000", "151402.375000", "151402.835000", "151403.295000", "151403.755000", "151404.215000", "151404.675000", "151405.135000", "151405.595000", "151406.055000", "151406.515000", "151406.975000", "151407.435000", "151407.895000", "151408.355000", "151408.815000", "151409.275000", "151409.735000", "151410.195000", "151410.655000", "151411.115000", "151411.575000", "151412.035000", "151412.495000", "151412.955000", "151413.415000", "151413.875000", "151414.335000", "151414.795000", "151415.255000", "151415.715000", "151416.175000", "151416.635000", "151417.095000", "151417.555000", "151418.015000", "151418.475000", "151418.935000", "151419.395000", "151419.855000", "151420.315000", "151420.775000", "151421.235000", "151421.695000", "151422.155000", "151422.615000", "151423.075000", "151423.535000", "151423.995000", "151424.455000", "151424.915000", "151425.375000", "151425.835000", "151426.295000", "151426.755000", "151427.215000", "151427.675000", "151428.135000", "151428.595000", "151429.055000", "151429.515000", "151429.975000", "151430.435000", "151430.895000", "151431.355000", "151431.815000", "151432.275000", "151432.735000", "151433.195000", "151433.655000", "151434.115000", "151434.575000", "151435.035000", "151435.495000", "151435.955000", "151436.415000", "151436.875000", "151437.335000", "151437.795000", "151438.255000", "151438.715000", "151439.175000", "151439.635000", "151440.095000", "151440.555000", "151441.015000", "151441.475000", "151441.935000", "151442.395000", "151442.855000", "151443.315000", "151443.775000", "151444.235000", "151444.695000", "151445.155000", "151445.615000", "151446.075000", "151446.535000", "151446.995000", "151447.455000", "151447.915000", "151448.375000", "151448.835000", "151449.295000", "151449.755000", "151450.215000", "151450.675000", "151451.135000", "151451.595000", "151452.055000", "151452.515000", "151452.975000", "151453.435000", "151453.895000", "151454.355000", "151454.815000", "151455.275000", "151455.735000", "151456.195000", "151456.655000", "151457.115000", "151457.575000", "151458.035000", "151458.495000", "151458.955000", "151459.415000", "151459.875000", "151500.335000", "151500.795000", "151501.255000", "151501.715000", "151502.175000", "151502.635000", "151503.095000", "151503.555000", "151504.015000", "151504.475000", "151504.935000", "151505.395000", "151505.855000", "151506.315000", "151506.775000", "151507.235000", "151507.695000", "151508.155000", "151508.615000", "151509.075000", "151509.535000", "151509.995000", "151510.455000", "151510.915000", "151511.375000", "151511.835000", "151512.295000", "151512.755000", "151513.215000", "151513.675000", "151514.135000", "151514.595000", "151515.055000", "151515.515000", "151515.975000", "151516.435000", "151516.895000", "151517.355000", "151517.815000", "151518.275000", "151518.735000", "151519.195000", "151519.655000", "151520.115000", "151520.575000", "151521.035000", "151521.495000", "151521.955000", "151522.415000", "151522.875000", "151523.335000", "151523.795000", "151524.255000", "151524.715000", "151525.175000", "151525.635000", "151526.095000", "151526.555000", "151527.015000", "151527.475000", "151527.935000", "151528.395000", "151528.855000", "151529.315000", "151529.775000", "151530.235000", "151530.695000", "151531.155000", "151531.615000", "151532.075000", "151532.535000", "151532.995000", "151533.455000", "151533.915000", "151534.375000", "151534.835000", "151535.295000", "151535.755000", "151536.215000", "151536.675000", "151537.135000", "151537.595000", "151538.055000", "151538.515000", "151538.975000", "151539.435000", "151539.895000", "151540.355000", "151540.815000", "151541.275000", "151541.735000", "151542.195000", "151542.655000", "151543.115000", "151543.575000", "151544.035000", "151544.495000", "151544.955000", "151545.415000", "151545.875000", "151546.335000", "151546.795000", "151547.255000", "151547.715000", "151548.175000", "151548.635000", "151549.095000", "151549.555000", "151550.015000", "151550.475000", "151550.935000", "151551.395000", "151551.855000", "151552.315000", "151552.775000", "151553.235000", "151553.695000", "151554.155000", "151554.615000", "151555.075000", "151555.535000", "151555.995000", "151556.455000", "151556.915000", "151557.375000", "151557.835000", "151558.295000", "151558.755000", "151559.215000", "151559.675000", "151600.135000", "151600.595000", "151601.055000", "151601.515000", "151601.975000", "151602.435000", "151602.895000", "151603.355000", "151603.815000", "151604.275000", "151604.735000", "151605.195000", "151605.655000", "151606.115000", "151606.575000", "151607.035000", "151607.495000", "151607.955000", "151608.415000", "151608.875000", "151609.335000", "151609.795000", "151610.255000", "151610.715000", "151611.175000", "151611.635000", "151612.095000", "151612.555000", "151613.015000", "151613.475000", "151613.935000", "151614.395000", "151614.855000", "151615.315000", "151615.775000", "151616.235000", "151616.695000", "151617.155000", "151617.615000", "151618.075000", "151618.535000", "151618.995000", "151619.455000", "151619.915000", "151620.375000", "151620.835000", "151621.295000", "151621.755000", "151622.215000", "151622.675000", "151623.135000", "151623.595000", "151624.055000", "151624.515000", "151624.975000", "151625.435000", "151625.895000", "151626.355000", "151626.815000", "151627.275000", "151627.735000", "151628.195000", "151628.655000", "151629.115000", "151629.575000", "151630.035000", "151630.495000", "151630.955000", "151631.415000", "151631.875000", "151632.335000", "151632.795000", "151633.255000", "151633.715000", "151634.175000", "151634.635000", "151635.095000", "151635.555000", "151636.015000", "151636.475000", "151636.935000", "151637.395000", "151637.855000", "151638.315000", "151638.775000", "151639.235000", "151639.695000", "151640.155000", "151640.615000", "151641.075000", "151641.535000", "151641.995000", "151642.455000", "151642.915000", "151643.375000", "151643.835000", "151644.295000", "151644.755000", "151645.215000", "151645.675000", "151646.135000", "151646.595000", "151647.055000", "151647.515000", "151647.975000", "151648.435000", "151648.895000", "151649.355000", "151649.815000", "151650.275000", "151650.735000", "151651.195000", "151651.655000", "151652.115000", "151652.575000", "151653.035000", "151653.495000", "151653.955000", "151654.415000", "151654.875000", "151655.335000", "151655.795000", "151656.255000", "151656.715000", "151657.175000", "151657.635000", "151658.095000", "151658.555000", "151659.015000", "151659.475000", "151659.935000", "151700.395000", "151700.855000", "151701.315000", "151701.775000", "151702.235000", "151702.695000", "151703.155000", "151703.615000", "151704.075000", "151704.535000", "151704.995000", "151705.455000", "151705.915000", "151706.375000", "151706.835000", "151707.295000", "151707.755000", "151708.215000", "151708.675000", "151709.135000", "151709.595000", "151710.055000", "151710.515000", "151710.975000", "151711.435000", "151711.895000", "151712.355000", "151712.815000", "151713.275000", "151713.735000", "151714.195000", "151714.655000", "151715.115000", "151715.575000", "151716.035000", "151716.495000", "151716.955000", "151717.415000", "151717.875000", "151718.335000", "151718.795000", "151719.255000", "151719.715000", "151720.175000", "151720.635000", "151721.095000", "151721.555000", "151722.015000", "151722.475000", "151722.935000", "151723.395000", "151723.855000", "151724.315000", "151724.775000", "151725.235000", "151725.695000", "151726.155000", "151726.615000", "151727.075000", "151727.535000", "151727.995000", "151728.455000", "151728.915000", "151729.375000", "151729.835000", "151730.295000", "151730.755000", "151731.215000", "151731.675000", "151732.135000", "151732.595000", "151733.055000", "151733.515000", "151733.975000", "151734.435000", "151734.895000", "151735.355000", "151735.815000", "151736.275000", "151736.735000", "151737.195000", "151737.655000", "151738.115000", "151738.575000", "151739.035000", "151739.495000", "151739.955000", "151740.415000", "151740.875000", "151741.335000", "151741.795000", "151742.255000", "151742.715000", "151743.175000", "151743.635000", "151744.095000", "151744.555000", "151745.015000", "151745.475000", "151745.935000", "151746.395000", "151746.855000", "151747.315000", "151747.775000", "151748.235000", "151748.695000", "151749.155000", "151749.615000", "151750.075000", "151750.535000", "151750.995000", "151751.455000", "151751.915000", "151752.375000", "151752.835000", "151753.295000", "151753.755000", "151754.215000", "151754.675000", "151755.135000", "151755.595000", "151756.055000", "151756.515000", "151756.975000", "151757.435000", "151757.895000", "151758.355000", "151758.815000", "151759.275000", "151759.735000", "151800.195000", "151800.655000", "151801.115000", "151801.575000", "151802.035000", "151802.495000", "151802.955000", "151803.415000", "151803.875000", "151804.335000", "151804.795000", "151805.255000", "151805.715000", "151806.175000", "151806.635000", "151807.095000", "151807.555000", "151808.015000", "151808.475000", "151808.935000", "151809.395000", "151809.855000", "151810.315000", "151810.775000", "151811.235000", "151811.695000", "151812.155000", "151812.615000", "151813.075000", "151813.535000", "151813.995000", "151814.455000", "151814.915000", "151815.375000", "151815.835000", "151816.295000", "151816.755000", "151817.215000", "151817.675000", "151818.135000", "151818.595000", "151819.055000", "151819.515000", "151819.975000", "151820.435000", "151820.895000", "151821.355000", "151821.815000", "151822.275000", "151822.735000", "151823.195000", "151823.655000", "151824.115000", "151824.575000", "151825.035000", "151825.495000", "151825.955000", "151826.415000", "151826.875000", "151827.335000", "151827.795000", "151828.255000", "151828.715000", "151829.175000", "151829.635000", "151830.095000", "151830.555000", "151831.015000", "151831.475000", "151831.935000", "151832.395000", "151832.855000", "151833.315000", "151833.775000", "151834.235000", "151834.695000", "151835.155000", "151835.615000", "151836.075000", "151836.535000", "151836.995000", "151837.455000", "151837.915000", "151838.375000", "151838.835000", "151839.295000", "151839.755000", "151840.215000", "151840.675000", "151841.135000", "151841.595000", "151842.055000", "151842.515000", "151842.975000", "151843.435000", "151843.895000", "151844.355000", "151844.815000", "151845.275000", "151845.735000", "151846.195000", "151846.655000", "151847.115000", "151847.575000", "151848.035000", "151848.495000", "151848.955000", "151849.415000", "151849.875000", "151850.335000", "151850.795000", "151851.255000", "151851.715000", "151852.175000", "151852.635000", "151853.095000", "151853.555000", "151854.015000", "151854.475000", "151854.935000", "151855.395000", "151855.855000", "151856.315000", "151856.775000", "151857.235000", "151857.695000", "151858.155000", "151858.615000", "151859.075000", "151859.535000", "151859.995000", "151900.455000", "151900.915000", "151901.375000", "151901.835000", "151902.295000", "151902.755000", "151903.215000", "151903.675000", "151904.135000", "151904.595000", "151905.055000", "151905.515000", "151905.975000", "151906.435000", "151906.895000", "151907.355000", "151907.815000", "151908.275000", "151908.735000", "151909.195000", "151909.655000", "151910.115000", "151910.575000", "151911.035000", "151911.495000", "151911.955000", "151912.415000", "151912.875000", "151913.335000", "151913.795000", "151914.255000", "151914.715000", "151915.175000", "151915.635000", "151916.095000", "151916.555000", "151917.015000", "151917.475000", "151917.935000", "151918.395000", "151918.855000", "151919.315000", "151919.775000", "151920.235000", "151920.695000", "151921.155000", "151921.615000", "151922.075000", "151922.535000", "151922.995000", "151923.455000", "151923.915000", "151924.375000", "151924.835000", "151925.295000", "151925.755000", "151926.215000", "151926.675000", "151927.135000", "151927.595000", "151928.055000", "151928.515000", "151928.975000", "151929.435000", "151929.895000", "151930.355000", "151930.815000", "151931.275000", "151931.735000", "151932.195000", "151932.655000", "151933.115000", "151933.575000", "151934.035000", "151934.495000", "151934.955000", "151935.415000", "151935.875000", "151936.335000", "151936.795000", "151937.255000", "151937.715000", "151938.175000", "151938.635000", "151939.095000", "151939.555000", "151940.015000", "151940.475000", "151940.935000", "151941.395000", "151941.855000", "151942.315000", "151942.775000", "151943.235000", "151943.695000", "151944.155000", "151944.615000", "151945.075000", "151945.535000", "151945.995000", "151946.455000", "151946.915000", "151947.375000", "151947.835000", "151948.295000", "151948.755000", "151949.215000", "151949.675000", "151950.135000", "151950.595000", "151951.055000", "151951.515000", "151951.975000", "151952.435000", "151952.895000", "151953.355000", "151953.815000", "151954.275000", "151954.735000", "151955.195000", "151955.655000", "151956.115000", "151956.575000", "151957.035000", "151957.495000", "151957.955000", "151958.415000", "151958.875000", "151959.335000", "151959.795000", "152000.255000", "152000.715000", "152001.175000", "152001.635000", "152002.095000", "152002.555000", "152003.015000", "152003.475000", "152003.935000", "152004.395000", "152004.855000", "152005.315000", "152005.775000", "152006.235000", "152006.695000", "152007.155000", "152007.615000", "152008.075000", "152008.535000", "152008.995000", "152009.455000", "152009.915000", "152010.375000", "152010.835000", "152011.295000", "152011.755000", "152012.215000", "152012.675000", "152013.135000", "152013.595000", "152014.055000", "152014.515000", "152014.975000", "152015.435000", "152015.895000", "152016.355000", "152016.815000", "152017.275000", "152017.735000", "152018.195000", "152018.655000", "152019.115000", "152019.575000", "152020.035000", "152020.495000", "152020.955000", "152021.415000", "152021.875000", "152022.335000", "152022.795000", "152023.255000", "152023.715000", "152024.175000", "152024.635000", "152025.095000", "152025.555000", "152026.015000", "152026.475000", "152026.935000", "152027.395000", "152027.855000", "152028.315000", "152028.775000", "152029.235000", "152029.695000", "152030.155000", "152030.615000", "152031.075000", "152031.535000", "152031.995000", "152032.455000", "152032.915000", "152033.375000", "152033.835000", "152034.295000", "152034.755000", "152035.215000", "152035.675000", "152036.135000", "152036.595000", "152037.055000", "152037.515000", "152037.975000", "152038.435000", "152038.895000", "152039.355000", "152039.815000", "152040.275000", "152040.735000", "152041.195000", "152041.655000", "152042.115000", "152042.575000", "152043.035000", "152043.495000", "152043.955000", "152044.415000", "152044.875000", "152045.335000", "152045.795000", "152046.255000", "152046.715000", "152047.175000", "152047.635000", "152048.095000", "152048.555000", "152049.015000", "152049.475000", "152049.935000", "152050.395000", "152050.855000", "152051.315000", "152051.775000", "152052.235000", "152052.695000", "152053.155000", "152053.615000", "152054.075000", "152054.535000", "152054.995000", "152055.455000", "152055.915000", "152056.375000", "152056.835000", "152057.295000", "152057.755000", "152058.215000", "152058.675000", "152059.135000", "152059.595000", "152100.055000", "152100.515000", "152100.975000", "152101.435000", "152101.895000", "152102.355000", "152102.815000", "152103.275000", "152103.735000", "152104.195000", "152104.655000", "152105.115000", "152105.575000", "152106.035000", "152106.495000", "152106.955000", "152107.415000", "152107.875000", "152108.335000", "152108.795000", "152109.255000", "152109.715000", "152110.175000", "152110.635000", "152111.095000", "152111.555000", "152112.015000", "152112.475000", "152112.935000", "152113.395000", "152113.855000", "152114.315000", "152114.775000", "152115.235000", "152115.695000", "152116.155000", "152116.615000", "152117.075000", "152117.535000", "152117.995000", "152118.455000", "152118.915000", "152119.375000", "152119.835000", "152120.295000", "152120.755000", "152121.215000", "152121.675000", "152122.135000", "152122.595000", "152123.055000", "152123.515000", "152123.975000", "152124.435000", "152124.895000", "152125.355000", "152125.815000", "152126.275000", "152126.735000", "152127.195000", "152127.655000", "152128.115000", "152128.575000", "152129.035000", "152129.495000", "152129.955000", "152130.415000", "152130.875000", "152131.335000", "152131.795000", "152132.255000", "152132.715000", "152133.175000", "152133.635000", "152134.095000", "152134.555000", "152135.015000", "152135.475000", "152135.935000", "152136.395000", "152136.855000", "152137.315000", "152137.775000", "152138.235000", "152138.695000", "152139.155000", "152139.615000", "152140.075000", "152140.535000", "152140.995000", "152141.455000", "152141.915000", "152142.375000", "152142.835000", "152143.295000", "152143.755000", "152144.215000", "152144.675000", "152145.135000", "152145.595000", "152146.055000", "152146.515000", "152146.975000", "152147.435000", "152147.895000", "152148.355000", "152148.815000", "152149.275000", "152149.735000", "152150.195000", "152150.655000", "152151.115000", "152151.575000", "152152.035000", "152152.495000", "152152.955000", "152153.415000", "152153.875000", "152154.335000", "152154.795000", "152155.255000", "152155.715000", "152156.175000", "152156.635000", "152157.095000", "152157.555000", "152158.015000", "152158.475000", "152158.935000", "152159.395000", "152159.855000", "152200.315000", "152200.775000", "152201.235000", "152201.695000", "152202.155000", "152202.615000", "152203.075000", "152203.535000"],
