{
  "AcquisitionMatrixPE": 82,
  "AcquisitionNumber": 1,
  "AcquisitionTime": "15:57:5.657500",
  "BandwidthPerPixelPhaseEncode": 24.888,
  "BaseResolution": 82,
  "BodyPartExamined": "BRAIN",
  "ConsistencyInfo": "N4_VE11C_LATEST_20160120",
  "ConversionSoftware": "dcm2niix",
  "ConversionSoftwareVersion": "v1.0.20201102",
  "DerivedVendorReportedEchoSpacing": 0.00049,
  "DeviceSerialNumber": "66112",
  "DwellTime": 2e-06,
  "EchoTime": 0.0272,
  "EchoTrainLength": 82,
  "EffectiveEchoSpacing": 0.00049,
  "FlipAngle": 44,
  "ImageComments": "Unaliased MB8/PE3",
  "ImageOrientationPatientDICOM": [0.998954, 0.00268722, 0.0456377, -0.0104614, 0.98522, 0.170977],
  "ImageType": [
    "ORIGINAL",
    "PRIMARY",
    "M",
    "MB",
    "ND",
    "NORM",
    "MOSAIC"
],
  "ImagingFrequency": 123.252,
  "InPlanePhaseEncodingDirectionDICOM": "COL",
  "InstitutionAddress": "Maynard 3,Hanover,NH,US,03755",
  "InstitutionName": "Dartmouth College - PBS",
  "InstitutionalDepartmentName": "Department",
  "MRAcquisitionType": "2D",
  "MagneticFieldStrength": 3,
  "Manufacturer": "Siemens",
  "ManufacturersModelName": "Prisma",
  "Modality": "MR",
  "MultibandAccelerationFactor": 8,
  "PartialFourier": 1,
  "PatientPosition": "HFS",
  "PercentPhaseFOV": 100,
  "PercentSampling": 100,
  "PhaseEncodingDirection": "j-",
  "PhaseEncodingSteps": 82,
  "PhaseResolution": 1,
  "PixelBandwidth": 3050,
  "ProcedureStepDescription": "Wager_Wager^1076_spacetop",
  "ProtocolName": "func_run-02_task-faces_acq-ap-mb8",
  "PulseSequenceDetails": "%CustomerSeq%\\cmrr_mbep2d_bold",
  "ReceiveCoilActiveElements": "HEA;HEP",
  "ReceiveCoilName": "Head_32",
  "ReconMatrixPE": 82,
  "RepetitionTime": 0.46,
  "SAR": 0.0954469,
  "ScanOptions": "FS",
  "ScanningSequence": "EP",
  "SequenceName": "epfid2d1_82",
  "SequenceVariant": "SK\\SS",
  "SeriesDescription": "func_run-02_task-faces_acq-ap-mb8",
  "SeriesNumber": 18,
  "ShimSetting": [4157, -7747, -7256, 476, -80, -26, 54, 51],
  "SliceThickness": 2.7,
  "SliceTiming": [0, 0.25, 0.0625, 0.315, 0.125, 0.3775, 0.1875, 0, 0.25, 0.0625, 0.315, 0.125, 0.3775, 0.1875, 0, 0.25, 0.0625, 0.315, 0.125, 0.3775, 0.1875, 0, 0.25, 0.0625, 0.315, 0.125, 0.3775, 0.1875, 0, 0.25, 0.0625, 0.315, 0.125, 0.3775, 0.1875, 0, 0.25, 0.0625, 0.315, 0.125, 0.3775, 0.1875, 0, 0.25, 0.0625, 0.315, 0.125, 0.3775, 0.1875, 0, 0.25, 0.0625, 0.315, 0.125, 0.3775, 0.1875],
  "SoftwareVersions": "syngo MR E11",
  "SpacingBetweenSlices": 2.7,
  "StationName": "AWP66112",
  "TaskName": "faces",
  "TotalReadoutTime": 0.03969,
  "TxRefAmp": 251.355,
  "WipMemBlock": "e3455867-56f0-4591-90f0-265e2e8b394c||Sequence: R016 ve11c/master r/e634e98; Dec 19 2017 11:00:25 by eja",
  "dcmmeta_affine": [
    [-2.680121660232544, -0.028067218139767647, 0.12015999108552933, 109.26372528076172],
    [-0.007209617178887129, 2.6432721614837646, 0.46244311332702637, -105.91155242919922],
    [0.12244260311126709, -0.45871761441230774, 2.6573874950408936, -49.01698303222656],
    [0.0, 0.0, 0.0, 1.0]
],
  "dcmmeta_reorient_transform": [
    [0.0, -1.0, 0.0, 81.0],
    [1.0, 0.0, 0.0, 0.0],
    [0.0, 0.0, 1.0, 0.0],
    [0.0, 0.0, 0.0, 1.0]
],
  "dcmmeta_shape": [82, 82, 56, 914],
  "dcmmeta_slice_dim": 2,
  "dcmmeta_version": 0.6,
  "global": {
    "const": {
      "AccessionNumber": "A003535",
      "AcquisitionMatrix": [82, 0, 0, 82],
      "AngioFlag": "N",
      "BitsAllocated": 16,
      "BitsStored": 16,
      "BodyPartExamined": "BRAIN",
      "Columns": 656,
      "EchoNumbers": 1,
      "EchoTime": 27.2,
      "EchoTrainLength": 82,
      "FlipAngle": 44.0,
      "HighBit": 15,
      "ImageOrientationPatient": [0.99895444313757, 0.00268722094789, 0.04563769691049, -0.0104614171408, 0.98521955628193, 0.17097656175934],
      "ImagePositionPatient": [-868.12992585865, -868.88171687472, -252.96609126722],
      "ImageType": [
        "ORIGINAL",
        "PRIMARY",
        "M",
        "MB",
        "ND",
        "NORM",
        "MOSAIC"
],
      "ImagedNucleus": "1H",
      "ImagingFrequency": 123.252162,
      "InPlanePhaseEncodingDirection": "COL",
      "MRAcquisitionType": "2D",
      "MagneticFieldStrength": 3.0,
      "Manufacturer": "SIEMENS",
      "ManufacturerModelName": "Prisma",
      "Modality": "MR",
      "NumberOfAverages": 1.0,
      "NumberOfPhaseEncodingSteps": 82,
      "PercentPhaseFieldOfView": 100.0,
      "PercentSampling": 100.0,
      "PerformedProcedureStepStartTime": "144428.811000",
      "PhotometricInterpretation": "MONOCHROME2",
      "PixelBandwidth": 3050.0,
      "PixelRepresentation": 0,
      "PixelSpacing": [2.6829268932343, 2.6829268932343],
      "ProtocolName": "func_run-02_task-faces_acq-ap-mb8",
      "RepetitionTime": 460.0,
      "Rows": 656,
      "SAR": 0.09544693370067,
      "SamplesPerPixel": 1,
      "ScanOptions": "FS",
      "ScanningSequence": "EP",
      "SequenceName": "epfid2d1_82",
      "SequenceVariant": [
        "SK",
        "SS"
],
      "SeriesDescription": "func_run-02_task-faces_acq-ap-mb8",
      "SeriesNumber": 18,
      "SeriesTime": "155723.357000",
      "SliceLocation": -61.520760149093,
      "SliceThickness": 2.7000000476837,
      "SmallestImagePixelValue": 0,
      "SoftwareVersions": "syngo MR E11",
      "SpacingBetweenSlices": 2.6999999748409,
      "SpecificCharacterSet": "ISO_IR 100",
      "StudyID": "1",
      "StudyTime": "144428.752000",
      "TransmitCoilName": "Body",
      "VariableFlipAngleFlag": "N",
      "WindowCenterWidthExplanation": "Algo1",
      "dBdt": 0.0},
    "slices": {}
  },
  "time": {
    "samples": {
      "AcquisitionNumber": [1, 2, 3, 4, 5, 6, 7, 8, 9, 10, 11, 12, 13, 14, 15, 16, 17, 18, 19, 20, 21, 22, 23, 24, 25, 26, 27, 28, 29, 30, 31, 32, 33, 34, 35, 36, 37, 38, 39, 40, 41, 42, 43, 44, 45, 46, 47, 48, 49, 50, 51, 52, 53, 54, 55, 56, 57, 58, 59, 60, 61, 62, 63, 64, 65, 66, 67, 68, 69, 70, 71, 72, 73, 74, 75, 76, 77, 78, 79, 80, 81, 82, 83, 84, 85, 86, 87, 88, 89, 90, 91, 92, 93, 94, 95, 96, 97, 98, 99, 100, 101, 102, 103, 104, 105, 106, 107, 108, 109, 110, 111, 112, 113, 114, 115, 116, 117, 118, 119, 120, 121, 122, 123, 124, 125, 126, 127, 128, 129, 130, 131, 132, 133, 134, 135, 136, 137, 138, 139, 140, 141, 142, 143, 144, 145, 146, 147, 148, 149, 150, 151, 152, 153, 154, 155, 156, 157, 158, 159, 160, 161, 162, 163, 164, 165, 166, 167, 168, 169, 170, 171, 172, 173, 174, 175, 176, 177, 178, 179, 180, 181, 182, 183, 184, 185, 186, 187, 188, 189, 190, 191, 192, 193, 194, 195, 196, 197, 198, 199, 200, 201, 202, 203, 204, 205, 206, 207, 208, 209, 210, 211, 212, 213, 214, 215, 216, 217, 218, 219, 220, 221, 222, 223, 224, 225, 226, 227, 228, 229, 230, 231, 232, 233, 234, 235, 236, 237, 238, 239, 240, 241, 242, 243, 244, 245, 246, 247, 248, 249, 250, 251, 252, 253, 254, 255, 256, 257, 258, 259, 260, 261, 262, 263, 264, 265, 266, 267, 268, 269, 270, 271, 272, 273, 274, 275, 276, 277, 278, 279, 280, 281, 282, 283, 284, 285, 286, 287, 288, 289, 290, 291, 292, 293, 294, 295, 296, 297, 298, 299, 300, 301, 302, 303, 304, 305, 306, 307, 308, 309, 310, 311, 312, 313, 314, 315, 316, 317, 318, 319, 320, 321, 322, 323, 324, 325, 326, 327, 328, 329, 330, 331, 332, 333, 334, 335, 336, 337, 338, 339, 340, 341, 342, 343, 344, 345, 346, 347, 348, 349, 350, 351, 352, 353, 354, 355, 356, 357, 358, 359, 360, 361, 362, 363, 364, 365, 366, 367, 368, 369, 370, 371, 372, 373, 374, 375, 376, 377, 378, 379, 380, 381, 382, 383, 384, 385, 386, 387, 388, 389, 390, 391, 392, 393, 394, 395, 396, 397, 398, 399, 400, 401, 402, 403, 404, 405, 406, 407, 408, 409, 410, 411, 412, 413, 414, 415, 416, 417, 418, 419, 420, 421, 422, 423, 424, 425, 426, 427, 428, 429, 430, 431, 432, 433, 434, 435, 436, 437, 438, 439, 440, 441, 442, 443, 444, 445, 446, 447, 448, 449, 450, 451, 452, 453, 454, 455, 456, 457, 458, 459, 460, 461, 462, 463, 464, 465, 466, 467, 468, 469, 470, 471, 472, 473, 474, 475, 476, 477, 478, 479, 480, 481, 482, 483, 484, 485, 486, 487, 488, 489, 490, 491, 492, 493, 494, 495, 496, 497, 498, 499, 500, 501, 502, 503, 504, 505, 506, 507, 508, 509, 510, 511, 512, 513, 514, 515, 516, 517, 518, 519, 520, 521, 522, 523, 524, 525, 526, 527, 528, 529, 530, 531, 532, 533, 534, 535, 536, 537, 538, 539, 540, 541, 542, 543, 544, 545, 546, 547, 548, 549, 550, 551, 552, 553, 554, 555, 556, 557, 558, 559, 560, 561, 562, 563, 564, 565, 566, 567, 568, 569, 570, 571, 572, 573, 574, 575, 576, 577, 578, 579, 580, 581, 582, 583, 584, 585, 586, 587, 588, 589, 590, 591, 592, 593, 594, 595, 596, 597, 598, 599, 600, 601, 602, 603, 604, 605, 606, 607, 608, 609, 610, 611, 612, 613, 614, 615, 616, 617, 618, 619, 620, 621, 622, 623, 624, 625, 626, 627, 628, 629, 630, 631, 632, 633, 634, 635, 636, 637, 638, 639, 640, 641, 642, 643, 644, 645, 646, 647, 648, 649, 650, 651, 652, 653, 654, 655, 656, 657, 658, 659, 660, 661, 662, 663, 664, 665, 666, 667, 668, 669, 670, 671, 672, 673, 674, 675, 676, 677, 678, 679, 680, 681, 682, 683, 684, 685, 686, 687, 688, 689, 690, 691, 692, 693, 694, 695, 696, 697, 698, 699, 700, 701, 702, 703, 704, 705, 706, 707, 708, 709, 710, 711, 712, 713, 714, 715, 716, 717, 718, 719, 720, 721, 722, 723, 724, 725, 726, 727, 728, 729, 730, 731, 732, 733, 734, 735, 736, 737, 738, 739, 740, 741, 742, 743, 744, 745, 746, 747, 748, 749, 750, 751, 752, 753, 754, 755, 756, 757, 758, 759, 760, 761, 762, 763, 764, 765, 766, 767, 768, 769, 770, 771, 772, 773, 774, 775, 776, 777, 778, 779, 780, 781, 782, 783, 784, 785, 786, 787, 788, 789, 790, 791, 792, 793, 794, 795, 796, 797, 798, 799, 800, 801, 802, 803, 804, 805, 806, 807, 808, 809, 810, 811, 812, 813, 814, 815, 816, 817, 818, 819, 820, 821, 822, 823, 824, 825, 826, 827, 828, 829, 830, 831, 832, 833, 834, 835, 836, 837, 838, 839, 840, 841, 842, 843, 844, 845, 846, 847, 848, 849, 850, 851, 852, 853, 854, 855, 856, 857, 858, 859, 860, 861, 862, 863, 864, 865, 866, 867, 868, 869, 870, 871, 872, 873, 874, 875, 876, 877, 878, 879, 880, 881, 882, 883, 884, 885, 886, 887, 888, 889, 890, 891, 892, 893, 894, 895, 896, 897, 898, 899, 900, 901, 902, 903, 904, 905, 906, 907, 908, 909, 910, 911, 912, 913, 914],
      "AcquisitionTime": ["155705.657500", "155706.117500", "155706.577500", "155707.037500", "155707.497500", "155707.957500", "155708.417500", "155708.877500", "155709.337500", "155709.797500", "155710.257500", "155710.717500", "155711.177500", "155711.637500", "155712.097500", "155712.557500", "155713.017500", "155713.477500", "155713.937500", "155714.397500", "155714.857500", "155715.317500", "155715.777500", "155716.237500", "155716.697500", "155717.157500", "155717.617500", "155718.077500", "155718.537500", "155718.997500", "155719.457500", "155719.917500", "155720.377500", "155720.837500", "155721.297500", "155721.757500", "155722.217500", "155722.677500", "155723.137500", "155723.597500", "155724.057500", "155724.517500", "155724.977500", "155725.437500", "155725.897500", "155726.357500", "155726.817500", "155727.277500", "155727.737500", "155728.197500", "155728.657500", "155729.117500", "155729.577500", "155730.037500", "155730.497500", "155730.957500", "155731.417500", "155731.877500", "155732.337500", "155732.797500", "155733.257500", "155733.717500", "155734.177500", "155734.637500", "155735.097500", "155735.557500", "155736.017500", "155736.477500", "155736.937500", "155737.397500", "155737.857500", "155738.317500", "155738.777500", "155739.237500", "155739.697500", "155740.157500", "155740.617500", "155741.077500", "155741.537500", "155741.997500", "155742.457500", "155742.917500", "155743.377500", "155743.837500", "155744.297500", "155744.757500", "155745.217500", "155745.677500", "155746.137500", "155746.597500", "155747.057500", "155747.517500", "155747.977500", "155748.437500", "155748.897500", "155749.357500", "155749.817500", "155750.277500", "155750.737500", "155751.197500", "155751.657500", "155752.117500", "155752.577500", "155753.037500", "155753.497500", "155753.957500", "155754.417500", "155754.877500", "155755.337500", "155755.797500", "155756.257500", "155756.717500", "155757.177500", "155757.637500", "155758.097500", "155758.557500", "155759.017500", "155759.477500", "155759.937500", "155800.397500", "155800.857500", "155801.317500", "155801.777500", "155802.237500", "155802.697500", "155803.157500", "155803.617500", "155804.077500", "155804.537500", "155804.997500", "155805.457500", "155805.917500", "155806.377500", "155806.837500", "155807.297500", "155807.757500", "155808.217500", "155808.677500", "155809.137500", "155809.597500", "155810.057500", "155810.517500", "155810.977500", "155811.437500", "155811.897500", "155812.357500", "155812.817500", "155813.277500", "155813.737500", "155814.197500", "155814.657500", "155815.117500", "155815.577500", "155816.037500", "155816.497500", "155816.957500", "155817.417500", "155817.877500", "155818.337500", "155818.797500", "155819.257500", "155819.717500", "155820.177500", "155820.637500", "155821.097500", "155821.557500", "155822.017500", "155822.477500", "155822.937500", "155823.397500", "155823.857500", "155824.317500", "155824.777500", "155825.237500", "155825.697500", "155826.157500", "155826.617500", "155827.077500", "155827.537500", "155827.997500", "155828.457500", "155828.917500", "155829.377500", "155829.837500", "155830.297500", "155830.757500", "155831.217500", "155831.677500", "155832.137500", "155832.597500", "155833.057500", "155833.517500", "155833.977500", "155834.437500", "155834.897500", "155835.357500", "155835.817500", "155836.277500", "155836.737500", "155837.197500", "155837.657500", "155838.117500", "155838.577500", "155839.037500", "155839.497500", "155839.957500", "155840.417500", "155840.877500", "155841.337500", "155841.797500", "155842.257500", "155842.717500", "155843.177500", "155843.637500", "155844.097500", "155844.557500", "155845.017500", "155845.477500", "155845.937500", "155846.397500", "155846.857500", "155847.317500", "155847.777500", "155848.237500", "155848.697500", "155849.157500", "155849.617500", "155850.077500", "155850.537500", "155850.997500", "155851.457500", "155851.917500", "155852.377500", "155852.837500", "155853.297500", "155853.757500", "155854.217500", "155854.677500", "155855.137500", "155855.597500", "155856.057500", "155856.517500", "155856.977500", "155857.437500", "155857.897500", "155858.357500", "155858.817500", "155859.277500", "155859.737500", "155900.197500", "155900.657500", "155901.117500", "155901.577500", "155902.037500", "155902.497500", "155902.957500", "155903.417500", "155903.877500", "155904.337500", "155904.797500", "155905.257500", "155905.717500", "155906.177500", "155906.637500", "155907.097500", "155907.557500", "155908.017500", "155908.477500", "155908.937500", "155909.397500", "155909.857500", "155910.317500", "155910.777500", "155911.237500", "155911.697500", "155912.157500", "155912.617500", "155913.077500", "155913.537500", "155913.997500", "155914.457500", "155914.917500", "155915.377500", "155915.837500", "155916.297500", "155916.757500", "155917.217500", "155917.677500", "155918.137500", "155918.597500", "155919.057500", "155919.517500", "155919.977500", "155920.437500", "155920.897500", "155921.357500", "155921.817500", "155922.277500", "155922.737500", "155923.197500", "155923.657500", "155924.117500", "155924.577500", "155925.037500", "155925.497500", "155925.957500", "155926.417500", "155926.877500", "155927.337500", "155927.797500", "155928.257500", "155928.717500", "155929.177500", "155929.637500", "155930.097500", "155930.557500", "155931.017500", "155931.477500", "155931.937500", "155932.397500", "155932.857500", "155933.317500", "155933.777500", "155934.237500", "155934.697500", "155935.157500", "155935.617500", "155936.077500", "155936.537500", "155936.997500", "155937.457500", "155937.917500", "155938.377500", "155938.837500", "155939.297500", "155939.757500", "155940.217500", "155940.677500", "155941.137500", "155941.597500", "155942.057500", "155942.517500", "155942.977500", "155943.437500", "155943.897500", "155944.357500", "155944.817500", "155945.277500", "155945.737500", "155946.197500", "155946.657500", "155947.117500", "155947.577500", "155948.037500", "155948.497500", "155948.957500", "155949.417500", "155949.877500", "155950.337500", "155950.797500", "155951.257500", "155951.717500", "155952.177500", "155952.637500", "155953.097500", "155953.557500", "155954.017500", "155954.477500", "155954.937500", "155955.397500", "155955.857500", "155956.317500", "155956.777500", "155957.237500", "155957.697500", "155958.157500", "155958.617500", "155959.077500", "155959.537500", "155959.997500", "160000.457500", "160000.917500", "160001.377500", "160001.837500", "160002.297500", "160002.757500", "160003.217500", "160003.677500", "160004.137500", "160004.597500", "160005.057500", "160005.517500", "160005.977500", "160006.437500", "160006.897500", "160007.357500", "160007.817500", "160008.277500", "160008.737500", "160009.197500", "160009.657500", "160010.117500", "160010.577500", "160011.037500", "160011.497500", "160011.957500", "160012.417500", "160012.877500", "160013.337500", "160013.797500", "160014.257500", "160014.717500", "160015.177500", "160015.637500", "160016.097500", "160016.557500", "160017.017500", "160017.477500", "160017.937500", "160018.397500", "160018.857500", "160019.317500", "160019.777500", "160020.237500", "160020.697500", "160021.157500", "160021.617500", "160022.077500", "160022.537500", "160022.997500", "160023.457500", "160023.917500", "160024.377500", "160024.837500", "160025.297500", "160025.757500", "160026.217500", "160026.677500", "160027.137500", "160027.597500", "160028.057500", "160028.517500", "160028.977500", "160029.437500", "160029.897500", "160030.357500", "160030.817500", "160031.277500", "160031.737500", "160032.197500", "160032.657500", "160033.117500", "160033.577500", "160034.037500", "160034.497500", "160034.957500", "160035.417500", "160035.877500", "160036.337500", "160036.797500", "160037.257500", "160037.717500", "160038.177500", "160038.637500", "160039.097500", "160039.557500", "160040.017500", "160040.477500", "160040.937500", "160041.397500", "160041.857500", "160042.317500", "160042.777500", "160043.237500", "160043.697500", "160044.157500", "160044.617500", "160045.077500", "160045.537500", "160045.997500", "160046.457500", "160046.917500", "160047.377500", "160047.837500", "160048.297500", "160048.757500", "160049.217500", "160049.677500", "160050.137500", "160050.597500", "160051.057500", "160051.517500", "160051.977500", "160052.437500", "160052.897500", "160053.357500", "160053.817500", "160054.277500", "160054.737500", "160055.197500", "160055.657500", "160056.117500", "160056.577500", "160057.037500", "160057.497500", "160057.957500", "160058.417500", "160058.877500", "160059.337500", "160059.797500", "160100.257500", "160100.717500", "160101.177500", "160101.637500", "160102.097500", "160102.557500", "160103.017500", "160103.477500", "160103.937500", "160104.397500", "160104.857500", "160105.317500", "160105.777500", "160106.237500", "160106.697500", "160107.157500", "160107.617500", "160108.077500", "160108.537500", "160108.997500", "160109.457500", "160109.917500", "160110.377500", "160110.837500", "160111.297500", "160111.757500", "160112.217500", "160112.677500", "160113.137500", "160113.597500", "160114.057500", "160114.517500", "160114.977500", "160115.437500", "160115.897500", "160116.357500", "160116.817500", "160117.277500", "160117.737500", "160118.197500", "160118.657500", "160119.117500", "160119.577500", "160120.037500", "160120.497500", "160120.957500", "160121.417500", "160121.877500", "160122.337500", "160122.797500", "160123.257500", "160123.717500", "160124.177500", "160124.637500", "160125.097500", "160125.557500", "160126.017500", "160126.477500", "160126.937500", "160127.397500", "160127.857500", "160128.317500", "160128.777500", "160129.237500", "160129.697500", "160130.157500", "160130.617500", "160131.077500", "160131.537500", "160131.997500", "160132.457500", "160132.917500", "160133.377500", "160133.837500", "160134.297500", "160134.757500", "160135.217500", "160135.677500", "160136.137500", "160136.597500", "160137.057500", "160137.517500", "160137.977500", "160138.437500", "160138.897500", "160139.357500", "160139.817500", "160140.277500", "160140.737500", "160141.197500", "160141.657500", "160142.117500", "160142.577500", "160143.037500", "160143.497500", "160143.957500", "160144.417500", "160144.877500", "160145.337500", "160145.797500", "160146.257500", "160146.717500", "160147.177500", "160147.637500", "160148.097500", "160148.557500", "160149.017500", "160149.477500", "160149.937500", "160150.397500", "160150.857500", "160151.317500", "160151.777500", "160152.237500", "160152.697500", "160153.157500", "160153.617500", "160154.077500", "160154.537500", "160154.997500", "160155.457500", "160155.917500", "160156.377500", "160156.837500", "160157.297500", "160157.757500", "160158.217500", "160158.677500", "160159.137500", "160159.597500", "160200.057500", "160200.517500", "160200.977500", "160201.437500", "160201.897500", "160202.357500", "160202.817500", "160203.277500", "160203.737500", "160204.197500", "160204.657500", "160205.117500", "160205.577500", "160206.037500", "160206.497500", "160206.957500", "160207.417500", "160207.877500", "160208.337500", "160208.797500", "160209.257500", "160209.717500", "160210.177500", "160210.637500", "160211.097500", "160211.557500", "160212.017500", "160212.477500", "160212.937500", "160213.397500", "160213.857500", "160214.317500", "160214.777500", "160215.237500", "160215.697500", "160216.157500", "160216.617500", "160217.077500", "160217.537500", "160217.997500", "160218.457500", "160218.917500", "160219.377500", "160219.837500", "160220.297500", "160220.757500", "160221.217500", "160221.677500", "160222.137500", "160222.597500", "160223.057500", "160223.517500", "160223.977500", "160224.437500", "160224.897500", "160225.357500", "160225.817500", "160226.277500", "160226.737500", "160227.197500", "160227.657500", "160228.117500", "160228.577500", "160229.037500", "160229.497500", "160229.957500", "160230.417500", "160230.877500", "160231.337500", "160231.797500", "160232.257500", "160232.717500", "160233.177500", "160233.637500", "160234.097500", "160234.557500", "160235.017500", "160235.477500", "160235.937500", "160236.397500", "160236.857500", "160237.317500", "160237.777500", "160238.237500", "160238.697500", "160239.157500", "160239.617500", "160240.077500", "160240.537500", "160240.997500", "160241.457500", "160241.917500", "160242.377500", "160242.837500", "160243.297500", "160243.757500", "160244.217500", "160244.677500", "160245.137500", "160245.597500", "160246.057500", "160246.517500", "160246.977500", "160247.437500", "160247.897500", "160248.357500", "160248.817500", "160249.277500", "160249.737500", "160250.197500", "160250.657500", "160251.117500", "160251.577500", "160252.037500", "160252.497500", "160252.957500", "160253.417500", "160253.877500", "160254.337500", "160254.797500", "160255.257500", "160255.717500", "160256.177500", "160256.637500", "160257.097500", "160257.557500", "160258.017500", "160258.477500", "160258.937500", "160259.397500", "160259.857500", "160300.317500", "160300.777500", "160301.237500", "160301.697500", "160302.157500", "160302.617500", "160303.077500", "160303.537500", "160303.997500", "160304.457500", "160304.917500", "160305.377500", "160305.837500", "160306.297500", "160306.757500", "160307.217500", "160307.677500", "160308.137500", "160308.597500", "160309.057500", "160309.517500", "160309.977500", "160310.437500", "160310.897500", "160311.357500", "160311.817500", "160312.277500", "160312.737500", "160313.197500", "160313.657500", "160314.117500", "160314.577500", "160315.037500", "160315.497500", "160315.957500", "160316.417500", "160316.877500", "160317.337500", "160317.797500", "160318.257500", "160318.717500", "160319.177500", "160319.637500", "160320.097500", "160320.557500", "160321.017500", "160321.477500", "160321.937500", "160322.397500", "160322.857500", "160323.317500", "160323.777500", "160324.237500", "160324.697500", "160325.157500", "160325.617500", "160326.077500", "160326.537500", "160326.997500", "160327.457500", "160327.917500", "160328.377500", "160328.837500", "160329.297500", "160329.757500", "160330.217500", "160330.677500", "160331.137500", "160331.597500", "160332.057500", "160332.517500", "160332.977500", "160333.437500", "160333.897500", "160334.357500", "160334.817500", "160335.277500", "160335.737500", "160336.197500", "160336.657500", "160337.117500", "160337.577500", "160338.037500", "160338.497500", "160338.957500", "160339.417500", "160339.877500", "160340.337500", "160340.797500", "160341.257500", "160341.717500", "160342.177500", "160342.637500", "160343.097500", "160343.557500", "160344.017500", "160344.477500", "160344.937500", "160345.397500", "160345.857500", "160346.317500", "160346.777500", "160347.237500", "160347.697500", "160348.157500", "160348.617500", "160349.077500", "160349.537500", "160349.997500", "160350.457500", "160350.917500", "160351.377500", "160351.837500", "160352.297500", "160352.757500", "160353.217500", "160353.677500", "160354.137500", "160354.597500", "160355.057500", "160355.517500", "160355.977500", "160356.437500", "160356.897500", "160357.357500", "160357.817500", "160358.277500", "160358.737500", "160359.197500", "160359.657500", "160400.117500", "160400.577500", "160401.037500", "160401.497500", "160401.957500", "160402.417500", "160402.877500", "160403.337500", "160403.797500", "160404.257500", "160404.717500", "160405.177500", "160405.637500"],
