{
  "AcquisitionMatrixPE": 82,
  "AcquisitionNumber": 1,
  "AcquisitionTime": "16:46:50.880000",
  "BandwidthPerPixelPhaseEncode": 24.888,
  "BaseResolution": 82,
  "BodyPartExamined": "BRAIN",
  "ConsistencyInfo": "N4_VE11C_LATEST_20160120",
  "ConversionSoftware": "dcm2niix",
  "ConversionSoftwareVersion": "v1.0.20201102",
  "DerivedVendorReportedEchoSpacing": 0.00049,
  "DeviceSerialNumber": "66112",
  "DwellTime": 2e-06,
  "EchoTime": 0.0272,
  "EchoTrainLength": 82,
  "EffectiveEchoSpacing": 0.00049,
  "FlipAngle": 44,
  "ImageComments": "Unaliased MB8/PE3",
  "ImageOrientationPatientDICOM": [0.999797, 0.00487625, 0.0195291, -0.00785256, 0.987826, 0.155362],
  "ImageType": [
    "ORIGINAL",
    "PRIMARY",
    "M",
    "MB",
    "ND",
    "NORM",
    "MOSAIC"
],
  "ImagingFrequency": 123.252,
  "InPlanePhaseEncodingDirectionDICOM": "COL",
  "InstitutionAddress": "Maynard 3,Hanover,NH,US,03755",
  "InstitutionName": "Dartmouth College - PBS",
  "InstitutionalDepartmentName": "Department",
  "MRAcquisitionType": "2D",
  "MagneticFieldStrength": 3,
  "Manufacturer": "Siemens",
  "ManufacturersModelName": "Prisma",
  "Modality": "MR",
  "MultibandAccelerationFactor": 8,
  "PartialFourier": 1,
  "PatientPosition": "HFS",
  "PercentPhaseFOV": 100,
  "PercentSampling": 100,
  "PhaseEncodingDirection": "j-",
  "PhaseEncodingSteps": 82,
  "PhaseResolution": 1,
  "PixelBandwidth": 3050,
  "ProcedureStepDescription": "Wager_Wager^1076_spacetop",
  "ProtocolName": "func_run-04_task-alignvideo_acq-ap-mb8",
  "PulseSequenceDetails": "%CustomerSeq%\\cmrr_mbep2d_bold",
  "ReceiveCoilActiveElements": "HEA;HEP",
  "ReceiveCoilName": "Head_32",
  "ReconMatrixPE": 82,
  "RepetitionTime": 0.46,
  "SAR": 0.0954469,
  "ScanOptions": "FS",
  "ScanningSequence": "EP",
  "SequenceName": "epfid2d1_82",
  "SequenceVariant": "SK\\SS",
  "SeriesDescription": "func_run-04_task-alignvideo_acq-ap-mb8",
  "SeriesNumber": 34,
  "ShimSetting": [4156, -7745, -7253, 477, -90, -8, 62, 54],
  "SliceThickness": 2.7,
  "SliceTiming": [0, 0.25, 0.0625, 0.3125, 0.125, 0.3775, 0.1875, 0, 0.25, 0.0625, 0.3125, 0.125, 0.3775, 0.1875, 0, 0.25, 0.0625, 0.3125, 0.125, 0.3775, 0.1875, 0, 0.25, 0.0625, 0.3125, 0.125, 0.3775, 0.1875, 0, 0.25, 0.0625, 0.3125, 0.125, 0.3775, 0.1875, 0, 0.25, 0.0625, 0.3125, 0.125, 0.3775, 0.1875, 0, 0.25, 0.0625, 0.3125, 0.125, 0.3775, 0.1875, 0, 0.25, 0.0625, 0.3125, 0.125, 0.3775, 0.1875],
  "SoftwareVersions": "syngo MR E11",
  "SpacingBetweenSlices": 2.7,
  "StationName": "AWP66112",
  "TaskName": "alignvideo",
  "TotalReadoutTime": 0.03969,
  "TxRefAmp": 251.355,
  "WipMemBlock": "8d03188b-4ec4-4b5e-bbf0-09c975079dd4||Sequence: R016 ve11c/master r/e634e98; Dec 19 2017 11:00:25 by eja",
  "dcmmeta_affine": [
    [-2.6823832988739014, -0.02106783166527748, 0.050041314214468, 110.91128540039062],
    [-0.013082612305879593, 2.650266170501709, 0.41980546712875366, -109.26676940917969],
    [0.052395258098840714, -0.4168238937854767, 2.666694402694702, -40.97767639160156],
    [0.0, 0.0, 0.0, 1.0]
],
  "dcmmeta_reorient_transform": [
    [0.0, -1.0, 0.0, 81.0],
    [1.0, 0.0, 0.0, 0.0],
    [0.0, 0.0, 1.0, 0.0],
    [0.0, 0.0, 0.0, 1.0]
],
  "dcmmeta_shape": [82, 82, 56, 914],
  "dcmmeta_slice_dim": 2,
  "dcmmeta_version": 0.6,
  "global": {
    "const": {
      "AccessionNumber": "A003535",
      "AcquisitionMatrix": [82, 0, 0, 82],
      "AngioFlag": "N",
      "BitsAllocated": 16,
      "BitsStored": 16,
      "BodyPartExamined": "BRAIN",
      "Columns": 656,
      "EchoNumbers": 1,
      "EchoTime": 27.2,
      "EchoTrainLength": 82,
      "FlipAngle": 44.0,
      "HighBit": 15,
      "ImageOrientationPatient": [0.99979739691905, 0.00487624638227, 0.01952914066513, -0.0078525553335, 0.98782645229289, 0.15536163466305],
      "ImagePositionPatient": [-873.00233971011, -869.78588157611, -209.40631210561],
      "ImageType": [
        "ORIGINAL",
        "PRIMARY",
        "M",
        "MB",
        "ND",
        "NORM",
        "MOSAIC"
],
      "ImagedNucleus": "1H",
      "ImagingFrequency": 123.25217,
      "InPlanePhaseEncodingDirection": "COL",
      "MRAcquisitionType": "2D",
      "MagneticFieldStrength": 3.0,
      "Manufacturer": "SIEMENS",
      "ManufacturerModelName": "Prisma",
      "Modality": "MR",
      "NumberOfAverages": 1.0,
      "NumberOfPhaseEncodingSteps": 82,
      "PercentPhaseFieldOfView": 100.0,
      "PercentSampling": 100.0,
      "PerformedProcedureStepStartTime": "144428.811000",
      "PhotometricInterpretation": "MONOCHROME2",
      "PixelBandwidth": 3050.0,
      "PixelRepresentation": 0,
      "PixelSpacing": [2.6829268932343, 2.6829268932343],
      "ProtocolName": "func_run-04_task-alignvideo_acq-ap-mb8",
      "RepetitionTime": 460.0,
      "Rows": 656,
      "SAR": 0.09544693370067,
      "SamplesPerPixel": 1,
      "ScanOptions": "FS",
      "ScanningSequence": "EP",
      "SequenceName": "epfid2d1_82",
      "SequenceVariant": [
        "SK",
        "SS"
],
      "SeriesDescription": "func_run-04_task-alignvideo_acq-ap-mb8",
      "SeriesNumber": 34,
      "SeriesTime": "164703.501000",
      "SliceLocation": -55.405771342848,
      "SliceThickness": 2.7000000476837,
      "SmallestImagePixelValue": 0,
      "SoftwareVersions": "syngo MR E11",
      "SpacingBetweenSlices": 2.6999999264189,
      "SpecificCharacterSet": "ISO_IR 100",
      "StudyID": "1",
      "StudyTime": "144428.752000",
      "TransmitCoilName": "Body",
      "VariableFlipAngleFlag": "N",
      "WindowCenterWidthExplanation": "Algo1",
      "dBdt": 0.0},
    "slices": {}
  },
  "time": {
    "samples": {
      "AcquisitionNumber": [1, 2, 3, 4, 5, 6, 7, 8, 9, 10, 11, 12, 13, 14, 15, 16, 17, 18, 19, 20, 21, 22, 23, 24, 25, 26, 27, 28, 29, 30, 31, 32, 33, 34, 35, 36, 37, 38, 39, 40, 41, 42, 43, 44, 45, 46, 47, 48, 49, 50, 51, 52, 53, 54, 55, 56, 57, 58, 59, 60, 61, 62, 63, 64, 65, 66, 67, 68, 69, 70, 71, 72, 73, 74, 75, 76, 77, 78, 79, 80, 81, 82, 83, 84, 85, 86, 87, 88, 89, 90, 91, 92, 93, 94, 95, 96, 97, 98, 99, 100, 101, 102, 103, 104, 105, 106, 107, 108, 109, 110, 111, 112, 113, 114, 115, 116, 117, 118, 119, 120, 121, 122, 123, 124, 125, 126, 127, 128, 129, 130, 131, 132, 133, 134, 135, 136, 137, 138, 139, 140, 141, 142, 143, 144, 145, 146, 147, 148, 149, 150, 151, 152, 153, 154, 155, 156, 157, 158, 159, 160, 161, 162, 163, 164, 165, 166, 167, 168, 169, 170, 171, 172, 173, 174, 175, 176, 177, 178, 179, 180, 181, 182, 183, 184, 185, 186, 187, 188, 189, 190, 191, 192, 193, 194, 195, 196, 197, 198, 199, 200, 201, 202, 203, 204, 205, 206, 207, 208, 209, 210, 211, 212, 213, 214, 215, 216, 217, 218, 219, 220, 221, 222, 223, 224, 225, 226, 227, 228, 229, 230, 231, 232, 233, 234, 235, 236, 237, 238, 239, 240, 241, 242, 243, 244, 245, 246, 247, 248, 249, 250, 251, 252, 253, 254, 255, 256, 257, 258, 259, 260, 261, 262, 263, 264, 265, 266, 267, 268, 269, 270, 271, 272, 273, 274, 275, 276, 277, 278, 279, 280, 281, 282, 283, 284, 285, 286, 287, 288, 289, 290, 291, 292, 293, 294, 295, 296, 297, 298, 299, 300, 301, 302, 303, 304, 305, 306, 307, 308, 309, 310, 311, 312, 313, 314, 315, 316, 317, 318, 319, 320, 321, 322, 323, 324, 325, 326, 327, 328, 329, 330, 331, 332, 333, 334, 335, 336, 337, 338, 339, 340, 341, 342, 343, 344, 345, 346, 347, 348, 349, 350, 351, 352, 353, 354, 355, 356, 357, 358, 359, 360, 361, 362, 363, 364, 365, 366, 367, 368, 369, 370, 371, 372, 373, 374, 375, 376, 377, 378, 379, 380, 381, 382, 383, 384, 385, 386, 387, 388, 389, 390, 391, 392, 393, 394, 395, 396, 397, 398, 399, 400, 401, 402, 403, 404, 405, 406, 407, 408, 409, 410, 411, 412, 413, 414, 415, 416, 417, 418, 419, 420, 421, 422, 423, 424, 425, 426, 427, 428, 429, 430, 431, 432, 433, 434, 435, 436, 437, 438, 439, 440, 441, 442, 443, 444, 445, 446, 447, 448, 449, 450, 451, 452, 453, 454, 455, 456, 457, 458, 459, 460, 461, 462, 463, 464, 465, 466, 467, 468, 469, 470, 471, 472, 473, 474, 475, 476, 477, 478, 479, 480, 481, 482, 483, 484, 485, 486, 487, 488, 489, 490, 491, 492, 493, 494, 495, 496, 497, 498, 499, 500, 501, 502, 503, 504, 505, 506, 507, 508, 509, 510, 511, 512, 513, 514, 515, 516, 517, 518, 519, 520, 521, 522, 523, 524, 525, 526, 527, 528, 529, 530, 531, 532, 533, 534, 535, 536, 537, 538, 539, 540, 541, 542, 543, 544, 545, 546, 547, 548, 549, 550, 551, 552, 553, 554, 555, 556, 557, 558, 559, 560, 561, 562, 563, 564, 565, 566, 567, 568, 569, 570, 571, 572, 573, 574, 575, 576, 577, 578, 579, 580, 581, 582, 583, 584, 585, 586, 587, 588, 589, 590, 591, 592, 593, 594, 595, 596, 597, 598, 599, 600, 601, 602, 603, 604, 605, 606, 607, 608, 609, 610, 611, 612, 613, 614, 615, 616, 617, 618, 619, 620, 621, 622, 623, 624, 625, 626, 627, 628, 629, 630, 631, 632, 633, 634, 635, 636, 637, 638, 639, 640, 641, 642, 643, 644, 645, 646, 647, 648, 649, 650, 651, 652, 653, 654, 655, 656, 657, 658, 659, 660, 661, 662, 663, 664, 665, 666, 667, 668, 669, 670, 671, 672, 673, 674, 675, 676, 677, 678, 679, 680, 681, 682, 683, 684, 685, 686, 687, 688, 689, 690, 691, 692, 693, 694, 695, 696, 697, 698, 699, 700, 701, 702, 703, 704, 705, 706, 707, 708, 709, 710, 711, 712, 713, 714, 715, 716, 717, 718, 719, 720, 721, 722, 723, 724, 725, 726, 727, 728, 729, 730, 731, 732, 733, 734, 735, 736, 737, 738, 739, 740, 741, 742, 743, 744, 745, 746, 747, 748, 749, 750, 751, 752, 753, 754, 755, 756, 757, 758, 759, 760, 761, 762, 763, 764, 765, 766, 767, 768, 769, 770, 771, 772, 773, 774, 775, 776, 777, 778, 779, 780, 781, 782, 783, 784, 785, 786, 787, 788, 789, 790, 791, 792, 793, 794, 795, 796, 797, 798, 799, 800, 801, 802, 803, 804, 805, 806, 807, 808, 809, 810, 811, 812, 813, 814, 815, 816, 817, 818, 819, 820, 821, 822, 823, 824, 825, 826, 827, 828, 829, 830, 831, 832, 833, 834, 835, 836, 837, 838, 839, 840, 841, 842, 843, 844, 845, 846, 847, 848, 849, 850, 851, 852, 853, 854, 855, 856, 857, 858, 859, 860, 861, 862, 863, 864, 865, 866, 867, 868, 869, 870, 871, 872, 873, 874, 875, 876, 877, 878, 879, 880, 881, 882, 883, 884, 885, 886, 887, 888, 889, 890, 891, 892, 893, 894, 895, 896, 897, 898, 899, 900, 901, 902, 903, 904, 905, 906, 907, 908, 909, 910, 911, 912, 913, 914],
      "AcquisitionTime": ["164650.880000", "164651.340000", "164651.800000", "164652.260000", "164652.720000", "164653.180000", "164653.640000", "164654.100000", "164654.560000", "164655.020000", "164655.480000", "164655.940000", "164656.400000", "164656.860000", "164657.320000", "164657.780000", "164658.240000", "164658.700000", "164659.160000", "164659.620000", "164700.080000", "164700.540000", "164701.000000", "164701.460000", "164701.920000", "164702.380000", "164702.840000", "164703.300000", "164703.760000", "164704.220000", "164704.680000", "164705.140000", "164705.600000", "164706.060000", "164706.520000", "164706.980000", "164707.440000", "164707.900000", "164708.360000", "164708.820000", "164709.280000", "164709.740000", "164710.200000", "164710.660000", "164711.120000", "164711.580000", "164712.040000", "164712.500000", "164712.960000", "164713.420000", "164713.880000", "164714.340000", "164714.800000", "164715.260000", "164715.720000", "164716.180000", "164716.640000", "164717.100000", "164717.560000", "164718.020000", "164718.480000", "164718.940000", "164719.400000", "164719.860000", "164720.320000", "164720.780000", "164721.240000", "164721.700000", "164722.160000", "164722.620000", "164723.080000", "164723.540000", "164724.000000", "164724.460000", "164724.920000", "164725.380000", "164725.840000", "164726.300000", "164726.760000", "164727.220000", "164727.680000", "164728.140000", "164728.600000", "164729.060000", "164729.520000", "164729.980000", "164730.440000", "164730.900000", "164731.360000", "164731.820000", "164732.280000", "164732.740000", "164733.200000", "164733.660000", "164734.120000", "164734.580000", "164735.040000", "164735.500000", "164735.960000", "164736.420000", "164736.880000", "164737.340000", "164737.800000", "164738.260000", "164738.720000", "164739.180000", "164739.640000", "164740.100000", "164740.560000", "164741.020000", "164741.480000", "164741.940000", "164742.400000", "164742.860000", "164743.320000", "164743.780000", "164744.240000", "164744.700000", "164745.160000", "164745.620000", "164746.080000", "164746.540000", "164747.000000", "164747.460000", "164747.920000", "164748.380000", "164748.840000", "164749.300000", "164749.760000", "164750.220000", "164750.680000", "164751.140000", "164751.600000", "164752.060000", "164752.520000", "164752.980000", "164753.440000", "164753.900000", "164754.360000", "164754.820000", "164755.280000", "164755.740000", "164756.200000", "164756.660000", "164757.120000", "164757.580000", "164758.040000", "164758.500000", "164758.960000", "164759.420000", "164759.880000", "164800.340000", "164800.800000", "164801.260000", "164801.720000", "164802.180000", "164802.640000", "164803.100000", "164803.560000", "164804.020000", "164804.480000", "164804.940000", "164805.400000", "164805.860000", "164806.320000", "164806.780000", "164807.240000", "164807.700000", "164808.160000", "164808.620000", "164809.080000", "164809.540000", "164810.000000", "164810.460000", "164810.920000", "164811.380000", "164811.840000", "164812.300000", "164812.760000", "164813.220000", "164813.680000", "164814.140000", "164814.600000", "164815.060000", "164815.520000", "164815.980000", "164816.440000", "164816.900000", "164817.360000", "164817.820000", "164818.280000", "164818.740000", "164819.200000", "164819.660000", "164820.120000", "164820.580000", "164821.040000", "164821.500000", "164821.960000", "164822.420000", "164822.880000", "164823.340000", "164823.800000", "164824.260000", "164824.720000", "164825.180000", "164825.640000", "164826.100000", "164826.560000", "164827.020000", "164827.480000", "164827.940000", "164828.400000", "164828.860000", "164829.320000", "164829.780000", "164830.240000", "164830.700000", "164831.160000", "164831.620000", "164832.080000", "164832.540000", "164833.000000", "164833.460000", "164833.920000", "164834.380000", "164834.840000", "164835.300000", "164835.760000", "164836.220000", "164836.680000", "164837.140000", "164837.600000", "164838.060000", "164838.520000", "164838.980000", "164839.440000", "164839.900000", "164840.360000", "164840.820000", "164841.280000", "164841.740000", "164842.200000", "164842.660000", "164843.120000", "164843.580000", "164844.040000", "164844.500000", "164844.960000", "164845.420000", "164845.880000", "164846.340000", "164846.800000", "164847.260000", "164847.720000", "164848.180000", "164848.640000", "164849.100000", "164849.560000", "164850.020000", "164850.480000", "164850.940000", "164851.400000", "164851.860000", "164852.320000", "164852.780000", "164853.240000", "164853.700000", "164854.160000", "164854.620000", "164855.080000", "164855.540000", "164856.000000", "164856.460000", "164856.920000", "164857.380000", "164857.840000", "164858.300000", "164858.760000", "164859.220000", "164859.680000", "164900.140000", "164900.600000", "164901.060000", "164901.520000", "164901.980000", "164902.440000", "164902.900000", "164903.360000", "164903.820000", "164904.280000", "164904.740000", "164905.200000", "164905.660000", "164906.120000", "164906.580000", "164907.040000", "164907.500000", "164907.960000", "164908.420000", "164908.880000", "164909.340000", "164909.800000", "164910.260000", "164910.720000", "164911.180000", "164911.640000", "164912.100000", "164912.560000", "164913.020000", "164913.480000", "164913.940000", "164914.400000", "164914.860000", "164915.320000", "164915.780000", "164916.240000", "164916.700000", "164917.160000", "164917.620000", "164918.080000", "164918.540000", "164919.000000", "164919.460000", "164919.920000", "164920.380000", "164920.840000", "164921.300000", "164921.760000", "164922.220000", "164922.680000", "164923.140000", "164923.600000", "164924.060000", "164924.520000", "164924.980000", "164925.440000", "164925.900000", "164926.360000", "164926.820000", "164927.280000", "164927.740000", "164928.200000", "164928.660000", "164929.120000", "164929.580000", "164930.040000", "164930.500000", "164930.960000", "164931.420000", "164931.880000", "164932.340000", "164932.800000", "164933.260000", "164933.720000", "164934.180000", "164934.640000", "164935.100000", "164935.560000", "164936.020000", "164936.480000", "164936.940000", "164937.400000", "164937.860000", "164938.320000", "164938.780000", "164939.240000", "164939.700000", "164940.160000", "164940.620000", "164941.080000", "164941.540000", "164942.000000", "164942.460000", "164942.920000", "164943.380000", "164943.840000", "164944.300000", "164944.760000", "164945.220000", "164945.680000", "164946.140000", "164946.600000", "164947.060000", "164947.520000", "164947.980000", "164948.440000", "164948.900000", "164949.360000", "164949.820000", "164950.280000", "164950.740000", "164951.200000", "164951.660000", "164952.120000", "164952.580000", "164953.040000", "164953.500000", "164953.960000", "164954.420000", "164954.880000", "164955.340000", "164955.800000", "164956.260000", "164956.720000", "164957.180000", "164957.640000", "164958.100000", "164958.560000", "164959.020000", "164959.480000", "164959.940000", "165000.400000", "165000.860000", "165001.320000", "165001.780000", "165002.240000", "165002.700000", "165003.160000", "165003.620000", "165004.080000", "165004.540000", "165005.000000", "165005.460000", "165005.920000", "165006.380000", "165006.840000", "165007.300000", "165007.760000", "165008.220000", "165008.680000", "165009.140000", "165009.600000", "165010.060000", "165010.520000", "165010.980000", "165011.440000", "165011.900000", "165012.360000", "165012.820000", "165013.280000", "165013.740000", "165014.200000", "165014.660000", "165015.120000", "165015.580000", "165016.040000", "165016.500000", "165016.960000", "165017.420000", "165017.880000", "165018.340000", "165018.800000", "165019.260000", "165019.720000", "165020.180000", "165020.640000", "165021.100000", "165021.560000", "165022.020000", "165022.480000", "165022.940000", "165023.400000", "165023.860000", "165024.320000", "165024.780000", "165025.240000", "165025.700000", "165026.160000", "165026.620000", "165027.080000", "165027.540000", "165028.000000", "165028.460000", "165028.920000", "165029.380000", "165029.840000", "165030.300000", "165030.760000", "165031.220000", "165031.680000", "165032.140000", "165032.600000", "165033.060000", "165033.520000", "165033.980000", "165034.440000", "165034.900000", "165035.360000", "165035.820000", "165036.280000", "165036.740000", "165037.200000", "165037.660000", "165038.120000", "165038.580000", "165039.040000", "165039.500000", "165039.960000", "165040.420000", "165040.880000", "165041.340000", "165041.800000", "165042.260000", "165042.720000", "165043.180000", "165043.640000", "165044.100000", "165044.560000", "165045.020000", "165045.480000", "165045.940000", "165046.400000", "165046.860000", "165047.320000", "165047.780000", "165048.240000", "165048.700000", "165049.160000", "165049.620000", "165050.080000", "165050.540000", "165051.000000", "165051.460000", "165051.920000", "165052.380000", "165052.840000", "165053.300000", "165053.760000", "165054.220000", "165054.680000", "165055.140000", "165055.600000", "165056.060000", "165056.520000", "165056.980000", "165057.440000", "165057.900000", "165058.360000", "165058.820000", "165059.280000", "165059.740000", "165100.200000", "165100.660000", "165101.120000", "165101.580000", "165102.040000", "165102.500000", "165102.960000", "165103.420000", "165103.880000", "165104.340000", "165104.800000", "165105.260000", "165105.720000", "165106.180000", "165106.640000", "165107.100000", "165107.560000", "165108.020000", "165108.480000", "165108.940000", "165109.400000", "165109.860000", "165110.320000", "165110.780000", "165111.240000", "165111.700000", "165112.160000", "165112.620000", "165113.080000", "165113.540000", "165114.000000", "165114.460000", "165114.920000", "165115.380000", "165115.840000", "165116.300000", "165116.760000", "165117.220000", "165117.680000", "165118.140000", "165118.600000", "165119.060000", "165119.520000", "165119.980000", "165120.440000", "165120.900000", "165121.360000", "165121.820000", "165122.280000", "165122.740000", "165123.200000", "165123.660000", "165124.120000", "165124.580000", "165125.040000", "165125.500000", "165125.960000", "165126.420000", "165126.880000", "165127.340000", "165127.800000", "165128.260000", "165128.720000", "165129.180000", "165129.640000", "165130.100000", "165130.560000", "165131.020000", "165131.480000", "165131.940000", "165132.400000", "165132.860000", "165133.320000", "165133.780000", "165134.240000", "165134.700000", "165135.160000", "165135.620000", "165136.080000", "165136.540000", "165137.000000", "165137.460000", "165137.920000", "165138.380000", "165138.840000", "165139.300000", "165139.760000", "165140.220000", "165140.680000", "165141.140000", "165141.600000", "165142.060000", "165142.520000", "165142.980000", "165143.440000", "165143.900000", "165144.360000", "165144.820000", "165145.280000", "165145.740000", "165146.200000", "165146.660000", "165147.120000", "165147.580000", "165148.040000", "165148.500000", "165148.960000", "165149.420000", "165149.880000", "165150.340000", "165150.800000", "165151.260000", "165151.720000", "165152.180000", "165152.640000", "165153.100000", "165153.560000", "165154.020000", "165154.480000", "165154.940000", "165155.400000", "165155.860000", "165156.320000", "165156.780000", "165157.240000", "165157.700000", "165158.160000", "165158.620000", "165159.080000", "165159.540000", "165200.000000", "165200.460000", "165200.920000", "165201.380000", "165201.840000", "165202.300000", "165202.760000", "165203.220000", "165203.680000", "165204.140000", "165204.600000", "165205.060000", "165205.520000", "165205.980000", "165206.440000", "165206.900000", "165207.360000", "165207.820000", "165208.280000", "165208.740000", "165209.200000", "165209.660000", "165210.120000", "165210.580000", "165211.040000", "165211.500000", "165211.960000", "165212.420000", "165212.880000", "165213.340000", "165213.800000", "165214.260000", "165214.720000", "165215.180000", "165215.640000", "165216.100000", "165216.560000", "165217.020000", "165217.480000", "165217.940000", "165218.400000", "165218.860000", "165219.320000", "165219.780000", "165220.240000", "165220.700000", "165221.160000", "165221.620000", "165222.080000", "165222.540000", "165223.000000", "165223.460000", "165223.920000", "165224.380000", "165224.840000", "165225.300000", "165225.760000", "165226.220000", "165226.680000", "165227.140000", "165227.600000", "165228.060000", "165228.520000", "165228.980000", "165229.440000", "165229.900000", "165230.360000", "165230.820000", "165231.280000", "165231.740000", "165232.200000", "165232.660000", "165233.120000", "165233.580000", "165234.040000", "165234.500000", "165234.960000", "165235.420000", "165235.880000", "165236.340000", "165236.800000", "165237.260000", "165237.720000", "165238.180000", "165238.640000", "165239.100000", "165239.560000", "165240.020000", "165240.480000", "165240.940000", "165241.400000", "165241.860000", "165242.320000", "165242.780000", "165243.240000", "165243.700000", "165244.160000", "165244.620000", "165245.080000", "165245.540000", "165246.000000", "165246.460000", "165246.920000", "165247.380000", "165247.840000", "165248.300000", "165248.760000", "165249.220000", "165249.680000", "165250.140000", "165250.600000", "165251.060000", "165251.520000", "165251.980000", "165252.440000", "165252.900000", "165253.360000", "165253.820000", "165254.280000", "165254.740000", "165255.200000", "165255.660000", "165256.120000", "165256.580000", "165257.040000", "165257.500000", "165257.960000", "165258.420000", "165258.880000", "165259.340000", "165259.800000", "165300.260000", "165300.720000", "165301.180000", "165301.640000", "165302.100000", "165302.560000", "165303.020000", "165303.480000", "165303.940000", "165304.400000", "165304.860000", "165305.320000", "165305.780000", "165306.240000", "165306.700000", "165307.160000", "165307.620000", "165308.080000", "165308.540000", "165309.000000", "165309.460000", "165309.920000", "165310.380000", "165310.840000", "165311.300000", "165311.760000", "165312.220000", "165312.680000", "165313.140000", "165313.600000", "165314.060000", "165314.520000", "165314.980000", "165315.440000", "165315.900000", "165316.360000", "165316.820000", "165317.280000", "165317.740000", "165318.200000", "165318.660000", "165319.120000", "165319.580000", "165320.040000", "165320.500000", "165320.960000", "165321.420000", "165321.880000", "165322.340000", "165322.800000", "165323.260000", "165323.720000", "165324.180000", "165324.640000", "165325.100000", "165325.560000", "165326.020000", "165326.480000", "165326.940000", "165327.400000", "165327.860000", "165328.320000", "165328.780000", "165329.240000", "165329.700000", "165330.160000", "165330.620000", "165331.080000", "165331.540000", "165332.000000", "165332.460000", "165332.920000", "165333.380000", "165333.840000", "165334.300000", "165334.760000", "165335.220000", "165335.680000", "165336.140000", "165336.600000", "165337.060000", "165337.520000", "165337.980000", "165338.440000", "165338.900000", "165339.360000", "165339.820000", "165340.280000", "165340.740000", "165341.200000", "165341.660000", "165342.120000", "165342.580000", "165343.040000", "165343.500000", "165343.960000", "165344.420000", "165344.880000", "165345.340000", "165345.800000", "165346.260000", "165346.720000", "165347.180000", "165347.640000", "165348.100000", "165348.560000", "165349.020000", "165349.480000", "165349.940000", "165350.400000", "165350.860000"],
