{
  "AcquisitionMatrixPE": 82,
  "AcquisitionNumber": 1,
  "AcquisitionTime": "16:15:29.710000",
  "BandwidthPerPixelPhaseEncode": 24.888,
  "BaseResolution": 82,
  "BodyPartExamined": "BRAIN",
  "ConsistencyInfo": "N4_VE11C_LATEST_20160120",
  "ConversionSoftware": "dcm2niix",
  "ConversionSoftwareVersion": "v1.0.20201102",
  "DerivedVendorReportedEchoSpacing": 0.00049,
  "DeviceSerialNumber": "66112",
  "DwellTime": 2e-06,
  "EchoTime": 0.0272,
  "EchoTrainLength": 82,
  "EffectiveEchoSpacing": 0.00049,
  "FlipAngle": 44,
  "ImageComments": "Unaliased MB8/PE3",
  "ImageOrientationPatientDICOM": [0.999797, 0.00487625, 0.0195291, -0.00785256, 0.987826, 0.155362],
  "ImageType": [
    "ORIGINAL",
    "PRIMARY",
    "M",
    "MB",
    "ND",
    "NORM",
    "MOSAIC"
],
  "ImagingFrequency": 123.252,
  "InPlanePhaseEncodingDirectionDICOM": "COL",
  "InstitutionAddress": "Maynard 3,Hanover,NH,US,03755",
  "InstitutionName": "Dartmouth College - PBS",
  "InstitutionalDepartmentName": "Department",
  "MRAcquisitionType": "2D",
  "MagneticFieldStrength": 3,
  "Manufacturer": "Siemens",
  "ManufacturersModelName": "Prisma",
  "Modality": "MR",
  "MultibandAccelerationFactor": 8,
  "PartialFourier": 1,
  "PatientPosition": "HFS",
  "PercentPhaseFOV": 100,
  "PercentSampling": 100,
  "PhaseEncodingDirection": "j-",
  "PhaseEncodingSteps": 82,
  "PhaseResolution": 1,
  "PixelBandwidth": 3050,
  "ProcedureStepDescription": "Wager_Wager^1076_spacetop",
  "ProtocolName": "func_run-01_task-alignvideo_acq-ap-mb8",
  "PulseSequenceDetails": "%CustomerSeq%\\cmrr_mbep2d_bold",
  "ReceiveCoilActiveElements": "HEA;HEP",
  "ReceiveCoilName": "Head_32",
  "ReconMatrixPE": 82,
  "RepetitionTime": 0.46,
  "SAR": 0.0953964,
  "ScanOptions": "FS",
  "ScanningSequence": "EP",
  "SequenceName": "epfid2d1_82",
  "SequenceVariant": "SK\\SS",
  "SeriesDescription": "func_run-01_task-alignvideo_acq-ap-mb8",
  "SeriesNumber": 28,
  "ShimSetting": [4156, -7745, -7253, 477, -90, -8, 62, 54],
  "SliceThickness": 2.7,
  "SliceTiming": [0, 0.2525, 0.0625, 0.315, 0.1275, 0.3775, 0.19, 0, 0.2525, 0.0625, 0.315, 0.1275, 0.3775, 0.19, 0, 0.2525, 0.0625, 0.315, 0.1275, 0.3775, 0.19, 0, 0.2525, 0.0625, 0.315, 0.1275, 0.3775, 0.19, 0, 0.2525, 0.0625, 0.315, 0.1275, 0.3775, 0.19, 0, 0.2525, 0.0625, 0.315, 0.1275, 0.3775, 0.19, 0, 0.2525, 0.0625, 0.315, 0.1275, 0.3775, 0.19, 0, 0.2525, 0.0625, 0.315, 0.1275, 0.3775, 0.19],
  "SoftwareVersions": "syngo MR E11",
  "SpacingBetweenSlices": 2.7,
  "StationName": "AWP66112",
  "TaskName": "alignvideo",
  "TotalReadoutTime": 0.03969,
  "TxRefAmp": 251.355,
  "WipMemBlock": "9007add9-3fdc-43b7-8134-9ba9efe7f848||Sequence: R016 ve11c/master r/e634e98; Dec 19 2017 11:00:25 by eja",
  "dcmmeta_affine": [
    [-2.6823832988739014, -0.02106783166527748, 0.050041314214468, 110.91128540039062],
    [-0.013082612305879593, 2.650266170501709, 0.41980546712875366, -109.26676940917969],
    [0.052395258098840714, -0.4168238937854767, 2.666694402694702, -40.97767639160156],
    [0.0, 0.0, 0.0, 1.0]
],
  "dcmmeta_reorient_transform": [
    [0.0, -1.0, 0.0, 81.0],
    [1.0, 0.0, 0.0, 0.0],
    [0.0, 0.0, 1.0, 0.0],
    [0.0, 0.0, 0.0, 1.0]
],
  "dcmmeta_shape": [82, 82, 56, 839],
  "dcmmeta_slice_dim": 2,
  "dcmmeta_version": 0.6,
  "global": {
    "const": {
      "AccessionNumber": "A003535",
      "AcquisitionMatrix": [82, 0, 0, 82],
      "AngioFlag": "N",
      "BitsAllocated": 16,
      "BitsStored": 16,
      "BodyPartExamined": "BRAIN",
      "Columns": 656,
      "EchoNumbers": 1,
      "EchoTime": 27.2,
      "EchoTrainLength": 82,
      "FlipAngle": 44.0,
      "HighBit": 15,
      "ImageOrientationPatient": [0.99979739691905, 0.00487624638227, 0.01952914066513, -0.0078525553335, 0.98782645229289, 0.15536163466305],
      "ImagePositionPatient": [-873.00233971011, -869.78588157611, -209.40631210561],
      "ImageType": [
        "ORIGINAL",
        "PRIMARY",
        "M",
        "MB",
        "ND",
        "NORM",
        "MOSAIC"
],
      "ImagedNucleus": "1H",
      "ImagingFrequency": 123.252163,
      "InPlanePhaseEncodingDirection": "COL",
      "MRAcquisitionType": "2D",
      "MagneticFieldStrength": 3.0,
      "Manufacturer": "SIEMENS",
      "ManufacturerModelName": "Prisma",
      "Modality": "MR",
      "NumberOfAverages": 1.0,
      "NumberOfPhaseEncodingSteps": 82,
      "PercentPhaseFieldOfView": 100.0,
      "PercentSampling": 100.0,
      "PerformedProcedureStepStartTime": "144428.811000",
      "PhotometricInterpretation": "MONOCHROME2",
      "PixelBandwidth": 3050.0,
      "PixelRepresentation": 0,
      "PixelSpacing": [2.6829268932343, 2.6829268932343],
      "ProtocolName": "func_run-01_task-alignvideo_acq-ap-mb8",
      "RepetitionTime": 460.0,
      "Rows": 656,
      "SAR": 0.09539642806624,
      "SamplesPerPixel": 1,
      "ScanOptions": "FS",
      "ScanningSequence": "EP",
      "SequenceName": "epfid2d1_82",
      "SequenceVariant": [
        "SK",
        "SS"
],
      "SeriesDescription": "func_run-01_task-alignvideo_acq-ap-mb8",
      "SeriesNumber": 28,
      "SeriesTime": "161543.501000",
      "SliceLocation": -55.405771342848,
      "SliceThickness": 2.7000000476837,
      "SmallestImagePixelValue": 0,
      "SoftwareVersions": "syngo MR E11",
      "SpacingBetweenSlices": 2.6999999264189,
      "SpecificCharacterSet": "ISO_IR 100",
      "StudyID": "1",
      "StudyTime": "144428.752000",
      "TransmitCoilName": "Body",
      "VariableFlipAngleFlag": "N",
      "WindowCenterWidthExplanation": "Algo1",
      "dBdt": 0.0},
    "slices": {}
  },
  "time": {
    "samples": {
      "AcquisitionNumber": [1, 2, 3, 4, 5, 6, 7, 8, 9, 10, 11, 12, 13, 14, 15, 16, 17, 18, 19, 20, 21, 22, 23, 24, 25, 26, 27, 28, 29, 30, 31, 32, 33, 34, 35, 36, 37, 38, 39, 40, 41, 42, 43, 44, 45, 46, 47, 48, 49, 50, 51, 52, 53, 54, 55, 56, 57, 58, 59, 60, 61, 62, 63, 64, 65, 66, 67, 68, 69, 70, 71, 72, 73, 74, 75, 76, 77, 78, 79, 80, 81, 82, 83, 84, 85, 86, 87, 88, 89, 90, 91, 92, 93, 94, 95, 96, 97, 98, 99, 100, 101, 102, 103, 104, 105, 106, 107, 108, 109, 110, 111, 112, 113, 114, 115, 116, 117, 118, 119, 120, 121, 122, 123, 124, 125, 126, 127, 128, 129, 130, 131, 132, 133, 134, 135, 136, 137, 138, 139, 140, 141, 142, 143, 144, 145, 146, 147, 148, 149, 150, 151, 152, 153, 154, 155, 156, 157, 158, 159, 160, 161, 162, 163, 164, 165, 166, 167, 168, 169, 170, 171, 172, 173, 174, 175, 176, 177, 178, 179, 180, 181, 182, 183, 184, 185, 186, 187, 188, 189, 190, 191, 192, 193, 194, 195, 196, 197, 198, 199, 200, 201, 202, 203, 204, 205, 206, 207, 208, 209, 210, 211, 212, 213, 214, 215, 216, 217, 218, 219, 220, 221, 222, 223, 224, 225, 226, 227, 228, 229, 230, 231, 232, 233, 234, 235, 236, 237, 238, 239, 240, 241, 242, 243, 244, 245, 246, 247, 248, 249, 250, 251, 252, 253, 254, 255, 256, 257, 258, 259, 260, 261, 262, 263, 264, 265, 266, 267, 268, 269, 270, 271, 272, 273, 274, 275, 276, 277, 278, 279, 280, 281, 282, 283, 284, 285, 286, 287, 288, 289, 290, 291, 292, 293, 294, 295, 296, 297, 298, 299, 300, 301, 302, 303, 304, 305, 306, 307, 308, 309, 310, 311, 312, 313, 314, 315, 316, 317, 318, 319, 320, 321, 322, 323, 324, 325, 326, 327, 328, 329, 330, 331, 332, 333, 334, 335, 336, 337, 338, 339, 340, 341, 342, 343, 344, 345, 346, 347, 348, 349, 350, 351, 352, 353, 354, 355, 356, 357, 358, 359, 360, 361, 362, 363, 364, 365, 366, 367, 368, 369, 370, 371, 372, 373, 374, 375, 376, 377, 378, 379, 380, 381, 382, 383, 384, 385, 386, 387, 388, 389, 390, 391, 392, 393, 394, 395, 396, 397, 398, 399, 400, 401, 402, 403, 404, 405, 406, 407, 408, 409, 410, 411, 412, 413, 414, 415, 416, 417, 418, 419, 420, 421, 422, 423, 424, 425, 426, 427, 428, 429, 430, 431, 432, 433, 434, 435, 436, 437, 438, 439, 440, 441, 442, 443, 444, 445, 446, 447, 448, 449, 450, 451, 452, 453, 454, 455, 456, 457, 458, 459, 460, 461, 462, 463, 464, 465, 466, 467, 468, 469, 470, 471, 472, 473, 474, 475, 476, 477, 478, 479, 480, 481, 482, 483, 484, 485, 486, 487, 488, 489, 490, 491, 492, 493, 494, 495, 496, 497, 498, 499, 500, 501, 502, 503, 504, 505, 506, 507, 508, 509, 510, 511, 512, 513, 514, 515, 516, 517, 518, 519, 520, 521, 522, 523, 524, 525, 526, 527, 528, 529, 530, 531, 532, 533, 534, 535, 536, 537, 538, 539, 540, 541, 542, 543, 544, 545, 546, 547, 548, 549, 550, 551, 552, 553, 554, 555, 556, 557, 558, 559, 560, 561, 562, 563, 564, 565, 566, 567, 568, 569, 570, 571, 572, 573, 574, 575, 576, 577, 578, 579, 580, 581, 582, 583, 584, 585, 586, 587, 588, 589, 590, 591, 592, 593, 594, 595, 596, 597, 598, 599, 600, 601, 602, 603, 604, 605, 606, 607, 608, 609, 610, 611, 612, 613, 614, 615, 616, 617, 618, 619, 620, 621, 622, 623, 624, 625, 626, 627, 628, 629, 630, 631, 632, 633, 634, 635, 636, 637, 638, 639, 640, 641, 642, 643, 644, 645, 646, 647, 648, 649, 650, 651, 652, 653, 654, 655, 656, 657, 658, 659, 660, 661, 662, 663, 664, 665, 666, 667, 668, 669, 670, 671, 672, 673, 674, 675, 676, 677, 678, 679, 680, 681, 682, 683, 684, 685, 686, 687, 688, 689, 690, 691, 692, 693, 694, 695, 696, 697, 698, 699, 700, 701, 702, 703, 704, 705, 706, 707, 708, 709, 710, 711, 712, 713, 714, 715, 716, 717, 718, 719, 720, 721, 722, 723, 724, 725, 726, 727, 728, 729, 730, 731, 732, 733, 734, 735, 736, 737, 738, 739, 740, 741, 742, 743, 744, 745, 746, 747, 748, 749, 750, 751, 752, 753, 754, 755, 756, 757, 758, 759, 760, 761, 762, 763, 764, 765, 766, 767, 768, 769, 770, 771, 772, 773, 774, 775, 776, 777, 778, 779, 780, 781, 782, 783, 784, 785, 786, 787, 788, 789, 790, 791, 792, 793, 794, 795, 796, 797, 798, 799, 800, 801, 802, 803, 804, 805, 806, 807, 808, 809, 810, 811, 812, 813, 814, 815, 816, 817, 818, 819, 820, 821, 822, 823, 824, 825, 826, 827, 828, 829, 830, 831, 832, 833, 834, 835, 836, 837, 838, 839],
      "AcquisitionTime": ["161529.710000", "161530.170000", "161530.630000", "161531.090000", "161531.550000", "161532.010000", "161532.470000", "161532.930000", "161533.390000", "161533.850000", "161534.310000", "161534.770000", "161535.230000", "161535.690000", "161536.150000", "161536.610000", "161537.070000", "161537.530000", "161537.990000", "161538.450000", "161538.910000", "161539.370000", "161539.830000", "161540.290000", "161540.750000", "161541.210000", "161541.670000", "161542.130000", "161542.590000", "161543.050000", "161543.510000", "161543.970000", "161544.430000", "161544.890000", "161545.350000", "161545.810000", "161546.270000", "161546.730000", "161547.190000", "161547.650000", "161548.110000", "161548.570000", "161549.030000", "161549.490000", "161549.950000", "161550.410000", "161550.870000", "161551.330000", "161551.790000", "161552.250000", "161552.710000", "161553.170000", "161553.630000", "161554.090000", "161554.550000", "161555.010000", "161555.470000", "161555.930000", "161556.390000", "161556.850000", "161557.310000", "161557.770000", "161558.230000", "161558.690000", "161559.150000", "161559.610000", "161600.070000", "161600.530000", "161600.990000", "161601.450000", "161601.910000", "161602.370000", "161602.830000", "161603.290000", "161603.750000", "161604.210000", "161604.670000", "161605.130000", "161605.590000", "161606.050000", "161606.510000", "161606.970000", "161607.430000", "161607.890000", "161608.350000", "161608.810000", "161609.270000", "161609.730000", "161610.190000", "161610.650000", "161611.110000", "161611.570000", "161612.030000", "161612.490000", "161612.950000", "161613.410000", "161613.870000", "161614.330000", "161614.790000", "161615.250000", "161615.710000", "161616.170000", "161616.630000", "161617.090000", "161617.550000", "161618.010000", "161618.470000", "161618.930000", "161619.390000", "161619.850000", "161620.310000", "161620.770000", "161621.230000", "161621.690000", "161622.150000", "161622.610000", "161623.070000", "161623.530000", "161623.990000", "161624.450000", "161624.910000", "161625.370000", "161625.830000", "161626.290000", "161626.750000", "161627.210000", "161627.670000", "161628.130000", "161628.590000", "161629.050000", "161629.510000", "161629.970000", "161630.430000", "161630.890000", "161631.350000", "161631.810000", "161632.270000", "161632.730000", "161633.190000", "161633.650000", "161634.110000", "161634.570000", "161635.030000", "161635.490000", "161635.950000", "161636.410000", "161636.870000", "161637.330000", "161637.790000", "161638.250000", "161638.710000", "161639.170000", "161639.630000", "161640.090000", "161640.550000", "161641.010000", "161641.470000", "161641.930000", "161642.390000", "161642.850000", "161643.310000", "161643.770000", "161644.230000", "161644.690000", "161645.150000", "161645.610000", "161646.070000", "161646.530000", "161646.990000", "161647.450000", "161647.910000", "161648.370000", "161648.830000", "161649.290000", "161649.750000", "161650.210000", "161650.670000", "161651.130000", "161651.590000", "161652.050000", "161652.510000", "161652.970000", "161653.430000", "161653.890000", "161654.350000", "161654.810000", "161655.270000", "161655.730000", "161656.190000", "161656.650000", "161657.110000", "161657.570000", "161658.030000", "161658.490000", "161658.950000", "161659.410000", "161659.870000", "161700.330000", "161700.790000", "161701.250000", "161701.710000", "161702.170000", "161702.630000", "161703.090000", "161703.550000", "161704.010000", "161704.470000", "161704.930000", "161705.390000", "161705.850000", "161706.310000", "161706.770000", "161707.230000", "161707.690000", "161708.150000", "161708.610000", "161709.070000", "161709.530000", "161709.990000", "161710.450000", "161710.910000", "161711.370000", "161711.830000", "161712.290000", "161712.750000", "161713.210000", "161713.670000", "161714.130000", "161714.590000", "161715.050000", "161715.510000", "161715.970000", "161716.430000", "161716.890000", "161717.350000", "161717.810000", "161718.270000", "161718.730000", "161719.190000", "161719.650000", "161720.110000", "161720.570000", "161721.030000", "161721.490000", "161721.950000", "161722.410000", "161722.870000", "161723.330000", "161723.790000", "161724.250000", "161724.710000", "161725.170000", "161725.630000", "161726.090000", "161726.550000", "161727.010000", "161727.470000", "161727.930000", "161728.390000", "161728.850000", "161729.310000", "161729.770000", "161730.230000", "161730.690000", "161731.150000", "161731.610000", "161732.070000", "161732.530000", "161732.990000", "161733.450000", "161733.910000", "161734.370000", "161734.830000", "161735.290000", "161735.750000", "161736.210000", "161736.670000", "161737.130000", "161737.590000", "161738.050000", "161738.510000", "161738.970000", "161739.430000", "161739.890000", "161740.350000", "161740.810000", "161741.270000", "161741.730000", "161742.190000", "161742.650000", "161743.110000", "161743.570000", "161744.030000", "161744.490000", "161744.950000", "161745.410000", "161745.870000", "161746.330000", "161746.790000", "161747.250000", "161747.710000", "161748.170000", "161748.630000", "161749.090000", "161749.550000", "161750.010000", "161750.470000", "161750.930000", "161751.390000", "161751.850000", "161752.310000", "161752.770000", "161753.230000", "161753.690000", "161754.150000", "161754.610000", "161755.070000", "161755.530000", "161755.990000", "161756.450000", "161756.910000", "161757.370000", "161757.830000", "161758.290000", "161758.750000", "161759.210000", "161759.670000", "161800.130000", "161800.590000", "161801.050000", "161801.510000", "161801.970000", "161802.430000", "161802.890000", "161803.350000", "161803.810000", "161804.270000", "161804.730000", "161805.190000", "161805.650000", "161806.110000", "161806.570000", "161807.030000", "161807.490000", "161807.950000", "161808.410000", "161808.870000", "161809.330000", "161809.790000", "161810.250000", "161810.710000", "161811.170000", "161811.630000", "161812.090000", "161812.550000", "161813.010000", "161813.470000", "161813.930000", "161814.390000", "161814.850000", "161815.310000", "161815.770000", "161816.230000", "161816.690000", "161817.150000", "161817.610000", "161818.070000", "161818.530000", "161818.990000", "161819.450000", "161819.910000", "161820.370000", "161820.830000", "161821.290000", "161821.750000", "161822.210000", "161822.670000", "161823.130000", "161823.590000", "161824.050000", "161824.510000", "161824.970000", "161825.430000", "161825.890000", "161826.350000", "161826.810000", "161827.270000", "161827.730000", "161828.190000", "161828.650000", "161829.110000", "161829.570000", "161830.030000", "161830.490000", "161830.950000", "161831.410000", "161831.870000", "161832.330000", "161832.790000", "161833.250000", "161833.710000", "161834.170000", "161834.630000", "161835.090000", "161835.550000", "161836.010000", "161836.470000", "161836.930000", "161837.390000", "161837.850000", "161838.310000", "161838.770000", "161839.230000", "161839.690000", "161840.150000", "161840.610000", "161841.070000", "161841.530000", "161841.990000", "161842.450000", "161842.910000", "161843.370000", "161843.830000", "161844.290000", "161844.750000", "161845.210000", "161845.670000", "161846.130000", "161846.590000", "161847.050000", "161847.510000", "161847.970000", "161848.430000", "161848.890000", "161849.350000", "161849.810000", "161850.270000", "161850.730000", "161851.190000", "161851.650000", "161852.110000", "161852.570000", "161853.030000", "161853.490000", "161853.950000", "161854.410000", "161854.870000", "161855.330000", "161855.790000", "161856.250000", "161856.710000", "161857.170000", "161857.630000", "161858.090000", "161858.550000", "161859.010000", "161859.470000", "161859.930000", "161900.390000", "161900.850000", "161901.310000", "161901.770000", "161902.230000", "161902.690000", "161903.150000", "161903.610000", "161904.070000", "161904.530000", "161904.990000", "161905.450000", "161905.910000", "161906.370000", "161906.830000", "161907.290000", "161907.750000", "161908.210000", "161908.670000", "161909.130000", "161909.590000", "161910.050000", "161910.510000", "161910.970000", "161911.430000", "161911.890000", "161912.350000", "161912.810000", "161913.270000", "161913.730000", "161914.190000", "161914.650000", "161915.110000", "161915.570000", "161916.030000", "161916.490000", "161916.950000", "161917.410000", "161917.870000", "161918.330000", "161918.790000", "161919.250000", "161919.710000", "161920.170000", "161920.630000", "161921.090000", "161921.550000", "161922.010000", "161922.470000", "161922.930000", "161923.390000", "161923.850000", "161924.310000", "161924.770000", "161925.230000", "161925.690000", "161926.150000", "161926.610000", "161927.070000", "161927.530000", "161927.990000", "161928.450000", "161928.910000", "161929.370000", "161929.830000", "161930.290000", "161930.750000", "161931.210000", "161931.670000", "161932.130000", "161932.590000", "161933.050000", "161933.510000", "161933.970000", "161934.430000", "161934.890000", "161935.350000", "161935.810000", "161936.270000", "161936.730000", "161937.190000", "161937.650000", "161938.110000", "161938.570000", "161939.030000", "161939.490000", "161939.950000", "161940.410000", "161940.870000", "161941.330000", "161941.790000", "161942.250000", "161942.710000", "161943.170000", "161943.630000", "161944.090000", "161944.550000", "161945.010000", "161945.470000", "161945.930000", "161946.390000", "161946.850000", "161947.310000", "161947.770000", "161948.230000", "161948.690000", "161949.150000", "161949.610000", "161950.070000", "161950.530000", "161950.990000", "161951.450000", "161951.910000", "161952.370000", "161952.830000", "161953.290000", "161953.750000", "161954.210000", "161954.670000", "161955.130000", "161955.590000", "161956.050000", "161956.510000", "161956.970000", "161957.430000", "161957.890000", "161958.350000", "161958.810000", "161959.270000", "161959.730000", "162000.190000", "162000.650000", "162001.110000", "162001.570000", "162002.030000", "162002.490000", "162002.950000", "162003.410000", "162003.870000", "162004.330000", "162004.790000", "162005.250000", "162005.710000", "162006.170000", "162006.630000", "162007.090000", "162007.550000", "162008.010000", "162008.470000", "162008.930000", "162009.390000", "162009.850000", "162010.310000", "162010.770000", "162011.230000", "162011.690000", "162012.150000", "162012.610000", "162013.070000", "162013.530000", "162013.990000", "162014.450000", "162014.910000", "162015.370000", "162015.830000", "162016.290000", "162016.750000", "162017.210000", "162017.670000", "162018.130000", "162018.590000", "162019.050000", "162019.510000", "162019.970000", "162020.430000", "162020.890000", "162021.350000", "162021.810000", "162022.270000", "162022.730000", "162023.190000", "162023.650000", "162024.110000", "162024.570000", "162025.030000", "162025.490000", "162025.950000", "162026.410000", "162026.870000", "162027.330000", "162027.790000", "162028.250000", "162028.710000", "162029.170000", "162029.630000", "162030.090000", "162030.550000", "162031.010000", "162031.470000", "162031.930000", "162032.390000", "162032.850000", "162033.310000", "162033.770000", "162034.230000", "162034.690000", "162035.150000", "162035.610000", "162036.070000", "162036.530000", "162036.990000", "162037.450000", "162037.910000", "162038.370000", "162038.830000", "162039.290000", "162039.750000", "162040.210000", "162040.670000", "162041.130000", "162041.590000", "162042.050000", "162042.510000", "162042.970000", "162043.430000", "162043.890000", "162044.350000", "162044.810000", "162045.270000", "162045.730000", "162046.190000", "162046.650000", "162047.110000", "162047.570000", "162048.030000", "162048.490000", "162048.950000", "162049.410000", "162049.870000", "162050.330000", "162050.790000", "162051.250000", "162051.710000", "162052.170000", "162052.630000", "162053.090000", "162053.550000", "162054.010000", "162054.470000", "162054.930000", "162055.390000", "162055.850000", "162056.310000", "162056.770000", "162057.230000", "162057.690000", "162058.150000", "162058.610000", "162059.070000", "162059.530000", "162059.990000", "162100.450000", "162100.910000", "162101.370000", "162101.830000", "162102.290000", "162102.750000", "162103.210000", "162103.670000", "162104.130000", "162104.590000", "162105.050000", "162105.510000", "162105.970000", "162106.430000", "162106.890000", "162107.350000", "162107.810000", "162108.270000", "162108.730000", "162109.190000", "162109.650000", "162110.110000", "162110.570000", "162111.030000", "162111.490000", "162111.950000", "162112.410000", "162112.870000", "162113.330000", "162113.790000", "162114.250000", "162114.710000", "162115.170000", "162115.630000", "162116.090000", "162116.550000", "162117.010000", "162117.470000", "162117.930000", "162118.390000", "162118.850000", "162119.310000", "162119.770000", "162120.230000", "162120.690000", "162121.150000", "162121.610000", "162122.070000", "162122.530000", "162122.990000", "162123.450000", "162123.910000", "162124.370000", "162124.830000", "162125.290000", "162125.750000", "162126.210000", "162126.670000", "162127.130000", "162127.590000", "162128.050000", "162128.510000", "162128.970000", "162129.430000", "162129.890000", "162130.350000", "162130.810000", "162131.270000", "162131.730000", "162132.190000", "162132.650000", "162133.110000", "162133.570000", "162134.030000", "162134.490000", "162134.950000", "162135.410000", "162135.870000", "162136.330000", "162136.790000", "162137.250000", "162137.710000", "162138.170000", "162138.630000", "162139.090000", "162139.550000", "162140.010000", "162140.470000", "162140.930000", "162141.390000", "162141.850000", "162142.310000", "162142.770000", "162143.230000", "162143.690000", "162144.150000", "162144.610000", "162145.070000", "162145.530000", "162145.990000", "162146.450000", "162146.910000", "162147.370000", "162147.830000", "162148.290000", "162148.750000", "162149.210000", "162149.670000", "162150.130000", "162150.590000", "162151.050000", "162151.510000", "162151.970000", "162152.430000", "162152.890000", "162153.350000", "162153.810000", "162154.270000", "162154.730000", "162155.190000"],
