{
  "AcquisitionMatrixPE": 82,
  "AcquisitionNumber": 1,
  "AcquisitionTime": "16:22:10.122500",
  "BandwidthPerPixelPhaseEncode": 24.888,
  "BaseResolution": 82,
  "BodyPartExamined": "BRAIN",
  "ConsistencyInfo": "N4_VE11E_LATEST_20181129",
  "ConversionSoftware": "dcm2niix",
  "ConversionSoftwareVersion": "v1.0.20201102",
  "DerivedVendorReportedEchoSpacing": 0.00049,
  "DeviceSerialNumber": "66112",
  "DwellTime": 2e-06,
  "EchoTime": 0.0272,
  "EchoTrainLength": 82,
  "EffectiveEchoSpacing": 0.00049,
  "FlipAngle": 44,
  "ImageComments": "Unaliased MB8/PE3",
  "ImageOrientationPatientDICOM": [0.998817, -0.0269055, 0.0404995, 0.026155, 0.999478, 0.018949],
  "ImageType": [
    "ORIGINAL",
    "PRIMARY",
    "M",
    "MB",
    "ND",
    "NORM",
    "MOSAIC"
],
  "ImagingFrequency": 123.252,
  "InPlanePhaseEncodingDirectionDICOM": "COL",
  "InstitutionAddress": "Maynard 3,Hanover,NH,US,03755",
  "InstitutionName": "Dartmouth College - PBS",
  "InstitutionalDepartmentName": "Department",
  "MRAcquisitionType": "2D",
  "MagneticFieldStrength": 3,
  "Manufacturer": "Siemens",
  "ManufacturersModelName": "Prisma",
  "Modality": "MR",
  "MultibandAccelerationFactor": 8,
  "PartialFourier": 1,
  "PatientPosition": "HFS",
  "PercentPhaseFOV": 100,
  "PercentSampling": 100,
  "PhaseEncodingDirection": "j-",
  "PhaseEncodingSteps": 82,
  "PhaseResolution": 1,
  "PixelBandwidth": 3050,
  "ProcedureStepDescription": "Wager_Wager^1076_spacetop",
  "ProtocolName": "func_run-01_task-alignvideo_acq-ap-mb8",
  "PulseSequenceDetails": "%CustomerSeq%\\cmrr_mbep2d_bold",
  "ReceiveCoilActiveElements": "HEA;HEP",
  "ReceiveCoilName": "Head_32",
  "ReconMatrixPE": 82,
  "RepetitionTime": 0.46,
  "SAR": 0.0898595,
  "ScanOptions": "FS",
  "ScanningSequence": "EP",
  "SequenceName": "epfid2d1_82",
  "SequenceVariant": "SK\\SS",
  "SeriesDescription": "func_run-01_task-alignvideo_acq-ap-mb8",
  "SeriesNumber": 31,
  "ShimSetting": [4137, -7744, -7288, 520, -42, -114, -56, 91],
  "SliceThickness": 2.7,
  "SliceTiming": [0, 0.2525, 0.0625, 0.315, 0.1275, 0.3775, 0.19, 0, 0.2525, 0.0625, 0.315, 0.1275, 0.3775, 0.19, 0, 0.2525, 0.0625, 0.315, 0.1275, 0.3775, 0.19, 0, 0.2525, 0.0625, 0.315, 0.1275, 0.3775, 0.19, 0, 0.2525, 0.0625, 0.315, 0.1275, 0.3775, 0.19, 0, 0.2525, 0.0625, 0.315, 0.1275, 0.3775, 0.19, 0, 0.2525, 0.0625, 0.315, 0.1275, 0.3775, 0.19, 0, 0.2525, 0.0625, 0.315, 0.1275, 0.3775, 0.19],
  "SoftwareVersions": "syngo MR E11",
  "SpacingBetweenSlices": 2.7,
  "StationName": "AWP66112",
  "TaskName": "alignvideo",
  "TotalReadoutTime": 0.03969,
  "TxRefAmp": 249.782,
  "WipMemBlock": "229822ba-5013-467a-a910-20fffb14b65a||Sequence: R016 ve11e/master r/434b28f1; Aug  7 2019 18:53:46 by eja",
  "dcmmeta_affine": [
    [-2.679753541946411, 0.07017184048891068, 0.11066809296607971, 109.63533020019531],
    [0.0721854493021965, 2.6815271377563477, 0.048241812735795975, -96.54338836669922],
    [0.10865714401006699, -0.050838813185691833, 2.6972997188568115, -78.14952087402344],
    [0.0, 0.0, 0.0, 1.0]
],
  "dcmmeta_reorient_transform": [
    [0.0, -1.0, 0.0, 81.0],
    [1.0, 0.0, 0.0, 0.0],
    [0.0, 0.0, 1.0, 0.0],
    [0.0, 0.0, 0.0, 1.0]
],
  "dcmmeta_shape": [82, 82, 56, 1073],
  "dcmmeta_slice_dim": 2,
  "dcmmeta_version": 0.6,
  "global": {
    "const": {
      "AccessionNumber": "A003878",
      "AcquisitionMatrix": [82, 0, 0, 82],
      "AngioFlag": "N",
      "BitsAllocated": 16,
      "BitsStored": 16,
      "BodyPartExamined": "BRAIN",
      "Columns": 656,
      "EchoNumbers": 1,
      "EchoTime": 27.2,
      "EchoTrainLength": 82,
      "FlipAngle": 44.0,
      "HighBit": 15,
      "ImageOrientationPatient": [0.99881724404376, -0.0269054855695, 0.04049947959059, 0.02615495851447, 0.99947829044751, 0.01894901235497],
      "ImagePositionPatient": [-904.54786519692, -869.54139296595, -128.04280831464],
      "ImageType": [
        "ORIGINAL",
        "PRIMARY",
        "M",
        "MB",
        "ND",
        "NORM",
        "MOSAIC"
],
      "ImagedNucleus": "1H",
      "ImagingFrequency": 123.252223,
      "InPlanePhaseEncodingDirection": "COL",
      "MRAcquisitionType": "2D",
      "MagneticFieldStrength": 3.0,
      "Manufacturer": "SIEMENS",
      "ManufacturerModelName": "Prisma",
      "Modality": "MR",
      "NumberOfAverages": 1.0,
      "NumberOfPhaseEncodingSteps": 82,
      "PercentPhaseFieldOfView": 100.0,
      "PercentSampling": 100.0,
      "PerformedProcedureStepStartTime": "145318.544000",
      "PhotometricInterpretation": "MONOCHROME2",
      "PixelBandwidth": 3050.0,
      "PixelRepresentation": 0,
      "PixelSpacing": [2.6829268932343, 2.6829268932343],
      "ProtocolName": "func_run-01_task-alignvideo_acq-ap-mb8",
      "RepetitionTime": 460.0,
      "Rows": 656,
      "SAR": 0.08985948193366,
      "SamplesPerPixel": 1,
      "ScanOptions": "FS",
      "ScanningSequence": "EP",
      "SequenceName": "epfid2d1_82",
      "SequenceVariant": [
        "SK",
        "SS"
],
      "SeriesDescription": "func_run-01_task-alignvideo_acq-ap-mb8",
      "SeriesNumber": 31,
      "SeriesTime": "162230.709000",
      "SliceLocation": -75.302584531395,
      "SliceThickness": 2.7000000476837,
      "SmallestImagePixelValue": 0,
      "SoftwareVersions": "syngo MR E11",
      "SpacingBetweenSlices": 2.6999999797413,
      "SpecificCharacterSet": "ISO_IR 100",
      "StudyID": "1",
      "StudyTime": "145318.494000",
      "TransmitCoilName": "Body",
      "VariableFlipAngleFlag": "N",
      "WindowCenterWidthExplanation": "Algo1"
    },
    "slices": {}
  },
  "time": {
    "samples": {
      "AcquisitionNumber": [1, 2, 3, 4, 5, 6, 7, 8, 9, 10, 11, 12, 13, 14, 15, 16, 17, 18, 19, 20, 21, 22, 23, 24, 25, 26, 27, 28, 29, 30, 31, 32, 33, 34, 35, 36, 37, 38, 39, 40, 41, 42, 43, 44, 45, 46, 47, 48, 49, 50, 51, 52, 53, 54, 55, 56, 57, 58, 59, 60, 61, 62, 63, 64, 65, 66, 67, 68, 69, 70, 71, 72, 73, 74, 75, 76, 77, 78, 79, 80, 81, 82, 83, 84, 85, 86, 87, 88, 89, 90, 91, 92, 93, 94, 95, 96, 97, 98, 99, 100, 101, 102, 103, 104, 105, 106, 107, 108, 109, 110, 111, 112, 113, 114, 115, 116, 117, 118, 119, 120, 121, 122, 123, 124, 125, 126, 127, 128, 129, 130, 131, 132, 133, 134, 135, 136, 137, 138, 139, 140, 141, 142, 143, 144, 145, 146, 147, 148, 149, 150, 151, 152, 153, 154, 155, 156, 157, 158, 159, 160, 161, 162, 163, 164, 165, 166, 167, 168, 169, 170, 171, 172, 173, 174, 175, 176, 177, 178, 179, 180, 181, 182, 183, 184, 185, 186, 187, 188, 189, 190, 191, 192, 193, 194, 195, 196, 197, 198, 199, 200, 201, 202, 203, 204, 205, 206, 207, 208, 209, 210, 211, 212, 213, 214, 215, 216, 217, 218, 219, 220, 221, 222, 223, 224, 225, 226, 227, 228, 229, 230, 231, 232, 233, 234, 235, 236, 237, 238, 239, 240, 241, 242, 243, 244, 245, 246, 247, 248, 249, 250, 251, 252, 253, 254, 255, 256, 257, 258, 259, 260, 261, 262, 263, 264, 265, 266, 267, 268, 269, 270, 271, 272, 273, 274, 275, 276, 277, 278, 279, 280, 281, 282, 283, 284, 285, 286, 287, 288, 289, 290, 291, 292, 293, 294, 295, 296, 297, 298, 299, 300, 301, 302, 303, 304, 305, 306, 307, 308, 309, 310, 311, 312, 313, 314, 315, 316, 317, 318, 319, 320, 321, 322, 323, 324, 325, 326, 327, 328, 329, 330, 331, 332, 333, 334, 335, 336, 337, 338, 339, 340, 341, 342, 343, 344, 345, 346, 347, 348, 349, 350, 351, 352, 353, 354, 355, 356, 357, 358, 359, 360, 361, 362, 363, 364, 365, 366, 367, 368, 369, 370, 371, 372, 373, 374, 375, 376, 377, 378, 379, 380, 381, 382, 383, 384, 385, 386, 387, 388, 389, 390, 391, 392, 393, 394, 395, 396, 397, 398, 399, 400, 401, 402, 403, 404, 405, 406, 407, 408, 409, 410, 411, 412, 413, 414, 415, 416, 417, 418, 419, 420, 421, 422, 423, 424, 425, 426, 427, 428, 429, 430, 431, 432, 433, 434, 435, 436, 437, 438, 439, 440, 441, 442, 443, 444, 445, 446, 447, 448, 449, 450, 451, 452, 453, 454, 455, 456, 457, 458, 459, 460, 461, 462, 463, 464, 465, 466, 467, 468, 469, 470, 471, 472, 473, 474, 475, 476, 477, 478, 479, 480, 481, 482, 483, 484, 485, 486, 487, 488, 489, 490, 491, 492, 493, 494, 495, 496, 497, 498, 499, 500, 501, 502, 503, 504, 505, 506, 507, 508, 509, 510, 511, 512, 513, 514, 515, 516, 517, 518, 519, 520, 521, 522, 523, 524, 525, 526, 527, 528, 529, 530, 531, 532, 533, 534, 535, 536, 537, 538, 539, 540, 541, 542, 543, 544, 545, 546, 547, 548, 549, 550, 551, 552, 553, 554, 555, 556, 557, 558, 559, 560, 561, 562, 563, 564, 565, 566, 567, 568, 569, 570, 571, 572, 573, 574, 575, 576, 577, 578, 579, 580, 581, 582, 583, 584, 585, 586, 587, 588, 589, 590, 591, 592, 593, 594, 595, 596, 597, 598, 599, 600, 601, 602, 603, 604, 605, 606, 607, 608, 609, 610, 611, 612, 613, 614, 615, 616, 617, 618, 619, 620, 621, 622, 623, 624, 625, 626, 627, 628, 629, 630, 631, 632, 633, 634, 635, 636, 637, 638, 639, 640, 641, 642, 643, 644, 645, 646, 647, 648, 649, 650, 651, 652, 653, 654, 655, 656, 657, 658, 659, 660, 661, 662, 663, 664, 665, 666, 667, 668, 669, 670, 671, 672, 673, 674, 675, 676, 677, 678, 679, 680, 681, 682, 683, 684, 685, 686, 687, 688, 689, 690, 691, 692, 693, 694, 695, 696, 697, 698, 699, 700, 701, 702, 703, 704, 705, 706, 707, 708, 709, 710, 711, 712, 713, 714, 715, 716, 717, 718, 719, 720, 721, 722, 723, 724, 725, 726, 727, 728, 729, 730, 731, 732, 733, 734, 735, 736, 737, 738, 739, 740, 741, 742, 743, 744, 745, 746, 747, 748, 749, 750, 751, 752, 753, 754, 755, 756, 757, 758, 759, 760, 761, 762, 763, 764, 765, 766, 767, 768, 769, 770, 771, 772, 773, 774, 775, 776, 777, 778, 779, 780, 781, 782, 783, 784, 785, 786, 787, 788, 789, 790, 791, 792, 793, 794, 795, 796, 797, 798, 799, 800, 801, 802, 803, 804, 805, 806, 807, 808, 809, 810, 811, 812, 813, 814, 815, 816, 817, 818, 819, 820, 821, 822, 823, 824, 825, 826, 827, 828, 829, 830, 831, 832, 833, 834, 835, 836, 837, 838, 839, 840, 841, 842, 843, 844, 845, 846, 847, 848, 849, 850, 851, 852, 853, 854, 855, 856, 857, 858, 859, 860, 861, 862, 863, 864, 865, 866, 867, 868, 869, 870, 871, 872, 873, 874, 875, 876, 877, 878, 879, 880, 881, 882, 883, 884, 885, 886, 887, 888, 889, 890, 891, 892, 893, 894, 895, 896, 897, 898, 899, 900, 901, 902, 903, 904, 905, 906, 907, 908, 909, 910, 911, 912, 913, 914, 915, 916, 917, 918, 919, 920, 921, 922, 923, 924, 925, 926, 927, 928, 929, 930, 931, 932, 933, 934, 935, 936, 937, 938, 939, 940, 941, 942, 943, 944, 945, 946, 947, 948, 949, 950, 951, 952, 953, 954, 955, 956, 957, 958, 959, 960, 961, 962, 963, 964, 965, 966, 967, 968, 969, 970, 971, 972, 973, 974, 975, 976, 977, 978, 979, 980, 981, 982, 983, 984, 985, 986, 987, 988, 989, 990, 991, 992, 993, 994, 995, 996, 997, 998, 999, 1000, 1001, 1002, 1003, 1004, 1005, 1006, 1007, 1008, 1009, 1010, 1011, 1012, 1013, 1014, 1015, 1016, 1017, 1018, 1019, 1020, 1021, 1022, 1023, 1024, 1025, 1026, 1027, 1028, 1029, 1030, 1031, 1032, 1033, 1034, 1035, 1036, 1037, 1038, 1039, 1040, 1041, 1042, 1043, 1044, 1045, 1046, 1047, 1048, 1049, 1050, 1051, 1052, 1053, 1054, 1055, 1056, 1057, 1058, 1059, 1060, 1061, 1062, 1063, 1064, 1065, 1066, 1067, 1068, 1069, 1070, 1071, 1072, 1073],
      "AcquisitionTime": ["162210.122500", "162210.582500", "162211.042500", "162211.502500", "162211.962500", "162212.422500", "162212.882500", "162213.342500", "162213.802500", "162214.262500", "162214.722500", "162215.182500", "162215.642500", "162216.102500", "162216.562500", "162217.022500", "162217.482500", "162217.942500", "162218.402500", "162218.862500", "162219.322500", "162219.782500", "162220.242500", "162220.702500", "162221.162500", "162221.622500", "162222.082500", "162222.542500", "162223.002500", "162223.462500", "162223.922500", "162224.382500", "162224.842500", "162225.302500", "162225.762500", "162226.222500", "162226.682500", "162227.142500", "162227.602500", "162228.062500", "162228.522500", "162228.982500", "162229.442500", "162229.902500", "162230.362500", "162230.822500", "162231.282500", "162231.742500", "162232.202500", "162232.662500", "162233.122500", "162233.582500", "162234.042500", "162234.502500", "162234.962500", "162235.422500", "162235.882500", "162236.342500", "162236.802500", "162237.262500", "162237.722500", "162238.182500", "162238.642500", "162239.102500", "162239.562500", "162240.022500", "162240.482500", "162240.942500", "162241.402500", "162241.862500", "162242.322500", "162242.782500", "162243.242500", "162243.702500", "162244.162500", "162244.622500", "162245.082500", "162245.542500", "162246.002500", "162246.462500", "162246.922500", "162247.382500", "162247.842500", "162248.302500", "162248.762500", "162249.222500", "162249.682500", "162250.142500", "162250.602500", "162251.062500", "162251.522500", "162251.982500", "162252.442500", "162252.902500", "162253.362500", "162253.822500", "162254.282500", "162254.742500", "162255.202500", "162255.662500", "162256.122500", "162256.582500", "162257.042500", "162257.502500", "162257.962500", "162258.422500", "162258.882500", "162259.342500", "162259.802500", "162300.262500", "162300.722500", "162301.182500", "162301.642500", "162302.102500", "162302.562500", "162303.022500", "162303.482500", "162303.942500", "162304.402500", "162304.862500", "162305.322500", "162305.782500", "162306.242500", "162306.702500", "162307.162500", "162307.622500", "162308.082500", "162308.542500", "162309.002500", "162309.462500", "162309.922500", "162310.382500", "162310.842500", "162311.302500", "162311.762500", "162312.222500", "162312.682500", "162313.142500", "162313.602500", "162314.062500", "162314.522500", "162314.982500", "162315.442500", "162315.902500", "162316.362500", "162316.822500", "162317.282500", "162317.742500", "162318.202500", "162318.662500", "162319.122500", "162319.582500", "162320.042500", "162320.502500", "162320.962500", "162321.422500", "162321.882500", "162322.342500", "162322.802500", "162323.262500", "162323.722500", "162324.182500", "162324.642500", "162325.102500", "162325.562500", "162326.022500", "162326.482500", "162326.942500", "162327.402500", "162327.862500", "162328.322500", "162328.782500", "162329.242500", "162329.702500", "162330.162500", "162330.622500", "162331.082500", "162331.542500", "162332.002500", "162332.462500", "162332.922500", "162333.382500", "162333.842500", "162334.302500", "162334.762500", "162335.222500", "162335.682500", "162336.142500", "162336.602500", "162337.062500", "162337.522500", "162337.982500", "162338.442500", "162338.902500", "162339.362500", "162339.822500", "162340.282500", "162340.742500", "162341.202500", "162341.662500", "162342.122500", "162342.582500", "162343.042500", "162343.502500", "162343.962500", "162344.422500", "162344.882500", "162345.342500", "162345.802500", "162346.262500", "162346.722500", "162347.182500", "162347.642500", "162348.102500", "162348.562500", "162349.022500", "162349.482500", "162349.942500", "162350.402500", "162350.862500", "162351.322500", "162351.782500", "162352.242500", "162352.702500", "162353.162500", "162353.622500", "162354.082500", "162354.542500", "162355.002500", "162355.462500", "162355.922500", "162356.382500", "162356.842500", "162357.302500", "162357.762500", "162358.222500", "162358.682500", "162359.142500", "162359.602500", "162400.062500", "162400.522500", "162400.982500", "162401.442500", "162401.902500", "162402.362500", "162402.822500", "162403.282500", "162403.742500", "162404.202500", "162404.662500", "162405.122500", "162405.582500", "162406.042500", "162406.502500", "162406.962500", "162407.422500", "162407.882500", "162408.342500", "162408.802500", "162409.262500", "162409.722500", "162410.182500", "162410.642500", "162411.102500", "162411.562500", "162412.022500", "162412.482500", "162412.942500", "162413.402500", "162413.862500", "162414.322500", "162414.782500", "162415.242500", "162415.702500", "162416.162500", "162416.622500", "162417.082500", "162417.542500", "162418.002500", "162418.462500", "162418.922500", "162419.382500", "162419.842500", "162420.302500", "162420.762500", "162421.222500", "162421.682500", "162422.142500", "162422.602500", "162423.062500", "162423.522500", "162423.982500", "162424.442500", "162424.902500", "162425.362500", "162425.822500", "162426.282500", "162426.742500", "162427.202500", "162427.662500", "162428.122500", "162428.582500", "162429.042500", "162429.502500", "162429.962500", "162430.422500", "162430.882500", "162431.342500", "162431.802500", "162432.262500", "162432.722500", "162433.182500", "162433.642500", "162434.102500", "162434.562500", "162435.022500", "162435.482500", "162435.942500", "162436.402500", "162436.862500", "162437.322500", "162437.782500", "162438.242500", "162438.702500", "162439.162500", "162439.622500", "162440.082500", "162440.542500", "162441.002500", "162441.462500", "162441.922500", "162442.382500", "162442.842500", "162443.302500", "162443.762500", "162444.222500", "162444.682500", "162445.142500", "162445.602500", "162446.062500", "162446.522500", "162446.982500", "162447.442500", "162447.902500", "162448.362500", "162448.822500", "162449.282500", "162449.742500", "162450.202500", "162450.662500", "162451.122500", "162451.582500", "162452.042500", "162452.502500", "162452.962500", "162453.422500", "162453.882500", "162454.342500", "162454.802500", "162455.262500", "162455.722500", "162456.182500", "162456.642500", "162457.102500", "162457.562500", "162458.022500", "162458.482500", "162458.942500", "162459.402500", "162459.862500", "162500.322500", "162500.782500", "162501.242500", "162501.702500", "162502.162500", "162502.622500", "162503.082500", "162503.542500", "162504.002500", "162504.462500", "162504.922500", "162505.382500", "162505.842500", "162506.302500", "162506.762500", "162507.222500", "162507.682500", "162508.142500", "162508.602500", "162509.062500", "162509.522500", "162509.982500", "162510.442500", "162510.902500", "162511.362500", "162511.822500", "162512.282500", "162512.742500", "162513.202500", "162513.662500", "162514.122500", "162514.582500", "162515.042500", "162515.502500", "162515.962500", "162516.422500", "162516.882500", "162517.342500", "162517.802500", "162518.262500", "162518.722500", "162519.182500", "162519.642500", "162520.102500", "162520.562500", "162521.022500", "162521.482500", "162521.942500", "162522.402500", "162522.862500", "162523.322500", "162523.782500", "162524.242500", "162524.702500", "162525.162500", "162525.622500", "162526.082500", "162526.542500", "162527.002500", "162527.462500", "162527.922500", "162528.382500", "162528.842500", "162529.302500", "162529.762500", "162530.222500", "162530.682500", "162531.142500", "162531.602500", "162532.062500", "162532.522500", "162532.982500", "162533.442500", "162533.902500", "162534.362500", "162534.822500", "162535.282500", "162535.742500", "162536.202500", "162536.662500", "162537.122500", "162537.582500", "162538.042500", "162538.502500", "162538.962500", "162539.422500", "162539.882500", "162540.342500", "162540.802500", "162541.262500", "162541.722500", "162542.182500", "162542.642500", "162543.102500", "162543.562500", "162544.022500", "162544.482500", "162544.942500", "162545.402500", "162545.862500", "162546.322500", "162546.782500", "162547.242500", "162547.702500", "162548.162500", "162548.622500", "162549.082500", "162549.542500", "162550.002500", "162550.462500", "162550.922500", "162551.382500", "162551.842500", "162552.302500", "162552.762500", "162553.222500", "162553.682500", "162554.142500", "162554.602500", "162555.062500", "162555.522500", "162555.982500", "162556.442500", "162556.902500", "162557.362500", "162557.822500", "162558.282500", "162558.742500", "162559.202500", "162559.662500", "162600.122500", "162600.582500", "162601.042500", "162601.502500", "162601.962500", "162602.422500", "162602.882500", "162603.342500", "162603.802500", "162604.262500", "162604.722500", "162605.182500", "162605.642500", "162606.102500", "162606.562500", "162607.022500", "162607.482500", "162607.942500", "162608.402500", "162608.862500", "162609.322500", "162609.782500", "162610.242500", "162610.702500", "162611.162500", "162611.622500", "162612.082500", "162612.542500", "162613.002500", "162613.462500", "162613.922500", "162614.382500", "162614.842500", "162615.302500", "162615.762500", "162616.222500", "162616.682500", "162617.142500", "162617.602500", "162618.062500", "162618.522500", "162618.982500", "162619.442500", "162619.902500", "162620.362500", "162620.822500", "162621.282500", "162621.742500", "162622.202500", "162622.662500", "162623.122500", "162623.582500", "162624.042500", "162624.502500", "162624.962500", "162625.422500", "162625.882500", "162626.342500", "162626.802500", "162627.262500", "162627.722500", "162628.182500", "162628.642500", "162629.102500", "162629.562500", "162630.022500", "162630.482500", "162630.942500", "162631.402500", "162631.862500", "162632.322500", "162632.782500", "162633.242500", "162633.702500", "162634.162500", "162634.622500", "162635.082500", "162635.542500", "162636.002500", "162636.462500", "162636.922500", "162637.382500", "162637.842500", "162638.302500", "162638.762500", "162639.222500", "162639.682500", "162640.142500", "162640.602500", "162641.062500", "162641.522500", "162641.982500", "162642.442500", "162642.902500", "162643.362500", "162643.822500", "162644.282500", "162644.742500", "162645.202500", "162645.662500", "162646.122500", "162646.582500", "162647.042500", "162647.502500", "162647.962500", "162648.422500", "162648.882500", "162649.342500", "162649.802500", "162650.262500", "162650.722500", "162651.182500", "162651.642500", "162652.102500", "162652.562500", "162653.022500", "162653.482500", "162653.942500", "162654.402500", "162654.862500", "162655.322500", "162655.782500", "162656.242500", "162656.702500", "162657.162500", "162657.622500", "162658.082500", "162658.542500", "162659.002500", "162659.462500", "162659.922500", "162700.382500", "162700.842500", "162701.302500", "162701.762500", "162702.222500", "162702.682500", "162703.142500", "162703.602500", "162704.062500", "162704.522500", "162704.982500", "162705.442500", "162705.902500", "162706.362500", "162706.822500", "162707.282500", "162707.742500", "162708.202500", "162708.662500", "162709.122500", "162709.582500", "162710.042500", "162710.502500", "162710.962500", "162711.422500", "162711.882500", "162712.342500", "162712.802500", "162713.262500", "162713.722500", "162714.182500", "162714.642500", "162715.102500", "162715.562500", "162716.022500", "162716.482500", "162716.942500", "162717.402500", "162717.862500", "162718.322500", "162718.782500", "162719.242500", "162719.702500", "162720.162500", "162720.622500", "162721.082500", "162721.542500", "162722.002500", "162722.462500", "162722.922500", "162723.382500", "162723.842500", "162724.302500", "162724.762500", "162725.222500", "162725.682500", "162726.142500", "162726.602500", "162727.062500", "162727.522500", "162727.982500", "162728.442500", "162728.902500", "162729.362500", "162729.822500", "162730.282500", "162730.742500", "162731.202500", "162731.662500", "162732.122500", "162732.582500", "162733.042500", "162733.502500", "162733.962500", "162734.422500", "162734.882500", "162735.342500", "162735.802500", "162736.262500", "162736.722500", "162737.182500", "162737.642500", "162738.102500", "162738.562500", "162739.022500", "162739.482500", "162739.942500", "162740.402500", "162740.862500", "162741.322500", "162741.782500", "162742.242500", "162742.702500", "162743.162500", "162743.622500", "162744.082500", "162744.542500", "162745.002500", "162745.462500", "162745.922500", "162746.382500", "162746.842500", "162747.302500", "162747.762500", "162748.222500", "162748.682500", "162749.142500", "162749.602500", "162750.062500", "162750.522500", "162750.982500", "162751.442500", "162751.902500", "162752.362500", "162752.822500", "162753.282500", "162753.742500", "162754.202500", "162754.662500", "162755.122500", "162755.582500", "162756.042500", "162756.502500", "162756.962500", "162757.422500", "162757.882500", "162758.342500", "162758.802500", "162759.262500", "162759.722500", "162800.182500", "162800.642500", "162801.102500", "162801.562500", "162802.022500", "162802.482500", "162802.942500", "162803.402500", "162803.862500", "162804.322500", "162804.782500", "162805.242500", "162805.702500", "162806.162500", "162806.622500", "162807.082500", "162807.542500", "162808.002500", "162808.462500", "162808.922500", "162809.382500", "162809.842500", "162810.302500", "162810.762500", "162811.222500", "162811.682500", "162812.142500", "162812.602500", "162813.062500", "162813.522500", "162813.982500", "162814.442500", "162814.902500", "162815.362500", "162815.822500", "162816.282500", "162816.742500", "162817.202500", "162817.662500", "162818.122500", "162818.582500", "162819.042500", "162819.502500", "162819.962500", "162820.422500", "162820.882500", "162821.342500", "162821.802500", "162822.262500", "162822.722500", "162823.182500", "162823.642500", "162824.102500", "162824.562500", "162825.022500", "162825.482500", "162825.942500", "162826.402500", "162826.862500", "162827.322500", "162827.782500", "162828.242500", "162828.702500", "162829.162500", "162829.622500", "162830.082500", "162830.542500", "162831.002500", "162831.462500", "162831.922500", "162832.382500", "162832.842500", "162833.302500", "162833.762500", "162834.222500", "162834.682500", "162835.142500", "162835.602500", "162836.062500", "162836.522500", "162836.982500", "162837.442500", "162837.902500", "162838.362500", "162838.822500", "162839.282500", "162839.742500", "162840.202500", "162840.662500", "162841.122500", "162841.582500", "162842.042500", "162842.502500", "162842.962500", "162843.422500", "162843.882500", "162844.342500", "162844.802500", "162845.262500", "162845.722500", "162846.182500", "162846.642500", "162847.102500", "162847.562500", "162848.022500", "162848.482500", "162848.942500", "162849.402500", "162849.862500", "162850.322500", "162850.782500", "162851.242500", "162851.702500", "162852.162500", "162852.622500", "162853.082500", "162853.542500", "162854.002500", "162854.462500", "162854.922500", "162855.382500", "162855.842500", "162856.302500", "162856.762500", "162857.222500", "162857.682500", "162858.142500", "162858.602500", "162859.062500", "162859.522500", "162859.982500", "162900.442500", "162900.902500", "162901.362500", "162901.822500", "162902.282500", "162902.742500", "162903.202500", "162903.662500", "162904.122500", "162904.582500", "162905.042500", "162905.502500", "162905.962500", "162906.422500", "162906.882500", "162907.342500", "162907.802500", "162908.262500", "162908.722500", "162909.182500", "162909.642500", "162910.102500", "162910.562500", "162911.022500", "162911.482500", "162911.942500", "162912.402500", "162912.862500", "162913.322500", "162913.782500", "162914.242500", "162914.702500", "162915.162500", "162915.622500", "162916.082500", "162916.542500", "162917.002500", "162917.462500", "162917.922500", "162918.382500", "162918.842500", "162919.302500", "162919.762500", "162920.222500", "162920.682500", "162921.142500", "162921.602500", "162922.062500", "162922.522500", "162922.982500", "162923.442500", "162923.902500", "162924.362500", "162924.822500", "162925.282500", "162925.742500", "162926.202500", "162926.662500", "162927.122500", "162927.582500", "162928.042500", "162928.502500", "162928.962500", "162929.422500", "162929.882500", "162930.342500", "162930.802500", "162931.262500", "162931.722500", "162932.182500", "162932.642500", "162933.102500", "162933.562500", "162934.022500", "162934.482500", "162934.942500", "162935.402500", "162935.862500", "162936.322500", "162936.782500", "162937.242500", "162937.702500", "162938.162500", "162938.622500", "162939.082500", "162939.542500", "162940.002500", "162940.462500", "162940.922500", "162941.382500", "162941.842500", "162942.302500", "162942.762500", "162943.222500", "162943.682500", "162944.142500", "162944.602500", "162945.062500", "162945.522500", "162945.982500", "162946.442500", "162946.902500", "162947.362500", "162947.822500", "162948.282500", "162948.742500", "162949.202500", "162949.662500", "162950.122500", "162950.582500", "162951.042500", "162951.502500", "162951.962500", "162952.422500", "162952.882500", "162953.342500", "162953.802500", "162954.262500", "162954.722500", "162955.182500", "162955.642500", "162956.102500", "162956.562500", "162957.022500", "162957.482500", "162957.942500", "162958.402500", "162958.862500", "162959.322500", "162959.782500", "163000.242500", "163000.702500", "163001.162500", "163001.622500", "163002.082500", "163002.542500", "163003.002500", "163003.462500", "163003.922500", "163004.382500", "163004.842500", "163005.302500", "163005.762500", "163006.222500", "163006.682500", "163007.142500", "163007.602500", "163008.062500", "163008.522500", "163008.982500", "163009.442500", "163009.902500", "163010.362500", "163010.822500", "163011.282500", "163011.742500", "163012.202500", "163012.662500", "163013.122500", "163013.582500", "163014.042500", "163014.502500", "163014.962500", "163015.422500", "163015.882500", "163016.342500", "163016.802500", "163017.262500", "163017.722500", "163018.182500", "163018.642500", "163019.102500", "163019.562500", "163020.022500", "163020.482500", "163020.942500", "163021.402500", "163021.862500", "163022.322500", "163022.782500", "163023.242500"],
