{
  "AcquisitionMatrixPE": 140,
  "AcquisitionNumber": 1,
  "AcquisitionTime": "19:53:42.730000",
  "BandwidthPerPixelPhaseEncode": 10.352,
  "BaseResolution": 140,
  "BodyPartExamined": "BRAIN",
  "ConsistencyInfo": "N4_VE11E_LATEST_20181129",
  "ConversionSoftware": "dcm2niix",
  "ConversionSoftwareVersion": "v1.0.20201102",
  "DerivedVendorReportedEchoSpacing": 0.000689998,
  "DeviceSerialNumber": "66112",
  "DiffusionScheme": "Monopolar",
  "DwellTime": 2.1e-06,
  "EchoTime": 0.088,
  "EchoTrainLength": 105,
  "EffectiveEchoSpacing": 0.000689998,
  "FlipAngle": 90,
  "ImageComments": "Unaliased MB3/PE3",
  "ImageOrientationPatientDICOM": [0.999963, 0.00683342, 0.00526176, -0.00785387, 0.973586, 0.228186],
  "ImageType": [
    "ORIGINAL",
    "PRIMARY",
    "DIFFUSION",
    "NONE",
    "MB",
    "ND"
],
  "ImagingFrequency": 123.252,
  "InPlanePhaseEncodingDirectionDICOM": "COL",
  "InstitutionAddress": "Maynard 3,Hanover,NH,US,03755",
  "InstitutionName": "Dartmouth College - PBS",
  "InstitutionalDepartmentName": "Department",
  "IntendedFor": [
    "ses-01/dwi/sub-0056_ses-01_acq-96dirX6b0Xmb_dwi.nii.gz"
],
  "MRAcquisitionType": "2D",
  "MagneticFieldStrength": 3,
  "Manufacturer": "Siemens",
  "ManufacturersModelName": "Prisma",
  "Modality": "MR",
  "MultibandAccelerationFactor": 3,
  "PartialFourier": 0.75,
  "PatientPosition": "HFS",
  "PercentPhaseFOV": 100,
  "PercentSampling": 100,
  "PhaseEncodingDirection": "j",
  "PhaseEncodingSteps": 105,
  "PhaseResolution": 1,
  "PixelBandwidth": 1700,
  "ProcedureStepDescription": "Wager_Wager^1076_spacetop",
  "ProtocolName": "dwi_acq-discorr-PA",
  "PulseSequenceDetails": "%CustomerSeq%\\cmrr_mbep2d_diff",
  "ReceiveCoilActiveElements": "HEA;HEP",
  "ReceiveCoilName": "Head_32",
  "ReconMatrixPE": 140,
  "RepetitionTime": 4.1,
  "SAR": 0.147919,
  "ScanOptions": "PFP\\FS",
  "ScanningSequence": "EP",
  "SequenceName": "ep_b0",
  "SequenceVariant": "SK\\SS",
  "SeriesDescription": "dwi_acq-discorr-PA",
  "SeriesNumber": 6,
  "ShimSetting": [4154, -7753, -7234, 729, 9, -281, 18, 72],
  "SliceThickness": 1.7,
  "SliceTiming": [0, 2.10938, 0.14062, 2.26562, 0.29688, 2.40625, 0.45312, 2.5625, 0.59375, 2.71875, 0.75, 2.875, 0.90625, 3.01562, 1.04688, 3.17188, 1.20312, 3.32812, 1.35938, 3.46875, 1.51562, 3.625, 1.65625, 3.76562, 1.8125, 3.92188, 1.95312, 0, 2.10938, 0.14062, 2.26562, 0.29688, 2.40625, 0.45312, 2.5625, 0.59375, 2.71875, 0.75, 2.875, 0.90625, 3.01562, 1.04688, 3.17188, 1.20312, 3.32812, 1.35938, 3.46875, 1.51562, 3.625, 1.65625, 3.76562, 1.8125, 3.92188, 1.95312, 0, 2.10938, 0.14062, 2.26562, 0.29688, 2.40625, 0.45312, 2.5625, 0.59375, 2.71875, 0.75, 2.875, 0.90625, 3.01562, 1.04688, 3.17188, 1.20312, 3.32812, 1.35938, 3.46875, 1.51562, 3.625, 1.65625, 3.76562, 1.8125, 3.92188, 1.95312],
  "SoftwareVersions": "syngo MR E11",
  "SpacingBetweenSlices": 1.7,
  "StationName": "AWP66112",
  "TotalReadoutTime": 0.0959097,
  "TxRefAmp": 229.553,
  "WipMemBlock": "d57abed2-7664-4d2b-9086-dcedaa3fc4a2||Sequence: R016 ve11e/master r/434b28f1; Aug  7 2019 19:06:17 by eja",
  "dcmmeta_affine": [
    [-1.7142219543457031, -0.013463780283927917, 0.0060577392578125, 124.69124603271484],
    [-0.011714431457221508, 1.669004201889038, 0.387969970703125, -108.23268127441406],
    [0.009020151570439339, -0.3911767601966858, 1.6551246643066406, -59.8918342590332],
    [0.0, 0.0, 0.0, 1.0]
],
  "dcmmeta_reorient_transform": [
    [0.0, -1.0, 0.0, 139.0],
    [1.0, 0.0, 0.0, 0.0],
    [0.0, 0.0, -1.0, 80.0],
    [0.0, 0.0, 0.0, 1.0]
],
  "dcmmeta_shape": [140, 140, 81],
  "dcmmeta_slice_dim": 2,
  "dcmmeta_version": 0.6,
  "global": {
    "const": {
      "AccessionNumber": "A003888",
      "AcquisitionMatrix": [140, 0, 0, 140],
      "AcquisitionNumber": 1,
      "AngioFlag": "N",
      "BitsAllocated": 16,
      "BitsStored": 16,
      "BodyPartExamined": "BRAIN",
      "Columns": 140,
      "EchoNumbers": 1,
      "EchoTime": 88.0,
      "EchoTrainLength": 105,
      "FlipAngle": 90.0,
      "HighBit": 15,
      "ImageOrientationPatient": [0.99996280847337, 0.00683341817144, 0.00526175504388, -0.007853871969, 0.97358577837718, 0.22818643438381],
      "ImageType": [
        "ORIGINAL",
        "PRIMARY",
        "DIFFUSION",
        "NONE",
        "MB",
        "ND"
],
      "ImagedNucleus": "1H",
      "ImagingFrequency": 123.252202,
      "InPlanePhaseEncodingDirection": "COL",
      "MRAcquisitionType": "2D",
      "MagneticFieldStrength": 3.0,
      "Manufacturer": "SIEMENS",
      "ManufacturerModelName": "Prisma",
      "Modality": "MR",
      "NumberOfAverages": 1.0,
      "NumberOfPhaseEncodingSteps": 105,
      "PercentPhaseFieldOfView": 100.0,
      "PercentSampling": 100.0,
      "PerformedProcedureStepStartTime": "193759.322000",
      "PhotometricInterpretation": "MONOCHROME2",
      "PixelBandwidth": 1700.0,
      "PixelRepresentation": 0,
      "PixelSpacing": [1.7142857313156, 1.7142857313156],
      "ProtocolName": "dwi_acq-discorr-PA",
      "RepetitionTime": 4100.0,
      "Rows": 140,
      "SAR": 0.14791909867837,
      "SamplesPerPixel": 1,
      "ScanOptions": [
        "PFP",
        "FS"
],
      "ScanningSequence": "EP",
      "SequenceName": "ep_b0",
      "SequenceVariant": [
        "SK",
        "SS"
],
      "SeriesDescription": "dwi_acq-discorr-PA",
      "SeriesNumber": 6,
      "SeriesTime": "195347.401000",
      "SliceThickness": 1.7000000476837,
      "SmallestImagePixelValue": 0,
      "SoftwareVersions": "syngo MR E11",
      "SpacingBetweenSlices": 1.7,
      "SpecificCharacterSet": "ISO_IR 100",
      "StudyID": "1",
      "StudyTime": "193759.263000",
      "TransmitCoilName": "Body",
      "VariableFlipAngleFlag": "N",
      "WindowCenterWidthExplanation": "Algo1"
    },
    "slices": {
      "AcquisitionTime": ["195342.730000", "195344.845000", "195342.882500", "195344.997500", "195343.032500", "195345.147500", "195343.185000", "195345.300000", "195343.335000", "195345.450000", "195343.485000", "195345.602500", "195343.637500", "195345.752500", "195343.787500", "195345.905000", "195343.940000", "195346.055000", "195344.090000", "195346.205000", "195344.242500", "195346.357500", "195344.392500", "195346.507500", "195344.545000", "195346.660000", "195344.695000", "195342.730000", "195344.845000", "195342.882500", "195344.997500", "195343.032500", "195345.147500", "195343.185000", "195345.300000", "195343.335000", "195345.450000", "195343.485000", "195345.602500", "195343.637500", "195345.752500", "195343.787500", "195345.905000", "195343.940000", "195346.055000", "195344.090000", "195346.205000", "195344.242500", "195346.357500", "195344.392500", "195346.507500", "195344.545000", "195346.660000", "195344.695000", "195342.730000", "195344.845000", "195342.882500", "195344.997500", "195343.032500", "195345.147500", "195343.185000", "195345.300000", "195343.335000", "195345.450000", "195343.485000", "195345.602500", "195343.637500", "195345.752500", "195343.787500", "195345.905000", "195343.940000", "195346.055000", "195344.090000", "195346.205000", "195344.242500", "195346.357500", "195344.392500", "195346.507500", "195344.545000", "195346.660000", "195344.695000"],
      "ContentTime": ["195347.404000", "195347.490000", "195347.411000", "195347.496000", "195347.417000", "195347.502000", "195347.423000", "195347.508000", "195347.430000", "195347.515000", "195347.436000", "195347.521000", "195347.442000", "195347.531000", "195347.449000", "195347.537000", "195347.455000", "195347.543000", "195347.461000", "195347.549000", "195347.467000", "195347.555000", "195347.472000", "195347.561000", "195347.478000", "195347.567000", "195347.484000", "195347.407000", "195347.492000", "195347.413000", "195347.498000", "195347.419000", "195347.504000", "195347.425000", "195347.510000", "195347.432000", "195347.517000", "195347.438000", "195347.523000", "195347.445000", "195347.533000", "195347.451000", "195347.539000", "195347.457000", "195347.545000", "195347.463000", "195347.551000", "195347.469000", "195347.557000", "195347.474000", "195347.563000", "195347.480000", "195347.569000", "195347.486000", "195347.409000", "195347.494000", "195347.415000", "195347.500000", "195347.421000", "195347.506000", "195347.428000", "195347.512000", "195347.434000", "195347.519000", "195347.440000", "195347.529000", "195347.447000", "195347.535000", "195347.453000", "195347.541000", "195347.459000", "195347.547000", "195347.465000", "195347.553000", "195347.470000", "195347.559000", "195347.476000", "195347.565000", "195347.482000", "195347.571000", "195347.488000"],
      "CsaImage.GSWDDataType": [
        "predicted",
        "predicted",
        "predicted",
        "predicted",
        "predicted",
        "predicted",
        "predicted",
        "predicted",
        "predicted",
        "predicted",
        "predicted",
        "predicted",
        "predicted",
        "predicted",
        "predicted",
        "predicted",
        "predicted",
        "predicted",
        "predicted",
        "predicted",
        "predicted",
        "predicted",
        "predicted",
        "measured",
        "predicted",
        "measured",
        "predicted",
        "predicted",
        "predicted",
        "predicted",
        "predicted",
        "predicted",
        "predicted",
        "predicted",
        "predicted",
        "predicted",
        "predicted",
        "predicted",
        "predicted",
        "predicted",
        "predicted",
        "predicted",
        "predicted",
        "predicted",
        "predicted",
        "predicted",
        "predicted",
        "predicted",
        "predicted",
        "predicted",
        "measured",
        "predicted",
        "measured",
        "predicted",
        "predicted",
        "predicted",
        "predicted",
        "predicted",
        "predicted",
        "predicted",
        "predicted",
        "predicted",
        "predicted",
        "predicted",
        "predicted",
        "predicted",
        "predicted",
        "predicted",
        "predicted",
        "predicted",
        "predicted",
        "predicted",
        "predicted",
        "predicted",
        "predicted",
        "predicted",
        "predicted",
        "measured",
        "predicted",
        "measured",
        "predicted"
],
      "CsaImage.ICE_Dims": [
        "X_1_1_1_1_1_1_1_1_1_1_1_187",
        "X_1_1_1_1_1_1_42_1_1_2_1_187",
        "X_1_1_1_1_1_1_2_1_1_3_1_187",
        "X_1_1_1_1_1_1_43_1_1_4_1_187",
        "X_1_1_1_1_1_1_3_1_1_5_1_187",
        "X_1_1_1_1_1_1_44_1_1_6_1_187",
        "X_1_1_1_1_1_1_4_1_1_7_1_187",
        "X_1_1_1_1_1_1_45_1_1_8_1_187",
        "X_1_1_1_1_1_1_5_1_1_9_1_187",
        "X_1_1_1_1_1_1_46_1_1_10_1_187",
        "X_1_1_1_1_1_1_6_1_1_11_1_187",
        "X_1_1_1_1_1_1_47_1_1_12_1_187",
        "X_1_1_1_1_1_1_7_1_1_13_1_187",
        "X_1_1_1_1_1_1_48_1_1_14_1_187",
        "X_1_1_1_1_1_1_8_1_1_15_1_187",
        "X_1_1_1_1_1_1_49_1_1_16_1_187",
        "X_1_1_1_1_1_1_9_1_1_17_1_187",
        "X_1_1_1_1_1_1_50_1_1_18_1_187",
        "X_1_1_1_1_1_1_10_1_1_19_1_187",
        "X_1_1_1_1_1_1_51_1_1_20_1_187",
        "X_1_1_1_1_1_1_11_1_1_21_1_187",
        "X_1_1_1_1_1_1_52_1_1_22_1_187",
        "X_1_1_1_1_1_1_12_1_1_23_1_187",
        "X_1_1_1_1_1_1_53_1_1_24_1_187",
        "X_1_1_1_1_1_1_13_1_1_25_1_187",
        "X_1_1_1_1_1_1_54_1_1_26_1_187",
        "X_1_1_1_1_1_1_14_1_1_27_1_187",
        "X_1_1_1_1_1_1_55_1_1_28_1_187",
        "X_1_1_1_1_1_1_15_1_1_29_1_187",
        "X_1_1_1_1_1_1_56_1_1_30_1_187",
        "X_1_1_1_1_1_1_16_1_1_31_1_187",
        "X_1_1_1_1_1_1_57_1_1_32_1_187",
        "X_1_1_1_1_1_1_17_1_1_33_1_187",
        "X_1_1_1_1_1_1_58_1_1_34_1_187",
        "X_1_1_1_1_1_1_18_1_1_35_1_187",
        "X_1_1_1_1_1_1_59_1_1_36_1_187",
        "X_1_1_1_1_1_1_19_1_1_37_1_187",
        "X_1_1_1_1_1_1_60_1_1_38_1_187",
        "X_1_1_1_1_1_1_20_1_1_39_1_187",
        "X_1_1_1_1_1_1_61_1_1_40_1_187",
        "X_1_1_1_1_1_1_21_1_1_41_1_187",
        "X_1_1_1_1_1_1_62_1_1_42_1_187",
        "X_1_1_1_1_1_1_22_1_1_43_1_187",
        "X_1_1_1_1_1_1_63_1_1_44_1_187",
        "X_1_1_1_1_1_1_23_1_1_45_1_187",
        "X_1_1_1_1_1_1_64_1_1_46_1_187",
        "X_1_1_1_1_1_1_24_1_1_47_1_187",
        "X_1_1_1_1_1_1_65_1_1_48_1_187",
        "X_1_1_1_1_1_1_25_1_1_49_1_187",
        "X_1_1_1_1_1_1_66_1_1_50_1_187",
        "X_1_1_1_1_1_1_26_1_1_51_1_187",
        "X_1_1_1_1_1_1_67_1_1_52_1_187",
        "X_1_1_1_1_1_1_27_1_1_53_1_187",
        "X_1_1_1_1_1_1_68_1_1_54_1_187",
        "X_1_1_1_1_1_1_28_1_1_55_1_187",
        "X_1_1_1_1_1_1_69_1_1_56_1_187",
        "X_1_1_1_1_1_1_29_1_1_57_1_187",
        "X_1_1_1_1_1_1_70_1_1_58_1_187",
        "X_1_1_1_1_1_1_30_1_1_59_1_187",
        "X_1_1_1_1_1_1_71_1_1_60_1_187",
        "X_1_1_1_1_1_1_31_1_1_61_1_187",
        "X_1_1_1_1_1_1_72_1_1_62_1_187",
        "X_1_1_1_1_1_1_32_1_1_63_1_187",
        "X_1_1_1_1_1_1_73_1_1_64_1_187",
        "X_1_1_1_1_1_1_33_1_1_65_1_187",
        "X_1_1_1_1_1_1_74_1_1_66_1_187",
        "X_1_1_1_1_1_1_34_1_1_67_1_187",
        "X_1_1_1_1_1_1_75_1_1_68_1_187",
        "X_1_1_1_1_1_1_35_1_1_69_1_187",
        "X_1_1_1_1_1_1_76_1_1_70_1_187",
        "X_1_1_1_1_1_1_36_1_1_71_1_187",
        "X_1_1_1_1_1_1_77_1_1_72_1_187",
        "X_1_1_1_1_1_1_37_1_1_73_1_187",
        "X_1_1_1_1_1_1_78_1_1_74_1_187",
        "X_1_1_1_1_1_1_38_1_1_75_1_187",
        "X_1_1_1_1_1_1_79_1_1_76_1_187",
        "X_1_1_1_1_1_1_39_1_1_77_1_187",
        "X_1_1_1_1_1_1_80_1_1_78_1_187",
        "X_1_1_1_1_1_1_40_1_1_79_1_187",
        "X_1_1_1_1_1_1_81_1_1_80_1_187",
        "X_1_1_1_1_1_1_41_1_1_81_1_187"
],
      "CsaImage.ProtocolSliceNumber": [0, 1, 2, 3, 4, 5, 6, 7, 8, 9, 10, 11, 12, 13, 14, 15, 16, 17, 18, 19, 20, 21, 22, 23, 24, 25, 26, 27, 28, 29, 30, 31, 32, 33, 34, 35, 36, 37, 38, 39, 40, 41, 42, 43, 44, 45, 46, 47, 48, 49, 50, 51, 52, 53, 54, 55, 56, 57, 58, 59, 60, 61, 62, 63, 64, 65, 66, 67, 68, 69, 70, 71, 72, 73, 74, 75, 76, 77, 78, 79, 80],
      "CsaImage.RFSWDDataType": [
        "predicted",
        "predicted",
        "predicted",
        "predicted",
        "predicted",
        "predicted",
        "predicted",
        "predicted",
        "predicted",
        "predicted",
        "predicted",
        "predicted",
        "predicted",
        "predicted",
        "predicted",
        "predicted",
        "predicted",
        "predicted",
        "predicted",
        "predicted",
        "predicted",
        "predicted",
        "predicted",
        "measured",
        "predicted",
        "measured",
        "predicted",
        "predicted",
        "predicted",
        "predicted",
        "predicted",
        "predicted",
        "predicted",
        "predicted",
        "predicted",
        "predicted",
        "predicted",
        "predicted",
        "predicted",
        "predicted",
        "predicted",
        "predicted",
        "predicted",
        "predicted",
        "predicted",
        "predicted",
        "predicted",
        "predicted",
        "predicted",
        "predicted",
        "measured",
        "predicted",
        "measured",
        "predicted",
        "predicted",
        "predicted",
        "predicted",
        "predicted",
        "predicted",
        "predicted",
        "predicted",
        "predicted",
        "predicted",
        "predicted",
        "predicted",
        "predicted",
        "predicted",
        "predicted",
        "predicted",
        "predicted",
        "predicted",
        "predicted",
        "predicted",
        "predicted",
        "predicted",
        "predicted",
        "predicted",
        "measured",
        "predicted",
        "measured",
        "predicted"
],
      "CsaImage.SlicePosition_PCS": [
        [-122.81975213, -123.75871321, -114.26534704],
        [-122.82581011, -124.14668556, -112.61021856],
        [-122.83186833, -124.53465792, -110.95509771],
        [-122.83792631, -124.92263027, -109.29997686],
        [-122.84398452, -125.31060263, -107.64484838],
        [-122.8500425, -125.69857498, -105.98972753],
        [-122.85610072, -126.08654781, -104.33459905],
        [-122.86215869, -126.47451969, -102.6794782],
        [-122.86821691, -126.86249252, -101.02435735],
        [-122.87427513, -127.2504644, -99.36922887],
        [-122.8803331, -127.63843723, -97.71410802],
        [-122.88639132, -128.02640911, -96.05897954],
        [-122.8924493, -128.41438194, -94.40385869],
        [-122.89850751, -128.80235382, -92.74873784],
        [-122.90456549, -129.19032665, -91.09360936],
        [-122.91062371, -129.57829853, -89.4384847],
        [-122.91668169, -129.96627136, -87.78336385],
        [-122.9227399, -130.35424419, -86.12823919],
        [-122.92879788, -130.74221607, -84.47311452],
        [-122.93485609, -131.1301889, -82.81798986],
        [-122.94091431, -131.51816078, -81.16286519],
        [-122.94697229, -131.90613361, -79.50774434],
        [-122.9530305, -132.29410549, -77.85261968],
        [-122.95908848, -132.68207832, -76.19749502],
        [-122.9651467, -133.0700502, -74.54237035],
        [-122.97120468, -133.45802303, -72.88724569],
        [-122.97726289, -133.84599491, -71.23212102],
        [-122.98332087, -134.23396679, -69.57700017],
        [-122.98937909, -134.62194057, -67.92187551],
        [-122.9954373, -135.00991245, -66.26675084],
        [-123.00149528, -135.39788433, -64.61162618],
        [-123.0075535, -135.78585811, -62.95650152],
        [-123.01361147, -136.17382999, -61.30138067],
        [-123.01966969, -136.56180187, -59.646256],
        [-123.02572767, -136.94977375, -57.99113134],
        [-123.03178588, -137.33774753, -56.33600667],
        [-123.03784386, -137.72571941, -54.68088392],
        [-123.04390208, -138.11369129, -53.02575925],
        [-123.04996005, -138.50166317, -51.37063459],
        [-123.05601851, -138.88963695, -49.71551183],
        [-123.06207625, -139.27760883, -48.06038717],
        [-123.06813446, -139.66558071, -46.4052625],
        [-123.07419268, -140.05355259, -44.75013974],
        [-123.0802509, -140.44152637, -43.09501508],
        [-123.08630864, -140.82949825, -41.43989137],
        [-123.09236685, -141.21747013, -39.78476766],
        [-123.09842507, -141.60544391, -38.12964395],
        [-123.10448328, -141.99341579, -36.47451928],
        [-123.11054102, -142.38138767, -34.81939557],
        [-123.11659924, -142.76935955, -33.16427186],
        [-123.12265746, -143.15733333, -31.50914768],
        [-123.12871567, -143.54530521, -29.85402385],
        [-123.13477389, -143.93327709, -28.19889982],
        [-123.14083163, -144.32124897, -26.54377583],
        [-123.14688984, -144.70922275, -24.88865188],
        [-123.15294806, -145.09719463, -23.23352817],
        [-123.15900628, -145.48516651, -21.57840398],
        [-123.16506402, -145.8731403, -19.92328027],
        [-123.17112223, -146.26111217, -18.26815561],
        [-123.17718045, -146.64908405, -16.6130319],
        [-123.18323866, -147.03705593, -14.95790819],
        [-123.18929688, -147.42502971, -13.30278447],
        [-123.19535462, -147.81300159, -11.64765981],
        [-123.20141283, -148.20097347, -9.99253705],
        [-123.20747105, -148.58894535, -8.33741239],
        [-123.21352927, -148.97691913, -6.68228772],
        [-123.21958701, -149.36489101, -5.02716497],
        [-123.22564522, -149.75286289, -3.3720403],
        [-123.23170344, -150.14083668, -1.71691564],
        [-123.23776165, -150.52880665, -0.06179288],
        [-123.24381987, -150.91678043, 1.59333178],
        [-123.24987761, -151.30475422, 3.24845454],
        [-123.25593583, -151.69272419, 4.9035792],
        [-123.26199404, -152.08069797, 6.55870387],
        [-123.26805226, -152.46867176, 8.21382853],
        [-123.27411, -152.85664173, 9.86894938],
        [-123.28016821, -153.24461552, 11.52407405],
        [-123.28622643, -153.63258549, 13.17919871],
        [-123.29228465, -154.02055927, 14.83432337],
        [-123.29834286, -154.40853306, 16.48944804],
        [-123.3044006, -154.79650303, 18.1445727]
],
      "CsaImage.TimeAfterStart": [16.4, 18.515, 16.5525, 18.6675, 16.7025, 18.8175, 16.8525, 18.97, 17.005, 19.12, 17.155, 19.2725, 17.3075, 19.4225, 17.4575, 19.5725, 17.61, 19.725, 17.76, 19.875, 17.9125, 20.0275, 18.0625, 20.1775, 18.2125, 20.33, 18.365, 16.4, 18.515, 16.5525, 18.6675, 16.7025, 18.8175, 16.8525, 18.97, 17.005, 19.12, 17.155, 19.2725, 17.3075, 19.4225, 17.4575, 19.5725, 17.61, 19.725, 17.76, 19.875, 17.9125, 20.0275, 18.0625, 20.1775, 18.2125, 20.33, 18.365, 16.4, 18.515, 16.5525, 18.6675, 16.7025, 18.8175, 16.8525, 18.97, 17.005, 19.12, 17.155, 19.2725, 17.3075, 19.4225, 17.4575, 19.5725, 17.61, 19.725, 17.76, 19.875, 17.9125, 20.0275, 18.0625, 20.1775, 18.2125, 20.33, 18.365],
      "ImagePositionPatient": [
        [-122.81975213492, -123.75871320567, -114.26534703549],
        [-122.82581011259, -124.14668556055, -112.61021855649],
        [-122.83186832869, -124.53465791544, -110.95509770688],
        [-122.83792630636, -124.92263027033, -109.29997685727],
        [-122.84398452246, -125.31060262522, -107.64484837827],
        [-122.85004250013, -125.69857498011, -105.98972752866],
        [-122.85610071623, -126.08654781184, -104.33459904965],
        [-122.86215869391, -126.47451968989, -102.67947820004],
        [-122.86821691, -126.86249252161, -101.02435735043],
        [-122.8742751261, -127.25046439967, -99.369228871431],
        [-122.88033310377, -127.63843723139, -97.714108021822],
        [-122.88639131987, -128.02640910944, -96.058979542818],
        [-122.89244929754, -128.41438194117, -94.403858693208],
        [-122.89850751364, -128.80235381922, -92.748737843599],
        [-122.90456549131, -129.19032665095, -91.093609364595],
        [-122.91062370741, -129.578298529, -89.438484700288],
        [-122.91668168509, -129.96627136073, -87.783363850679],
        [-122.92273990118, -130.35424419245, -86.128239186372],
        [-122.92879787886, -130.7422160705, -84.473114522066],
        [-122.93485609495, -131.13018890223, -82.817989857759],
        [-122.94091431105, -131.51816078028, -81.162865193452],
        [-122.94697228872, -131.90613361201, -79.507744343843],
        [-122.95303050482, -132.29410549006, -77.852619679536],
        [-122.9590884825, -132.68207832178, -76.19749501523],
        [-122.96514669859, -133.07005019984, -74.542370350923],
        [-122.97120467627, -133.45802303156, -72.887245686616],
        [-122.97726289236, -133.84599490961, -71.23212102231],
        [-122.98332087004, -134.23396678767, -69.5770001727],
        [-122.98937908613, -134.62194057307, -67.921875508394],
        [-122.99543730223, -135.00991245112, -66.266750844087],
        [-123.0014952799, -135.39788432917, -64.611626179781],
        [-123.007553496, -135.78585811457, -62.956501515474],
        [-123.01361147368, -136.17382999262, -61.301380665864],
        [-123.01966968977, -136.56180187067, -59.646256001558],
        [-123.02572766745, -136.94977374873, -57.991131337251],
        [-123.03178588354, -137.33774753413, -56.336006672945],
        [-123.03784386122, -137.72571941218, -54.680883915987],
        [-123.04390207731, -138.11369129023, -53.02575925168],
        [-123.04996005499, -138.50166316828, -51.370634587373],
        [-123.0560185095, -138.88963695368, -49.715511830415],
        [-123.06207624876, -139.27760883173, -48.060387166109],
        [-123.06813446486, -139.66558070979, -46.405262501802],
        [-123.07419268095, -140.05355258784, -44.750139744844],
        [-123.08025089705, -140.44152637324, -43.095015080537],
        [-123.0863086363, -140.82949825129, -41.439891369905],
        [-123.0923668524, -141.21747012934, -39.784767659273],
        [-123.09842506849, -141.60544391474, -38.12964394864],
        [-123.10448328459, -141.99341579279, -36.474519284334],
        [-123.11054102385, -142.38138767084, -34.819395573701],
        [-123.11659923994, -142.7693595489, -33.164271863069],
        [-123.12265745604, -143.1573333343, -31.5091476756],
        [-123.12871567213, -143.54530521235, -29.854023845758],
        [-123.13477388823, -143.9332770904, -28.198899822201],
        [-123.14083162748, -144.32124896845, -26.543775828447],
        [-123.14688984358, -144.70922275385, -24.888651879396],
        [-123.15294805967, -145.0971946319, -23.233528168764],
        [-123.15900627577, -145.48516650996, -21.578403981294],
        [-123.16506401503, -145.87314029536, -19.923280270662],
        [-123.17112223112, -146.26111217341, -18.268155606355],
        [-123.17718044722, -146.64908405146, -16.613031895723],
        [-123.18323866331, -147.03705592951, -14.957908185091],
        [-123.18929687941, -147.42502971491, -13.302784474458],
        [-123.19535461866, -147.81300159296, -11.647659810152],
        [-123.20141283476, -148.20097347102, -9.9925370531936],
        [-123.20747105085, -148.58894534907, -8.3374123888869],
        [-123.21352926695, -148.97691913447, -6.6822877245803],
        [-123.21958700621, -149.36489101252, -5.0271649676223],
        [-123.2256452223, -149.75286289057, -3.3720403033157],
        [-123.2317034384, -150.14083667597, -1.716915639009],
        [-123.23776165449, -150.52880664667, -0.061792882051],
        [-123.24381987059, -150.91678043208, 1.5933317822556],
        [-123.24987760985, -151.30475421748, 3.2484545392136],
        [-123.25593582594, -151.69272418818, 4.9035792035203],
        [-123.26199404203, -152.08069797358, 6.5587038678269],
        [-123.26805225813, -152.46867175898, 8.2138285321336],
        [-123.27410999739, -152.85664172968, 9.8689493817429],
        [-123.28016821348, -153.24461551508, 11.52407404605],
        [-123.28622642958, -153.63258548579, 13.179198710356],
        [-123.29228464567, -154.02055927119, 14.834323374663],
        [-123.29834286177, -154.40853305659, 16.489448038969],
        [-123.30440060103, -154.79650302729, 18.144572703276]
],
      "InstanceCreationTime": ["195347.404000", "195347.490000", "195347.411000", "195347.496000", "195347.417000", "195347.502000", "195347.423000", "195347.508000", "195347.430000", "195347.515000", "195347.436000", "195347.521000", "195347.442000", "195347.531000", "195347.449000", "195347.537000", "195347.455000", "195347.543000", "195347.461000", "195347.549000", "195347.467000", "195347.555000", "195347.472000", "195347.561000", "195347.478000", "195347.567000", "195347.484000", "195347.407000", "195347.492000", "195347.413000", "195347.498000", "195347.419000", "195347.504000", "195347.425000", "195347.510000", "195347.432000", "195347.517000", "195347.438000", "195347.523000", "195347.445000", "195347.533000", "195347.451000", "195347.539000", "195347.457000", "195347.545000", "195347.463000", "195347.551000", "195347.469000", "195347.557000", "195347.474000", "195347.563000", "195347.480000", "195347.569000", "195347.486000", "195347.409000", "195347.494000", "195347.415000", "195347.500000", "195347.421000", "195347.506000", "195347.428000", "195347.512000", "195347.434000", "195347.519000", "195347.440000", "195347.529000", "195347.447000", "195347.535000", "195347.453000", "195347.541000", "195347.459000", "195347.547000", "195347.465000", "195347.553000", "195347.470000", "195347.559000", "195347.476000", "195347.565000", "195347.482000", "195347.571000", "195347.488000"],
      "InstanceNumber": [1, 2, 3, 4, 5, 6, 7, 8, 9, 10, 11, 12, 13, 14, 15, 16, 17, 18, 19, 20, 21, 22, 23, 24, 25, 26, 27, 28, 29, 30, 31, 32, 33, 34, 35, 36, 37, 38, 39, 40, 41, 42, 43, 44, 45, 46, 47, 48, 49, 50, 51, 52, 53, 54, 55, 56, 57, 58, 59, 60, 61, 62, 63, 64, 65, 66, 67, 68, 69, 70, 71, 72, 73, 74, 75, 76, 77, 78, 79, 80, 81],
      "LargestImagePixelValue": [19407, 10785, 7585, 7873, 8976, 9489, 6764, 8061, 7700, 6750, 15094, 12852, 9601, 12341, 20941, 27119, 24260, 30911, 29116, 30109, 37034, 45132, 51075, 44654, 39567, 33430, 35635, 31200, 36278, 28478, 37003, 39610, 56868, 43476, 40940, 34415, 38562, 34043, 36338, 35402, 50872, 59845, 59470, 49244, 31340, 61750, 65535, 65535, 65535, 65535, 65535, 65535, 65535, 65535, 65535, 65535, 65535, 65535, 48710, 30494, 34804, 28389, 33005, 32503, 36797, 32608, 34431, 28992, 43801, 36476, 47464, 44604, 40655, 39069, 39366, 42268, 38912, 34701, 39075, 34081, 43672],
      "SliceLocation": [-82.567323014255, -80.867320211533, -79.167324835966, -77.467329461248, -75.767326657677, -74.067331282959, -72.367328370564, -70.66733310467, -68.967337620279, -67.267334925531, -65.56733944199, -63.867336747242, -62.167341263701, -60.467345996957, -58.767343085412, -57.067344104666, -55.367348621125, -53.667349422732, -51.967350442836, -50.267351244443, -48.567352263697, -46.867356780156, -45.16735779941, -43.467358601867, -41.767359621121, -40.067360423578, -38.367361442832, -36.667366176937, -34.967366760898, -33.267367780152, -31.567368800256, -29.867369384216, -28.167374118321, -26.467375137576, -24.767376157679, -23.06737674164, -21.367379618744, -19.667380637999, -17.967381658102, -16.267384098214, -14.567385119167, -12.867386138421, -11.167389014676, -9.4673895986369, -7.7673915480907, -6.0673934958452, -4.3673950083061, -2.6673960275602, -0.967397977014, 0.73260007523144, 2.4325990270208, 4.1325971953288, 5.8325955522384, 7.5325938784332, 9.2325925980975, 10.932590650343, 12.632589166839, 14.332587652678, 16.032586633424, 17.73258468567, 19.432582737915, 21.132581225454, 22.832580204501, 24.532577328246, 26.232576308992, 27.932575725031, 29.632572847077, 31.332571827823, 33.032571243863, 34.732567932314, 36.432567348354, 38.132564905693, 39.832563451145, 41.532562867185, 43.232562283224, 44.932557112976, 46.632556529015, 48.332555074467, 50.032554490507, 51.732553906546, 53.432552450299],
