{
  "AcquisitionMatrixPE": 82,
  "AcquisitionNumber": 1,
  "AcquisitionTime": "15:28:59.380000",
  "BandwidthPerPixelPhaseEncode": 24.888,
  "BaseResolution": 82,
  "BodyPartExamined": "BRAIN",
  "ConsistencyInfo": "N4_VE11E_LATEST_20181129",
  "ConversionSoftware": "dcm2niix",
  "ConversionSoftwareVersion": "v1.0.20201102",
  "DerivedVendorReportedEchoSpacing": 0.00049,
  "DeviceSerialNumber": "66112",
  "DwellTime": 2e-06,
  "EchoTime": 0.0272,
  "EchoTrainLength": 82,
  "EffectiveEchoSpacing": 0.00049,
  "FlipAngle": 44,
  "ImageComments": "Unaliased MB8/PE3",
  "ImageOrientationPatientDICOM": [0.994975, 0.0964349, 0.0269242, -0.100013, 0.969857, 0.222205],
  "ImageType": [
    "ORIGINAL",
    "PRIMARY",
    "M",
    "MB",
    "ND",
    "NORM",
    "MOSAIC"
],
  "ImagingFrequency": 123.252,
  "InPlanePhaseEncodingDirectionDICOM": "COL",
  "InstitutionAddress": "Maynard 3,Hanover,NH,US,03755",
  "InstitutionName": "Dartmouth College - PBS",
  "InstitutionalDepartmentName": "Department",
  "MRAcquisitionType": "2D",
  "MagneticFieldStrength": 3,
  "Manufacturer": "Siemens",
  "ManufacturersModelName": "Prisma",
  "Modality": "MR",
  "MultibandAccelerationFactor": 8,
  "PartialFourier": 1,
  "PatientPosition": "HFS",
  "PercentPhaseFOV": 100,
  "PercentSampling": 100,
  "PhaseEncodingDirection": "j-",
  "PhaseEncodingSteps": 82,
  "PhaseResolution": 1,
  "PixelBandwidth": 3050,
  "ProcedureStepDescription": "Wager_Wager^1076_spacetop",
  "ProtocolName": "func_run-02_task-alignvideo_acq-ap-mb8",
  "PulseSequenceDetails": "%CustomerSeq%\\cmrr_mbep2d_bold",
  "ReceiveCoilActiveElements": "HEA;HEP",
  "ReceiveCoilName": "Head_32",
  "ReconMatrixPE": 82,
  "RepetitionTime": 0.46,
  "SAR": 0.0953522,
  "ScanOptions": "FS",
  "ScanningSequence": "EP",
  "SequenceName": "epfid2d1_82",
  "SequenceVariant": "SK\\SS",
  "SeriesDescription": "func_run-02_task-alignvideo_acq-ap-mb8",
  "SeriesNumber": 32,
  "ShimSetting": [4144, -7740, -7261, 705, -31, 6, -37, 70],
  "SliceThickness": 2.7,
  "SliceTiming": [0, 0.25, 0.0625, 0.3125, 0.125, 0.375, 0.1875, 0, 0.25, 0.0625, 0.3125, 0.125, 0.375, 0.1875, 0, 0.25, 0.0625, 0.3125, 0.125, 0.375, 0.1875, 0, 0.25, 0.0625, 0.3125, 0.125, 0.375, 0.1875, 0, 0.25, 0.0625, 0.3125, 0.125, 0.375, 0.1875, 0, 0.25, 0.0625, 0.3125, 0.125, 0.375, 0.1875, 0, 0.25, 0.0625, 0.3125, 0.125, 0.375, 0.1875, 0, 0.25, 0.0625, 0.3125, 0.125, 0.375, 0.1875],
  "SoftwareVersions": "syngo MR E11",
  "SpacingBetweenSlices": 2.7,
  "StationName": "AWP66112",
  "TaskName": "alignvideo",
  "TotalReadoutTime": 0.03969,
  "TxRefAmp": 233.926,
  "WipMemBlock": "691004ac-2119-49d6-97ac-90670e71298f||Sequence: R016 ve11e/master r/434b28f1; Aug  7 2019 18:53:46 by eja",
  "dcmmeta_affine": [
    [-2.669445276260376, -0.26832839846611023, 0.012647551484405994, 120.6993408203125],
    [-0.2587278485298157, 2.602055072784424, 0.6042090058326721, -101.98320007324219],
    [0.0722355768084526, -0.5961595177650452, 2.6314961910247803, -36.354888916015625],
    [0.0, 0.0, 0.0, 1.0]
],
  "dcmmeta_reorient_transform": [
    [0.0, -1.0, 0.0, 81.0],
    [1.0, 0.0, 0.0, 0.0],
    [0.0, 0.0, 1.0, 0.0],
    [0.0, 0.0, 0.0, 1.0]
],
  "dcmmeta_shape": [82, 82, 56, 926],
  "dcmmeta_slice_dim": 2,
  "dcmmeta_version": 0.6,
  "global": {
    "const": {
      "AccessionNumber": "A004114",
      "AcquisitionMatrix": [82, 0, 0, 82],
      "AngioFlag": "N",
      "BitsAllocated": 16,
      "BitsStored": 16,
      "BodyPartExamined": "BRAIN",
      "Columns": 656,
      "EchoNumbers": 1,
      "EchoTime": 27.2,
      "EchoTrainLength": 82,
      "FlipAngle": 44.0,
      "HighBit": 15,
      "ImageOrientationPatient": [0.99497507269191, 0.09643492027618, 0.02692416893909, -0.1000133104085, 0.96985685607295, 0.22220489749201],
      "ImagePositionPatient": [-788.08531510158, -929.82794309067, -276.47319245096],
      "ImageType": [
        "ORIGINAL",
        "PRIMARY",
        "M",
        "MB",
        "ND",
        "NORM",
        "MOSAIC"
],
      "ImagedNucleus": "1H",
      "ImagingFrequency": 123.252191,
      "InPlanePhaseEncodingDirection": "COL",
      "MRAcquisitionType": "2D",
      "MagneticFieldStrength": 3.0,
      "Manufacturer": "SIEMENS",
      "ManufacturerModelName": "Prisma",
      "Modality": "MR",
      "NumberOfAverages": 1.0,
      "NumberOfPhaseEncodingSteps": 82,
      "PercentPhaseFieldOfView": 100.0,
      "PercentSampling": 100.0,
      "PerformedProcedureStepStartTime": "135654.250000",
      "PhotometricInterpretation": "MONOCHROME2",
      "PixelBandwidth": 3050.0,
      "PixelRepresentation": 0,
      "PixelSpacing": [2.6829268932343, 2.6829268932343],
      "ProtocolName": "func_run-02_task-alignvideo_acq-ap-mb8",
      "RepetitionTime": 460.0,
      "Rows": 656,
      "SAR": 0.09535224614018,
      "SamplesPerPixel": 1,
      "ScanOptions": "FS",
      "ScanningSequence": "EP",
      "SequenceName": "epfid2d1_82",
      "SequenceVariant": [
        "SK",
        "SS"
],
      "SeriesDescription": "func_run-02_task-alignvideo_acq-ap-mb8",
      "SeriesNumber": 32,
      "SeriesTime": "152927.566000",
      "SliceLocation": -57.689022548173,
      "SliceThickness": 2.7000000476837,
      "SmallestImagePixelValue": 0,
      "SoftwareVersions": "syngo MR E11",
      "SpacingBetweenSlices": 2.7000000197607,
      "SpecificCharacterSet": "ISO_IR 100",
      "StudyID": "1",
      "StudyTime": "135654.192000",
      "TransmitCoilName": "Body",
      "VariableFlipAngleFlag": "N",
      "WindowCenterWidthExplanation": "Algo1"
    },
    "slices": {}
  },
  "time": {
    "samples": {
      "AcquisitionNumber": [1, 2, 3, 4, 5, 6, 7, 8, 9, 10, 11, 12, 13, 14, 15, 16, 17, 18, 19, 20, 21, 22, 23, 24, 25, 26, 27, 28, 29, 30, 31, 32, 33, 34, 35, 36, 37, 38, 39, 40, 41, 42, 43, 44, 45, 46, 47, 48, 49, 50, 51, 52, 53, 54, 55, 56, 57, 58, 59, 60, 61, 62, 63, 64, 65, 66, 67, 68, 69, 70, 71, 72, 73, 74, 75, 76, 77, 78, 79, 80, 81, 82, 83, 84, 85, 86, 87, 88, 89, 90, 91, 92, 93, 94, 95, 96, 97, 98, 99, 100, 101, 102, 103, 104, 105, 106, 107, 108, 109, 110, 111, 112, 113, 114, 115, 116, 117, 118, 119, 120, 121, 122, 123, 124, 125, 126, 127, 128, 129, 130, 131, 132, 133, 134, 135, 136, 137, 138, 139, 140, 141, 142, 143, 144, 145, 146, 147, 148, 149, 150, 151, 152, 153, 154, 155, 156, 157, 158, 159, 160, 161, 162, 163, 164, 165, 166, 167, 168, 169, 170, 171, 172, 173, 174, 175, 176, 177, 178, 179, 180, 181, 182, 183, 184, 185, 186, 187, 188, 189, 190, 191, 192, 193, 194, 195, 196, 197, 198, 199, 200, 201, 202, 203, 204, 205, 206, 207, 208, 209, 210, 211, 212, 213, 214, 215, 216, 217, 218, 219, 220, 221, 222, 223, 224, 225, 226, 227, 228, 229, 230, 231, 232, 233, 234, 235, 236, 237, 238, 239, 240, 241, 242, 243, 244, 245, 246, 247, 248, 249, 250, 251, 252, 253, 254, 255, 256, 257, 258, 259, 260, 261, 262, 263, 264, 265, 266, 267, 268, 269, 270, 271, 272, 273, 274, 275, 276, 277, 278, 279, 280, 281, 282, 283, 284, 285, 286, 287, 288, 289, 290, 291, 292, 293, 294, 295, 296, 297, 298, 299, 300, 301, 302, 303, 304, 305, 306, 307, 308, 309, 310, 311, 312, 313, 314, 315, 316, 317, 318, 319, 320, 321, 322, 323, 324, 325, 326, 327, 328, 329, 330, 331, 332, 333, 334, 335, 336, 337, 338, 339, 340, 341, 342, 343, 344, 345, 346, 347, 348, 349, 350, 351, 352, 353, 354, 355, 356, 357, 358, 359, 360, 361, 362, 363, 364, 365, 366, 367, 368, 369, 370, 371, 372, 373, 374, 375, 376, 377, 378, 379, 380, 381, 382, 383, 384, 385, 386, 387, 388, 389, 390, 391, 392, 393, 394, 395, 396, 397, 398, 399, 400, 401, 402, 403, 404, 405, 406, 407, 408, 409, 410, 411, 412, 413, 414, 415, 416, 417, 418, 419, 420, 421, 422, 423, 424, 425, 426, 427, 428, 429, 430, 431, 432, 433, 434, 435, 436, 437, 438, 439, 440, 441, 442, 443, 444, 445, 446, 447, 448, 449, 450, 451, 452, 453, 454, 455, 456, 457, 458, 459, 460, 461, 462, 463, 464, 465, 466, 467, 468, 469, 470, 471, 472, 473, 474, 475, 476, 477, 478, 479, 480, 481, 482, 483, 484, 485, 486, 487, 488, 489, 490, 491, 492, 493, 494, 495, 496, 497, 498, 499, 500, 501, 502, 503, 504, 505, 506, 507, 508, 509, 510, 511, 512, 513, 514, 515, 516, 517, 518, 519, 520, 521, 522, 523, 524, 525, 526, 527, 528, 529, 530, 531, 532, 533, 534, 535, 536, 537, 538, 539, 540, 541, 542, 543, 544, 545, 546, 547, 548, 549, 550, 551, 552, 553, 554, 555, 556, 557, 558, 559, 560, 561, 562, 563, 564, 565, 566, 567, 568, 569, 570, 571, 572, 573, 574, 575, 576, 577, 578, 579, 580, 581, 582, 583, 584, 585, 586, 587, 588, 589, 590, 591, 592, 593, 594, 595, 596, 597, 598, 599, 600, 601, 602, 603, 604, 605, 606, 607, 608, 609, 610, 611, 612, 613, 614, 615, 616, 617, 618, 619, 620, 621, 622, 623, 624, 625, 626, 627, 628, 629, 630, 631, 632, 633, 634, 635, 636, 637, 638, 639, 640, 641, 642, 643, 644, 645, 646, 647, 648, 649, 650, 651, 652, 653, 654, 655, 656, 657, 658, 659, 660, 661, 662, 663, 664, 665, 666, 667, 668, 669, 670, 671, 672, 673, 674, 675, 676, 677, 678, 679, 680, 681, 682, 683, 684, 685, 686, 687, 688, 689, 690, 691, 692, 693, 694, 695, 696, 697, 698, 699, 700, 701, 702, 703, 704, 705, 706, 707, 708, 709, 710, 711, 712, 713, 714, 715, 716, 717, 718, 719, 720, 721, 722, 723, 724, 725, 726, 727, 728, 729, 730, 731, 732, 733, 734, 735, 736, 737, 738, 739, 740, 741, 742, 743, 744, 745, 746, 747, 748, 749, 750, 751, 752, 753, 754, 755, 756, 757, 758, 759, 760, 761, 762, 763, 764, 765, 766, 767, 768, 769, 770, 771, 772, 773, 774, 775, 776, 777, 778, 779, 780, 781, 782, 783, 784, 785, 786, 787, 788, 789, 790, 791, 792, 793, 794, 795, 796, 797, 798, 799, 800, 801, 802, 803, 804, 805, 806, 807, 808, 809, 810, 811, 812, 813, 814, 815, 816, 817, 818, 819, 820, 821, 822, 823, 824, 825, 826, 827, 828, 829, 830, 831, 832, 833, 834, 835, 836, 837, 838, 839, 840, 841, 842, 843, 844, 845, 846, 847, 848, 849, 850, 851, 852, 853, 854, 855, 856, 857, 858, 859, 860, 861, 862, 863, 864, 865, 866, 867, 868, 869, 870, 871, 872, 873, 874, 875, 876, 877, 878, 879, 880, 881, 882, 883, 884, 885, 886, 887, 888, 889, 890, 891, 892, 893, 894, 895, 896, 897, 898, 899, 900, 901, 902, 903, 904, 905, 906, 907, 908, 909, 910, 911, 912, 913, 914, 915, 916, 917, 918, 919, 920, 921, 922, 923, 924, 925, 926],
      "AcquisitionTime": ["152859.380000", "152859.840000", "152900.300000", "152900.760000", "152901.220000", "152901.680000", "152902.140000", "152902.600000", "152903.060000", "152903.520000", "152903.980000", "152904.440000", "152904.900000", "152905.360000", "152905.820000", "152906.280000", "152906.740000", "152907.200000", "152907.660000", "152908.120000", "152908.580000", "152909.040000", "152909.500000", "152909.960000", "152910.420000", "152910.880000", "152911.340000", "152911.800000", "152912.260000", "152912.720000", "152913.180000", "152913.640000", "152914.100000", "152914.560000", "152915.020000", "152915.480000", "152915.940000", "152916.400000", "152916.860000", "152917.320000", "152917.780000", "152918.240000", "152918.700000", "152919.160000", "152919.620000", "152920.080000", "152920.540000", "152921.000000", "152921.460000", "152921.920000", "152922.380000", "152922.840000", "152923.300000", "152923.760000", "152924.220000", "152924.680000", "152925.140000", "152925.600000", "152926.060000", "152926.520000", "152926.980000", "152927.440000", "152927.900000", "152928.360000", "152928.820000", "152929.280000", "152929.740000", "152930.200000", "152930.660000", "152931.120000", "152931.580000", "152932.040000", "152932.500000", "152932.960000", "152933.420000", "152933.880000", "152934.340000", "152934.800000", "152935.260000", "152935.720000", "152936.180000", "152936.640000", "152937.100000", "152937.560000", "152938.020000", "152938.480000", "152938.940000", "152939.400000", "152939.860000", "152940.320000", "152940.780000", "152941.240000", "152941.700000", "152942.160000", "152942.620000", "152943.080000", "152943.540000", "152944.000000", "152944.460000", "152944.920000", "152945.380000", "152945.840000", "152946.300000", "152946.760000", "152947.220000", "152947.680000", "152948.140000", "152948.600000", "152949.060000", "152949.520000", "152949.980000", "152950.440000", "152950.900000", "152951.360000", "152951.820000", "152952.280000", "152952.740000", "152953.200000", "152953.660000", "152954.120000", "152954.580000", "152955.040000", "152955.500000", "152955.960000", "152956.420000", "152956.880000", "152957.340000", "152957.800000", "152958.260000", "152958.720000", "152959.180000", "152959.640000", "153000.100000", "153000.560000", "153001.020000", "153001.480000", "153001.940000", "153002.400000", "153002.860000", "153003.320000", "153003.780000", "153004.240000", "153004.700000", "153005.160000", "153005.620000", "153006.080000", "153006.540000", "153007.000000", "153007.460000", "153007.920000", "153008.380000", "153008.840000", "153009.300000", "153009.760000", "153010.220000", "153010.680000", "153011.140000", "153011.600000", "153012.060000", "153012.520000", "153012.980000", "153013.440000", "153013.900000", "153014.360000", "153014.820000", "153015.280000", "153015.740000", "153016.200000", "153016.660000", "153017.120000", "153017.580000", "153018.040000", "153018.500000", "153018.960000", "153019.420000", "153019.880000", "153020.340000", "153020.800000", "153021.260000", "153021.720000", "153022.180000", "153022.640000", "153023.100000", "153023.560000", "153024.020000", "153024.480000", "153024.940000", "153025.400000", "153025.860000", "153026.320000", "153026.780000", "153027.240000", "153027.700000", "153028.160000", "153028.620000", "153029.080000", "153029.540000", "153030.000000", "153030.460000", "153030.920000", "153031.380000", "153031.840000", "153032.300000", "153032.760000", "153033.220000", "153033.680000", "153034.140000", "153034.600000", "153035.060000", "153035.520000", "153035.980000", "153036.440000", "153036.900000", "153037.360000", "153037.820000", "153038.280000", "153038.740000", "153039.200000", "153039.660000", "153040.120000", "153040.580000", "153041.040000", "153041.500000", "153041.960000", "153042.420000", "153042.880000", "153043.340000", "153043.800000", "153044.260000", "153044.720000", "153045.180000", "153045.640000", "153046.100000", "153046.560000", "153047.020000", "153047.480000", "153047.940000", "153048.400000", "153048.860000", "153049.320000", "153049.780000", "153050.240000", "153050.700000", "153051.160000", "153051.620000", "153052.080000", "153052.540000", "153053.000000", "153053.460000", "153053.920000", "153054.380000", "153054.840000", "153055.300000", "153055.760000", "153056.220000", "153056.680000", "153057.140000", "153057.600000", "153058.060000", "153058.520000", "153058.980000", "153059.440000", "153059.900000", "153100.360000", "153100.820000", "153101.280000", "153101.740000", "153102.200000", "153102.660000", "153103.120000", "153103.580000", "153104.040000", "153104.500000", "153104.960000", "153105.420000", "153105.880000", "153106.340000", "153106.800000", "153107.260000", "153107.720000", "153108.180000", "153108.640000", "153109.100000", "153109.560000", "153110.020000", "153110.480000", "153110.940000", "153111.400000", "153111.860000", "153112.320000", "153112.780000", "153113.240000", "153113.700000", "153114.160000", "153114.620000", "153115.080000", "153115.540000", "153116.000000", "153116.460000", "153116.920000", "153117.380000", "153117.840000", "153118.300000", "153118.760000", "153119.220000", "153119.680000", "153120.140000", "153120.600000", "153121.060000", "153121.520000", "153121.980000", "153122.440000", "153122.900000", "153123.360000", "153123.820000", "153124.280000", "153124.740000", "153125.200000", "153125.660000", "153126.120000", "153126.580000", "153127.040000", "153127.500000", "153127.960000", "153128.420000", "153128.880000", "153129.340000", "153129.800000", "153130.260000", "153130.720000", "153131.180000", "153131.640000", "153132.100000", "153132.560000", "153133.020000", "153133.480000", "153133.940000", "153134.400000", "153134.860000", "153135.320000", "153135.780000", "153136.240000", "153136.700000", "153137.160000", "153137.620000", "153138.080000", "153138.540000", "153139.000000", "153139.460000", "153139.920000", "153140.380000", "153140.840000", "153141.300000", "153141.760000", "153142.220000", "153142.680000", "153143.140000", "153143.600000", "153144.060000", "153144.520000", "153144.980000", "153145.440000", "153145.900000", "153146.360000", "153146.820000", "153147.280000", "153147.740000", "153148.200000", "153148.660000", "153149.120000", "153149.580000", "153150.040000", "153150.500000", "153150.960000", "153151.420000", "153151.880000", "153152.340000", "153152.800000", "153153.260000", "153153.720000", "153154.180000", "153154.640000", "153155.100000", "153155.560000", "153156.020000", "153156.480000", "153156.940000", "153157.400000", "153157.860000", "153158.320000", "153158.780000", "153159.240000", "153159.700000", "153200.160000", "153200.620000", "153201.080000", "153201.540000", "153202.000000", "153202.460000", "153202.920000", "153203.380000", "153203.840000", "153204.300000", "153204.760000", "153205.220000", "153205.680000", "153206.140000", "153206.600000", "153207.060000", "153207.520000", "153207.980000", "153208.440000", "153208.900000", "153209.360000", "153209.820000", "153210.280000", "153210.740000", "153211.200000", "153211.660000", "153212.120000", "153212.580000", "153213.040000", "153213.500000", "153213.960000", "153214.420000", "153214.880000", "153215.340000", "153215.800000", "153216.260000", "153216.720000", "153217.180000", "153217.640000", "153218.100000", "153218.560000", "153219.020000", "153219.480000", "153219.940000", "153220.400000", "153220.860000", "153221.320000", "153221.780000", "153222.240000", "153222.700000", "153223.160000", "153223.620000", "153224.080000", "153224.540000", "153225.000000", "153225.460000", "153225.920000", "153226.380000", "153226.840000", "153227.300000", "153227.760000", "153228.220000", "153228.680000", "153229.140000", "153229.600000", "153230.060000", "153230.520000", "153230.980000", "153231.440000", "153231.900000", "153232.360000", "153232.820000", "153233.280000", "153233.740000", "153234.200000", "153234.660000", "153235.120000", "153235.580000", "153236.040000", "153236.500000", "153236.960000", "153237.420000", "153237.880000", "153238.340000", "153238.800000", "153239.260000", "153239.720000", "153240.180000", "153240.640000", "153241.100000", "153241.560000", "153242.020000", "153242.480000", "153242.940000", "153243.400000", "153243.860000", "153244.320000", "153244.780000", "153245.240000", "153245.700000", "153246.160000", "153246.620000", "153247.080000", "153247.540000", "153248.000000", "153248.460000", "153248.920000", "153249.380000", "153249.840000", "153250.300000", "153250.760000", "153251.220000", "153251.680000", "153252.140000", "153252.600000", "153253.060000", "153253.520000", "153253.980000", "153254.440000", "153254.900000", "153255.360000", "153255.820000", "153256.280000", "153256.740000", "153257.200000", "153257.660000", "153258.120000", "153258.580000", "153259.040000", "153259.500000", "153259.960000", "153300.420000", "153300.880000", "153301.340000", "153301.800000", "153302.260000", "153302.720000", "153303.180000", "153303.640000", "153304.100000", "153304.560000", "153305.020000", "153305.480000", "153305.940000", "153306.400000", "153306.860000", "153307.320000", "153307.780000", "153308.240000", "153308.700000", "153309.160000", "153309.620000", "153310.080000", "153310.540000", "153311.000000", "153311.460000", "153311.920000", "153312.380000", "153312.840000", "153313.300000", "153313.760000", "153314.220000", "153314.680000", "153315.140000", "153315.600000", "153316.060000", "153316.520000", "153316.980000", "153317.440000", "153317.900000", "153318.360000", "153318.820000", "153319.280000", "153319.740000", "153320.200000", "153320.660000", "153321.120000", "153321.580000", "153322.040000", "153322.500000", "153322.960000", "153323.420000", "153323.880000", "153324.340000", "153324.800000", "153325.260000", "153325.720000", "153326.180000", "153326.640000", "153327.100000", "153327.560000", "153328.020000", "153328.480000", "153328.940000", "153329.400000", "153329.860000", "153330.320000", "153330.780000", "153331.240000", "153331.700000", "153332.160000", "153332.620000", "153333.080000", "153333.540000", "153334.000000", "153334.460000", "153334.920000", "153335.380000", "153335.840000", "153336.300000", "153336.760000", "153337.220000", "153337.680000", "153338.140000", "153338.600000", "153339.060000", "153339.520000", "153339.980000", "153340.440000", "153340.900000", "153341.360000", "153341.820000", "153342.280000", "153342.740000", "153343.200000", "153343.660000", "153344.120000", "153344.580000", "153345.040000", "153345.500000", "153345.960000", "153346.420000", "153346.880000", "153347.340000", "153347.800000", "153348.260000", "153348.720000", "153349.180000", "153349.640000", "153350.100000", "153350.560000", "153351.020000", "153351.480000", "153351.940000", "153352.400000", "153352.860000", "153353.320000", "153353.780000", "153354.240000", "153354.700000", "153355.160000", "153355.620000", "153356.080000", "153356.540000", "153357.000000", "153357.460000", "153357.920000", "153358.380000", "153358.840000", "153359.300000", "153359.760000", "153400.220000", "153400.680000", "153401.140000", "153401.600000", "153402.060000", "153402.520000", "153402.980000", "153403.440000", "153403.900000", "153404.360000", "153404.820000", "153405.280000", "153405.740000", "153406.200000", "153406.660000", "153407.120000", "153407.580000", "153408.040000", "153408.500000", "153408.960000", "153409.420000", "153409.880000", "153410.340000", "153410.800000", "153411.260000", "153411.720000", "153412.180000", "153412.640000", "153413.100000", "153413.560000", "153414.020000", "153414.480000", "153414.940000", "153415.400000", "153415.860000", "153416.320000", "153416.780000", "153417.240000", "153417.700000", "153418.160000", "153418.620000", "153419.080000", "153419.540000", "153420.000000", "153420.460000", "153420.920000", "153421.380000", "153421.840000", "153422.300000", "153422.760000", "153423.220000", "153423.680000", "153424.140000", "153424.600000", "153425.060000", "153425.520000", "153425.980000", "153426.440000", "153426.900000", "153427.360000", "153427.820000", "153428.280000", "153428.740000", "153429.200000", "153429.660000", "153430.120000", "153430.580000", "153431.040000", "153431.500000", "153431.960000", "153432.420000", "153432.880000", "153433.340000", "153433.800000", "153434.260000", "153434.720000", "153435.180000", "153435.640000", "153436.100000", "153436.560000", "153437.020000", "153437.480000", "153437.940000", "153438.400000", "153438.860000", "153439.320000", "153439.780000", "153440.240000", "153440.700000", "153441.160000", "153441.620000", "153442.080000", "153442.540000", "153443.000000", "153443.460000", "153443.920000", "153444.380000", "153444.840000", "153445.300000", "153445.760000", "153446.220000", "153446.680000", "153447.140000", "153447.600000", "153448.060000", "153448.520000", "153448.980000", "153449.440000", "153449.900000", "153450.360000", "153450.820000", "153451.280000", "153451.740000", "153452.200000", "153452.660000", "153453.120000", "153453.580000", "153454.040000", "153454.500000", "153454.960000", "153455.420000", "153455.880000", "153456.340000", "153456.800000", "153457.260000", "153457.720000", "153458.180000", "153458.640000", "153459.100000", "153459.560000", "153500.020000", "153500.480000", "153500.940000", "153501.400000", "153501.860000", "153502.320000", "153502.780000", "153503.240000", "153503.700000", "153504.160000", "153504.620000", "153505.080000", "153505.540000", "153506.000000", "153506.460000", "153506.920000", "153507.380000", "153507.840000", "153508.300000", "153508.760000", "153509.220000", "153509.680000", "153510.140000", "153510.600000", "153511.060000", "153511.520000", "153511.980000", "153512.440000", "153512.900000", "153513.360000", "153513.820000", "153514.280000", "153514.740000", "153515.200000", "153515.660000", "153516.120000", "153516.580000", "153517.040000", "153517.500000", "153517.960000", "153518.420000", "153518.880000", "153519.340000", "153519.800000", "153520.260000", "153520.720000", "153521.180000", "153521.640000", "153522.100000", "153522.560000", "153523.020000", "153523.480000", "153523.940000", "153524.400000", "153524.860000", "153525.320000", "153525.780000", "153526.240000", "153526.700000", "153527.160000", "153527.620000", "153528.080000", "153528.540000", "153529.000000", "153529.460000", "153529.920000", "153530.380000", "153530.840000", "153531.300000", "153531.760000", "153532.220000", "153532.680000", "153533.140000", "153533.600000", "153534.060000", "153534.520000", "153534.980000", "153535.440000", "153535.900000", "153536.360000", "153536.820000", "153537.280000", "153537.740000", "153538.200000", "153538.660000", "153539.120000", "153539.580000", "153540.040000", "153540.500000", "153540.960000", "153541.420000", "153541.880000", "153542.340000", "153542.800000", "153543.260000", "153543.720000", "153544.180000", "153544.640000", "153545.100000", "153545.560000", "153546.020000", "153546.480000", "153546.940000", "153547.400000", "153547.860000", "153548.320000", "153548.780000", "153549.240000", "153549.700000", "153550.160000", "153550.620000", "153551.080000", "153551.540000", "153552.000000", "153552.460000", "153552.920000", "153553.380000", "153553.840000", "153554.300000", "153554.760000", "153555.220000", "153555.680000", "153556.140000", "153556.600000", "153557.060000", "153557.520000", "153557.980000", "153558.440000", "153558.900000", "153559.360000", "153559.820000", "153600.280000", "153600.740000", "153601.200000", "153601.660000", "153602.120000", "153602.580000", "153603.040000", "153603.500000", "153603.960000", "153604.420000", "153604.880000"],
