{
  "AcquisitionMatrixPE": 82,
  "AcquisitionNumber": 1,
  "AcquisitionTime": "15:09:19.125000",
  "BandwidthPerPixelPhaseEncode": 24.888,
  "BaseResolution": 82,
  "BodyPartExamined": "BRAIN",
  "ConsistencyInfo": "N4_VE11E_LATEST_20181129",
  "ConversionSoftware": "dcm2niix",
  "ConversionSoftwareVersion": "v1.0.20201102",
  "DerivedVendorReportedEchoSpacing": 0.00049,
  "DeviceSerialNumber": "66112",
  "DwellTime": 2e-06,
  "EchoTime": 0.0272,
  "EchoTrainLength": 82,
  "EffectiveEchoSpacing": 0.00049,
  "FlipAngle": 44,
  "ImageComments": "Unaliased MB8/PE3",
  "ImageOrientationPatientDICOM": [0.996522, 0.0820235, 0.0147228, -0.08333, 0.982608, 0.165942],
  "ImageType": [
    "ORIGINAL",
    "PRIMARY",
    "M",
    "MB",
    "ND",
    "NORM",
    "MOSAIC"
],
  "ImagingFrequency": 123.252,
  "InPlanePhaseEncodingDirectionDICOM": "COL",
  "InstitutionAddress": "Maynard 3,Hanover,NH,US,03755",
  "InstitutionName": "Dartmouth College - PBS",
  "InstitutionalDepartmentName": "Department",
  "MRAcquisitionType": "2D",
  "MagneticFieldStrength": 3,
  "Manufacturer": "Siemens",
  "ManufacturersModelName": "Prisma",
  "Modality": "MR",
  "MultibandAccelerationFactor": 8,
  "PartialFourier": 1,
  "PatientPosition": "HFS",
  "PercentPhaseFOV": 100,
  "PercentSampling": 100,
  "PhaseEncodingDirection": "j-",
  "PhaseEncodingSteps": 82,
  "PhaseResolution": 1,
  "PixelBandwidth": 3050,
  "ProcedureStepDescription": "Wager_Wager^1076_spacetop",
  "ProtocolName": "func_run-06_task-social_acq-ap-mb8",
  "PulseSequenceDetails": "%CustomerSeq%\\cmrr_mbep2d_bold",
  "ReceiveCoilActiveElements": "HEA;HEP",
  "ReceiveCoilName": "Head_32",
  "ReconMatrixPE": 82,
  "RepetitionTime": 0.46,
  "SAR": 0.0953177,
  "ScanOptions": "FS",
  "ScanningSequence": "EP",
  "SequenceName": "epfid2d1_82",
  "SequenceVariant": "SK\\SS",
  "SeriesDescription": "func_run-06_task-social_acq-ap-mb8",
  "SeriesNumber": 22,
  "ShimSetting": [4144, -7744, -7259, 719, -29, -27, -38, 69],
  "SliceThickness": 2.7,
  "SliceTiming": [0, 0.25, 0.0625, 0.3125, 0.125, 0.375, 0.1875, 0, 0.25, 0.0625, 0.3125, 0.125, 0.375, 0.1875, 0, 0.25, 0.0625, 0.3125, 0.125, 0.375, 0.1875, 0, 0.25, 0.0625, 0.3125, 0.125, 0.375, 0.1875, 0, 0.25, 0.0625, 0.3125, 0.125, 0.375, 0.1875, 0, 0.25, 0.0625, 0.3125, 0.125, 0.375, 0.1875, 0, 0.25, 0.0625, 0.3125, 0.125, 0.375, 0.1875, 0, 0.25, 0.0625, 0.3125, 0.125, 0.375, 0.1875],
  "SoftwareVersions": "syngo MR E11",
  "SpacingBetweenSlices": 2.7,
  "StationName": "AWP66112",
  "TaskName": "social",
  "TotalReadoutTime": 0.03969,
  "TxRefAmp": 233.926,
  "WipMemBlock": "94c37804-839c-43d3-b2a9-a9762b79d401||Sequence: R016 ve11e/master r/434b28f1; Aug  7 2019 18:53:46 by eja",
  "dcmmeta_affine": [
    [-2.6735947132110596, -0.22356830537319183, 0.00231011095456779, 120.43595886230469],
    [-0.22006314992904663, 2.6362667083740234, 0.4497973620891571, -102.04283905029297],
    [0.03950018435716629, -0.44521015882492065, 2.662269115447998, -47.45408248901367],
    [0.0, 0.0, 0.0, 1.0]
],
  "dcmmeta_reorient_transform": [
    [0.0, -1.0, 0.0, 81.0],
    [1.0, 0.0, 0.0, 0.0],
    [0.0, 0.0, 1.0, 0.0],
    [0.0, 0.0, 0.0, 1.0]
],
  "dcmmeta_shape": [82, 82, 56, 872],
  "dcmmeta_slice_dim": 2,
  "dcmmeta_version": 0.6,
  "global": {
    "const": {
      "AccessionNumber": "A004114",
      "AcquisitionMatrix": [82, 0, 0, 82],
      "AngioFlag": "N",
      "BitsAllocated": 16,
      "BitsStored": 16,
      "BodyPartExamined": "BRAIN",
      "Columns": 656,
      "EchoNumbers": 1,
      "EchoTime": 27.2,
      "EchoTrainLength": 82,
      "FlipAngle": 44.0,
      "HighBit": 15,
      "ImageOrientationPatient": [0.99652163996507, 0.08202353545272, 0.01472279569787, -0.0833300008142, 0.98260845422286, 0.16594196772989],
      "ImagePositionPatient": [-805.4845090711, -931.26141237568, -222.62797808984],
      "ImageType": [
        "ORIGINAL",
        "PRIMARY",
        "M",
        "MB",
        "ND",
        "NORM",
        "MOSAIC"
],
      "ImagedNucleus": "1H",
      "ImagingFrequency": 123.252188,
      "InPlanePhaseEncodingDirection": "COL",
      "MRAcquisitionType": "2D",
      "MagneticFieldStrength": 3.0,
      "Manufacturer": "SIEMENS",
      "ManufacturerModelName": "Prisma",
      "Modality": "MR",
      "NumberOfAverages": 1.0,
      "NumberOfPhaseEncodingSteps": 82,
      "PercentPhaseFieldOfView": 100.0,
      "PercentSampling": 100.0,
      "PerformedProcedureStepStartTime": "135654.250000",
      "PhotometricInterpretation": "MONOCHROME2",
      "PixelBandwidth": 3050.0,
      "PixelRepresentation": 0,
      "PixelSpacing": [2.6829268932343, 2.6829268932343],
      "ProtocolName": "func_run-06_task-social_acq-ap-mb8",
      "RepetitionTime": 460.0,
      "Rows": 656,
      "SAR": 0.09531771056075,
      "SamplesPerPixel": 1,
      "ScanOptions": "FS",
      "ScanningSequence": "EP",
      "SequenceName": "epfid2d1_82",
      "SequenceVariant": [
        "SK",
        "SS"
],
      "SeriesDescription": "func_run-06_task-social_acq-ap-mb8",
      "SeriesNumber": 22,
      "SeriesTime": "150947.659000",
      "SliceLocation": -63.687377693211,
      "SliceThickness": 2.7000000476837,
      "SmallestImagePixelValue": 0,
      "SoftwareVersions": "syngo MR E11",
      "SpacingBetweenSlices": 2.7000000313491,
      "SpecificCharacterSet": "ISO_IR 100",
      "StudyID": "1",
      "StudyTime": "135654.192000",
      "TransmitCoilName": "Body",
      "VariableFlipAngleFlag": "N",
      "WindowCenterWidthExplanation": "Algo1"
    },
    "slices": {}
  },
  "time": {
    "samples": {
      "AcquisitionNumber": [1, 2, 3, 4, 5, 6, 7, 8, 9, 10, 11, 12, 13, 14, 15, 16, 17, 18, 19, 20, 21, 22, 23, 24, 25, 26, 27, 28, 29, 30, 31, 32, 33, 34, 35, 36, 37, 38, 39, 40, 41, 42, 43, 44, 45, 46, 47, 48, 49, 50, 51, 52, 53, 54, 55, 56, 57, 58, 59, 60, 61, 62, 63, 64, 65, 66, 67, 68, 69, 70, 71, 72, 73, 74, 75, 76, 77, 78, 79, 80, 81, 82, 83, 84, 85, 86, 87, 88, 89, 90, 91, 92, 93, 94, 95, 96, 97, 98, 99, 100, 101, 102, 103, 104, 105, 106, 107, 108, 109, 110, 111, 112, 113, 114, 115, 116, 117, 118, 119, 120, 121, 122, 123, 124, 125, 126, 127, 128, 129, 130, 131, 132, 133, 134, 135, 136, 137, 138, 139, 140, 141, 142, 143, 144, 145, 146, 147, 148, 149, 150, 151, 152, 153, 154, 155, 156, 157, 158, 159, 160, 161, 162, 163, 164, 165, 166, 167, 168, 169, 170, 171, 172, 173, 174, 175, 176, 177, 178, 179, 180, 181, 182, 183, 184, 185, 186, 187, 188, 189, 190, 191, 192, 193, 194, 195, 196, 197, 198, 199, 200, 201, 202, 203, 204, 205, 206, 207, 208, 209, 210, 211, 212, 213, 214, 215, 216, 217, 218, 219, 220, 221, 222, 223, 224, 225, 226, 227, 228, 229, 230, 231, 232, 233, 234, 235, 236, 237, 238, 239, 240, 241, 242, 243, 244, 245, 246, 247, 248, 249, 250, 251, 252, 253, 254, 255, 256, 257, 258, 259, 260, 261, 262, 263, 264, 265, 266, 267, 268, 269, 270, 271, 272, 273, 274, 275, 276, 277, 278, 279, 280, 281, 282, 283, 284, 285, 286, 287, 288, 289, 290, 291, 292, 293, 294, 295, 296, 297, 298, 299, 300, 301, 302, 303, 304, 305, 306, 307, 308, 309, 310, 311, 312, 313, 314, 315, 316, 317, 318, 319, 320, 321, 322, 323, 324, 325, 326, 327, 328, 329, 330, 331, 332, 333, 334, 335, 336, 337, 338, 339, 340, 341, 342, 343, 344, 345, 346, 347, 348, 349, 350, 351, 352, 353, 354, 355, 356, 357, 358, 359, 360, 361, 362, 363, 364, 365, 366, 367, 368, 369, 370, 371, 372, 373, 374, 375, 376, 377, 378, 379, 380, 381, 382, 383, 384, 385, 386, 387, 388, 389, 390, 391, 392, 393, 394, 395, 396, 397, 398, 399, 400, 401, 402, 403, 404, 405, 406, 407, 408, 409, 410, 411, 412, 413, 414, 415, 416, 417, 418, 419, 420, 421, 422, 423, 424, 425, 426, 427, 428, 429, 430, 431, 432, 433, 434, 435, 436, 437, 438, 439, 440, 441, 442, 443, 444, 445, 446, 447, 448, 449, 450, 451, 452, 453, 454, 455, 456, 457, 458, 459, 460, 461, 462, 463, 464, 465, 466, 467, 468, 469, 470, 471, 472, 473, 474, 475, 476, 477, 478, 479, 480, 481, 482, 483, 484, 485, 486, 487, 488, 489, 490, 491, 492, 493, 494, 495, 496, 497, 498, 499, 500, 501, 502, 503, 504, 505, 506, 507, 508, 509, 510, 511, 512, 513, 514, 515, 516, 517, 518, 519, 520, 521, 522, 523, 524, 525, 526, 527, 528, 529, 530, 531, 532, 533, 534, 535, 536, 537, 538, 539, 540, 541, 542, 543, 544, 545, 546, 547, 548, 549, 550, 551, 552, 553, 554, 555, 556, 557, 558, 559, 560, 561, 562, 563, 564, 565, 566, 567, 568, 569, 570, 571, 572, 573, 574, 575, 576, 577, 578, 579, 580, 581, 582, 583, 584, 585, 586, 587, 588, 589, 590, 591, 592, 593, 594, 595, 596, 597, 598, 599, 600, 601, 602, 603, 604, 605, 606, 607, 608, 609, 610, 611, 612, 613, 614, 615, 616, 617, 618, 619, 620, 621, 622, 623, 624, 625, 626, 627, 628, 629, 630, 631, 632, 633, 634, 635, 636, 637, 638, 639, 640, 641, 642, 643, 644, 645, 646, 647, 648, 649, 650, 651, 652, 653, 654, 655, 656, 657, 658, 659, 660, 661, 662, 663, 664, 665, 666, 667, 668, 669, 670, 671, 672, 673, 674, 675, 676, 677, 678, 679, 680, 681, 682, 683, 684, 685, 686, 687, 688, 689, 690, 691, 692, 693, 694, 695, 696, 697, 698, 699, 700, 701, 702, 703, 704, 705, 706, 707, 708, 709, 710, 711, 712, 713, 714, 715, 716, 717, 718, 719, 720, 721, 722, 723, 724, 725, 726, 727, 728, 729, 730, 731, 732, 733, 734, 735, 736, 737, 738, 739, 740, 741, 742, 743, 744, 745, 746, 747, 748, 749, 750, 751, 752, 753, 754, 755, 756, 757, 758, 759, 760, 761, 762, 763, 764, 765, 766, 767, 768, 769, 770, 771, 772, 773, 774, 775, 776, 777, 778, 779, 780, 781, 782, 783, 784, 785, 786, 787, 788, 789, 790, 791, 792, 793, 794, 795, 796, 797, 798, 799, 800, 801, 802, 803, 804, 805, 806, 807, 808, 809, 810, 811, 812, 813, 814, 815, 816, 817, 818, 819, 820, 821, 822, 823, 824, 825, 826, 827, 828, 829, 830, 831, 832, 833, 834, 835, 836, 837, 838, 839, 840, 841, 842, 843, 844, 845, 846, 847, 848, 849, 850, 851, 852, 853, 854, 855, 856, 857, 858, 859, 860, 861, 862, 863, 864, 865, 866, 867, 868, 869, 870, 871, 872],
      "AcquisitionTime": ["150919.125000", "150919.585000", "150920.045000", "150920.505000", "150920.965000", "150921.425000", "150921.885000", "150922.345000", "150922.805000", "150923.265000", "150923.725000", "150924.185000", "150924.645000", "150925.105000", "150925.565000", "150926.025000", "150926.485000", "150926.945000", "150927.405000", "150927.865000", "150928.325000", "150928.785000", "150929.245000", "150929.705000", "150930.165000", "150930.625000", "150931.085000", "150931.545000", "150932.005000", "150932.465000", "150932.925000", "150933.385000", "150933.845000", "150934.305000", "150934.765000", "150935.225000", "150935.685000", "150936.145000", "150936.605000", "150937.065000", "150937.525000", "150937.985000", "150938.445000", "150938.905000", "150939.365000", "150939.825000", "150940.285000", "150940.745000", "150941.205000", "150941.665000", "150942.125000", "150942.585000", "150943.045000", "150943.505000", "150943.965000", "150944.425000", "150944.885000", "150945.345000", "150945.805000", "150946.265000", "150946.725000", "150947.185000", "150947.645000", "150948.105000", "150948.565000", "150949.025000", "150949.485000", "150949.945000", "150950.405000", "150950.865000", "150951.325000", "150951.785000", "150952.245000", "150952.705000", "150953.165000", "150953.625000", "150954.085000", "150954.545000", "150955.005000", "150955.465000", "150955.925000", "150956.385000", "150956.845000", "150957.305000", "150957.765000", "150958.225000", "150958.685000", "150959.145000", "150959.605000", "151000.065000", "151000.525000", "151000.985000", "151001.445000", "151001.905000", "151002.365000", "151002.825000", "151003.285000", "151003.745000", "151004.205000", "151004.665000", "151005.125000", "151005.585000", "151006.045000", "151006.505000", "151006.965000", "151007.425000", "151007.885000", "151008.345000", "151008.805000", "151009.265000", "151009.725000", "151010.185000", "151010.645000", "151011.105000", "151011.565000", "151012.025000", "151012.485000", "151012.945000", "151013.405000", "151013.865000", "151014.325000", "151014.785000", "151015.245000", "151015.705000", "151016.165000", "151016.625000", "151017.085000", "151017.545000", "151018.005000", "151018.465000", "151018.925000", "151019.385000", "151019.845000", "151020.305000", "151020.765000", "151021.225000", "151021.685000", "151022.145000", "151022.605000", "151023.065000", "151023.525000", "151023.985000", "151024.445000", "151024.905000", "151025.365000", "151025.825000", "151026.285000", "151026.745000", "151027.205000", "151027.665000", "151028.125000", "151028.585000", "151029.045000", "151029.505000", "151029.965000", "151030.425000", "151030.885000", "151031.345000", "151031.805000", "151032.265000", "151032.725000", "151033.185000", "151033.645000", "151034.105000", "151034.565000", "151035.025000", "151035.485000", "151035.945000", "151036.405000", "151036.865000", "151037.325000", "151037.785000", "151038.245000", "151038.705000", "151039.165000", "151039.625000", "151040.085000", "151040.545000", "151041.005000", "151041.465000", "151041.925000", "151042.385000", "151042.845000", "151043.305000", "151043.765000", "151044.225000", "151044.685000", "151045.145000", "151045.605000", "151046.065000", "151046.525000", "151046.985000", "151047.445000", "151047.905000", "151048.365000", "151048.825000", "151049.285000", "151049.745000", "151050.205000", "151050.665000", "151051.125000", "151051.585000", "151052.045000", "151052.505000", "151052.965000", "151053.425000", "151053.885000", "151054.345000", "151054.805000", "151055.265000", "151055.725000", "151056.185000", "151056.645000", "151057.105000", "151057.565000", "151058.025000", "151058.485000", "151058.945000", "151059.405000", "151059.865000", "151100.325000", "151100.785000", "151101.245000", "151101.705000", "151102.165000", "151102.625000", "151103.085000", "151103.545000", "151104.005000", "151104.465000", "151104.925000", "151105.385000", "151105.845000", "151106.305000", "151106.765000", "151107.225000", "151107.685000", "151108.145000", "151108.605000", "151109.065000", "151109.525000", "151109.985000", "151110.445000", "151110.905000", "151111.365000", "151111.825000", "151112.285000", "151112.745000", "151113.205000", "151113.665000", "151114.125000", "151114.585000", "151115.045000", "151115.505000", "151115.965000", "151116.425000", "151116.885000", "151117.345000", "151117.805000", "151118.265000", "151118.725000", "151119.185000", "151119.645000", "151120.105000", "151120.565000", "151121.025000", "151121.485000", "151121.945000", "151122.405000", "151122.865000", "151123.325000", "151123.785000", "151124.245000", "151124.705000", "151125.165000", "151125.625000", "151126.085000", "151126.545000", "151127.005000", "151127.465000", "151127.925000", "151128.385000", "151128.845000", "151129.305000", "151129.765000", "151130.225000", "151130.685000", "151131.145000", "151131.605000", "151132.065000", "151132.525000", "151132.985000", "151133.445000", "151133.905000", "151134.365000", "151134.825000", "151135.285000", "151135.745000", "151136.205000", "151136.665000", "151137.125000", "151137.585000", "151138.045000", "151138.505000", "151138.965000", "151139.425000", "151139.885000", "151140.345000", "151140.805000", "151141.265000", "151141.725000", "151142.185000", "151142.645000", "151143.105000", "151143.565000", "151144.025000", "151144.485000", "151144.945000", "151145.405000", "151145.865000", "151146.325000", "151146.785000", "151147.245000", "151147.705000", "151148.165000", "151148.625000", "151149.085000", "151149.545000", "151150.005000", "151150.465000", "151150.925000", "151151.385000", "151151.845000", "151152.305000", "151152.765000", "151153.225000", "151153.685000", "151154.145000", "151154.605000", "151155.065000", "151155.525000", "151155.985000", "151156.445000", "151156.905000", "151157.365000", "151157.825000", "151158.285000", "151158.745000", "151159.205000", "151159.665000", "151200.125000", "151200.585000", "151201.045000", "151201.505000", "151201.965000", "151202.425000", "151202.885000", "151203.345000", "151203.805000", "151204.265000", "151204.725000", "151205.185000", "151205.645000", "151206.105000", "151206.565000", "151207.025000", "151207.485000", "151207.945000", "151208.405000", "151208.865000", "151209.325000", "151209.785000", "151210.245000", "151210.705000", "151211.165000", "151211.625000", "151212.085000", "151212.545000", "151213.005000", "151213.465000", "151213.925000", "151214.385000", "151214.845000", "151215.305000", "151215.765000", "151216.225000", "151216.685000", "151217.145000", "151217.605000", "151218.065000", "151218.525000", "151218.985000", "151219.445000", "151219.905000", "151220.365000", "151220.825000", "151221.285000", "151221.745000", "151222.205000", "151222.665000", "151223.125000", "151223.585000", "151224.045000", "151224.505000", "151224.965000", "151225.425000", "151225.885000", "151226.345000", "151226.805000", "151227.265000", "151227.725000", "151228.185000", "151228.645000", "151229.105000", "151229.565000", "151230.025000", "151230.485000", "151230.945000", "151231.405000", "151231.865000", "151232.325000", "151232.785000", "151233.245000", "151233.705000", "151234.165000", "151234.625000", "151235.085000", "151235.545000", "151236.005000", "151236.465000", "151236.925000", "151237.385000", "151237.845000", "151238.305000", "151238.765000", "151239.225000", "151239.685000", "151240.145000", "151240.605000", "151241.065000", "151241.525000", "151241.985000", "151242.445000", "151242.905000", "151243.365000", "151243.825000", "151244.285000", "151244.745000", "151245.205000", "151245.665000", "151246.125000", "151246.585000", "151247.045000", "151247.505000", "151247.965000", "151248.425000", "151248.885000", "151249.345000", "151249.805000", "151250.265000", "151250.725000", "151251.185000", "151251.645000", "151252.105000", "151252.565000", "151253.025000", "151253.485000", "151253.945000", "151254.405000", "151254.865000", "151255.325000", "151255.785000", "151256.245000", "151256.705000", "151257.165000", "151257.625000", "151258.085000", "151258.545000", "151259.005000", "151259.465000", "151259.925000", "151300.385000", "151300.845000", "151301.305000", "151301.765000", "151302.225000", "151302.685000", "151303.145000", "151303.605000", "151304.065000", "151304.525000", "151304.985000", "151305.445000", "151305.905000", "151306.365000", "151306.825000", "151307.285000", "151307.745000", "151308.205000", "151308.665000", "151309.125000", "151309.585000", "151310.045000", "151310.505000", "151310.965000", "151311.425000", "151311.885000", "151312.345000", "151312.805000", "151313.265000", "151313.725000", "151314.185000", "151314.645000", "151315.105000", "151315.565000", "151316.025000", "151316.485000", "151316.945000", "151317.405000", "151317.865000", "151318.325000", "151318.785000", "151319.245000", "151319.705000", "151320.165000", "151320.625000", "151321.085000", "151321.545000", "151322.005000", "151322.465000", "151322.925000", "151323.385000", "151323.845000", "151324.305000", "151324.765000", "151325.225000", "151325.685000", "151326.145000", "151326.605000", "151327.065000", "151327.525000", "151327.985000", "151328.445000", "151328.905000", "151329.365000", "151329.825000", "151330.285000", "151330.745000", "151331.205000", "151331.665000", "151332.125000", "151332.585000", "151333.045000", "151333.505000", "151333.965000", "151334.425000", "151334.885000", "151335.345000", "151335.805000", "151336.265000", "151336.725000", "151337.185000", "151337.645000", "151338.105000", "151338.565000", "151339.025000", "151339.485000", "151339.945000", "151340.405000", "151340.865000", "151341.325000", "151341.785000", "151342.245000", "151342.705000", "151343.165000", "151343.625000", "151344.085000", "151344.545000", "151345.005000", "151345.465000", "151345.925000", "151346.385000", "151346.845000", "151347.305000", "151347.765000", "151348.225000", "151348.685000", "151349.145000", "151349.605000", "151350.065000", "151350.525000", "151350.985000", "151351.445000", "151351.905000", "151352.365000", "151352.825000", "151353.285000", "151353.745000", "151354.205000", "151354.665000", "151355.125000", "151355.585000", "151356.045000", "151356.505000", "151356.965000", "151357.425000", "151357.885000", "151358.345000", "151358.805000", "151359.265000", "151359.725000", "151400.185000", "151400.645000", "151401.105000", "151401.565000", "151402.025000", "151402.485000", "151402.945000", "151403.405000", "151403.865000", "151404.325000", "151404.785000", "151405.245000", "151405.705000", "151406.165000", "151406.625000", "151407.085000", "151407.545000", "151408.005000", "151408.465000", "151408.925000", "151409.385000", "151409.845000", "151410.305000", "151410.765000", "151411.225000", "151411.685000", "151412.145000", "151412.605000", "151413.065000", "151413.525000", "151413.985000", "151414.445000", "151414.905000", "151415.365000", "151415.825000", "151416.285000", "151416.745000", "151417.205000", "151417.665000", "151418.125000", "151418.585000", "151419.045000", "151419.505000", "151419.965000", "151420.425000", "151420.885000", "151421.345000", "151421.805000", "151422.265000", "151422.725000", "151423.185000", "151423.645000", "151424.105000", "151424.565000", "151425.025000", "151425.485000", "151425.945000", "151426.405000", "151426.865000", "151427.325000", "151427.785000", "151428.245000", "151428.705000", "151429.165000", "151429.625000", "151430.085000", "151430.545000", "151431.005000", "151431.465000", "151431.925000", "151432.385000", "151432.845000", "151433.305000", "151433.765000", "151434.225000", "151434.685000", "151435.145000", "151435.605000", "151436.065000", "151436.525000", "151436.985000", "151437.445000", "151437.905000", "151438.365000", "151438.825000", "151439.285000", "151439.745000", "151440.205000", "151440.665000", "151441.125000", "151441.585000", "151442.045000", "151442.505000", "151442.965000", "151443.425000", "151443.885000", "151444.345000", "151444.805000", "151445.265000", "151445.725000", "151446.185000", "151446.645000", "151447.105000", "151447.565000", "151448.025000", "151448.485000", "151448.945000", "151449.405000", "151449.865000", "151450.325000", "151450.785000", "151451.245000", "151451.705000", "151452.165000", "151452.625000", "151453.085000", "151453.545000", "151454.005000", "151454.465000", "151454.925000", "151455.385000", "151455.845000", "151456.305000", "151456.765000", "151457.225000", "151457.685000", "151458.145000", "151458.605000", "151459.065000", "151459.525000", "151459.985000", "151500.445000", "151500.905000", "151501.365000", "151501.825000", "151502.285000", "151502.745000", "151503.205000", "151503.665000", "151504.125000", "151504.585000", "151505.045000", "151505.505000", "151505.965000", "151506.425000", "151506.885000", "151507.345000", "151507.805000", "151508.265000", "151508.725000", "151509.185000", "151509.645000", "151510.105000", "151510.565000", "151511.025000", "151511.485000", "151511.945000", "151512.405000", "151512.865000", "151513.325000", "151513.785000", "151514.245000", "151514.705000", "151515.165000", "151515.625000", "151516.085000", "151516.545000", "151517.005000", "151517.465000", "151517.925000", "151518.385000", "151518.845000", "151519.305000", "151519.765000", "151520.225000", "151520.685000", "151521.145000", "151521.605000", "151522.065000", "151522.525000", "151522.985000", "151523.445000", "151523.905000", "151524.365000", "151524.825000", "151525.285000", "151525.745000", "151526.205000", "151526.665000", "151527.125000", "151527.585000", "151528.045000", "151528.505000", "151528.965000", "151529.425000", "151529.885000", "151530.345000", "151530.805000", "151531.265000", "151531.725000", "151532.185000", "151532.645000", "151533.105000", "151533.565000", "151534.025000", "151534.485000", "151534.945000", "151535.405000", "151535.865000", "151536.325000", "151536.785000", "151537.245000", "151537.705000", "151538.165000", "151538.625000", "151539.085000", "151539.545000", "151540.005000", "151540.465000", "151540.925000", "151541.385000", "151541.845000", "151542.305000", "151542.765000", "151543.225000", "151543.685000", "151544.145000", "151544.605000", "151545.065000", "151545.525000", "151545.985000", "151546.445000", "151546.905000", "151547.365000", "151547.825000", "151548.285000", "151548.745000", "151549.205000", "151549.665000", "151550.125000", "151550.585000", "151551.045000", "151551.505000", "151551.965000", "151552.425000", "151552.885000", "151553.345000", "151553.805000", "151554.265000", "151554.725000", "151555.185000", "151555.645000", "151556.105000", "151556.565000", "151557.025000", "151557.485000", "151557.945000", "151558.405000", "151558.865000", "151559.325000", "151559.785000"],
