{
  "AcquisitionMatrixPE": 82,
  "AcquisitionNumber": 1,
  "AcquisitionTime": "11:09:22.962500",
  "BandwidthPerPixelPhaseEncode": 24.888,
  "BaseResolution": 82,
  "BodyPartExamined": "BRAIN",
  "ConsistencyInfo": "N4_VE11E_LATEST_20181129",
  "ConversionSoftware": "dcm2niix",
  "ConversionSoftwareVersion": "v1.0.20201102",
  "DerivedVendorReportedEchoSpacing": 0.00049,
  "DeviceSerialNumber": "66112",
  "DwellTime": 2e-06,
  "EchoTime": 0.0272,
  "EchoTrainLength": 82,
  "EffectiveEchoSpacing": 0.00049,
  "FlipAngle": 44,
  "ImageComments": "Unaliased MB8/PE3",
  "ImageOrientationPatientDICOM": [0.999982, 0.00150576, -0.00581767, -0.00209437, 0.994727, -0.102536],
  "ImageType": [
    "ORIGINAL",
    "PRIMARY",
    "M",
    "MB",
    "ND",
    "NORM",
    "MOSAIC"
],
  "ImagingFrequency": 123.259,
  "InPlanePhaseEncodingDirectionDICOM": "COL",
  "InstitutionAddress": "Maynard 3,Hanover,NH,US,03755",
  "InstitutionName": "Dartmouth College - PBS",
  "InstitutionalDepartmentName": "Department",
  "MRAcquisitionType": "2D",
  "MagneticFieldStrength": 3,
  "Manufacturer": "Siemens",
  "ManufacturersModelName": "Prisma",
  "Modality": "MR",
  "MultibandAccelerationFactor": 8,
  "PartialFourier": 1,
  "PatientPosition": "HFS",
  "PercentPhaseFOV": 100,
  "PercentSampling": 100,
  "PhaseEncodingDirection": "j-",
  "PhaseEncodingSteps": 82,
  "PhaseResolution": 1,
  "PixelBandwidth": 3050,
  "ProcedureStepDescription": "Wager_Wager^1076_spacetop",
  "ProtocolName": "func_run-05_task-social_acq-ap-mb8",
  "PulseSequenceDetails": "%CustomerSeq%\\cmrr_mbep2d_bold",
  "ReceiveCoilActiveElements": "HEA;HEP",
  "ReceiveCoilName": "Head_32",
  "ReconMatrixPE": 82,
  "RepetitionTime": 0.46,
  "SAR": 0.0865017,
  "ScanOptions": "FS",
  "ScanningSequence": "EP",
  "SequenceName": "epfid2d1_82",
  "SequenceVariant": "SK\\SS",
  "SeriesDescription": "func_run-05_task-social_acq-ap-mb8",
  "SeriesNumber": 16,
  "ShimSetting": [4227, -7783, -7264, 186, -94, -269, -215, 66],
  "SliceThickness": 2.7,
  "SliceTiming": [0, 0.2525, 0.065, 0.315, 0.1275, 0.3775, 0.19, 0, 0.2525, 0.065, 0.315, 0.1275, 0.3775, 0.19, 0, 0.2525, 0.065, 0.315, 0.1275, 0.3775, 0.19, 0, 0.2525, 0.065, 0.315, 0.1275, 0.3775, 0.19, 0, 0.2525, 0.065, 0.315, 0.1275, 0.3775, 0.19, 0, 0.2525, 0.065, 0.315, 0.1275, 0.3775, 0.19, 0, 0.2525, 0.065, 0.315, 0.1275, 0.3775, 0.19, 0, 0.2525, 0.065, 0.315, 0.1275, 0.3775, 0.19],
  "SoftwareVersions": "syngo MR E11",
  "SpacingBetweenSlices": 2.7,
  "StationName": "AWP66112",
  "TaskName": "social",
  "TotalReadoutTime": 0.03969,
  "TxRefAmp": 253.199,
  "WipMemBlock": "0847d770-6d71-4ba7-8ab4-ac8b90714882||Sequence: R016 ve11e/master r/434b28f1; Aug  7 2019 18:53:46 by eja",
  "dcmmeta_affine": [
    [-2.6828784942626953, -0.00561905512586236, -0.015208018012344837, 110.66622924804688],
    [-0.004039842169731855, 2.6687800884246826, -0.27687376737594604, -89.36829376220703],
    [-0.015608380548655987, 0.27509525418281555, 2.685723304748535, -116.43939971923828],
    [0.0, 0.0, 0.0, 1.0]
],
  "dcmmeta_reorient_transform": [
    [0.0, -1.0, 0.0, 81.0],
    [1.0, 0.0, 0.0, 0.0],
    [0.0, 0.0, 1.0, 0.0],
    [0.0, 0.0, 0.0, 1.0]
],
  "dcmmeta_shape": [82, 82, 56, 872],
  "dcmmeta_slice_dim": 2,
  "dcmmeta_version": 0.6,
  "global": {
    "const": {
      "AccessionNumber": "A004322",
      "AcquisitionMatrix": [82, 0, 0, 82],
      "AngioFlag": "N",
      "BitsAllocated": 16,
      "BitsStored": 16,
      "BodyPartExamined": "BRAIN",
      "Columns": 656,
      "EchoNumbers": 1,
      "EchoTime": 27.2,
      "EchoTrainLength": 82,
      "FlipAngle": 44.0,
      "HighBit": 15,
      "ImageOrientationPatient": [0.99998194354602, 0.00150575927282, -0.0058176688569, -0.0020943750397, 0.99472714050689, -0.1025355037642],
      "ImagePositionPatient": [-878.58452812649, -893.9022540495, -10.724736825974],
      "ImageType": [
        "ORIGINAL",
        "PRIMARY",
        "M",
        "MB",
        "ND",
        "NORM",
        "MOSAIC"
],
      "ImagedNucleus": "1H",
      "ImagingFrequency": 123.259164,
      "InPlanePhaseEncodingDirection": "COL",
      "MRAcquisitionType": "2D",
      "MagneticFieldStrength": 3.0,
      "Manufacturer": "SIEMENS",
      "ManufacturerModelName": "Prisma",
      "Modality": "MR",
      "NumberOfAverages": 1.0,
      "NumberOfPhaseEncodingSteps": 82,
      "PercentPhaseFieldOfView": 100.0,
      "PercentSampling": 100.0,
      "PerformedProcedureStepStartTime": "102811.410000",
      "PhotometricInterpretation": "MONOCHROME2",
      "PixelBandwidth": 3050.0,
      "PixelRepresentation": 0,
      "PixelSpacing": [2.6829268932343, 2.6829268932343],
      "ProtocolName": "func_run-05_task-social_acq-ap-mb8",
      "RepetitionTime": 460.0,
      "Rows": 656,
      "SAR": 0.08650169303349,
      "SamplesPerPixel": 1,
      "ScanOptions": "FS",
      "ScanningSequence": "EP",
      "SequenceName": "epfid2d1_82",
      "SequenceVariant": [
        "SK",
        "SS"
],
      "SeriesDescription": "func_run-05_task-social_acq-ap-mb8",
      "SeriesNumber": 16,
      "SeriesTime": "110938.162000",
      "SliceLocation": -107.28269718893,
      "SliceThickness": 2.7000000476837,
      "SmallestImagePixelValue": 0,
      "SoftwareVersions": "syngo MR E11",
      "SpacingBetweenSlices": 2.699999952439,
      "SpecificCharacterSet": "ISO_IR 100",
      "StudyID": "2",
      "StudyTime": "102811.370000",
      "TransmitCoilName": "Body",
      "VariableFlipAngleFlag": "N",
      "WindowCenterWidthExplanation": "Algo1"
    },
    "slices": {}
  },
  "time": {
    "samples": {
      "AcquisitionNumber": [1, 2, 3, 4, 5, 6, 7, 8, 9, 10, 11, 12, 13, 14, 15, 16, 17, 18, 19, 20, 21, 22, 23, 24, 25, 26, 27, 28, 29, 30, 31, 32, 33, 34, 35, 36, 37, 38, 39, 40, 41, 42, 43, 44, 45, 46, 47, 48, 49, 50, 51, 52, 53, 54, 55, 56, 57, 58, 59, 60, 61, 62, 63, 64, 65, 66, 67, 68, 69, 70, 71, 72, 73, 74, 75, 76, 77, 78, 79, 80, 81, 82, 83, 84, 85, 86, 87, 88, 89, 90, 91, 92, 93, 94, 95, 96, 97, 98, 99, 100, 101, 102, 103, 104, 105, 106, 107, 108, 109, 110, 111, 112, 113, 114, 115, 116, 117, 118, 119, 120, 121, 122, 123, 124, 125, 126, 127, 128, 129, 130, 131, 132, 133, 134, 135, 136, 137, 138, 139, 140, 141, 142, 143, 144, 145, 146, 147, 148, 149, 150, 151, 152, 153, 154, 155, 156, 157, 158, 159, 160, 161, 162, 163, 164, 165, 166, 167, 168, 169, 170, 171, 172, 173, 174, 175, 176, 177, 178, 179, 180, 181, 182, 183, 184, 185, 186, 187, 188, 189, 190, 191, 192, 193, 194, 195, 196, 197, 198, 199, 200, 201, 202, 203, 204, 205, 206, 207, 208, 209, 210, 211, 212, 213, 214, 215, 216, 217, 218, 219, 220, 221, 222, 223, 224, 225, 226, 227, 228, 229, 230, 231, 232, 233, 234, 235, 236, 237, 238, 239, 240, 241, 242, 243, 244, 245, 246, 247, 248, 249, 250, 251, 252, 253, 254, 255, 256, 257, 258, 259, 260, 261, 262, 263, 264, 265, 266, 267, 268, 269, 270, 271, 272, 273, 274, 275, 276, 277, 278, 279, 280, 281, 282, 283, 284, 285, 286, 287, 288, 289, 290, 291, 292, 293, 294, 295, 296, 297, 298, 299, 300, 301, 302, 303, 304, 305, 306, 307, 308, 309, 310, 311, 312, 313, 314, 315, 316, 317, 318, 319, 320, 321, 322, 323, 324, 325, 326, 327, 328, 329, 330, 331, 332, 333, 334, 335, 336, 337, 338, 339, 340, 341, 342, 343, 344, 345, 346, 347, 348, 349, 350, 351, 352, 353, 354, 355, 356, 357, 358, 359, 360, 361, 362, 363, 364, 365, 366, 367, 368, 369, 370, 371, 372, 373, 374, 375, 376, 377, 378, 379, 380, 381, 382, 383, 384, 385, 386, 387, 388, 389, 390, 391, 392, 393, 394, 395, 396, 397, 398, 399, 400, 401, 402, 403, 404, 405, 406, 407, 408, 409, 410, 411, 412, 413, 414, 415, 416, 417, 418, 419, 420, 421, 422, 423, 424, 425, 426, 427, 428, 429, 430, 431, 432, 433, 434, 435, 436, 437, 438, 439, 440, 441, 442, 443, 444, 445, 446, 447, 448, 449, 450, 451, 452, 453, 454, 455, 456, 457, 458, 459, 460, 461, 462, 463, 464, 465, 466, 467, 468, 469, 470, 471, 472, 473, 474, 475, 476, 477, 478, 479, 480, 481, 482, 483, 484, 485, 486, 487, 488, 489, 490, 491, 492, 493, 494, 495, 496, 497, 498, 499, 500, 501, 502, 503, 504, 505, 506, 507, 508, 509, 510, 511, 512, 513, 514, 515, 516, 517, 518, 519, 520, 521, 522, 523, 524, 525, 526, 527, 528, 529, 530, 531, 532, 533, 534, 535, 536, 537, 538, 539, 540, 541, 542, 543, 544, 545, 546, 547, 548, 549, 550, 551, 552, 553, 554, 555, 556, 557, 558, 559, 560, 561, 562, 563, 564, 565, 566, 567, 568, 569, 570, 571, 572, 573, 574, 575, 576, 577, 578, 579, 580, 581, 582, 583, 584, 585, 586, 587, 588, 589, 590, 591, 592, 593, 594, 595, 596, 597, 598, 599, 600, 601, 602, 603, 604, 605, 606, 607, 608, 609, 610, 611, 612, 613, 614, 615, 616, 617, 618, 619, 620, 621, 622, 623, 624, 625, 626, 627, 628, 629, 630, 631, 632, 633, 634, 635, 636, 637, 638, 639, 640, 641, 642, 643, 644, 645, 646, 647, 648, 649, 650, 651, 652, 653, 654, 655, 656, 657, 658, 659, 660, 661, 662, 663, 664, 665, 666, 667, 668, 669, 670, 671, 672, 673, 674, 675, 676, 677, 678, 679, 680, 681, 682, 683, 684, 685, 686, 687, 688, 689, 690, 691, 692, 693, 694, 695, 696, 697, 698, 699, 700, 701, 702, 703, 704, 705, 706, 707, 708, 709, 710, 711, 712, 713, 714, 715, 716, 717, 718, 719, 720, 721, 722, 723, 724, 725, 726, 727, 728, 729, 730, 731, 732, 733, 734, 735, 736, 737, 738, 739, 740, 741, 742, 743, 744, 745, 746, 747, 748, 749, 750, 751, 752, 753, 754, 755, 756, 757, 758, 759, 760, 761, 762, 763, 764, 765, 766, 767, 768, 769, 770, 771, 772, 773, 774, 775, 776, 777, 778, 779, 780, 781, 782, 783, 784, 785, 786, 787, 788, 789, 790, 791, 792, 793, 794, 795, 796, 797, 798, 799, 800, 801, 802, 803, 804, 805, 806, 807, 808, 809, 810, 811, 812, 813, 814, 815, 816, 817, 818, 819, 820, 821, 822, 823, 824, 825, 826, 827, 828, 829, 830, 831, 832, 833, 834, 835, 836, 837, 838, 839, 840, 841, 842, 843, 844, 845, 846, 847, 848, 849, 850, 851, 852, 853, 854, 855, 856, 857, 858, 859, 860, 861, 862, 863, 864, 865, 866, 867, 868, 869, 870, 871, 872],
      "AcquisitionTime": ["110922.962500", "110923.422500", "110923.882500", "110924.342500", "110924.802500", "110925.262500", "110925.722500", "110926.182500", "110926.642500", "110927.102500", "110927.562500", "110928.022500", "110928.482500", "110928.942500", "110929.402500", "110929.862500", "110930.322500", "110930.782500", "110931.242500", "110931.702500", "110932.162500", "110932.622500", "110933.082500", "110933.542500", "110934.002500", "110934.462500", "110934.922500", "110935.382500", "110935.842500", "110936.302500", "110936.762500", "110937.222500", "110937.682500", "110938.142500", "110938.602500", "110939.062500", "110939.522500", "110939.982500", "110940.442500", "110940.902500", "110941.362500", "110941.822500", "110942.282500", "110942.742500", "110943.202500", "110943.662500", "110944.122500", "110944.582500", "110945.042500", "110945.502500", "110945.962500", "110946.422500", "110946.882500", "110947.342500", "110947.802500", "110948.262500", "110948.722500", "110949.182500", "110949.642500", "110950.102500", "110950.562500", "110951.022500", "110951.482500", "110951.942500", "110952.402500", "110952.862500", "110953.322500", "110953.782500", "110954.242500", "110954.702500", "110955.162500", "110955.622500", "110956.082500", "110956.542500", "110957.002500", "110957.462500", "110957.922500", "110958.382500", "110958.842500", "110959.302500", "110959.762500", "111000.222500", "111000.682500", "111001.142500", "111001.602500", "111002.062500", "111002.522500", "111002.982500", "111003.442500", "111003.902500", "111004.362500", "111004.822500", "111005.282500", "111005.742500", "111006.202500", "111006.662500", "111007.122500", "111007.582500", "111008.042500", "111008.502500", "111008.962500", "111009.422500", "111009.882500", "111010.342500", "111010.802500", "111011.262500", "111011.722500", "111012.182500", "111012.642500", "111013.102500", "111013.562500", "111014.022500", "111014.482500", "111014.942500", "111015.402500", "111015.862500", "111016.322500", "111016.782500", "111017.242500", "111017.702500", "111018.162500", "111018.622500", "111019.082500", "111019.542500", "111020.002500", "111020.462500", "111020.922500", "111021.382500", "111021.842500", "111022.302500", "111022.762500", "111023.222500", "111023.682500", "111024.142500", "111024.602500", "111025.062500", "111025.522500", "111025.982500", "111026.442500", "111026.902500", "111027.362500", "111027.822500", "111028.282500", "111028.742500", "111029.202500", "111029.662500", "111030.122500", "111030.582500", "111031.042500", "111031.502500", "111031.962500", "111032.422500", "111032.882500", "111033.342500", "111033.802500", "111034.262500", "111034.722500", "111035.182500", "111035.642500", "111036.102500", "111036.562500", "111037.022500", "111037.482500", "111037.942500", "111038.402500", "111038.862500", "111039.322500", "111039.782500", "111040.242500", "111040.702500", "111041.162500", "111041.622500", "111042.082500", "111042.542500", "111043.002500", "111043.462500", "111043.922500", "111044.382500", "111044.842500", "111045.302500", "111045.762500", "111046.222500", "111046.682500", "111047.142500", "111047.602500", "111048.062500", "111048.522500", "111048.982500", "111049.442500", "111049.902500", "111050.362500", "111050.822500", "111051.282500", "111051.742500", "111052.202500", "111052.662500", "111053.122500", "111053.582500", "111054.042500", "111054.502500", "111054.962500", "111055.422500", "111055.882500", "111056.342500", "111056.802500", "111057.262500", "111057.722500", "111058.182500", "111058.642500", "111059.102500", "111059.562500", "111100.022500", "111100.482500", "111100.942500", "111101.402500", "111101.862500", "111102.322500", "111102.782500", "111103.242500", "111103.702500", "111104.162500", "111104.622500", "111105.082500", "111105.542500", "111106.002500", "111106.462500", "111106.922500", "111107.382500", "111107.842500", "111108.302500", "111108.762500", "111109.222500", "111109.682500", "111110.142500", "111110.602500", "111111.062500", "111111.522500", "111111.982500", "111112.442500", "111112.902500", "111113.362500", "111113.822500", "111114.282500", "111114.742500", "111115.202500", "111115.662500", "111116.122500", "111116.582500", "111117.042500", "111117.502500", "111117.962500", "111118.422500", "111118.882500", "111119.342500", "111119.802500", "111120.262500", "111120.722500", "111121.182500", "111121.642500", "111122.102500", "111122.562500", "111123.022500", "111123.482500", "111123.942500", "111124.402500", "111124.862500", "111125.322500", "111125.782500", "111126.242500", "111126.702500", "111127.162500", "111127.622500", "111128.082500", "111128.542500", "111129.002500", "111129.462500", "111129.922500", "111130.382500", "111130.842500", "111131.302500", "111131.762500", "111132.222500", "111132.682500", "111133.142500", "111133.602500", "111134.062500", "111134.522500", "111134.982500", "111135.442500", "111135.902500", "111136.362500", "111136.822500", "111137.282500", "111137.742500", "111138.202500", "111138.662500", "111139.122500", "111139.582500", "111140.042500", "111140.502500", "111140.962500", "111141.422500", "111141.882500", "111142.342500", "111142.802500", "111143.262500", "111143.722500", "111144.182500", "111144.642500", "111145.102500", "111145.562500", "111146.022500", "111146.482500", "111146.942500", "111147.402500", "111147.862500", "111148.322500", "111148.782500", "111149.242500", "111149.702500", "111150.162500", "111150.622500", "111151.082500", "111151.542500", "111152.002500", "111152.462500", "111152.922500", "111153.382500", "111153.842500", "111154.302500", "111154.762500", "111155.222500", "111155.682500", "111156.142500", "111156.602500", "111157.062500", "111157.522500", "111157.982500", "111158.442500", "111158.902500", "111159.362500", "111159.822500", "111200.282500", "111200.742500", "111201.202500", "111201.662500", "111202.122500", "111202.582500", "111203.042500", "111203.502500", "111203.962500", "111204.422500", "111204.882500", "111205.342500", "111205.802500", "111206.262500", "111206.722500", "111207.182500", "111207.642500", "111208.102500", "111208.562500", "111209.022500", "111209.482500", "111209.942500", "111210.402500", "111210.862500", "111211.322500", "111211.782500", "111212.242500", "111212.702500", "111213.162500", "111213.622500", "111214.082500", "111214.542500", "111215.002500", "111215.462500", "111215.922500", "111216.382500", "111216.842500", "111217.302500", "111217.762500", "111218.222500", "111218.682500", "111219.142500", "111219.602500", "111220.062500", "111220.522500", "111220.982500", "111221.442500", "111221.902500", "111222.362500", "111222.822500", "111223.282500", "111223.742500", "111224.202500", "111224.662500", "111225.122500", "111225.582500", "111226.042500", "111226.502500", "111226.962500", "111227.422500", "111227.882500", "111228.342500", "111228.802500", "111229.262500", "111229.722500", "111230.182500", "111230.642500", "111231.102500", "111231.562500", "111232.022500", "111232.482500", "111232.942500", "111233.402500", "111233.862500", "111234.322500", "111234.782500", "111235.242500", "111235.702500", "111236.162500", "111236.622500", "111237.082500", "111237.542500", "111238.002500", "111238.462500", "111238.922500", "111239.382500", "111239.842500", "111240.302500", "111240.762500", "111241.222500", "111241.682500", "111242.142500", "111242.602500", "111243.062500", "111243.522500", "111243.982500", "111244.442500", "111244.902500", "111245.362500", "111245.822500", "111246.282500", "111246.742500", "111247.202500", "111247.662500", "111248.122500", "111248.582500", "111249.042500", "111249.502500", "111249.962500", "111250.422500", "111250.882500", "111251.342500", "111251.802500", "111252.262500", "111252.722500", "111253.182500", "111253.642500", "111254.102500", "111254.562500", "111255.022500", "111255.482500", "111255.942500", "111256.402500", "111256.862500", "111257.322500", "111257.782500", "111258.242500", "111258.702500", "111259.162500", "111259.622500", "111300.082500", "111300.542500", "111301.002500", "111301.462500", "111301.922500", "111302.382500", "111302.842500", "111303.302500", "111303.762500", "111304.222500", "111304.682500", "111305.142500", "111305.602500", "111306.062500", "111306.522500", "111306.982500", "111307.442500", "111307.902500", "111308.362500", "111308.822500", "111309.282500", "111309.742500", "111310.202500", "111310.662500", "111311.122500", "111311.582500", "111312.042500", "111312.502500", "111312.962500", "111313.422500", "111313.882500", "111314.342500", "111314.802500", "111315.262500", "111315.722500", "111316.182500", "111316.642500", "111317.102500", "111317.562500", "111318.022500", "111318.482500", "111318.942500", "111319.402500", "111319.862500", "111320.322500", "111320.782500", "111321.242500", "111321.702500", "111322.162500", "111322.622500", "111323.082500", "111323.542500", "111324.002500", "111324.462500", "111324.922500", "111325.382500", "111325.842500", "111326.302500", "111326.762500", "111327.222500", "111327.682500", "111328.142500", "111328.602500", "111329.062500", "111329.522500", "111329.982500", "111330.442500", "111330.902500", "111331.362500", "111331.822500", "111332.282500", "111332.742500", "111333.202500", "111333.662500", "111334.122500", "111334.582500", "111335.042500", "111335.502500", "111335.962500", "111336.422500", "111336.882500", "111337.342500", "111337.802500", "111338.262500", "111338.722500", "111339.182500", "111339.642500", "111340.102500", "111340.562500", "111341.022500", "111341.482500", "111341.942500", "111342.402500", "111342.862500", "111343.322500", "111343.782500", "111344.242500", "111344.702500", "111345.162500", "111345.622500", "111346.082500", "111346.542500", "111347.002500", "111347.462500", "111347.922500", "111348.382500", "111348.842500", "111349.302500", "111349.762500", "111350.222500", "111350.682500", "111351.142500", "111351.602500", "111352.062500", "111352.522500", "111352.982500", "111353.442500", "111353.902500", "111354.362500", "111354.822500", "111355.282500", "111355.742500", "111356.202500", "111356.662500", "111357.122500", "111357.582500", "111358.042500", "111358.502500", "111358.962500", "111359.422500", "111359.882500", "111400.342500", "111400.802500", "111401.262500", "111401.722500", "111402.182500", "111402.642500", "111403.102500", "111403.562500", "111404.022500", "111404.482500", "111404.942500", "111405.402500", "111405.862500", "111406.322500", "111406.782500", "111407.242500", "111407.702500", "111408.162500", "111408.622500", "111409.082500", "111409.542500", "111410.002500", "111410.462500", "111410.922500", "111411.382500", "111411.842500", "111412.302500", "111412.762500", "111413.222500", "111413.682500", "111414.142500", "111414.602500", "111415.062500", "111415.522500", "111415.982500", "111416.442500", "111416.902500", "111417.362500", "111417.822500", "111418.282500", "111418.742500", "111419.202500", "111419.662500", "111420.122500", "111420.582500", "111421.042500", "111421.502500", "111421.962500", "111422.422500", "111422.882500", "111423.342500", "111423.802500", "111424.262500", "111424.722500", "111425.182500", "111425.642500", "111426.102500", "111426.562500", "111427.022500", "111427.482500", "111427.942500", "111428.402500", "111428.862500", "111429.322500", "111429.782500", "111430.242500", "111430.702500", "111431.162500", "111431.622500", "111432.082500", "111432.542500", "111433.002500", "111433.462500", "111433.922500", "111434.382500", "111434.842500", "111435.302500", "111435.762500", "111436.222500", "111436.682500", "111437.142500", "111437.602500", "111438.062500", "111438.522500", "111438.982500", "111439.442500", "111439.902500", "111440.362500", "111440.822500", "111441.282500", "111441.742500", "111442.202500", "111442.662500", "111443.122500", "111443.582500", "111444.042500", "111444.502500", "111444.962500", "111445.422500", "111445.882500", "111446.342500", "111446.802500", "111447.262500", "111447.722500", "111448.182500", "111448.642500", "111449.102500", "111449.562500", "111450.022500", "111450.482500", "111450.942500", "111451.402500", "111451.862500", "111452.322500", "111452.782500", "111453.242500", "111453.702500", "111454.162500", "111454.622500", "111455.082500", "111455.542500", "111456.002500", "111456.462500", "111456.922500", "111457.382500", "111457.842500", "111458.302500", "111458.762500", "111459.222500", "111459.682500", "111500.142500", "111500.602500", "111501.062500", "111501.522500", "111501.982500", "111502.442500", "111502.902500", "111503.362500", "111503.822500", "111504.282500", "111504.742500", "111505.202500", "111505.662500", "111506.122500", "111506.582500", "111507.042500", "111507.502500", "111507.962500", "111508.422500", "111508.882500", "111509.342500", "111509.802500", "111510.262500", "111510.722500", "111511.182500", "111511.642500", "111512.102500", "111512.562500", "111513.022500", "111513.482500", "111513.942500", "111514.402500", "111514.862500", "111515.322500", "111515.782500", "111516.242500", "111516.702500", "111517.162500", "111517.622500", "111518.082500", "111518.542500", "111519.002500", "111519.462500", "111519.922500", "111520.382500", "111520.842500", "111521.302500", "111521.762500", "111522.222500", "111522.682500", "111523.142500", "111523.602500", "111524.062500", "111524.522500", "111524.982500", "111525.442500", "111525.902500", "111526.362500", "111526.822500", "111527.282500", "111527.742500", "111528.202500", "111528.662500", "111529.122500", "111529.582500", "111530.042500", "111530.502500", "111530.962500", "111531.422500", "111531.882500", "111532.342500", "111532.802500", "111533.262500", "111533.722500", "111534.182500", "111534.642500", "111535.102500", "111535.562500", "111536.022500", "111536.482500", "111536.942500", "111537.402500", "111537.862500", "111538.322500", "111538.782500", "111539.242500", "111539.702500", "111540.162500", "111540.622500", "111541.082500", "111541.542500", "111542.002500", "111542.462500", "111542.922500", "111543.382500", "111543.842500", "111544.302500", "111544.762500", "111545.222500", "111545.682500", "111546.142500", "111546.602500", "111547.062500", "111547.522500", "111547.982500", "111548.442500", "111548.902500", "111549.362500", "111549.822500", "111550.282500", "111550.742500", "111551.202500", "111551.662500", "111552.122500", "111552.582500", "111553.042500", "111553.502500", "111553.962500", "111554.422500", "111554.882500", "111555.342500", "111555.802500", "111556.262500", "111556.722500", "111557.182500", "111557.642500", "111558.102500", "111558.562500", "111559.022500", "111559.482500", "111559.942500", "111600.402500", "111600.862500", "111601.322500", "111601.782500", "111602.242500", "111602.702500", "111603.162500", "111603.622500"],
