{
  "AcquisitionMatrixPE": 82,
  "AcquisitionNumber": 1,
  "AcquisitionTime": "15:40:45.802500",
  "BandwidthPerPixelPhaseEncode": 24.888,
  "BaseResolution": 82,
  "BodyPartExamined": "BRAIN",
  "ConsistencyInfo": "N4_VE11C_LATEST_20160120",
  "ConversionSoftware": "dcm2niix",
  "ConversionSoftwareVersion": "v1.0.20201102",
  "DerivedVendorReportedEchoSpacing": 0.00049,
  "DeviceSerialNumber": "66112",
  "DwellTime": 2e-06,
  "EchoTime": 0.0272,
  "EchoTrainLength": 82,
  "EffectiveEchoSpacing": 0.00049,
  "FlipAngle": 44,
  "ImageComments": "Unaliased MB8/PE3",
  "ImageOrientationPatientDICOM": [0.999779, 0.0133024, 0.0162514, -0.0139605, 0.999058, 0.0410794],
  "ImageType": [
    "ORIGINAL",
    "PRIMARY",
    "M",
    "MB",
    "ND",
    "NORM",
    "MOSAIC"
],
  "ImagingFrequency": 123.252,
  "InPlanePhaseEncodingDirectionDICOM": "COL",
  "InstitutionAddress": "Maynard 3,Hanover,NH,US,03755",
  "InstitutionName": "Dartmouth College - PBS",
  "InstitutionalDepartmentName": "Department",
  "MRAcquisitionType": "2D",
  "MagneticFieldStrength": 3,
  "Manufacturer": "Siemens",
  "ManufacturersModelName": "Prisma",
  "Modality": "MR",
  "MultibandAccelerationFactor": 8,
  "PartialFourier": 1,
  "PatientPosition": "HFS",
  "PercentPhaseFOV": 100,
  "PercentSampling": 100,
  "PhaseEncodingDirection": "j-",
  "PhaseEncodingSteps": 82,
  "PhaseResolution": 1,
  "PixelBandwidth": 3050,
  "ProcedureStepDescription": "Wager_Wager^1076_spacetop",
  "ProtocolName": "func_run-05_task-social_acq-ap-mb8",
  "PulseSequenceDetails": "%CustomerSeq%\\cmrr_mbep2d_bold",
  "ReceiveCoilActiveElements": "HEA;HEP",
  "ReceiveCoilName": "Head_32",
  "ReconMatrixPE": 82,
  "RepetitionTime": 0.46,
  "SAR": 0.0725047,
  "ScanOptions": "FS",
  "ScanningSequence": "EP",
  "SequenceName": "epfid2d1_82",
  "SequenceVariant": "SK\\SS",
  "SeriesDescription": "func_run-05_task-social_acq-ap-mb8",
  "SeriesNumber": 18,
  "ShimSetting": [4165, -7731, -7300, 622, -54, -17, 28, 84],
  "SliceThickness": 2.7,
  "SliceTiming": [0, 0.25, 0.0625, 0.315, 0.125, 0.3775, 0.1875, 0, 0.25, 0.0625, 0.315, 0.125, 0.3775, 0.1875, 0, 0.25, 0.0625, 0.315, 0.125, 0.3775, 0.1875, 0, 0.25, 0.0625, 0.315, 0.125, 0.3775, 0.1875, 0, 0.25, 0.0625, 0.315, 0.125, 0.3775, 0.1875, 0, 0.25, 0.0625, 0.315, 0.125, 0.3775, 0.1875, 0, 0.25, 0.0625, 0.315, 0.125, 0.3775, 0.1875, 0, 0.25, 0.0625, 0.315, 0.125, 0.3775, 0.1875],
  "SoftwareVersions": "syngo MR E11",
  "SpacingBetweenSlices": 2.7,
  "StationName": "AWP66112",
  "TaskName": "social",
  "TotalReadoutTime": 0.03969,
  "TxRefAmp": 227.279,
  "WipMemBlock": "46073b7f-45f5-4cde-a10f-114a8ca891c6||Sequence: R016 ve11c/master r/e634e98; Dec 19 2017 11:00:25 by eja",
  "dcmmeta_affine": [
    [-2.682335138320923, -0.03745506703853607, 0.04236191138625145, 110.38511657714844],
    [-0.035689301788806915, 2.6804006099700928, 0.11150258034467697, -85.02178955078125],
    [0.04360119625926018, -0.11021311581134796, 2.697364091873169, -54.23923110961914],
    [0.0, 0.0, 0.0, 1.0]
],
  "dcmmeta_reorient_transform": [
    [0.0, -1.0, 0.0, 81.0],
    [1.0, 0.0, 0.0, 0.0],
    [0.0, 0.0, 1.0, 0.0],
    [0.0, 0.0, 0.0, 1.0]
],
  "dcmmeta_shape": [82, 82, 56, 872],
  "dcmmeta_slice_dim": 2,
  "dcmmeta_version": 0.6,
  "global": {
    "const": {
      "AccessionNumber": "A003478",
      "AcquisitionMatrix": [82, 0, 0, 82],
      "AngioFlag": "N",
      "BitsAllocated": 16,
      "BitsStored": 16,
      "BodyPartExamined": "BRAIN",
      "Columns": 656,
      "EchoNumbers": 1,
      "EchoTime": 27.2,
      "EchoTrainLength": 82,
      "FlipAngle": 44.0,
      "HighBit": 15,
      "ImageOrientationPatient": [0.99977944582458, 0.01330237570381, 0.01625135401514, -0.0139605249619, 0.99905834861468, 0.04107943288423],
      "ImagePositionPatient": [-866.431840333, -911.60842711578, -107.31120109616],
      "ImageType": [
        "ORIGINAL",
        "PRIMARY",
        "M",
        "MB",
        "ND",
        "NORM",
        "MOSAIC"
],
      "ImagedNucleus": "1H",
      "ImagingFrequency": 123.252148,
      "InPlanePhaseEncodingDirection": "COL",
      "MRAcquisitionType": "2D",
      "MagneticFieldStrength": 3.0,
      "Manufacturer": "SIEMENS",
      "ManufacturerModelName": "Prisma",
      "Modality": "MR",
      "NumberOfAverages": 1.0,
      "NumberOfPhaseEncodingSteps": 82,
      "PercentPhaseFieldOfView": 100.0,
      "PercentSampling": 100.0,
      "PerformedProcedureStepStartTime": "145213.637000",
      "PhotometricInterpretation": "MONOCHROME2",
      "PixelBandwidth": 3050.0,
      "PixelRepresentation": 0,
      "PixelSpacing": [2.6829268932343, 2.6829268932343],
      "ProtocolName": "func_run-05_task-social_acq-ap-mb8",
      "RepetitionTime": 460.0,
      "Rows": 656,
      "SAR": 0.07250465734253,
      "SamplesPerPixel": 1,
      "ScanOptions": "FS",
      "ScanningSequence": "EP",
      "SequenceName": "epfid2d1_82",
      "SequenceVariant": [
        "SK",
        "SS"
],
      "SeriesDescription": "func_run-05_task-social_acq-ap-mb8",
      "SeriesNumber": 18,
      "SeriesTime": "154105.305000",
      "SliceLocation": -55.9655468085,
      "SliceThickness": 2.7000000476837,
      "SmallestImagePixelValue": 0,
      "SoftwareVersions": "syngo MR E11",
      "SpacingBetweenSlices": 2.7000000951588,
      "SpecificCharacterSet": "ISO_IR 100",
      "StudyID": "1",
      "StudyTime": "145213.561000",
      "TransmitCoilName": "Body",
      "VariableFlipAngleFlag": "N",
      "WindowCenterWidthExplanation": "Algo1",
      "dBdt": 0.0},
    "slices": {}
  },
  "time": {
    "samples": {
      "AcquisitionNumber": [1, 2, 3, 4, 5, 6, 7, 8, 9, 10, 11, 12, 13, 14, 15, 16, 17, 18, 19, 20, 21, 22, 23, 24, 25, 26, 27, 28, 29, 30, 31, 32, 33, 34, 35, 36, 37, 38, 39, 40, 41, 42, 43, 44, 45, 46, 47, 48, 49, 50, 51, 52, 53, 54, 55, 56, 57, 58, 59, 60, 61, 62, 63, 64, 65, 66, 67, 68, 69, 70, 71, 72, 73, 74, 75, 76, 77, 78, 79, 80, 81, 82, 83, 84, 85, 86, 87, 88, 89, 90, 91, 92, 93, 94, 95, 96, 97, 98, 99, 100, 101, 102, 103, 104, 105, 106, 107, 108, 109, 110, 111, 112, 113, 114, 115, 116, 117, 118, 119, 120, 121, 122, 123, 124, 125, 126, 127, 128, 129, 130, 131, 132, 133, 134, 135, 136, 137, 138, 139, 140, 141, 142, 143, 144, 145, 146, 147, 148, 149, 150, 151, 152, 153, 154, 155, 156, 157, 158, 159, 160, 161, 162, 163, 164, 165, 166, 167, 168, 169, 170, 171, 172, 173, 174, 175, 176, 177, 178, 179, 180, 181, 182, 183, 184, 185, 186, 187, 188, 189, 190, 191, 192, 193, 194, 195, 196, 197, 198, 199, 200, 201, 202, 203, 204, 205, 206, 207, 208, 209, 210, 211, 212, 213, 214, 215, 216, 217, 218, 219, 220, 221, 222, 223, 224, 225, 226, 227, 228, 229, 230, 231, 232, 233, 234, 235, 236, 237, 238, 239, 240, 241, 242, 243, 244, 245, 246, 247, 248, 249, 250, 251, 252, 253, 254, 255, 256, 257, 258, 259, 260, 261, 262, 263, 264, 265, 266, 267, 268, 269, 270, 271, 272, 273, 274, 275, 276, 277, 278, 279, 280, 281, 282, 283, 284, 285, 286, 287, 288, 289, 290, 291, 292, 293, 294, 295, 296, 297, 298, 299, 300, 301, 302, 303, 304, 305, 306, 307, 308, 309, 310, 311, 312, 313, 314, 315, 316, 317, 318, 319, 320, 321, 322, 323, 324, 325, 326, 327, 328, 329, 330, 331, 332, 333, 334, 335, 336, 337, 338, 339, 340, 341, 342, 343, 344, 345, 346, 347, 348, 349, 350, 351, 352, 353, 354, 355, 356, 357, 358, 359, 360, 361, 362, 363, 364, 365, 366, 367, 368, 369, 370, 371, 372, 373, 374, 375, 376, 377, 378, 379, 380, 381, 382, 383, 384, 385, 386, 387, 388, 389, 390, 391, 392, 393, 394, 395, 396, 397, 398, 399, 400, 401, 402, 403, 404, 405, 406, 407, 408, 409, 410, 411, 412, 413, 414, 415, 416, 417, 418, 419, 420, 421, 422, 423, 424, 425, 426, 427, 428, 429, 430, 431, 432, 433, 434, 435, 436, 437, 438, 439, 440, 441, 442, 443, 444, 445, 446, 447, 448, 449, 450, 451, 452, 453, 454, 455, 456, 457, 458, 459, 460, 461, 462, 463, 464, 465, 466, 467, 468, 469, 470, 471, 472, 473, 474, 475, 476, 477, 478, 479, 480, 481, 482, 483, 484, 485, 486, 487, 488, 489, 490, 491, 492, 493, 494, 495, 496, 497, 498, 499, 500, 501, 502, 503, 504, 505, 506, 507, 508, 509, 510, 511, 512, 513, 514, 515, 516, 517, 518, 519, 520, 521, 522, 523, 524, 525, 526, 527, 528, 529, 530, 531, 532, 533, 534, 535, 536, 537, 538, 539, 540, 541, 542, 543, 544, 545, 546, 547, 548, 549, 550, 551, 552, 553, 554, 555, 556, 557, 558, 559, 560, 561, 562, 563, 564, 565, 566, 567, 568, 569, 570, 571, 572, 573, 574, 575, 576, 577, 578, 579, 580, 581, 582, 583, 584, 585, 586, 587, 588, 589, 590, 591, 592, 593, 594, 595, 596, 597, 598, 599, 600, 601, 602, 603, 604, 605, 606, 607, 608, 609, 610, 611, 612, 613, 614, 615, 616, 617, 618, 619, 620, 621, 622, 623, 624, 625, 626, 627, 628, 629, 630, 631, 632, 633, 634, 635, 636, 637, 638, 639, 640, 641, 642, 643, 644, 645, 646, 647, 648, 649, 650, 651, 652, 653, 654, 655, 656, 657, 658, 659, 660, 661, 662, 663, 664, 665, 666, 667, 668, 669, 670, 671, 672, 673, 674, 675, 676, 677, 678, 679, 680, 681, 682, 683, 684, 685, 686, 687, 688, 689, 690, 691, 692, 693, 694, 695, 696, 697, 698, 699, 700, 701, 702, 703, 704, 705, 706, 707, 708, 709, 710, 711, 712, 713, 714, 715, 716, 717, 718, 719, 720, 721, 722, 723, 724, 725, 726, 727, 728, 729, 730, 731, 732, 733, 734, 735, 736, 737, 738, 739, 740, 741, 742, 743, 744, 745, 746, 747, 748, 749, 750, 751, 752, 753, 754, 755, 756, 757, 758, 759, 760, 761, 762, 763, 764, 765, 766, 767, 768, 769, 770, 771, 772, 773, 774, 775, 776, 777, 778, 779, 780, 781, 782, 783, 784, 785, 786, 787, 788, 789, 790, 791, 792, 793, 794, 795, 796, 797, 798, 799, 800, 801, 802, 803, 804, 805, 806, 807, 808, 809, 810, 811, 812, 813, 814, 815, 816, 817, 818, 819, 820, 821, 822, 823, 824, 825, 826, 827, 828, 829, 830, 831, 832, 833, 834, 835, 836, 837, 838, 839, 840, 841, 842, 843, 844, 845, 846, 847, 848, 849, 850, 851, 852, 853, 854, 855, 856, 857, 858, 859, 860, 861, 862, 863, 864, 865, 866, 867, 868, 869, 870, 871, 872],
      "AcquisitionTime": ["154045.802500", "154046.262500", "154046.722500", "154047.182500", "154047.642500", "154048.102500", "154048.562500", "154049.022500", "154049.482500", "154049.942500", "154050.402500", "154050.862500", "154051.322500", "154051.782500", "154052.242500", "154052.702500", "154053.162500", "154053.622500", "154054.082500", "154054.542500", "154055.002500", "154055.462500", "154055.922500", "154056.382500", "154056.842500", "154057.302500", "154057.762500", "154058.222500", "154058.682500", "154059.142500", "154059.602500", "154100.062500", "154100.522500", "154100.982500", "154101.442500", "154101.902500", "154102.362500", "154102.822500", "154103.282500", "154103.742500", "154104.202500", "154104.662500", "154105.122500", "154105.582500", "154106.042500", "154106.502500", "154106.962500", "154107.422500", "154107.882500", "154108.342500", "154108.802500", "154109.262500", "154109.722500", "154110.182500", "154110.642500", "154111.102500", "154111.562500", "154112.022500", "154112.482500", "154112.942500", "154113.402500", "154113.862500", "154114.322500", "154114.782500", "154115.242500", "154115.702500", "154116.162500", "154116.622500", "154117.082500", "154117.542500", "154118.002500", "154118.462500", "154118.922500", "154119.382500", "154119.842500", "154120.302500", "154120.762500", "154121.222500", "154121.682500", "154122.142500", "154122.602500", "154123.062500", "154123.522500", "154123.982500", "154124.442500", "154124.902500", "154125.362500", "154125.822500", "154126.282500", "154126.742500", "154127.202500", "154127.662500", "154128.122500", "154128.582500", "154129.042500", "154129.502500", "154129.962500", "154130.422500", "154130.882500", "154131.342500", "154131.802500", "154132.262500", "154132.722500", "154133.182500", "154133.642500", "154134.102500", "154134.562500", "154135.022500", "154135.482500", "154135.942500", "154136.402500", "154136.862500", "154137.322500", "154137.782500", "154138.242500", "154138.702500", "154139.162500", "154139.622500", "154140.082500", "154140.542500", "154141.002500", "154141.462500", "154141.922500", "154142.382500", "154142.842500", "154143.302500", "154143.762500", "154144.222500", "154144.682500", "154145.142500", "154145.602500", "154146.062500", "154146.522500", "154146.982500", "154147.442500", "154147.902500", "154148.362500", "154148.822500", "154149.282500", "154149.742500", "154150.202500", "154150.662500", "154151.122500", "154151.582500", "154152.042500", "154152.502500", "154152.962500", "154153.422500", "154153.882500", "154154.342500", "154154.802500", "154155.262500", "154155.722500", "154156.182500", "154156.642500", "154157.102500", "154157.562500", "154158.022500", "154158.482500", "154158.942500", "154159.402500", "154159.862500", "154200.322500", "154200.782500", "154201.242500", "154201.702500", "154202.162500", "154202.622500", "154203.082500", "154203.542500", "154204.002500", "154204.462500", "154204.922500", "154205.382500", "154205.842500", "154206.302500", "154206.762500", "154207.222500", "154207.682500", "154208.142500", "154208.602500", "154209.062500", "154209.522500", "154209.982500", "154210.442500", "154210.902500", "154211.362500", "154211.822500", "154212.282500", "154212.742500", "154213.202500", "154213.662500", "154214.122500", "154214.582500", "154215.042500", "154215.502500", "154215.962500", "154216.422500", "154216.882500", "154217.342500", "154217.802500", "154218.262500", "154218.722500", "154219.182500", "154219.642500", "154220.102500", "154220.562500", "154221.022500", "154221.482500", "154221.942500", "154222.402500", "154222.862500", "154223.322500", "154223.782500", "154224.242500", "154224.702500", "154225.162500", "154225.622500", "154226.082500", "154226.542500", "154227.002500", "154227.462500", "154227.922500", "154228.382500", "154228.842500", "154229.302500", "154229.762500", "154230.222500", "154230.682500", "154231.142500", "154231.602500", "154232.062500", "154232.522500", "154232.982500", "154233.442500", "154233.902500", "154234.362500", "154234.822500", "154235.282500", "154235.742500", "154236.202500", "154236.662500", "154237.122500", "154237.582500", "154238.042500", "154238.502500", "154238.962500", "154239.422500", "154239.882500", "154240.342500", "154240.802500", "154241.262500", "154241.722500", "154242.182500", "154242.642500", "154243.102500", "154243.562500", "154244.022500", "154244.482500", "154244.942500", "154245.402500", "154245.862500", "154246.322500", "154246.782500", "154247.242500", "154247.702500", "154248.162500", "154248.622500", "154249.082500", "154249.542500", "154250.002500", "154250.462500", "154250.922500", "154251.382500", "154251.842500", "154252.302500", "154252.762500", "154253.222500", "154253.682500", "154254.142500", "154254.602500", "154255.062500", "154255.522500", "154255.982500", "154256.442500", "154256.902500", "154257.362500", "154257.822500", "154258.282500", "154258.742500", "154259.202500", "154259.662500", "154300.122500", "154300.582500", "154301.042500", "154301.502500", "154301.962500", "154302.422500", "154302.882500", "154303.342500", "154303.802500", "154304.262500", "154304.722500", "154305.182500", "154305.642500", "154306.102500", "154306.562500", "154307.022500", "154307.482500", "154307.942500", "154308.402500", "154308.862500", "154309.322500", "154309.782500", "154310.242500", "154310.702500", "154311.162500", "154311.622500", "154312.082500", "154312.542500", "154313.002500", "154313.462500", "154313.922500", "154314.382500", "154314.842500", "154315.302500", "154315.762500", "154316.222500", "154316.682500", "154317.142500", "154317.602500", "154318.062500", "154318.522500", "154318.982500", "154319.442500", "154319.902500", "154320.362500", "154320.822500", "154321.282500", "154321.742500", "154322.202500", "154322.662500", "154323.122500", "154323.582500", "154324.042500", "154324.502500", "154324.962500", "154325.422500", "154325.882500", "154326.342500", "154326.802500", "154327.262500", "154327.722500", "154328.182500", "154328.642500", "154329.102500", "154329.562500", "154330.022500", "154330.482500", "154330.942500", "154331.402500", "154331.862500", "154332.322500", "154332.782500", "154333.242500", "154333.702500", "154334.162500", "154334.622500", "154335.082500", "154335.542500", "154336.002500", "154336.462500", "154336.922500", "154337.382500", "154337.842500", "154338.302500", "154338.762500", "154339.222500", "154339.682500", "154340.142500", "154340.602500", "154341.062500", "154341.522500", "154341.982500", "154342.442500", "154342.902500", "154343.362500", "154343.822500", "154344.282500", "154344.742500", "154345.202500", "154345.662500", "154346.122500", "154346.582500", "154347.042500", "154347.502500", "154347.962500", "154348.422500", "154348.882500", "154349.342500", "154349.802500", "154350.262500", "154350.722500", "154351.182500", "154351.642500", "154352.102500", "154352.562500", "154353.022500", "154353.482500", "154353.942500", "154354.402500", "154354.862500", "154355.322500", "154355.782500", "154356.242500", "154356.702500", "154357.162500", "154357.622500", "154358.082500", "154358.542500", "154359.002500", "154359.462500", "154359.922500", "154400.382500", "154400.842500", "154401.302500", "154401.762500", "154402.222500", "154402.682500", "154403.142500", "154403.602500", "154404.062500", "154404.522500", "154404.982500", "154405.442500", "154405.902500", "154406.362500", "154406.822500", "154407.282500", "154407.742500", "154408.202500", "154408.662500", "154409.122500", "154409.582500", "154410.042500", "154410.502500", "154410.962500", "154411.422500", "154411.882500", "154412.342500", "154412.802500", "154413.262500", "154413.722500", "154414.182500", "154414.642500", "154415.102500", "154415.562500", "154416.022500", "154416.482500", "154416.942500", "154417.402500", "154417.862500", "154418.322500", "154418.782500", "154419.242500", "154419.702500", "154420.162500", "154420.622500", "154421.082500", "154421.542500", "154422.002500", "154422.462500", "154422.922500", "154423.382500", "154423.842500", "154424.302500", "154424.762500", "154425.222500", "154425.682500", "154426.142500", "154426.602500", "154427.062500", "154427.522500", "154427.982500", "154428.442500", "154428.902500", "154429.362500", "154429.822500", "154430.282500", "154430.742500", "154431.202500", "154431.662500", "154432.122500", "154432.582500", "154433.042500", "154433.502500", "154433.962500", "154434.422500", "154434.882500", "154435.342500", "154435.802500", "154436.262500", "154436.722500", "154437.182500", "154437.642500", "154438.102500", "154438.562500", "154439.022500", "154439.482500", "154439.942500", "154440.402500", "154440.862500", "154441.322500", "154441.782500", "154442.242500", "154442.702500", "154443.162500", "154443.622500", "154444.082500", "154444.542500", "154445.002500", "154445.462500", "154445.922500", "154446.382500", "154446.842500", "154447.302500", "154447.762500", "154448.222500", "154448.682500", "154449.142500", "154449.602500", "154450.062500", "154450.522500", "154450.982500", "154451.442500", "154451.902500", "154452.362500", "154452.822500", "154453.282500", "154453.742500", "154454.202500", "154454.662500", "154455.122500", "154455.582500", "154456.042500", "154456.502500", "154456.962500", "154457.422500", "154457.882500", "154458.342500", "154458.802500", "154459.262500", "154459.722500", "154500.182500", "154500.642500", "154501.102500", "154501.562500", "154502.022500", "154502.482500", "154502.942500", "154503.402500", "154503.862500", "154504.322500", "154504.782500", "154505.242500", "154505.702500", "154506.162500", "154506.622500", "154507.082500", "154507.542500", "154508.002500", "154508.462500", "154508.922500", "154509.382500", "154509.842500", "154510.302500", "154510.762500", "154511.222500", "154511.682500", "154512.142500", "154512.602500", "154513.062500", "154513.522500", "154513.982500", "154514.442500", "154514.902500", "154515.362500", "154515.822500", "154516.282500", "154516.742500", "154517.202500", "154517.662500", "154518.122500", "154518.582500", "154519.042500", "154519.502500", "154519.962500", "154520.422500", "154520.882500", "154521.342500", "154521.802500", "154522.262500", "154522.722500", "154523.182500", "154523.642500", "154524.102500", "154524.562500", "154525.022500", "154525.482500", "154525.942500", "154526.402500", "154526.862500", "154527.322500", "154527.782500", "154528.242500", "154528.702500", "154529.162500", "154529.622500", "154530.082500", "154530.542500", "154531.002500", "154531.462500", "154531.922500", "154532.382500", "154532.842500", "154533.302500", "154533.762500", "154534.222500", "154534.682500", "154535.142500", "154535.602500", "154536.062500", "154536.522500", "154536.982500", "154537.442500", "154537.902500", "154538.362500", "154538.822500", "154539.282500", "154539.742500", "154540.202500", "154540.662500", "154541.122500", "154541.582500", "154542.042500", "154542.502500", "154542.962500", "154543.422500", "154543.882500", "154544.342500", "154544.802500", "154545.262500", "154545.722500", "154546.182500", "154546.642500", "154547.102500", "154547.562500", "154548.022500", "154548.482500", "154548.942500", "154549.402500", "154549.862500", "154550.322500", "154550.782500", "154551.242500", "154551.702500", "154552.162500", "154552.622500", "154553.082500", "154553.542500", "154554.002500", "154554.462500", "154554.922500", "154555.382500", "154555.842500", "154556.302500", "154556.762500", "154557.222500", "154557.682500", "154558.142500", "154558.602500", "154559.062500", "154559.522500", "154559.982500", "154600.442500", "154600.902500", "154601.362500", "154601.822500", "154602.282500", "154602.742500", "154603.202500", "154603.662500", "154604.122500", "154604.582500", "154605.042500", "154605.502500", "154605.962500", "154606.422500", "154606.882500", "154607.342500", "154607.802500", "154608.262500", "154608.722500", "154609.182500", "154609.642500", "154610.102500", "154610.562500", "154611.022500", "154611.482500", "154611.942500", "154612.402500", "154612.862500", "154613.322500", "154613.782500", "154614.242500", "154614.702500", "154615.162500", "154615.622500", "154616.082500", "154616.542500", "154617.002500", "154617.462500", "154617.922500", "154618.382500", "154618.842500", "154619.302500", "154619.762500", "154620.222500", "154620.682500", "154621.142500", "154621.602500", "154622.062500", "154622.522500", "154622.982500", "154623.442500", "154623.902500", "154624.362500", "154624.822500", "154625.282500", "154625.742500", "154626.202500", "154626.662500", "154627.122500", "154627.582500", "154628.042500", "154628.502500", "154628.962500", "154629.422500", "154629.882500", "154630.342500", "154630.802500", "154631.262500", "154631.722500", "154632.182500", "154632.642500", "154633.102500", "154633.562500", "154634.022500", "154634.482500", "154634.942500", "154635.402500", "154635.862500", "154636.322500", "154636.782500", "154637.242500", "154637.702500", "154638.162500", "154638.622500", "154639.082500", "154639.542500", "154640.002500", "154640.462500", "154640.922500", "154641.382500", "154641.842500", "154642.302500", "154642.762500", "154643.222500", "154643.682500", "154644.142500", "154644.602500", "154645.062500", "154645.522500", "154645.982500", "154646.442500", "154646.902500", "154647.362500", "154647.822500", "154648.282500", "154648.742500", "154649.202500", "154649.662500", "154650.122500", "154650.582500", "154651.042500", "154651.502500", "154651.962500", "154652.422500", "154652.882500", "154653.342500", "154653.802500", "154654.262500", "154654.722500", "154655.182500", "154655.642500", "154656.102500", "154656.562500", "154657.022500", "154657.482500", "154657.942500", "154658.402500", "154658.862500", "154659.322500", "154659.782500", "154700.242500", "154700.702500", "154701.162500", "154701.622500", "154702.082500", "154702.542500", "154703.002500", "154703.462500", "154703.922500", "154704.382500", "154704.842500", "154705.302500", "154705.762500", "154706.222500", "154706.682500", "154707.142500", "154707.602500", "154708.062500", "154708.522500", "154708.982500", "154709.442500", "154709.902500", "154710.362500", "154710.822500", "154711.282500", "154711.742500", "154712.202500", "154712.662500", "154713.122500", "154713.582500", "154714.042500", "154714.502500", "154714.962500", "154715.422500", "154715.882500", "154716.342500", "154716.802500", "154717.262500", "154717.722500", "154718.182500", "154718.642500", "154719.102500", "154719.562500", "154720.022500", "154720.482500", "154720.942500", "154721.402500", "154721.862500", "154722.322500", "154722.782500", "154723.242500", "154723.702500", "154724.162500", "154724.622500", "154725.082500", "154725.542500", "154726.002500", "154726.462500"],
