{
  "AcquisitionMatrixPE": 82,
  "AcquisitionNumber": 1,
  "AcquisitionTime": "15:47:41.205000",
  "BandwidthPerPixelPhaseEncode": 24.888,
  "BaseResolution": 82,
  "BodyPartExamined": "BRAIN",
  "ConsistencyInfo": "N4_VE11C_LATEST_20160120",
  "ConversionSoftware": "dcm2niix",
  "ConversionSoftwareVersion": "v1.0.20201102",
  "DerivedVendorReportedEchoSpacing": 0.00049,
  "DeviceSerialNumber": "66112",
  "DwellTime": 2e-06,
  "EchoTime": 0.0272,
  "EchoTrainLength": 82,
  "EffectiveEchoSpacing": 0.00049,
  "FlipAngle": 44,
  "ImageComments": "Unaliased MB8/PE3",
  "ImageOrientationPatientDICOM": [0.999779, 0.0133024, 0.0162514, -0.0139605, 0.999058, 0.0410794],
  "ImageType": [
    "ORIGINAL",
    "PRIMARY",
    "M",
    "MB",
    "ND",
    "NORM",
    "MOSAIC"
],
  "ImagingFrequency": 123.252,
  "InPlanePhaseEncodingDirectionDICOM": "COL",
  "InstitutionAddress": "Maynard 3,Hanover,NH,US,03755",
  "InstitutionName": "Dartmouth College - PBS",
  "InstitutionalDepartmentName": "Department",
  "MRAcquisitionType": "2D",
  "MagneticFieldStrength": 3,
  "Manufacturer": "Siemens",
  "ManufacturersModelName": "Prisma",
  "Modality": "MR",
  "MultibandAccelerationFactor": 8,
  "PartialFourier": 1,
  "PatientPosition": "HFS",
  "PercentPhaseFOV": 100,
  "PercentSampling": 100,
  "PhaseEncodingDirection": "j-",
  "PhaseEncodingSteps": 82,
  "PhaseResolution": 1,
  "PixelBandwidth": 3050,
  "ProcedureStepDescription": "Wager_Wager^1076_spacetop",
  "ProtocolName": "func_run-06_task-social_acq-ap-mb8",
  "PulseSequenceDetails": "%CustomerSeq%\\cmrr_mbep2d_bold",
  "ReceiveCoilActiveElements": "HEA;HEP",
  "ReceiveCoilName": "Head_32",
  "ReconMatrixPE": 82,
  "RepetitionTime": 0.46,
  "SAR": 0.0725047,
  "ScanOptions": "FS",
  "ScanningSequence": "EP",
  "SequenceName": "epfid2d1_82",
  "SequenceVariant": "SK\\SS",
  "SeriesDescription": "func_run-06_task-social_acq-ap-mb8",
  "SeriesNumber": 20,
  "ShimSetting": [4165, -7731, -7300, 622, -54, -17, 28, 84],
  "SliceThickness": 2.7,
  "SliceTiming": [0, 0.2525, 0.0625, 0.315, 0.1275, 0.3775, 0.19, 0, 0.2525, 0.0625, 0.315, 0.1275, 0.3775, 0.19, 0, 0.2525, 0.0625, 0.315, 0.1275, 0.3775, 0.19, 0, 0.2525, 0.0625, 0.315, 0.1275, 0.3775, 0.19, 0, 0.2525, 0.0625, 0.315, 0.1275, 0.3775, 0.19, 0, 0.2525, 0.0625, 0.315, 0.1275, 0.3775, 0.19, 0, 0.2525, 0.0625, 0.315, 0.1275, 0.3775, 0.19, 0, 0.2525, 0.0625, 0.315, 0.1275, 0.3775, 0.19],
  "SoftwareVersions": "syngo MR E11",
  "SpacingBetweenSlices": 2.7,
  "StationName": "AWP66112",
  "TaskName": "social",
  "TotalReadoutTime": 0.03969,
  "TxRefAmp": 227.279,
  "WipMemBlock": "3c681dd4-96cd-4b41-a8ec-703e605db1b4||Sequence: R016 ve11c/master r/e634e98; Dec 19 2017 11:00:25 by eja",
  "dcmmeta_affine": [
    [-2.682335138320923, -0.03745506703853607, 0.04236191138625145, 110.38511657714844],
    [-0.035689301788806915, 2.6804006099700928, 0.11150258034467697, -85.02178955078125],
    [0.04360119625926018, -0.11021311581134796, 2.697364091873169, -54.23923110961914],
    [0.0, 0.0, 0.0, 1.0]
],
  "dcmmeta_reorient_transform": [
    [0.0, -1.0, 0.0, 81.0],
    [1.0, 0.0, 0.0, 0.0],
    [0.0, 0.0, 1.0, 0.0],
    [0.0, 0.0, 0.0, 1.0]
],
  "dcmmeta_shape": [82, 82, 56, 872],
  "dcmmeta_slice_dim": 2,
  "dcmmeta_version": 0.6,
  "global": {
    "const": {
      "AccessionNumber": "A003478",
      "AcquisitionMatrix": [82, 0, 0, 82],
      "AngioFlag": "N",
      "BitsAllocated": 16,
      "BitsStored": 16,
      "BodyPartExamined": "BRAIN",
      "Columns": 656,
      "EchoNumbers": 1,
      "EchoTime": 27.2,
      "EchoTrainLength": 82,
      "FlipAngle": 44.0,
      "HighBit": 15,
      "ImageOrientationPatient": [0.99977944582458, 0.01330237570381, 0.01625135401514, -0.0139605249619, 0.99905834861468, 0.04107943288423],
      "ImagePositionPatient": [-866.431840333, -911.60842711578, -107.31120109616],
      "ImageType": [
        "ORIGINAL",
        "PRIMARY",
        "M",
        "MB",
        "ND",
        "NORM",
        "MOSAIC"
],
      "ImagedNucleus": "1H",
      "ImagingFrequency": 123.252152,
      "InPlanePhaseEncodingDirection": "COL",
      "MRAcquisitionType": "2D",
      "MagneticFieldStrength": 3.0,
      "Manufacturer": "SIEMENS",
      "ManufacturerModelName": "Prisma",
      "Modality": "MR",
      "NumberOfAverages": 1.0,
      "NumberOfPhaseEncodingSteps": 82,
      "PercentPhaseFieldOfView": 100.0,
      "PercentSampling": 100.0,
      "PerformedProcedureStepStartTime": "145213.637000",
      "PhotometricInterpretation": "MONOCHROME2",
      "PixelBandwidth": 3050.0,
      "PixelRepresentation": 0,
      "PixelSpacing": [2.6829268932343, 2.6829268932343],
      "ProtocolName": "func_run-06_task-social_acq-ap-mb8",
      "RepetitionTime": 460.0,
      "Rows": 656,
      "SAR": 0.07250465734253,
      "SamplesPerPixel": 1,
      "ScanOptions": "FS",
      "ScanningSequence": "EP",
      "SequenceName": "epfid2d1_82",
      "SequenceVariant": [
        "SK",
        "SS"
],
      "SeriesDescription": "func_run-06_task-social_acq-ap-mb8",
      "SeriesNumber": 20,
      "SeriesTime": "154805.336000",
      "SliceLocation": -55.9655468085,
      "SliceThickness": 2.7000000476837,
      "SmallestImagePixelValue": 0,
      "SoftwareVersions": "syngo MR E11",
      "SpacingBetweenSlices": 2.7000000951588,
      "SpecificCharacterSet": "ISO_IR 100",
      "StudyID": "1",
      "StudyTime": "145213.561000",
      "TransmitCoilName": "Body",
      "VariableFlipAngleFlag": "N",
      "WindowCenterWidthExplanation": "Algo1",
      "dBdt": 0.0},
    "slices": {}
  },
  "time": {
    "samples": {
      "AcquisitionNumber": [1, 2, 3, 4, 5, 6, 7, 8, 9, 10, 11, 12, 13, 14, 15, 16, 17, 18, 19, 20, 21, 22, 23, 24, 25, 26, 27, 28, 29, 30, 31, 32, 33, 34, 35, 36, 37, 38, 39, 40, 41, 42, 43, 44, 45, 46, 47, 48, 49, 50, 51, 52, 53, 54, 55, 56, 57, 58, 59, 60, 61, 62, 63, 64, 65, 66, 67, 68, 69, 70, 71, 72, 73, 74, 75, 76, 77, 78, 79, 80, 81, 82, 83, 84, 85, 86, 87, 88, 89, 90, 91, 92, 93, 94, 95, 96, 97, 98, 99, 100, 101, 102, 103, 104, 105, 106, 107, 108, 109, 110, 111, 112, 113, 114, 115, 116, 117, 118, 119, 120, 121, 122, 123, 124, 125, 126, 127, 128, 129, 130, 131, 132, 133, 134, 135, 136, 137, 138, 139, 140, 141, 142, 143, 144, 145, 146, 147, 148, 149, 150, 151, 152, 153, 154, 155, 156, 157, 158, 159, 160, 161, 162, 163, 164, 165, 166, 167, 168, 169, 170, 171, 172, 173, 174, 175, 176, 177, 178, 179, 180, 181, 182, 183, 184, 185, 186, 187, 188, 189, 190, 191, 192, 193, 194, 195, 196, 197, 198, 199, 200, 201, 202, 203, 204, 205, 206, 207, 208, 209, 210, 211, 212, 213, 214, 215, 216, 217, 218, 219, 220, 221, 222, 223, 224, 225, 226, 227, 228, 229, 230, 231, 232, 233, 234, 235, 236, 237, 238, 239, 240, 241, 242, 243, 244, 245, 246, 247, 248, 249, 250, 251, 252, 253, 254, 255, 256, 257, 258, 259, 260, 261, 262, 263, 264, 265, 266, 267, 268, 269, 270, 271, 272, 273, 274, 275, 276, 277, 278, 279, 280, 281, 282, 283, 284, 285, 286, 287, 288, 289, 290, 291, 292, 293, 294, 295, 296, 297, 298, 299, 300, 301, 302, 303, 304, 305, 306, 307, 308, 309, 310, 311, 312, 313, 314, 315, 316, 317, 318, 319, 320, 321, 322, 323, 324, 325, 326, 327, 328, 329, 330, 331, 332, 333, 334, 335, 336, 337, 338, 339, 340, 341, 342, 343, 344, 345, 346, 347, 348, 349, 350, 351, 352, 353, 354, 355, 356, 357, 358, 359, 360, 361, 362, 363, 364, 365, 366, 367, 368, 369, 370, 371, 372, 373, 374, 375, 376, 377, 378, 379, 380, 381, 382, 383, 384, 385, 386, 387, 388, 389, 390, 391, 392, 393, 394, 395, 396, 397, 398, 399, 400, 401, 402, 403, 404, 405, 406, 407, 408, 409, 410, 411, 412, 413, 414, 415, 416, 417, 418, 419, 420, 421, 422, 423, 424, 425, 426, 427, 428, 429, 430, 431, 432, 433, 434, 435, 436, 437, 438, 439, 440, 441, 442, 443, 444, 445, 446, 447, 448, 449, 450, 451, 452, 453, 454, 455, 456, 457, 458, 459, 460, 461, 462, 463, 464, 465, 466, 467, 468, 469, 470, 471, 472, 473, 474, 475, 476, 477, 478, 479, 480, 481, 482, 483, 484, 485, 486, 487, 488, 489, 490, 491, 492, 493, 494, 495, 496, 497, 498, 499, 500, 501, 502, 503, 504, 505, 506, 507, 508, 509, 510, 511, 512, 513, 514, 515, 516, 517, 518, 519, 520, 521, 522, 523, 524, 525, 526, 527, 528, 529, 530, 531, 532, 533, 534, 535, 536, 537, 538, 539, 540, 541, 542, 543, 544, 545, 546, 547, 548, 549, 550, 551, 552, 553, 554, 555, 556, 557, 558, 559, 560, 561, 562, 563, 564, 565, 566, 567, 568, 569, 570, 571, 572, 573, 574, 575, 576, 577, 578, 579, 580, 581, 582, 583, 584, 585, 586, 587, 588, 589, 590, 591, 592, 593, 594, 595, 596, 597, 598, 599, 600, 601, 602, 603, 604, 605, 606, 607, 608, 609, 610, 611, 612, 613, 614, 615, 616, 617, 618, 619, 620, 621, 622, 623, 624, 625, 626, 627, 628, 629, 630, 631, 632, 633, 634, 635, 636, 637, 638, 639, 640, 641, 642, 643, 644, 645, 646, 647, 648, 649, 650, 651, 652, 653, 654, 655, 656, 657, 658, 659, 660, 661, 662, 663, 664, 665, 666, 667, 668, 669, 670, 671, 672, 673, 674, 675, 676, 677, 678, 679, 680, 681, 682, 683, 684, 685, 686, 687, 688, 689, 690, 691, 692, 693, 694, 695, 696, 697, 698, 699, 700, 701, 702, 703, 704, 705, 706, 707, 708, 709, 710, 711, 712, 713, 714, 715, 716, 717, 718, 719, 720, 721, 722, 723, 724, 725, 726, 727, 728, 729, 730, 731, 732, 733, 734, 735, 736, 737, 738, 739, 740, 741, 742, 743, 744, 745, 746, 747, 748, 749, 750, 751, 752, 753, 754, 755, 756, 757, 758, 759, 760, 761, 762, 763, 764, 765, 766, 767, 768, 769, 770, 771, 772, 773, 774, 775, 776, 777, 778, 779, 780, 781, 782, 783, 784, 785, 786, 787, 788, 789, 790, 791, 792, 793, 794, 795, 796, 797, 798, 799, 800, 801, 802, 803, 804, 805, 806, 807, 808, 809, 810, 811, 812, 813, 814, 815, 816, 817, 818, 819, 820, 821, 822, 823, 824, 825, 826, 827, 828, 829, 830, 831, 832, 833, 834, 835, 836, 837, 838, 839, 840, 841, 842, 843, 844, 845, 846, 847, 848, 849, 850, 851, 852, 853, 854, 855, 856, 857, 858, 859, 860, 861, 862, 863, 864, 865, 866, 867, 868, 869, 870, 871, 872],
      "AcquisitionTime": ["154741.205000", "154741.665000", "154742.125000", "154742.585000", "154743.045000", "154743.505000", "154743.965000", "154744.425000", "154744.885000", "154745.345000", "154745.805000", "154746.265000", "154746.725000", "154747.185000", "154747.645000", "154748.105000", "154748.565000", "154749.025000", "154749.485000", "154749.945000", "154750.405000", "154750.865000", "154751.325000", "154751.785000", "154752.245000", "154752.705000", "154753.165000", "154753.625000", "154754.085000", "154754.545000", "154755.005000", "154755.465000", "154755.925000", "154756.385000", "154756.845000", "154757.305000", "154757.765000", "154758.225000", "154758.685000", "154759.145000", "154759.605000", "154800.065000", "154800.525000", "154800.985000", "154801.445000", "154801.905000", "154802.365000", "154802.825000", "154803.285000", "154803.745000", "154804.205000", "154804.665000", "154805.125000", "154805.585000", "154806.045000", "154806.505000", "154806.965000", "154807.425000", "154807.885000", "154808.345000", "154808.805000", "154809.265000", "154809.725000", "154810.185000", "154810.645000", "154811.105000", "154811.565000", "154812.025000", "154812.485000", "154812.945000", "154813.405000", "154813.865000", "154814.325000", "154814.785000", "154815.245000", "154815.705000", "154816.165000", "154816.625000", "154817.085000", "154817.545000", "154818.005000", "154818.465000", "154818.925000", "154819.385000", "154819.845000", "154820.305000", "154820.765000", "154821.225000", "154821.685000", "154822.145000", "154822.605000", "154823.065000", "154823.525000", "154823.985000", "154824.445000", "154824.905000", "154825.365000", "154825.825000", "154826.285000", "154826.745000", "154827.205000", "154827.665000", "154828.125000", "154828.585000", "154829.045000", "154829.505000", "154829.965000", "154830.425000", "154830.885000", "154831.345000", "154831.805000", "154832.265000", "154832.725000", "154833.185000", "154833.645000", "154834.105000", "154834.565000", "154835.025000", "154835.485000", "154835.945000", "154836.405000", "154836.865000", "154837.325000", "154837.785000", "154838.245000", "154838.705000", "154839.165000", "154839.625000", "154840.085000", "154840.545000", "154841.005000", "154841.465000", "154841.925000", "154842.385000", "154842.845000", "154843.305000", "154843.765000", "154844.225000", "154844.685000", "154845.145000", "154845.605000", "154846.065000", "154846.525000", "154846.985000", "154847.445000", "154847.905000", "154848.365000", "154848.825000", "154849.285000", "154849.745000", "154850.205000", "154850.665000", "154851.125000", "154851.585000", "154852.045000", "154852.505000", "154852.965000", "154853.425000", "154853.885000", "154854.345000", "154854.805000", "154855.265000", "154855.725000", "154856.185000", "154856.645000", "154857.105000", "154857.565000", "154858.025000", "154858.485000", "154858.945000", "154859.405000", "154859.865000", "154900.325000", "154900.785000", "154901.245000", "154901.705000", "154902.165000", "154902.625000", "154903.085000", "154903.545000", "154904.005000", "154904.465000", "154904.925000", "154905.385000", "154905.845000", "154906.305000", "154906.765000", "154907.225000", "154907.685000", "154908.145000", "154908.605000", "154909.065000", "154909.525000", "154909.985000", "154910.445000", "154910.905000", "154911.365000", "154911.825000", "154912.285000", "154912.745000", "154913.205000", "154913.665000", "154914.125000", "154914.585000", "154915.045000", "154915.505000", "154915.965000", "154916.425000", "154916.885000", "154917.345000", "154917.805000", "154918.265000", "154918.725000", "154919.185000", "154919.645000", "154920.105000", "154920.565000", "154921.025000", "154921.485000", "154921.945000", "154922.405000", "154922.865000", "154923.325000", "154923.785000", "154924.245000", "154924.705000", "154925.165000", "154925.625000", "154926.085000", "154926.545000", "154927.005000", "154927.465000", "154927.925000", "154928.385000", "154928.845000", "154929.305000", "154929.765000", "154930.225000", "154930.685000", "154931.145000", "154931.605000", "154932.065000", "154932.525000", "154932.985000", "154933.445000", "154933.905000", "154934.365000", "154934.825000", "154935.285000", "154935.745000", "154936.205000", "154936.665000", "154937.125000", "154937.585000", "154938.045000", "154938.505000", "154938.965000", "154939.425000", "154939.885000", "154940.345000", "154940.805000", "154941.265000", "154941.725000", "154942.185000", "154942.645000", "154943.105000", "154943.565000", "154944.025000", "154944.485000", "154944.945000", "154945.405000", "154945.865000", "154946.325000", "154946.785000", "154947.245000", "154947.705000", "154948.165000", "154948.625000", "154949.085000", "154949.545000", "154950.005000", "154950.465000", "154950.925000", "154951.385000", "154951.845000", "154952.305000", "154952.765000", "154953.225000", "154953.685000", "154954.145000", "154954.605000", "154955.065000", "154955.525000", "154955.985000", "154956.445000", "154956.905000", "154957.365000", "154957.825000", "154958.285000", "154958.745000", "154959.205000", "154959.665000", "155000.125000", "155000.585000", "155001.045000", "155001.505000", "155001.965000", "155002.425000", "155002.885000", "155003.345000", "155003.805000", "155004.265000", "155004.725000", "155005.185000", "155005.645000", "155006.105000", "155006.565000", "155007.025000", "155007.485000", "155007.945000", "155008.405000", "155008.865000", "155009.325000", "155009.785000", "155010.245000", "155010.705000", "155011.165000", "155011.625000", "155012.085000", "155012.545000", "155013.005000", "155013.465000", "155013.925000", "155014.385000", "155014.845000", "155015.305000", "155015.765000", "155016.225000", "155016.685000", "155017.145000", "155017.605000", "155018.065000", "155018.525000", "155018.985000", "155019.445000", "155019.905000", "155020.365000", "155020.825000", "155021.285000", "155021.745000", "155022.205000", "155022.665000", "155023.125000", "155023.585000", "155024.045000", "155024.505000", "155024.965000", "155025.425000", "155025.885000", "155026.345000", "155026.805000", "155027.265000", "155027.725000", "155028.185000", "155028.645000", "155029.105000", "155029.565000", "155030.025000", "155030.485000", "155030.945000", "155031.405000", "155031.865000", "155032.325000", "155032.785000", "155033.245000", "155033.705000", "155034.165000", "155034.625000", "155035.085000", "155035.545000", "155036.005000", "155036.465000", "155036.925000", "155037.385000", "155037.845000", "155038.305000", "155038.765000", "155039.225000", "155039.685000", "155040.145000", "155040.605000", "155041.065000", "155041.525000", "155041.985000", "155042.445000", "155042.905000", "155043.365000", "155043.825000", "155044.285000", "155044.745000", "155045.205000", "155045.665000", "155046.125000", "155046.585000", "155047.045000", "155047.505000", "155047.965000", "155048.425000", "155048.885000", "155049.345000", "155049.805000", "155050.265000", "155050.725000", "155051.185000", "155051.645000", "155052.105000", "155052.565000", "155053.025000", "155053.485000", "155053.945000", "155054.405000", "155054.865000", "155055.325000", "155055.785000", "155056.245000", "155056.705000", "155057.165000", "155057.625000", "155058.085000", "155058.545000", "155059.005000", "155059.465000", "155059.925000", "155100.385000", "155100.845000", "155101.305000", "155101.765000", "155102.225000", "155102.685000", "155103.145000", "155103.605000", "155104.065000", "155104.525000", "155104.985000", "155105.445000", "155105.905000", "155106.365000", "155106.825000", "155107.285000", "155107.745000", "155108.205000", "155108.665000", "155109.125000", "155109.585000", "155110.045000", "155110.505000", "155110.965000", "155111.425000", "155111.885000", "155112.345000", "155112.805000", "155113.265000", "155113.725000", "155114.185000", "155114.645000", "155115.105000", "155115.565000", "155116.025000", "155116.485000", "155116.945000", "155117.405000", "155117.865000", "155118.325000", "155118.785000", "155119.245000", "155119.705000", "155120.165000", "155120.625000", "155121.085000", "155121.545000", "155122.005000", "155122.465000", "155122.925000", "155123.385000", "155123.845000", "155124.305000", "155124.765000", "155125.225000", "155125.685000", "155126.145000", "155126.605000", "155127.065000", "155127.525000", "155127.985000", "155128.445000", "155128.905000", "155129.365000", "155129.825000", "155130.285000", "155130.745000", "155131.205000", "155131.665000", "155132.125000", "155132.585000", "155133.045000", "155133.505000", "155133.965000", "155134.425000", "155134.885000", "155135.345000", "155135.805000", "155136.265000", "155136.725000", "155137.185000", "155137.645000", "155138.105000", "155138.565000", "155139.025000", "155139.485000", "155139.945000", "155140.405000", "155140.865000", "155141.325000", "155141.785000", "155142.245000", "155142.705000", "155143.165000", "155143.625000", "155144.085000", "155144.545000", "155145.005000", "155145.465000", "155145.925000", "155146.385000", "155146.845000", "155147.305000", "155147.765000", "155148.225000", "155148.685000", "155149.145000", "155149.605000", "155150.065000", "155150.525000", "155150.985000", "155151.445000", "155151.905000", "155152.365000", "155152.825000", "155153.285000", "155153.745000", "155154.205000", "155154.665000", "155155.125000", "155155.585000", "155156.045000", "155156.505000", "155156.965000", "155157.425000", "155157.885000", "155158.345000", "155158.805000", "155159.265000", "155159.725000", "155200.185000", "155200.645000", "155201.105000", "155201.565000", "155202.025000", "155202.485000", "155202.945000", "155203.405000", "155203.865000", "155204.325000", "155204.785000", "155205.245000", "155205.705000", "155206.165000", "155206.625000", "155207.085000", "155207.545000", "155208.005000", "155208.465000", "155208.925000", "155209.385000", "155209.845000", "155210.305000", "155210.765000", "155211.225000", "155211.685000", "155212.145000", "155212.605000", "155213.065000", "155213.525000", "155213.985000", "155214.445000", "155214.905000", "155215.365000", "155215.825000", "155216.285000", "155216.745000", "155217.205000", "155217.665000", "155218.125000", "155218.585000", "155219.045000", "155219.505000", "155219.965000", "155220.425000", "155220.885000", "155221.345000", "155221.805000", "155222.265000", "155222.725000", "155223.185000", "155223.645000", "155224.105000", "155224.565000", "155225.025000", "155225.485000", "155225.945000", "155226.405000", "155226.865000", "155227.325000", "155227.785000", "155228.245000", "155228.705000", "155229.165000", "155229.625000", "155230.085000", "155230.545000", "155231.005000", "155231.465000", "155231.925000", "155232.385000", "155232.845000", "155233.305000", "155233.765000", "155234.225000", "155234.685000", "155235.145000", "155235.605000", "155236.065000", "155236.525000", "155236.985000", "155237.445000", "155237.905000", "155238.365000", "155238.825000", "155239.285000", "155239.745000", "155240.205000", "155240.665000", "155241.125000", "155241.585000", "155242.045000", "155242.505000", "155242.965000", "155243.425000", "155243.885000", "155244.345000", "155244.805000", "155245.265000", "155245.725000", "155246.185000", "155246.645000", "155247.105000", "155247.565000", "155248.025000", "155248.485000", "155248.945000", "155249.405000", "155249.865000", "155250.325000", "155250.785000", "155251.245000", "155251.705000", "155252.165000", "155252.625000", "155253.085000", "155253.545000", "155254.005000", "155254.465000", "155254.925000", "155255.385000", "155255.845000", "155256.305000", "155256.765000", "155257.225000", "155257.685000", "155258.145000", "155258.605000", "155259.065000", "155259.525000", "155259.985000", "155300.445000", "155300.905000", "155301.365000", "155301.825000", "155302.285000", "155302.745000", "155303.205000", "155303.665000", "155304.125000", "155304.585000", "155305.045000", "155305.505000", "155305.965000", "155306.425000", "155306.885000", "155307.345000", "155307.805000", "155308.265000", "155308.725000", "155309.185000", "155309.645000", "155310.105000", "155310.565000", "155311.025000", "155311.485000", "155311.945000", "155312.405000", "155312.865000", "155313.325000", "155313.785000", "155314.245000", "155314.705000", "155315.165000", "155315.625000", "155316.085000", "155316.545000", "155317.005000", "155317.465000", "155317.925000", "155318.385000", "155318.845000", "155319.305000", "155319.765000", "155320.225000", "155320.685000", "155321.145000", "155321.605000", "155322.065000", "155322.525000", "155322.985000", "155323.445000", "155323.905000", "155324.365000", "155324.825000", "155325.285000", "155325.745000", "155326.205000", "155326.665000", "155327.125000", "155327.585000", "155328.045000", "155328.505000", "155328.965000", "155329.425000", "155329.885000", "155330.345000", "155330.805000", "155331.265000", "155331.725000", "155332.185000", "155332.645000", "155333.105000", "155333.565000", "155334.025000", "155334.485000", "155334.945000", "155335.405000", "155335.865000", "155336.325000", "155336.785000", "155337.245000", "155337.705000", "155338.165000", "155338.625000", "155339.085000", "155339.545000", "155340.005000", "155340.465000", "155340.925000", "155341.385000", "155341.845000", "155342.305000", "155342.765000", "155343.225000", "155343.685000", "155344.145000", "155344.605000", "155345.065000", "155345.525000", "155345.985000", "155346.445000", "155346.905000", "155347.365000", "155347.825000", "155348.285000", "155348.745000", "155349.205000", "155349.665000", "155350.125000", "155350.585000", "155351.045000", "155351.505000", "155351.965000", "155352.425000", "155352.885000", "155353.345000", "155353.805000", "155354.265000", "155354.725000", "155355.185000", "155355.645000", "155356.105000", "155356.565000", "155357.025000", "155357.485000", "155357.945000", "155358.405000", "155358.865000", "155359.325000", "155359.785000", "155400.245000", "155400.705000", "155401.165000", "155401.625000", "155402.085000", "155402.545000", "155403.005000", "155403.465000", "155403.925000", "155404.385000", "155404.845000", "155405.305000", "155405.765000", "155406.225000", "155406.685000", "155407.145000", "155407.605000", "155408.065000", "155408.525000", "155408.985000", "155409.445000", "155409.905000", "155410.365000", "155410.825000", "155411.285000", "155411.745000", "155412.205000", "155412.665000", "155413.125000", "155413.585000", "155414.045000", "155414.505000", "155414.965000", "155415.425000", "155415.885000", "155416.345000", "155416.805000", "155417.265000", "155417.725000", "155418.185000", "155418.645000", "155419.105000", "155419.565000", "155420.025000", "155420.485000", "155420.945000", "155421.405000", "155421.865000"],
