{
  "AcquisitionMatrixPE": 140,
  "AcquisitionNumber": 1,
  "AcquisitionTime": "10:25:21.002500",
  "BandwidthPerPixelPhaseEncode": 10.352,
  "BaseResolution": 140,
  "BodyPartExamined": "BRAIN",
  "ConsistencyInfo": "N4_VE11E_LATEST_20181129",
  "ConversionSoftware": "dcm2niix",
  "ConversionSoftwareVersion": "v1.0.20201102",
  "DerivedVendorReportedEchoSpacing": 0.000689998,
  "DeviceSerialNumber": "66112",
  "DiffusionScheme": "Monopolar",
  "DwellTime": 2.1e-06,
  "EchoTime": 0.088,
  "EchoTrainLength": 105,
  "EffectiveEchoSpacing": 0.000689998,
  "FlipAngle": 90,
  "ImageComments": "Unaliased MB3/PE3",
  "ImageOrientationPatientDICOM": [0.999404, 0.0011838, -0.0345003, 0.00680285, 0.97306, 0.230453],
  "ImageType": [
    "ORIGINAL",
    "PRIMARY",
    "DIFFUSION",
    "NONE",
    "MB",
    "ND"
],
  "ImagingFrequency": 123.252,
  "InPlanePhaseEncodingDirectionDICOM": "COL",
  "InstitutionAddress": "Maynard 3,Hanover,NH,US,03755",
  "InstitutionName": "Dartmouth College - PBS",
  "InstitutionalDepartmentName": "Department",
  "IntendedFor": [
    "ses-01/dwi/sub-0076_ses-01_acq-96dirX6b0Xmb_dwi.nii.gz"
],
  "MRAcquisitionType": "2D",
  "MagneticFieldStrength": 3,
  "Manufacturer": "Siemens",
  "ManufacturersModelName": "Prisma",
  "Modality": "MR",
  "MultibandAccelerationFactor": 3,
  "PartialFourier": 0.75,
  "PatientPosition": "HFS",
  "PercentPhaseFOV": 100,
  "PercentSampling": 100,
  "PhaseEncodingDirection": "j-",
  "PhaseEncodingSteps": 105,
  "PhaseResolution": 1,
  "PixelBandwidth": 1700,
  "ProcedureStepDescription": "Wager_Wager^1076_spacetop",
  "ProtocolName": "dwi_acq-discorr-AP",
  "PulseSequenceDetails": "%CustomerSeq%\\cmrr_mbep2d_diff",
  "ReceiveCoilActiveElements": "HEA;HEP",
  "ReceiveCoilName": "Head_32",
  "ReconMatrixPE": 140,
  "RepetitionTime": 4.1,
  "SAR": 0.168895,
  "ScanOptions": "PFP\\FS",
  "ScanningSequence": "EP",
  "SequenceName": "ep_b0",
  "SequenceVariant": "SK\\SS",
  "SeriesDescription": "dwi_acq-discorr-AP",
  "SeriesNumber": 7,
  "ShimSetting": [4165, -7706, -7217, 656, 17, 52, -39, 66],
  "SliceThickness": 1.7,
  "SliceTiming": [0, 2.11719, 0.15625, 2.27344, 0.30469, 2.42188, 0.45312, 2.57031, 0.60938, 2.71875, 0.75781, 2.875, 0.90625, 3.02344, 1.0625, 3.17188, 1.21094, 3.32812, 1.35938, 3.47656, 1.51562, 3.63281, 1.66406, 3.78125, 1.8125, 3.92969, 1.96875, 0, 2.11719, 0.15625, 2.27344, 0.30469, 2.42188, 0.45312, 2.57031, 0.60938, 2.71875, 0.75781, 2.875, 0.90625, 3.02344, 1.0625, 3.17188, 1.21094, 3.32812, 1.35938, 3.47656, 1.51562, 3.63281, 1.66406, 3.78125, 1.8125, 3.92969, 1.96875, 0, 2.11719, 0.15625, 2.27344, 0.30469, 2.42188, 0.45312, 2.57031, 0.60938, 2.71875, 0.75781, 2.875, 0.90625, 3.02344, 1.0625, 3.17188, 1.21094, 3.32812, 1.35938, 3.47656, 1.51562, 3.63281, 1.66406, 3.78125, 1.8125, 3.92969, 1.96875],
  "SoftwareVersions": "syngo MR E11",
  "SpacingBetweenSlices": 1.7,
  "StationName": "AWP66112",
  "TotalReadoutTime": 0.0959097,
  "TxRefAmp": 244.77,
  "WipMemBlock": "22100737-d518-4ea6-8296-8e3f905defff||Sequence: R016 ve11e/master r/434b28f1; Aug  7 2019 19:06:17 by eja",
  "dcmmeta_affine": [
    [-1.713263988494873, 0.011662035249173641, -0.05753433704376221, 125.57536315917969],
    [-0.002029378665611148, 1.6681022644042969, 0.391937255859375, -101.13362884521484],
    [-0.05914340913295746, -0.39506271481513977, 1.6531982421875, -0.3929687440395355],
    [0.0, 0.0, 0.0, 1.0]
],
  "dcmmeta_reorient_transform": [
    [0.0, -1.0, 0.0, 139.0],
    [1.0, 0.0, 0.0, 0.0],
    [0.0, 0.0, -1.0, 80.0],
    [0.0, 0.0, 0.0, 1.0]
],
  "dcmmeta_shape": [140, 140, 81],
  "dcmmeta_slice_dim": 2,
  "dcmmeta_version": 0.6,
  "global": {
    "const": {
      "AccessionNumber": "A004014",
      "AcquisitionMatrix": [140, 0, 0, 140],
      "AcquisitionNumber": 1,
      "AngioFlag": "N",
      "BitsAllocated": 16,
      "BitsStored": 16,
      "BodyPartExamined": "BRAIN",
      "Columns": 140,
      "EchoNumbers": 1,
      "EchoTime": 88.0,
      "EchoTrainLength": 105,
      "FlipAngle": 90.0,
      "HighBit": 15,
      "ImageOrientationPatient": [0.9994039855948, 0.00118380420166, -0.034500321518, 0.00680285392494, 0.97305961712549, 0.23045325490884],
      "ImageType": [
        "ORIGINAL",
        "PRIMARY",
        "DIFFUSION",
        "NONE",
        "MB",
        "ND"
],
      "ImagedNucleus": "1H",
      "ImagingFrequency": 123.252177,
      "InPlanePhaseEncodingDirection": "COL",
      "MRAcquisitionType": "2D",
      "MagneticFieldStrength": 3.0,
      "Manufacturer": "SIEMENS",
      "ManufacturerModelName": "Prisma",
      "Modality": "MR",
      "NumberOfAverages": 1.0,
      "NumberOfPhaseEncodingSteps": 105,
      "PercentPhaseFieldOfView": 100.0,
      "PercentSampling": 100.0,
      "PerformedProcedureStepStartTime": "100947.520000",
      "PhotometricInterpretation": "MONOCHROME2",
      "PixelBandwidth": 1700.0,
      "PixelRepresentation": 0,
      "PixelSpacing": [1.7142857313156, 1.7142857313156],
      "ProtocolName": "dwi_acq-discorr-AP",
      "RepetitionTime": 4100.0,
      "Rows": 140,
      "SAR": 0.16889471038897,
      "SamplesPerPixel": 1,
      "ScanOptions": [
        "PFP",
        "FS"
],
      "ScanningSequence": "EP",
      "SequenceName": "ep_b0",
      "SequenceVariant": [
        "SK",
        "SS"
],
      "SeriesDescription": "dwi_acq-discorr-AP",
      "SeriesNumber": 7,
      "SeriesTime": "102526.074000",
      "SliceThickness": 1.7000000476837,
      "SmallestImagePixelValue": 0,
      "SoftwareVersions": "syngo MR E11",
      "SpacingBetweenSlices": 1.7,
      "SpecificCharacterSet": "ISO_IR 100",
      "StudyID": "1",
      "StudyTime": "100947.433000",
      "TransmitCoilName": "Body",
      "VariableFlipAngleFlag": "N",
      "WindowCenterWidthExplanation": "Algo1"
    },
    "slices": {
      "AcquisitionTime": ["102521.002500", "102523.117500", "102521.152500", "102523.270000", "102521.305000", "102523.420000", "102521.455000", "102523.570000", "102521.607500", "102523.722500", "102521.757500", "102523.872500", "102521.910000", "102524.025000", "102522.060000", "102524.175000", "102522.210000", "102524.327500", "102522.362500", "102524.477500", "102522.512500", "102524.630000", "102522.665000", "102524.780000", "102522.815000", "102524.930000", "102522.967500", "102521.002500", "102523.117500", "102521.152500", "102523.270000", "102521.305000", "102523.420000", "102521.455000", "102523.570000", "102521.607500", "102523.722500", "102521.757500", "102523.872500", "102521.910000", "102524.025000", "102522.060000", "102524.175000", "102522.210000", "102524.327500", "102522.362500", "102524.477500", "102522.512500", "102524.630000", "102522.665000", "102524.780000", "102522.815000", "102524.930000", "102522.967500", "102521.002500", "102523.117500", "102521.152500", "102523.270000", "102521.305000", "102523.420000", "102521.455000", "102523.570000", "102521.607500", "102523.722500", "102521.757500", "102523.872500", "102521.910000", "102524.025000", "102522.060000", "102524.175000", "102522.210000", "102524.327500", "102522.362500", "102524.477500", "102522.512500", "102524.630000", "102522.665000", "102524.780000", "102522.815000", "102524.930000", "102522.967500"],
      "ContentTime": ["102526.077000", "102526.169000", "102526.085000", "102526.175000", "102526.090000", "102526.188000", "102526.096000", "102526.194000", "102526.102000", "102526.200000", "102526.108000", "102526.207000", "102526.114000", "102526.213000", "102526.120000", "102526.218000", "102526.127000", "102526.225000", "102526.140000", "102526.231000", "102526.146000", "102526.238000", "102526.151000", "102526.244000", "102526.157000", "102526.251000", "102526.163000", "102526.080000", "102526.171000", "102526.087000", "102526.184000", "102526.092000", "102526.190000", "102526.098000", "102526.196000", "102526.104000", "102526.202000", "102526.110000", "102526.209000", "102526.116000", "102526.214000", "102526.122000", "102526.221000", "102526.129000", "102526.227000", "102526.142000", "102526.233000", "102526.148000", "102526.240000", "102526.153000", "102526.247000", "102526.159000", "102526.253000", "102526.165000", "102526.082000", "102526.173000", "102526.089000", "102526.186000", "102526.094000", "102526.192000", "102526.100000", "102526.198000", "102526.106000", "102526.205000", "102526.112000", "102526.211000", "102526.118000", "102526.216000", "102526.124000", "102526.223000", "102526.131000", "102526.229000", "102526.144000", "102526.235000", "102526.150000", "102526.242000", "102526.155000", "102526.249000", "102526.161000", "102526.255000", "102526.167000"],
      "CsaImage.GSWDDataType": [
        "predicted",
        "predicted",
        "predicted",
        "predicted",
        "predicted",
        "predicted",
        "predicted",
        "predicted",
        "predicted",
        "predicted",
        "predicted",
        "predicted",
        "predicted",
        "predicted",
        "predicted",
        "predicted",
        "predicted",
        "predicted",
        "predicted",
        "predicted",
        "predicted",
        "predicted",
        "predicted",
        "measured",
        "predicted",
        "measured",
        "predicted",
        "predicted",
        "predicted",
        "predicted",
        "predicted",
        "predicted",
        "predicted",
        "predicted",
        "predicted",
        "predicted",
        "predicted",
        "predicted",
        "predicted",
        "predicted",
        "predicted",
        "predicted",
        "predicted",
        "predicted",
        "predicted",
        "predicted",
        "predicted",
        "predicted",
        "predicted",
        "predicted",
        "measured",
        "predicted",
        "measured",
        "predicted",
        "predicted",
        "predicted",
        "predicted",
        "predicted",
        "predicted",
        "predicted",
        "predicted",
        "predicted",
        "predicted",
        "predicted",
        "predicted",
        "predicted",
        "predicted",
        "predicted",
        "predicted",
        "predicted",
        "predicted",
        "predicted",
        "predicted",
        "predicted",
        "predicted",
        "predicted",
        "predicted",
        "measured",
        "predicted",
        "measured",
        "predicted"
],
      "CsaImage.ICE_Dims": [
        "X_1_1_1_1_1_1_1_1_1_1_1_63",
        "X_1_1_1_1_1_1_42_1_1_2_1_63",
        "X_1_1_1_1_1_1_2_1_1_3_1_63",
        "X_1_1_1_1_1_1_43_1_1_4_1_63",
        "X_1_1_1_1_1_1_3_1_1_5_1_63",
        "X_1_1_1_1_1_1_44_1_1_6_1_63",
        "X_1_1_1_1_1_1_4_1_1_7_1_63",
        "X_1_1_1_1_1_1_45_1_1_8_1_63",
        "X_1_1_1_1_1_1_5_1_1_9_1_63",
        "X_1_1_1_1_1_1_46_1_1_10_1_63",
        "X_1_1_1_1_1_1_6_1_1_11_1_63",
        "X_1_1_1_1_1_1_47_1_1_12_1_63",
        "X_1_1_1_1_1_1_7_1_1_13_1_63",
        "X_1_1_1_1_1_1_48_1_1_14_1_63",
        "X_1_1_1_1_1_1_8_1_1_15_1_63",
        "X_1_1_1_1_1_1_49_1_1_16_1_63",
        "X_1_1_1_1_1_1_9_1_1_17_1_63",
        "X_1_1_1_1_1_1_50_1_1_18_1_63",
        "X_1_1_1_1_1_1_10_1_1_19_1_63",
        "X_1_1_1_1_1_1_51_1_1_20_1_63",
        "X_1_1_1_1_1_1_11_1_1_21_1_63",
        "X_1_1_1_1_1_1_52_1_1_22_1_63",
        "X_1_1_1_1_1_1_12_1_1_23_1_63",
        "X_1_1_1_1_1_1_53_1_1_24_1_63",
        "X_1_1_1_1_1_1_13_1_1_25_1_63",
        "X_1_1_1_1_1_1_54_1_1_26_1_63",
        "X_1_1_1_1_1_1_14_1_1_27_1_63",
        "X_1_1_1_1_1_1_55_1_1_28_1_63",
        "X_1_1_1_1_1_1_15_1_1_29_1_63",
        "X_1_1_1_1_1_1_56_1_1_30_1_63",
        "X_1_1_1_1_1_1_16_1_1_31_1_63",
        "X_1_1_1_1_1_1_57_1_1_32_1_63",
        "X_1_1_1_1_1_1_17_1_1_33_1_63",
        "X_1_1_1_1_1_1_58_1_1_34_1_63",
        "X_1_1_1_1_1_1_18_1_1_35_1_63",
        "X_1_1_1_1_1_1_59_1_1_36_1_63",
        "X_1_1_1_1_1_1_19_1_1_37_1_63",
        "X_1_1_1_1_1_1_60_1_1_38_1_63",
        "X_1_1_1_1_1_1_20_1_1_39_1_63",
        "X_1_1_1_1_1_1_61_1_1_40_1_63",
        "X_1_1_1_1_1_1_21_1_1_41_1_63",
        "X_1_1_1_1_1_1_62_1_1_42_1_63",
        "X_1_1_1_1_1_1_22_1_1_43_1_63",
        "X_1_1_1_1_1_1_63_1_1_44_1_63",
        "X_1_1_1_1_1_1_23_1_1_45_1_63",
        "X_1_1_1_1_1_1_64_1_1_46_1_63",
        "X_1_1_1_1_1_1_24_1_1_47_1_63",
        "X_1_1_1_1_1_1_65_1_1_48_1_63",
        "X_1_1_1_1_1_1_25_1_1_49_1_63",
        "X_1_1_1_1_1_1_66_1_1_50_1_63",
        "X_1_1_1_1_1_1_26_1_1_51_1_63",
        "X_1_1_1_1_1_1_67_1_1_52_1_63",
        "X_1_1_1_1_1_1_27_1_1_53_1_63",
        "X_1_1_1_1_1_1_68_1_1_54_1_63",
        "X_1_1_1_1_1_1_28_1_1_55_1_63",
        "X_1_1_1_1_1_1_69_1_1_56_1_63",
        "X_1_1_1_1_1_1_29_1_1_57_1_63",
        "X_1_1_1_1_1_1_70_1_1_58_1_63",
        "X_1_1_1_1_1_1_30_1_1_59_1_63",
        "X_1_1_1_1_1_1_71_1_1_60_1_63",
        "X_1_1_1_1_1_1_31_1_1_61_1_63",
        "X_1_1_1_1_1_1_72_1_1_62_1_63",
        "X_1_1_1_1_1_1_32_1_1_63_1_63",
        "X_1_1_1_1_1_1_73_1_1_64_1_63",
        "X_1_1_1_1_1_1_33_1_1_65_1_63",
        "X_1_1_1_1_1_1_74_1_1_66_1_63",
        "X_1_1_1_1_1_1_34_1_1_67_1_63",
        "X_1_1_1_1_1_1_75_1_1_68_1_63",
        "X_1_1_1_1_1_1_35_1_1_69_1_63",
        "X_1_1_1_1_1_1_76_1_1_70_1_63",
        "X_1_1_1_1_1_1_36_1_1_71_1_63",
        "X_1_1_1_1_1_1_77_1_1_72_1_63",
        "X_1_1_1_1_1_1_37_1_1_73_1_63",
        "X_1_1_1_1_1_1_78_1_1_74_1_63",
        "X_1_1_1_1_1_1_38_1_1_75_1_63",
        "X_1_1_1_1_1_1_79_1_1_76_1_63",
        "X_1_1_1_1_1_1_39_1_1_77_1_63",
        "X_1_1_1_1_1_1_80_1_1_78_1_63",
        "X_1_1_1_1_1_1_40_1_1_79_1_63",
        "X_1_1_1_1_1_1_81_1_1_80_1_63",
        "X_1_1_1_1_1_1_41_1_1_81_1_63"
],
      "CsaImage.ProtocolSliceNumber": [0, 1, 2, 3, 4, 5, 6, 7, 8, 9, 10, 11, 12, 13, 14, 15, 16, 17, 18, 19, 20, 21, 22, 23, 24, 25, 26, 27, 28, 29, 30, 31, 32, 33, 34, 35, 36, 37, 38, 39, 40, 41, 42, 43, 44, 45, 46, 47, 48, 49, 50, 51, 52, 53, 54, 55, 56, 57, 58, 59, 60, 61, 62, 63, 64, 65, 66, 67, 68, 69, 70, 71, 72, 73, 74, 75, 76, 77, 78, 79, 80],
      "CsaImage.RFSWDDataType": [
        "predicted",
        "predicted",
        "predicted",
        "predicted",
        "predicted",
        "predicted",
        "predicted",
        "predicted",
        "predicted",
        "predicted",
        "predicted",
        "predicted",
        "predicted",
        "predicted",
        "predicted",
        "predicted",
        "predicted",
        "predicted",
        "predicted",
        "predicted",
        "predicted",
        "predicted",
        "predicted",
        "measured",
        "predicted",
        "measured",
        "predicted",
        "predicted",
        "predicted",
        "predicted",
        "predicted",
        "predicted",
        "predicted",
        "predicted",
        "predicted",
        "predicted",
        "predicted",
        "predicted",
        "predicted",
        "predicted",
        "predicted",
        "predicted",
        "predicted",
        "predicted",
        "predicted",
        "predicted",
        "predicted",
        "predicted",
        "predicted",
        "predicted",
        "measured",
        "predicted",
        "measured",
        "predicted",
        "predicted",
        "predicted",
        "predicted",
        "predicted",
        "predicted",
        "predicted",
        "predicted",
        "predicted",
        "predicted",
        "predicted",
        "predicted",
        "predicted",
        "predicted",
        "predicted",
        "predicted",
        "predicted",
        "predicted",
        "predicted",
        "predicted",
        "predicted",
        "predicted",
        "predicted",
        "predicted",
        "measured",
        "predicted",
        "measured",
        "predicted"
],
      "CsaImage.SlicePosition_PCS": [
        [-127.19638101, -130.73267802, -55.30696432],
        [-127.13884679, -131.12461432, -53.65376226],
        [-127.08131257, -131.51654967, -52.0005602],
        [-127.02377836, -131.90848597, -50.34735815],
        [-126.96624414, -132.30042228, -48.694158],
        [-126.90870992, -132.69235858, -47.04095594],
        [-126.8511757, -133.08429488, -45.38775388],
        [-126.79364148, -133.47623023, -43.73455183],
        [-126.73610679, -133.86816558, -42.08134977],
        [-126.67857257, -134.26010283, -40.42814771],
        [-126.62103835, -134.65203818, -38.77494661],
        [-126.56350414, -135.04397353, -37.12174551],
        [-126.50596992, -135.43591079, -35.46854345],
        [-126.4484357, -135.82784614, -33.81534139],
        [-126.39090148, -136.21978148, -32.16214029],
        [-126.33336726, -136.61171874, -30.50893823],
        [-126.27583257, -137.00365409, -28.85573665],
        [-126.21829835, -137.39559134, -27.20253483],
        [-126.16076413, -137.78752669, -25.54933301],
        [-126.10322992, -138.17946204, -23.89613129],
        [-126.0456957, -138.5713993, -22.24292962],
        [-125.98816148, -138.96333465, -20.5897278],
        [-125.93062726, -139.35526999, -18.93652622],
        [-125.87309304, -139.74720725, -17.28332416],
        [-125.81555883, -140.1391426, -15.63012258],
        [-125.75802413, -140.53107795, -13.97692052],
        [-125.70048991, -140.9230152, -12.32371942],
        [-125.6429557, -141.31495055, -10.67051736],
        [-125.58542148, -141.7068859, -9.01731531],
        [-125.52788726, -142.09882316, -7.3641142],
        [-125.47035304, -142.4907585, -5.71091215],
        [-125.41281883, -142.88269385, -4.05771009],
        [-125.35528461, -143.27463111, -2.40450803],
        [-125.29774991, -143.66656646, -0.75130788],
        [-125.24021569, -144.05850371, 0.90189417],
        [-125.18268148, -144.45043906, 2.55509623],
        [-125.12514726, -144.84237441, 4.20829829],
        [-125.06761304, -145.23431167, 5.86150034],
        [-125.01007882, -145.62624701, 7.5147024],
        [-124.95254461, -146.01818236, 9.16790255],
        [-124.89501039, -146.41011962, 10.82110461],
        [-124.83747569, -146.80205497, 12.47430666],
        [-124.77994148, -147.19399032, 14.12750872],
        [-124.72240726, -147.58592757, 15.78071078],
        [-124.66487304, -147.97786292, 17.43391284],
        [-124.60733882, -148.36979827, 19.08711489],
        [-124.5498046, -148.76173552, 20.74031695],
        [-124.49227039, -149.15367278, 22.39351901],
        [-124.43473593, -149.54560622, 24.04671725],
        [-124.37720171, -149.93754348, 25.6999193],
        [-124.31966749, -150.32948073, 27.35312136],
        [-124.26213328, -150.72141417, 29.00632342],
        [-124.20459882, -151.11335143, 30.65952548],
        [-124.1470646, -151.50528869, 32.31272753],
        [-124.08953038, -151.89722213, 33.96592959],
        [-124.03199617, -152.28915938, 35.61913165],
        [-123.97446171, -152.68109664, 37.2723337],
        [-123.91692749, -153.07303008, 38.92553576],
        [-123.85939327, -153.46496734, 40.578734],
        [-123.80185906, -153.85690459, 42.23193987],
        [-123.7443246, -154.24883803, 43.88513812],
        [-123.68679038, -154.64077529, 45.53834399],
        [-123.62925617, -155.03271254, 47.19154223],
        [-123.57172195, -155.42464599, 48.8447481],
        [-123.51418749, -155.81658324, 50.49794634],
        [-123.45665327, -156.2085205, 52.15114459],
        [-123.39911906, -156.60045394, 53.80435046],
        [-123.34158484, -156.99239119, 55.4575487],
        [-123.28405062, -157.38432845, 57.11075457],
        [-123.22651616, -157.77626189, 58.76395281],
        [-123.16898195, -158.16819915, 60.41715868],
        [-123.11144773, -158.5601364, 62.07035693],
        [-123.05391351, -158.95206984, 63.7235628],
        [-122.99637905, -159.3440071, 65.37676104],
        [-122.93884484, -159.73594436, 67.02996691],
        [-122.88131062, -160.1278778, 68.68316515],
        [-122.8237764, -160.51981505, 70.33637103],
        [-122.76624194, -160.91175231, 71.98956927],
        [-122.70870773, -161.30368956, 73.64276751],
        [-122.65117351, -161.69562301, 75.29597338],
        [-122.59363917, -162.08756026, 76.94917162]
],
      "CsaImage.TimeAfterStart": [16.4, 18.515, 16.55, 18.665, 16.7025, 18.8175, 16.8525, 18.9675, 17.0025, 19.12, 17.155, 19.27, 17.305, 19.4225, 17.4575, 19.5725, 17.6075, 19.7225, 17.76, 19.875, 17.91, 20.025, 18.0625, 20.1775, 18.2125, 20.3275, 18.3625, 16.4, 18.515, 16.55, 18.665, 16.7025, 18.8175, 16.8525, 18.9675, 17.0025, 19.12, 17.155, 19.27, 17.305, 19.4225, 17.4575, 19.5725, 17.6075, 19.7225, 17.76, 19.875, 17.91, 20.025, 18.0625, 20.1775, 18.2125, 20.3275, 18.3625, 16.4, 18.515, 16.55, 18.665, 16.7025, 18.8175, 16.8525, 18.9675, 17.0025, 19.12, 17.155, 19.27, 17.305, 19.4225, 17.4575, 19.5725, 17.6075, 19.7225, 17.76, 19.875, 17.91, 20.025, 18.0625, 20.1775, 18.2125, 20.3275, 18.3625],
      "ImagePositionPatient": [
        [-127.19638100863, -130.73267802161, -55.306964316305],
        [-127.1388467908, -131.1246143238, -53.653762259421],
        [-127.08131257296, -131.51654967231, -52.000560202536],
        [-127.02377835513, -131.90848597449, -50.347358145651],
        [-126.96624413729, -132.30042227668, -48.694157996115],
        [-126.90870991946, -132.69235857886, -47.04095593923],
        [-126.85117570163, -133.08429488105, -45.387753882345],
        [-126.79364148379, -133.47623022956, -43.734551825461],
        [-126.73610678912, -133.86816557807, -42.081349768576],
        [-126.67857257129, -134.26010283393, -40.428147711691],
        [-126.62103835345, -134.65203818244, -38.774946608481],
        [-126.56350413562, -135.04397353095, -37.12174550527],
        [-126.50596991778, -135.43591078681, -35.468543448385],
        [-126.44843569995, -135.82784613532, -33.815341391501],
        [-126.39090148211, -136.21978148383, -32.16214028829],
        [-126.33336726428, -136.61171873969, -30.508938231405],
        [-126.27583256961, -137.0036540882, -28.855736651358],
        [-126.21829835177, -137.39559134406, -27.202534832892],
        [-126.16076413394, -137.78752669257, -25.549333014425],
        [-126.1032299161, -138.17946204108, -23.896131285366],
        [-126.04569569827, -138.57139929694, -22.242929615912],
        [-125.98816148043, -138.96333464545, -20.589727797446],
        [-125.9306272626, -139.35526999396, -18.936526217398],
        [-125.87309304477, -139.74720724982, -17.283324160513],
        [-125.81555882693, -140.13914259833, -15.630122580466],
        [-125.75802413226, -140.53107794684, -13.976920523581],
        [-125.70048991443, -140.9230152027, -12.32371942037],
        [-125.64295569659, -141.31495055121, -10.670517363486],
        [-125.58542147876, -141.70688589972, -9.0173153066008],
        [-125.52788726092, -142.09882315558, -7.3641142033903],
        [-125.47035304309, -142.49075850409, -5.7109121465056],
        [-125.41281882525, -142.8826938526, -4.0577100896208],
        [-125.35528460742, -143.27463110846, -2.404508032736],
        [-125.29774991275, -143.66656645697, -0.7513078831999],
        [-125.24021569491, -144.05850371283, 0.90189417368487],
        [-125.18268147708, -144.45043906134, 2.5550962305696],
        [-125.12514725924, -144.84237440986, 4.2082982874544],
        [-125.06761304141, -145.23431166571, 5.8615003443392],
        [-125.01007882357, -145.62624701423, 7.5147024012239],
        [-124.95254460574, -146.01818236274, 9.1679025507601],
        [-124.89501038791, -146.4101196186, 10.821104607645],
        [-124.83747569323, -146.80205496711, 12.47430666453],
        [-124.7799414754, -147.19399031562, 14.127508721414],
        [-124.72240725756, -147.58592757148, 15.780710778299],
        [-124.66487303973, -147.97786291999, 17.433912835184],
        [-124.6073388219, -148.3697982685, 19.087114892069],
        [-124.54980460406, -148.76173552436, 20.740316948953],
        [-124.49227038623, -149.15367278022, 22.393519005838],
        [-124.43473592997, -149.54560622138, 24.046717248026],
        [-124.37720171214, -149.93754347724, 25.69991930491],
        [-124.3196674943, -150.3294807331, 27.353121361795],
        [-124.26213327647, -150.72141417426, 29.00632341868],
        [-124.20459882022, -151.11335143012, 30.659525475565],
        [-124.14706460238, -151.50528868598, 32.31272753245],
        [-124.08953038455, -151.89722212714, 33.965929589334],
        [-124.03199616671, -152.289159383, 35.619131646219],
        [-123.97446171046, -152.68109663886, 37.272333703104],
        [-123.91692749263, -153.07303008002, 38.925535759989],
        [-123.85939327479, -153.46496733588, 40.578734002176],
        [-123.80185905696, -153.85690459174, 42.231939873758],
        [-123.7443246007, -154.2488380329, 43.885138115946],
        [-123.68679038287, -154.64077528876, 45.538343987528],
        [-123.62925616504, -155.03271254462, 47.191542229715],
        [-123.5717219472, -155.42464598578, 48.844748101297],
        [-123.51418749095, -155.81658324164, 50.497946343485],
        [-123.45665327311, -156.2085204975, 52.151144585672],
        [-123.39911905528, -156.60045393866, 53.804350457254],
        [-123.34158483744, -156.99239119452, 55.457548699442],
        [-123.28405061961, -157.38432845038, 57.110754571024],
        [-123.22651616336, -157.77626189154, 58.763952813211],
        [-123.16898194552, -158.1681991474, 60.417158684793],
        [-123.11144772769, -158.56013640326, 62.070356926981],
        [-123.05391350985, -158.95206984443, 63.723562798563],
        [-122.9963790536, -159.34400710028, 65.37676104075],
        [-122.93884483577, -159.73594435614, 67.029966912332],
        [-122.88131061793, -160.12787779731, 68.68316515452],
        [-122.8237764001, -160.51981505317, 70.336371026102],
        [-122.76624194384, -160.91175230903, 71.989569268289],
        [-122.70870772601, -161.30368956488, 73.642767510477],
        [-122.65117350818, -161.69562300605, 75.295973382059],
        [-122.59363917113, -162.08756026191, 76.949171624246]
],
      "InstanceCreationTime": ["102526.077000", "102526.169000", "102526.085000", "102526.175000", "102526.090000", "102526.188000", "102526.096000", "102526.194000", "102526.102000", "102526.200000", "102526.108000", "102526.207000", "102526.114000", "102526.213000", "102526.120000", "102526.218000", "102526.127000", "102526.225000", "102526.140000", "102526.231000", "102526.146000", "102526.238000", "102526.151000", "102526.244000", "102526.157000", "102526.251000", "102526.163000", "102526.080000", "102526.171000", "102526.087000", "102526.184000", "102526.092000", "102526.190000", "102526.098000", "102526.196000", "102526.104000", "102526.202000", "102526.110000", "102526.209000", "102526.116000", "102526.214000", "102526.122000", "102526.221000", "102526.129000", "102526.227000", "102526.142000", "102526.233000", "102526.148000", "102526.240000", "102526.153000", "102526.247000", "102526.159000", "102526.253000", "102526.165000", "102526.082000", "102526.173000", "102526.089000", "102526.186000", "102526.094000", "102526.192000", "102526.100000", "102526.198000", "102526.106000", "102526.205000", "102526.112000", "102526.211000", "102526.118000", "102526.216000", "102526.124000", "102526.223000", "102526.131000", "102526.229000", "102526.144000", "102526.235000", "102526.150000", "102526.242000", "102526.155000", "102526.249000", "102526.161000", "102526.255000", "102526.167000"],
      "InstanceNumber": [1, 2, 3, 4, 5, 6, 7, 8, 9, 10, 11, 12, 13, 14, 15, 16, 17, 18, 19, 20, 21, 22, 23, 24, 25, 26, 27, 28, 29, 30, 31, 32, 33, 34, 35, 36, 37, 38, 39, 40, 41, 42, 43, 44, 45, 46, 47, 48, 49, 50, 51, 52, 53, 54, 55, 56, 57, 58, 59, 60, 61, 62, 63, 64, 65, 66, 67, 68, 69, 70, 71, 72, 73, 74, 75, 76, 77, 78, 79, 80, 81],
      "LargestImagePixelValue": [20628, 18375, 21369, 20052, 22173, 34987, 32367, 34924, 34538, 34367, 32219, 31484, 32452, 39742, 45518, 41884, 43671, 52246, 65535, 65535, 65535, 62373, 42168, 41559, 46766, 50792, 52347, 44746, 51200, 65535, 60543, 50716, 36854, 34720, 38742, 38188, 43865, 48878, 55374, 43160, 40833, 44874, 47639, 50344, 47003, 41172, 46344, 46847, 50226, 58108, 63370, 65535, 51839, 57871, 45517, 39246, 44465, 44798, 42547, 48015, 65535, 65535, 56580, 41375, 49909, 49105, 57534, 59852, 56482, 40295, 37448, 36703, 49189, 46770, 44011, 31749, 13236, 20114, 18537, 19354, 10704],
      "SliceLocation": [-27.948748564176, -26.248748184153, -24.548748023999, -22.848747643976, -21.148749118795, -19.448748738771, -17.748748358747, -16.048748198594, -14.348748022303, -12.648747422409, -10.948748189677, -9.2487489569446, -7.5487483570508, -5.8487481968975, -4.1487489641653, -2.4487483642715, -0.7487486516908, 0.95125171634768, 2.6512516446458, 4.3512514859981, 6.051251709127, 7.7512516374251, 9.4512513338679, 11.151251933762, 12.851251630204, 14.551251806496, 16.251251478968, 17.951251639122, 19.651251799275, 21.351251471748, 23.051251631901, 24.751251792054, 26.451252391948, 28.151250713397, 29.851251313291, 31.551251473444, 33.251251633598, 34.951252233491, 36.651252393645, 38.351250698956, 40.05125129885, 41.751251475141, 43.451251635294, 45.151252235188, 46.851252395341, 48.551252555495, 50.251253155389, 51.951253755282, 53.65124977408, 55.351250373973, 57.051250973867, 58.75125069428, 60.451251302243, 62.151251902137, 63.85125162255, 65.551252222443, 67.251252830406, 68.951252550819, 70.651249441028, 72.351253750607, 74.051249769404, 75.751254078982, 77.451250969191, 79.151254399289, 80.851251297567, 82.551248187776, 84.251251617874, 85.951248508083, 87.651252817661, 89.351248836459, 91.051253146037, 92.751250036246, 94.451253466344, 96.151250364622, 97.8512546742, 99.551250684929, 101.25125499451, 102.95125189279, 104.65124878299, 106.35125221309, 108.05124910734],
