{
  "AcquisitionMatrixPE": 82,
  "AcquisitionNumber": 1,
  "AcquisitionTime": "10:21:12.812500",
  "BandwidthPerPixelPhaseEncode": 24.888,
  "BaseResolution": 82,
  "BodyPartExamined": "BRAIN",
  "ConsistencyInfo": "N4_VE11C_LATEST_20160120",
  "ConversionSoftware": "dcm2niix",
  "ConversionSoftwareVersion": "v1.0.20201102",
  "DerivedVendorReportedEchoSpacing": 0.00049,
  "DeviceSerialNumber": "66112",
  "DwellTime": 2e-06,
  "EchoTime": 0.0272,
  "EchoTrainLength": 82,
  "EffectiveEchoSpacing": 0.00049,
  "FlipAngle": 44,
  "ImageComments": "Unaliased MB8/PE3",
  "ImageOrientationPatientDICOM": [0.997011, -0.0504457, 0.0585112, 0.0402185, 0.985572, 0.164406],
  "ImageType": [
    "ORIGINAL",
    "PRIMARY",
    "M",
    "MB",
    "ND",
    "NORM",
    "MOSAIC"
],
  "ImagingFrequency": 123.252,
  "InPlanePhaseEncodingDirectionDICOM": "COL",
  "InstitutionAddress": "Maynard 3,Hanover,NH,US,03755",
  "InstitutionName": "Dartmouth College - PBS",
  "InstitutionalDepartmentName": "Department",
  "MRAcquisitionType": "2D",
  "MagneticFieldStrength": 3,
  "Manufacturer": "Siemens",
  "ManufacturersModelName": "Prisma",
  "Modality": "MR",
  "MultibandAccelerationFactor": 8,
  "PartialFourier": 1,
  "PatientPosition": "HFS",
  "PercentPhaseFOV": 100,
  "PercentSampling": 100,
  "PhaseEncodingDirection": "j-",
  "PhaseEncodingSteps": 82,
  "PhaseResolution": 1,
  "PixelBandwidth": 3050,
  "ProcedureStepDescription": "Wager_Wager^1076_spacetop",
  "ProtocolName": "func_run-02_task-social_acq-ap-mb8",
  "PulseSequenceDetails": "%CustomerSeq%\\cmrr_mbep2d_bold",
  "ReceiveCoilActiveElements": "HEA;HEP",
  "ReceiveCoilName": "Head_32",
  "ReconMatrixPE": 82,
  "RepetitionTime": 0.46,
  "SAR": 0.0844904,
  "ScanOptions": "FS",
  "ScanningSequence": "EP",
  "SequenceName": "epfid2d1_82",
  "SequenceVariant": "SK\\SS",
  "SeriesDescription": "func_run-02_task-social_acq-ap-mb8",
  "SeriesNumber": 14,
  "ShimSetting": [4163, -7779, -7224, 556, -74, -260, 108, 64],
  "SliceThickness": 2.7,
  "SliceTiming": [0, 0.2525, 0.0625, 0.315, 0.125, 0.3775, 0.1875, 0, 0.2525, 0.0625, 0.315, 0.125, 0.3775, 0.1875, 0, 0.2525, 0.0625, 0.315, 0.125, 0.3775, 0.1875, 0, 0.2525, 0.0625, 0.315, 0.125, 0.3775, 0.1875, 0, 0.2525, 0.0625, 0.315, 0.125, 0.3775, 0.1875, 0, 0.2525, 0.0625, 0.315, 0.125, 0.3775, 0.1875, 0, 0.2525, 0.0625, 0.315, 0.125, 0.3775, 0.1875, 0, 0.2525, 0.0625, 0.315, 0.125, 0.3775, 0.1875],
  "SoftwareVersions": "syngo MR E11",
  "SpacingBetweenSlices": 2.7,
  "StationName": "AWP66112",
  "TaskName": "social",
  "TotalReadoutTime": 0.03969,
  "TxRefAmp": 245.349,
  "WipMemBlock": "c8eb8ddd-26ab-47d2-a63b-c9e2e4c42b61||Sequence: R016 ve11c/master r/e634e98; Dec 19 2017 11:00:25 by eja",
  "dcmmeta_affine": [
    [-2.6749086380004883, 0.10790318250656128, 0.17809374630451202, 105.45602416992188],
    [0.1353420466184616, 2.644218921661377, 0.4362161159515381, -96.76367950439453],
    [0.15698139369487762, -0.44108957052230835, 2.6585707664489746, -45.64893341064453],
    [0.0, 0.0, 0.0, 1.0]
],
  "dcmmeta_reorient_transform": [
    [0.0, -1.0, 0.0, 81.0],
    [1.0, 0.0, 0.0, 0.0],
    [0.0, 0.0, 1.0, 0.0],
    [0.0, 0.0, 0.0, 1.0]
],
  "dcmmeta_shape": [82, 82, 56, 872],
  "dcmmeta_slice_dim": 2,
  "dcmmeta_version": 0.6,
  "global": {
    "const": {
      "AccessionNumber": "A003533",
      "AcquisitionMatrix": [82, 0, 0, 82],
      "AngioFlag": "N",
      "BitsAllocated": 16,
      "BitsStored": 16,
      "BodyPartExamined": "BRAIN",
      "Columns": 656,
      "EchoNumbers": 1,
      "EchoTime": 27.2,
      "EchoTrainLength": 82,
      "FlipAngle": 44.0,
      "HighBit": 15,
      "ImageOrientationPatient": [0.99701136825948, -0.0504456718953, 0.05851124463201, 0.04021845822294, 0.985572477588, 0.16440610402058],
      "ImagePositionPatient": [-912.86316804012, -837.46570675855, -253.02354895709],
      "ImageType": [
        "ORIGINAL",
        "PRIMARY",
        "M",
        "MB",
        "ND",
        "NORM",
        "MOSAIC"
],
      "ImagedNucleus": "1H",
      "ImagingFrequency": 123.252124,
      "InPlanePhaseEncodingDirection": "COL",
      "MRAcquisitionType": "2D",
      "MagneticFieldStrength": 3.0,
      "Manufacturer": "SIEMENS",
      "ManufacturerModelName": "Prisma",
      "Modality": "MR",
      "NumberOfAverages": 1.0,
      "NumberOfPhaseEncodingSteps": 82,
      "PercentPhaseFieldOfView": 100.0,
      "PercentSampling": 100.0,
      "PerformedProcedureStepStartTime": "082552.983000",
      "PhotometricInterpretation": "MONOCHROME2",
      "PixelBandwidth": 3050.0,
      "PixelRepresentation": 0,
      "PixelSpacing": [2.6829268932343, 2.6829268932343],
      "ProtocolName": "func_run-02_task-social_acq-ap-mb8",
      "RepetitionTime": 460.0,
      "Rows": 656,
      "SAR": 0.08449040346182,
      "SamplesPerPixel": 1,
      "ScanOptions": "FS",
      "ScanningSequence": "EP",
      "SequenceName": "epfid2d1_82",
      "SequenceVariant": [
        "SK",
        "SS"
],
      "SeriesDescription": "func_run-02_task-social_acq-ap-mb8",
      "SeriesNumber": 14,
      "SeriesTime": "102123.355000",
      "SliceLocation": -53.625826412984,
      "SliceThickness": 2.7000000476837,
      "SmallestImagePixelValue": 0,
      "SoftwareVersions": "syngo MR E11",
      "SpacingBetweenSlices": 2.7000000235051,
      "SpecificCharacterSet": "ISO_IR 100",
      "StudyID": "1",
      "StudyTime": "082552.898000",
      "TransmitCoilName": "Body",
      "VariableFlipAngleFlag": "N",
      "WindowCenterWidthExplanation": "Algo1",
      "dBdt": 0.0},
    "slices": {}
  },
  "time": {
    "samples": {
      "AcquisitionNumber": [1, 2, 3, 4, 5, 6, 7, 8, 9, 10, 11, 12, 13, 14, 15, 16, 17, 18, 19, 20, 21, 22, 23, 24, 25, 26, 27, 28, 29, 30, 31, 32, 33, 34, 35, 36, 37, 38, 39, 40, 41, 42, 43, 44, 45, 46, 47, 48, 49, 50, 51, 52, 53, 54, 55, 56, 57, 58, 59, 60, 61, 62, 63, 64, 65, 66, 67, 68, 69, 70, 71, 72, 73, 74, 75, 76, 77, 78, 79, 80, 81, 82, 83, 84, 85, 86, 87, 88, 89, 90, 91, 92, 93, 94, 95, 96, 97, 98, 99, 100, 101, 102, 103, 104, 105, 106, 107, 108, 109, 110, 111, 112, 113, 114, 115, 116, 117, 118, 119, 120, 121, 122, 123, 124, 125, 126, 127, 128, 129, 130, 131, 132, 133, 134, 135, 136, 137, 138, 139, 140, 141, 142, 143, 144, 145, 146, 147, 148, 149, 150, 151, 152, 153, 154, 155, 156, 157, 158, 159, 160, 161, 162, 163, 164, 165, 166, 167, 168, 169, 170, 171, 172, 173, 174, 175, 176, 177, 178, 179, 180, 181, 182, 183, 184, 185, 186, 187, 188, 189, 190, 191, 192, 193, 194, 195, 196, 197, 198, 199, 200, 201, 202, 203, 204, 205, 206, 207, 208, 209, 210, 211, 212, 213, 214, 215, 216, 217, 218, 219, 220, 221, 222, 223, 224, 225, 226, 227, 228, 229, 230, 231, 232, 233, 234, 235, 236, 237, 238, 239, 240, 241, 242, 243, 244, 245, 246, 247, 248, 249, 250, 251, 252, 253, 254, 255, 256, 257, 258, 259, 260, 261, 262, 263, 264, 265, 266, 267, 268, 269, 270, 271, 272, 273, 274, 275, 276, 277, 278, 279, 280, 281, 282, 283, 284, 285, 286, 287, 288, 289, 290, 291, 292, 293, 294, 295, 296, 297, 298, 299, 300, 301, 302, 303, 304, 305, 306, 307, 308, 309, 310, 311, 312, 313, 314, 315, 316, 317, 318, 319, 320, 321, 322, 323, 324, 325, 326, 327, 328, 329, 330, 331, 332, 333, 334, 335, 336, 337, 338, 339, 340, 341, 342, 343, 344, 345, 346, 347, 348, 349, 350, 351, 352, 353, 354, 355, 356, 357, 358, 359, 360, 361, 362, 363, 364, 365, 366, 367, 368, 369, 370, 371, 372, 373, 374, 375, 376, 377, 378, 379, 380, 381, 382, 383, 384, 385, 386, 387, 388, 389, 390, 391, 392, 393, 394, 395, 396, 397, 398, 399, 400, 401, 402, 403, 404, 405, 406, 407, 408, 409, 410, 411, 412, 413, 414, 415, 416, 417, 418, 419, 420, 421, 422, 423, 424, 425, 426, 427, 428, 429, 430, 431, 432, 433, 434, 435, 436, 437, 438, 439, 440, 441, 442, 443, 444, 445, 446, 447, 448, 449, 450, 451, 452, 453, 454, 455, 456, 457, 458, 459, 460, 461, 462, 463, 464, 465, 466, 467, 468, 469, 470, 471, 472, 473, 474, 475, 476, 477, 478, 479, 480, 481, 482, 483, 484, 485, 486, 487, 488, 489, 490, 491, 492, 493, 494, 495, 496, 497, 498, 499, 500, 501, 502, 503, 504, 505, 506, 507, 508, 509, 510, 511, 512, 513, 514, 515, 516, 517, 518, 519, 520, 521, 522, 523, 524, 525, 526, 527, 528, 529, 530, 531, 532, 533, 534, 535, 536, 537, 538, 539, 540, 541, 542, 543, 544, 545, 546, 547, 548, 549, 550, 551, 552, 553, 554, 555, 556, 557, 558, 559, 560, 561, 562, 563, 564, 565, 566, 567, 568, 569, 570, 571, 572, 573, 574, 575, 576, 577, 578, 579, 580, 581, 582, 583, 584, 585, 586, 587, 588, 589, 590, 591, 592, 593, 594, 595, 596, 597, 598, 599, 600, 601, 602, 603, 604, 605, 606, 607, 608, 609, 610, 611, 612, 613, 614, 615, 616, 617, 618, 619, 620, 621, 622, 623, 624, 625, 626, 627, 628, 629, 630, 631, 632, 633, 634, 635, 636, 637, 638, 639, 640, 641, 642, 643, 644, 645, 646, 647, 648, 649, 650, 651, 652, 653, 654, 655, 656, 657, 658, 659, 660, 661, 662, 663, 664, 665, 666, 667, 668, 669, 670, 671, 672, 673, 674, 675, 676, 677, 678, 679, 680, 681, 682, 683, 684, 685, 686, 687, 688, 689, 690, 691, 692, 693, 694, 695, 696, 697, 698, 699, 700, 701, 702, 703, 704, 705, 706, 707, 708, 709, 710, 711, 712, 713, 714, 715, 716, 717, 718, 719, 720, 721, 722, 723, 724, 725, 726, 727, 728, 729, 730, 731, 732, 733, 734, 735, 736, 737, 738, 739, 740, 741, 742, 743, 744, 745, 746, 747, 748, 749, 750, 751, 752, 753, 754, 755, 756, 757, 758, 759, 760, 761, 762, 763, 764, 765, 766, 767, 768, 769, 770, 771, 772, 773, 774, 775, 776, 777, 778, 779, 780, 781, 782, 783, 784, 785, 786, 787, 788, 789, 790, 791, 792, 793, 794, 795, 796, 797, 798, 799, 800, 801, 802, 803, 804, 805, 806, 807, 808, 809, 810, 811, 812, 813, 814, 815, 816, 817, 818, 819, 820, 821, 822, 823, 824, 825, 826, 827, 828, 829, 830, 831, 832, 833, 834, 835, 836, 837, 838, 839, 840, 841, 842, 843, 844, 845, 846, 847, 848, 849, 850, 851, 852, 853, 854, 855, 856, 857, 858, 859, 860, 861, 862, 863, 864, 865, 866, 867, 868, 869, 870, 871, 872],
      "AcquisitionTime": ["102112.812500", "102113.272500", "102113.732500", "102114.192500", "102114.652500", "102115.112500", "102115.572500", "102116.032500", "102116.492500", "102116.952500", "102117.412500", "102117.872500", "102118.332500", "102118.792500", "102119.252500", "102119.712500", "102120.172500", "102120.632500", "102121.092500", "102121.552500", "102122.012500", "102122.472500", "102122.932500", "102123.392500", "102123.852500", "102124.312500", "102124.772500", "102125.232500", "102125.692500", "102126.152500", "102126.612500", "102127.072500", "102127.532500", "102127.992500", "102128.452500", "102128.912500", "102129.372500", "102129.832500", "102130.292500", "102130.752500", "102131.212500", "102131.672500", "102132.132500", "102132.592500", "102133.052500", "102133.512500", "102133.972500", "102134.432500", "102134.892500", "102135.352500", "102135.812500", "102136.272500", "102136.732500", "102137.192500", "102137.652500", "102138.112500", "102138.572500", "102139.032500", "102139.492500", "102139.952500", "102140.412500", "102140.872500", "102141.332500", "102141.792500", "102142.252500", "102142.712500", "102143.172500", "102143.632500", "102144.092500", "102144.552500", "102145.012500", "102145.472500", "102145.932500", "102146.392500", "102146.852500", "102147.312500", "102147.772500", "102148.232500", "102148.692500", "102149.152500", "102149.612500", "102150.072500", "102150.532500", "102150.992500", "102151.452500", "102151.912500", "102152.372500", "102152.832500", "102153.292500", "102153.752500", "102154.212500", "102154.672500", "102155.132500", "102155.592500", "102156.052500", "102156.512500", "102156.972500", "102157.432500", "102157.892500", "102158.352500", "102158.812500", "102159.272500", "102159.732500", "102200.192500", "102200.652500", "102201.112500", "102201.572500", "102202.032500", "102202.492500", "102202.952500", "102203.412500", "102203.872500", "102204.332500", "102204.792500", "102205.252500", "102205.712500", "102206.172500", "102206.632500", "102207.092500", "102207.552500", "102208.012500", "102208.472500", "102208.932500", "102209.392500", "102209.852500", "102210.312500", "102210.772500", "102211.232500", "102211.692500", "102212.152500", "102212.612500", "102213.072500", "102213.532500", "102213.992500", "102214.452500", "102214.912500", "102215.372500", "102215.832500", "102216.292500", "102216.752500", "102217.212500", "102217.672500", "102218.132500", "102218.592500", "102219.052500", "102219.512500", "102219.972500", "102220.432500", "102220.892500", "102221.352500", "102221.812500", "102222.272500", "102222.732500", "102223.192500", "102223.652500", "102224.112500", "102224.572500", "102225.032500", "102225.492500", "102225.952500", "102226.412500", "102226.872500", "102227.332500", "102227.792500", "102228.252500", "102228.712500", "102229.172500", "102229.632500", "102230.092500", "102230.552500", "102231.012500", "102231.472500", "102231.932500", "102232.392500", "102232.852500", "102233.312500", "102233.772500", "102234.232500", "102234.692500", "102235.152500", "102235.612500", "102236.072500", "102236.532500", "102236.992500", "102237.452500", "102237.912500", "102238.372500", "102238.832500", "102239.292500", "102239.752500", "102240.212500", "102240.672500", "102241.132500", "102241.592500", "102242.052500", "102242.512500", "102242.972500", "102243.432500", "102243.892500", "102244.352500", "102244.812500", "102245.272500", "102245.732500", "102246.192500", "102246.652500", "102247.112500", "102247.572500", "102248.032500", "102248.492500", "102248.952500", "102249.412500", "102249.872500", "102250.332500", "102250.792500", "102251.252500", "102251.712500", "102252.172500", "102252.632500", "102253.092500", "102253.552500", "102254.012500", "102254.472500", "102254.932500", "102255.392500", "102255.852500", "102256.312500", "102256.772500", "102257.232500", "102257.692500", "102258.152500", "102258.612500", "102259.072500", "102259.532500", "102259.992500", "102300.452500", "102300.912500", "102301.372500", "102301.832500", "102302.292500", "102302.752500", "102303.212500", "102303.672500", "102304.132500", "102304.592500", "102305.052500", "102305.512500", "102305.972500", "102306.432500", "102306.892500", "102307.352500", "102307.812500", "102308.272500", "102308.732500", "102309.192500", "102309.652500", "102310.112500", "102310.572500", "102311.032500", "102311.492500", "102311.952500", "102312.412500", "102312.872500", "102313.332500", "102313.792500", "102314.252500", "102314.712500", "102315.172500", "102315.632500", "102316.092500", "102316.552500", "102317.012500", "102317.472500", "102317.932500", "102318.392500", "102318.852500", "102319.312500", "102319.772500", "102320.232500", "102320.692500", "102321.152500", "102321.612500", "102322.072500", "102322.532500", "102322.992500", "102323.452500", "102323.912500", "102324.372500", "102324.832500", "102325.292500", "102325.752500", "102326.212500", "102326.672500", "102327.132500", "102327.592500", "102328.052500", "102328.512500", "102328.972500", "102329.432500", "102329.892500", "102330.352500", "102330.812500", "102331.272500", "102331.732500", "102332.192500", "102332.652500", "102333.112500", "102333.572500", "102334.032500", "102334.492500", "102334.952500", "102335.412500", "102335.872500", "102336.332500", "102336.792500", "102337.252500", "102337.712500", "102338.172500", "102338.632500", "102339.092500", "102339.552500", "102340.012500", "102340.472500", "102340.932500", "102341.392500", "102341.852500", "102342.312500", "102342.772500", "102343.232500", "102343.692500", "102344.152500", "102344.612500", "102345.072500", "102345.532500", "102345.992500", "102346.452500", "102346.912500", "102347.372500", "102347.832500", "102348.292500", "102348.752500", "102349.212500", "102349.672500", "102350.132500", "102350.592500", "102351.052500", "102351.512500", "102351.972500", "102352.432500", "102352.892500", "102353.352500", "102353.812500", "102354.272500", "102354.732500", "102355.192500", "102355.652500", "102356.112500", "102356.572500", "102357.032500", "102357.492500", "102357.952500", "102358.412500", "102358.872500", "102359.332500", "102359.792500", "102400.252500", "102400.712500", "102401.172500", "102401.632500", "102402.092500", "102402.552500", "102403.012500", "102403.472500", "102403.932500", "102404.392500", "102404.852500", "102405.312500", "102405.772500", "102406.232500", "102406.692500", "102407.152500", "102407.612500", "102408.072500", "102408.532500", "102408.992500", "102409.452500", "102409.912500", "102410.372500", "102410.832500", "102411.292500", "102411.752500", "102412.212500", "102412.672500", "102413.132500", "102413.592500", "102414.052500", "102414.512500", "102414.972500", "102415.432500", "102415.892500", "102416.352500", "102416.812500", "102417.272500", "102417.732500", "102418.192500", "102418.652500", "102419.112500", "102419.572500", "102420.032500", "102420.492500", "102420.952500", "102421.412500", "102421.872500", "102422.332500", "102422.792500", "102423.252500", "102423.712500", "102424.172500", "102424.632500", "102425.092500", "102425.552500", "102426.012500", "102426.472500", "102426.932500", "102427.392500", "102427.852500", "102428.312500", "102428.772500", "102429.232500", "102429.692500", "102430.152500", "102430.612500", "102431.072500", "102431.532500", "102431.992500", "102432.452500", "102432.912500", "102433.372500", "102433.832500", "102434.292500", "102434.752500", "102435.212500", "102435.672500", "102436.132500", "102436.592500", "102437.052500", "102437.512500", "102437.972500", "102438.432500", "102438.892500", "102439.352500", "102439.812500", "102440.272500", "102440.732500", "102441.192500", "102441.652500", "102442.112500", "102442.572500", "102443.032500", "102443.492500", "102443.952500", "102444.412500", "102444.872500", "102445.332500", "102445.792500", "102446.252500", "102446.712500", "102447.172500", "102447.632500", "102448.092500", "102448.552500", "102449.012500", "102449.472500", "102449.932500", "102450.392500", "102450.852500", "102451.312500", "102451.772500", "102452.232500", "102452.692500", "102453.152500", "102453.612500", "102454.072500", "102454.532500", "102454.992500", "102455.452500", "102455.912500", "102456.372500", "102456.832500", "102457.292500", "102457.752500", "102458.212500", "102458.672500", "102459.132500", "102459.592500", "102500.052500", "102500.512500", "102500.972500", "102501.432500", "102501.892500", "102502.352500", "102502.812500", "102503.272500", "102503.732500", "102504.192500", "102504.652500", "102505.112500", "102505.572500", "102506.032500", "102506.492500", "102506.952500", "102507.412500", "102507.872500", "102508.332500", "102508.792500", "102509.252500", "102509.712500", "102510.172500", "102510.632500", "102511.092500", "102511.552500", "102512.012500", "102512.472500", "102512.932500", "102513.392500", "102513.852500", "102514.312500", "102514.772500", "102515.232500", "102515.692500", "102516.152500", "102516.612500", "102517.072500", "102517.532500", "102517.992500", "102518.452500", "102518.912500", "102519.372500", "102519.832500", "102520.292500", "102520.752500", "102521.212500", "102521.672500", "102522.132500", "102522.592500", "102523.052500", "102523.512500", "102523.972500", "102524.432500", "102524.892500", "102525.352500", "102525.812500", "102526.272500", "102526.732500", "102527.192500", "102527.652500", "102528.112500", "102528.572500", "102529.032500", "102529.492500", "102529.952500", "102530.412500", "102530.872500", "102531.332500", "102531.792500", "102532.252500", "102532.712500", "102533.172500", "102533.632500", "102534.092500", "102534.552500", "102535.012500", "102535.472500", "102535.932500", "102536.392500", "102536.852500", "102537.312500", "102537.772500", "102538.232500", "102538.692500", "102539.152500", "102539.612500", "102540.072500", "102540.532500", "102540.992500", "102541.452500", "102541.912500", "102542.372500", "102542.832500", "102543.292500", "102543.752500", "102544.212500", "102544.672500", "102545.132500", "102545.592500", "102546.052500", "102546.512500", "102546.972500", "102547.432500", "102547.892500", "102548.352500", "102548.812500", "102549.272500", "102549.732500", "102550.192500", "102550.652500", "102551.112500", "102551.572500", "102552.032500", "102552.492500", "102552.952500", "102553.412500", "102553.872500", "102554.332500", "102554.792500", "102555.252500", "102555.712500", "102556.172500", "102556.632500", "102557.092500", "102557.552500", "102558.012500", "102558.472500", "102558.932500", "102559.392500", "102559.852500", "102600.312500", "102600.772500", "102601.232500", "102601.692500", "102602.152500", "102602.612500", "102603.072500", "102603.532500", "102603.992500", "102604.452500", "102604.912500", "102605.372500", "102605.832500", "102606.292500", "102606.752500", "102607.212500", "102607.672500", "102608.132500", "102608.592500", "102609.052500", "102609.512500", "102609.972500", "102610.432500", "102610.892500", "102611.352500", "102611.812500", "102612.272500", "102612.732500", "102613.192500", "102613.652500", "102614.112500", "102614.572500", "102615.032500", "102615.492500", "102615.952500", "102616.412500", "102616.872500", "102617.332500", "102617.792500", "102618.252500", "102618.712500", "102619.172500", "102619.632500", "102620.092500", "102620.552500", "102621.012500", "102621.472500", "102621.932500", "102622.392500", "102622.852500", "102623.312500", "102623.772500", "102624.232500", "102624.692500", "102625.152500", "102625.612500", "102626.072500", "102626.532500", "102626.992500", "102627.452500", "102627.912500", "102628.372500", "102628.832500", "102629.292500", "102629.752500", "102630.212500", "102630.672500", "102631.132500", "102631.592500", "102632.052500", "102632.512500", "102632.972500", "102633.432500", "102633.892500", "102634.352500", "102634.812500", "102635.272500", "102635.732500", "102636.192500", "102636.652500", "102637.112500", "102637.572500", "102638.032500", "102638.492500", "102638.952500", "102639.412500", "102639.872500", "102640.332500", "102640.792500", "102641.252500", "102641.712500", "102642.172500", "102642.632500", "102643.092500", "102643.552500", "102644.012500", "102644.472500", "102644.932500", "102645.392500", "102645.852500", "102646.312500", "102646.772500", "102647.232500", "102647.692500", "102648.152500", "102648.612500", "102649.072500", "102649.532500", "102649.992500", "102650.452500", "102650.912500", "102651.372500", "102651.832500", "102652.292500", "102652.752500", "102653.212500", "102653.672500", "102654.132500", "102654.592500", "102655.052500", "102655.512500", "102655.972500", "102656.432500", "102656.892500", "102657.352500", "102657.812500", "102658.272500", "102658.732500", "102659.192500", "102659.652500", "102700.112500", "102700.572500", "102701.032500", "102701.492500", "102701.952500", "102702.412500", "102702.872500", "102703.332500", "102703.792500", "102704.252500", "102704.712500", "102705.172500", "102705.632500", "102706.092500", "102706.552500", "102707.012500", "102707.472500", "102707.932500", "102708.392500", "102708.852500", "102709.312500", "102709.772500", "102710.232500", "102710.692500", "102711.152500", "102711.612500", "102712.072500", "102712.532500", "102712.992500", "102713.452500", "102713.912500", "102714.372500", "102714.832500", "102715.292500", "102715.752500", "102716.212500", "102716.672500", "102717.132500", "102717.592500", "102718.052500", "102718.512500", "102718.972500", "102719.432500", "102719.892500", "102720.352500", "102720.812500", "102721.272500", "102721.732500", "102722.192500", "102722.652500", "102723.112500", "102723.572500", "102724.032500", "102724.492500", "102724.952500", "102725.412500", "102725.872500", "102726.332500", "102726.792500", "102727.252500", "102727.712500", "102728.172500", "102728.632500", "102729.092500", "102729.552500", "102730.012500", "102730.472500", "102730.932500", "102731.392500", "102731.852500", "102732.312500", "102732.772500", "102733.232500", "102733.692500", "102734.152500", "102734.612500", "102735.072500", "102735.532500", "102735.992500", "102736.452500", "102736.912500", "102737.372500", "102737.832500", "102738.292500", "102738.752500", "102739.212500", "102739.672500", "102740.132500", "102740.592500", "102741.052500", "102741.512500", "102741.972500", "102742.432500", "102742.892500", "102743.352500", "102743.812500", "102744.272500", "102744.732500", "102745.192500", "102745.652500", "102746.112500", "102746.572500", "102747.032500", "102747.492500", "102747.952500", "102748.412500", "102748.872500", "102749.332500", "102749.792500", "102750.252500", "102750.712500", "102751.172500", "102751.632500", "102752.092500", "102752.552500", "102753.012500", "102753.472500"],
