{
  "AcquisitionMatrixPE": 82,
  "AcquisitionNumber": 1,
  "AcquisitionTime": "11:00:37.882500",
  "BandwidthPerPixelPhaseEncode": 24.888,
  "BaseResolution": 82,
  "BodyPartExamined": "BRAIN",
  "ConsistencyInfo": "N4_VE11C_LATEST_20160120",
  "ConversionSoftware": "dcm2niix",
  "ConversionSoftwareVersion": "v1.0.20201102",
  "DerivedVendorReportedEchoSpacing": 0.00049,
  "DeviceSerialNumber": "66112",
  "DwellTime": 2e-06,
  "EchoTime": 0.0272,
  "EchoTrainLength": 82,
  "EffectiveEchoSpacing": 0.00049,
  "FlipAngle": 44,
  "ImageComments": "Unaliased MB8/PE3",
  "ImageOrientationPatientDICOM": [0.996315, -0.0521302, 0.0681143, 0.0400161, 0.984897, 0.168455],
  "ImageType": [
    "ORIGINAL",
    "PRIMARY",
    "M",
    "MB",
    "ND",
    "NORM",
    "MOSAIC"
],
  "ImagingFrequency": 123.252,
  "InPlanePhaseEncodingDirectionDICOM": "COL",
  "InstitutionAddress": "Maynard 3,Hanover,NH,US,03755",
  "InstitutionName": "Dartmouth College - PBS",
  "InstitutionalDepartmentName": "Department",
  "MRAcquisitionType": "2D",
  "MagneticFieldStrength": 3,
  "Manufacturer": "Siemens",
  "ManufacturersModelName": "Prisma",
  "Modality": "MR",
  "MultibandAccelerationFactor": 8,
  "PartialFourier": 1,
  "PatientPosition": "HFS",
  "PercentPhaseFOV": 100,
  "PercentSampling": 100,
  "PhaseEncodingDirection": "j-",
  "PhaseEncodingSteps": 82,
  "PhaseResolution": 1,
  "PixelBandwidth": 3050,
  "ProcedureStepDescription": "Wager_Wager^1076_spacetop",
  "ProtocolName": "func_run-01_task-alignvideo_acq-ap-mb8",
  "PulseSequenceDetails": "%CustomerSeq%\\cmrr_mbep2d_bold",
  "ReceiveCoilActiveElements": "HEA;HEP",
  "ReceiveCoilName": "Head_32",
  "ReconMatrixPE": 82,
  "RepetitionTime": 0.46,
  "SAR": 0.0845889,
  "ScanOptions": "FS",
  "ScanningSequence": "EP",
  "SequenceName": "epfid2d1_82",
  "SequenceVariant": "SK\\SS",
  "SeriesDescription": "func_run-01_task-alignvideo_acq-ap-mb8",
  "SeriesNumber": 44,
  "ShimSetting": [4164, -7777, -7223, 557, -70, -242, 110, 64],
  "SliceThickness": 2.7,
  "SliceTiming": [0, 0.25, 0.0625, 0.315, 0.125, 0.3775, 0.1875, 0, 0.25, 0.0625, 0.315, 0.125, 0.3775, 0.1875, 0, 0.25, 0.0625, 0.315, 0.125, 0.3775, 0.1875, 0, 0.25, 0.0625, 0.315, 0.125, 0.3775, 0.1875, 0, 0.25, 0.0625, 0.315, 0.125, 0.3775, 0.1875, 0, 0.25, 0.0625, 0.315, 0.125, 0.3775, 0.1875, 0, 0.25, 0.0625, 0.315, 0.125, 0.3775, 0.1875, 0, 0.25, 0.0625, 0.315, 0.125, 0.3775, 0.1875],
  "SoftwareVersions": "syngo MR E11",
  "SpacingBetweenSlices": 2.7,
  "StationName": "AWP66112",
  "TaskName": "alignvideo",
  "TotalReadoutTime": 0.03969,
  "TxRefAmp": 245.349,
  "WipMemBlock": "1a6602f1-79ed-44ce-96fa-61e99230c5f9||Sequence: R016 ve11c/master r/e634e98; Dec 19 2017 11:00:25 by eja",
  "dcmmeta_affine": [
    [-2.673039436340332, 0.10736031085252762, 0.20484139025211334, 104.33385467529297],
    [0.13986144959926605, 2.6424059867858887, 0.44579288363456726, -108.28345489501953],
    [0.1827457994222641, -0.45195233821868896, 2.6550536155700684, -41.95502853393555],
    [0.0, 0.0, 0.0, 1.0]
],
  "dcmmeta_reorient_transform": [
    [0.0, -1.0, 0.0, 81.0],
    [1.0, 0.0, 0.0, 0.0],
    [0.0, 0.0, 1.0, 0.0],
    [0.0, 0.0, 0.0, 1.0]
],
  "dcmmeta_shape": [82, 82, 56, 1073],
  "dcmmeta_slice_dim": 2,
  "dcmmeta_version": 0.6,
  "global": {
    "const": {
      "AccessionNumber": "A003533",
      "AcquisitionMatrix": [82, 0, 0, 82],
      "AngioFlag": "N",
      "BitsAllocated": 16,
      "BitsStored": 16,
      "BodyPartExamined": "BRAIN",
      "Columns": 656,
      "EchoNumbers": 1,
      "EchoTime": 27.2,
      "EchoTrainLength": 82,
      "FlipAngle": 44.0,
      "HighBit": 15,
      "ImageOrientationPatient": [0.99631464994109, -0.0521301729433, 0.06811434049944, 0.04001611353586, 0.98489676464912, 0.16845496027478],
      "ImagePositionPatient": [-911.0047458488, -823.98172477306, -260.72153606197],
      "ImageType": [
        "ORIGINAL",
        "PRIMARY",
        "M",
        "MB",
        "ND",
        "NORM",
        "MOSAIC"
],
      "ImagedNucleus": "1H",
      "ImagingFrequency": 123.252134,
      "InPlanePhaseEncodingDirection": "COL",
      "MRAcquisitionType": "2D",
      "MagneticFieldStrength": 3.0,
      "Manufacturer": "SIEMENS",
      "ManufacturerModelName": "Prisma",
      "Modality": "MR",
      "NumberOfAverages": 1.0,
      "NumberOfPhaseEncodingSteps": 82,
      "PercentPhaseFieldOfView": 100.0,
      "PercentSampling": 100.0,
      "PerformedProcedureStepStartTime": "082552.983000",
      "PhotometricInterpretation": "MONOCHROME2",
      "PixelBandwidth": 3050.0,
      "PixelRepresentation": 0,
      "PixelSpacing": [2.6829268932343, 2.6829268932343],
      "ProtocolName": "func_run-01_task-alignvideo_acq-ap-mb8",
      "RepetitionTime": 460.0,
      "Rows": 656,
      "SAR": 0.08458893385056,
      "SamplesPerPixel": 1,
      "ScanOptions": "FS",
      "ScanningSequence": "EP",
      "SequenceName": "epfid2d1_82",
      "SequenceVariant": [
        "SK",
        "SS"
],
      "SeriesDescription": "func_run-01_task-alignvideo_acq-ap-mb8",
      "SeriesNumber": 44,
      "SeriesTime": "110103.507000",
      "SliceLocation": -51.21961082074,
      "SliceThickness": 2.7000000476837,
      "SmallestImagePixelValue": 0,
      "SoftwareVersions": "syngo MR E11",
      "SpacingBetweenSlices": 2.7000000762655,
      "SpecificCharacterSet": "ISO_IR 100",
      "StudyID": "1",
      "StudyTime": "082552.898000",
      "TransmitCoilName": "Body",
      "VariableFlipAngleFlag": "N",
      "WindowCenterWidthExplanation": "Algo1",
      "dBdt": 0.0},
    "slices": {}
  },
  "time": {
    "samples": {
      "AcquisitionNumber": [1, 2, 3, 4, 5, 6, 7, 8, 9, 10, 11, 12, 13, 14, 15, 16, 17, 18, 19, 20, 21, 22, 23, 24, 25, 26, 27, 28, 29, 30, 31, 32, 33, 34, 35, 36, 37, 38, 39, 40, 41, 42, 43, 44, 45, 46, 47, 48, 49, 50, 51, 52, 53, 54, 55, 56, 57, 58, 59, 60, 61, 62, 63, 64, 65, 66, 67, 68, 69, 70, 71, 72, 73, 74, 75, 76, 77, 78, 79, 80, 81, 82, 83, 84, 85, 86, 87, 88, 89, 90, 91, 92, 93, 94, 95, 96, 97, 98, 99, 100, 101, 102, 103, 104, 105, 106, 107, 108, 109, 110, 111, 112, 113, 114, 115, 116, 117, 118, 119, 120, 121, 122, 123, 124, 125, 126, 127, 128, 129, 130, 131, 132, 133, 134, 135, 136, 137, 138, 139, 140, 141, 142, 143, 144, 145, 146, 147, 148, 149, 150, 151, 152, 153, 154, 155, 156, 157, 158, 159, 160, 161, 162, 163, 164, 165, 166, 167, 168, 169, 170, 171, 172, 173, 174, 175, 176, 177, 178, 179, 180, 181, 182, 183, 184, 185, 186, 187, 188, 189, 190, 191, 192, 193, 194, 195, 196, 197, 198, 199, 200, 201, 202, 203, 204, 205, 206, 207, 208, 209, 210, 211, 212, 213, 214, 215, 216, 217, 218, 219, 220, 221, 222, 223, 224, 225, 226, 227, 228, 229, 230, 231, 232, 233, 234, 235, 236, 237, 238, 239, 240, 241, 242, 243, 244, 245, 246, 247, 248, 249, 250, 251, 252, 253, 254, 255, 256, 257, 258, 259, 260, 261, 262, 263, 264, 265, 266, 267, 268, 269, 270, 271, 272, 273, 274, 275, 276, 277, 278, 279, 280, 281, 282, 283, 284, 285, 286, 287, 288, 289, 290, 291, 292, 293, 294, 295, 296, 297, 298, 299, 300, 301, 302, 303, 304, 305, 306, 307, 308, 309, 310, 311, 312, 313, 314, 315, 316, 317, 318, 319, 320, 321, 322, 323, 324, 325, 326, 327, 328, 329, 330, 331, 332, 333, 334, 335, 336, 337, 338, 339, 340, 341, 342, 343, 344, 345, 346, 347, 348, 349, 350, 351, 352, 353, 354, 355, 356, 357, 358, 359, 360, 361, 362, 363, 364, 365, 366, 367, 368, 369, 370, 371, 372, 373, 374, 375, 376, 377, 378, 379, 380, 381, 382, 383, 384, 385, 386, 387, 388, 389, 390, 391, 392, 393, 394, 395, 396, 397, 398, 399, 400, 401, 402, 403, 404, 405, 406, 407, 408, 409, 410, 411, 412, 413, 414, 415, 416, 417, 418, 419, 420, 421, 422, 423, 424, 425, 426, 427, 428, 429, 430, 431, 432, 433, 434, 435, 436, 437, 438, 439, 440, 441, 442, 443, 444, 445, 446, 447, 448, 449, 450, 451, 452, 453, 454, 455, 456, 457, 458, 459, 460, 461, 462, 463, 464, 465, 466, 467, 468, 469, 470, 471, 472, 473, 474, 475, 476, 477, 478, 479, 480, 481, 482, 483, 484, 485, 486, 487, 488, 489, 490, 491, 492, 493, 494, 495, 496, 497, 498, 499, 500, 501, 502, 503, 504, 505, 506, 507, 508, 509, 510, 511, 512, 513, 514, 515, 516, 517, 518, 519, 520, 521, 522, 523, 524, 525, 526, 527, 528, 529, 530, 531, 532, 533, 534, 535, 536, 537, 538, 539, 540, 541, 542, 543, 544, 545, 546, 547, 548, 549, 550, 551, 552, 553, 554, 555, 556, 557, 558, 559, 560, 561, 562, 563, 564, 565, 566, 567, 568, 569, 570, 571, 572, 573, 574, 575, 576, 577, 578, 579, 580, 581, 582, 583, 584, 585, 586, 587, 588, 589, 590, 591, 592, 593, 594, 595, 596, 597, 598, 599, 600, 601, 602, 603, 604, 605, 606, 607, 608, 609, 610, 611, 612, 613, 614, 615, 616, 617, 618, 619, 620, 621, 622, 623, 624, 625, 626, 627, 628, 629, 630, 631, 632, 633, 634, 635, 636, 637, 638, 639, 640, 641, 642, 643, 644, 645, 646, 647, 648, 649, 650, 651, 652, 653, 654, 655, 656, 657, 658, 659, 660, 661, 662, 663, 664, 665, 666, 667, 668, 669, 670, 671, 672, 673, 674, 675, 676, 677, 678, 679, 680, 681, 682, 683, 684, 685, 686, 687, 688, 689, 690, 691, 692, 693, 694, 695, 696, 697, 698, 699, 700, 701, 702, 703, 704, 705, 706, 707, 708, 709, 710, 711, 712, 713, 714, 715, 716, 717, 718, 719, 720, 721, 722, 723, 724, 725, 726, 727, 728, 729, 730, 731, 732, 733, 734, 735, 736, 737, 738, 739, 740, 741, 742, 743, 744, 745, 746, 747, 748, 749, 750, 751, 752, 753, 754, 755, 756, 757, 758, 759, 760, 761, 762, 763, 764, 765, 766, 767, 768, 769, 770, 771, 772, 773, 774, 775, 776, 777, 778, 779, 780, 781, 782, 783, 784, 785, 786, 787, 788, 789, 790, 791, 792, 793, 794, 795, 796, 797, 798, 799, 800, 801, 802, 803, 804, 805, 806, 807, 808, 809, 810, 811, 812, 813, 814, 815, 816, 817, 818, 819, 820, 821, 822, 823, 824, 825, 826, 827, 828, 829, 830, 831, 832, 833, 834, 835, 836, 837, 838, 839, 840, 841, 842, 843, 844, 845, 846, 847, 848, 849, 850, 851, 852, 853, 854, 855, 856, 857, 858, 859, 860, 861, 862, 863, 864, 865, 866, 867, 868, 869, 870, 871, 872, 873, 874, 875, 876, 877, 878, 879, 880, 881, 882, 883, 884, 885, 886, 887, 888, 889, 890, 891, 892, 893, 894, 895, 896, 897, 898, 899, 900, 901, 902, 903, 904, 905, 906, 907, 908, 909, 910, 911, 912, 913, 914, 915, 916, 917, 918, 919, 920, 921, 922, 923, 924, 925, 926, 927, 928, 929, 930, 931, 932, 933, 934, 935, 936, 937, 938, 939, 940, 941, 942, 943, 944, 945, 946, 947, 948, 949, 950, 951, 952, 953, 954, 955, 956, 957, 958, 959, 960, 961, 962, 963, 964, 965, 966, 967, 968, 969, 970, 971, 972, 973, 974, 975, 976, 977, 978, 979, 980, 981, 982, 983, 984, 985, 986, 987, 988, 989, 990, 991, 992, 993, 994, 995, 996, 997, 998, 999, 1000, 1001, 1002, 1003, 1004, 1005, 1006, 1007, 1008, 1009, 1010, 1011, 1012, 1013, 1014, 1015, 1016, 1017, 1018, 1019, 1020, 1021, 1022, 1023, 1024, 1025, 1026, 1027, 1028, 1029, 1030, 1031, 1032, 1033, 1034, 1035, 1036, 1037, 1038, 1039, 1040, 1041, 1042, 1043, 1044, 1045, 1046, 1047, 1048, 1049, 1050, 1051, 1052, 1053, 1054, 1055, 1056, 1057, 1058, 1059, 1060, 1061, 1062, 1063, 1064, 1065, 1066, 1067, 1068, 1069, 1070, 1071, 1072, 1073],
      "AcquisitionTime": ["110037.882500", "110038.342500", "110038.802500", "110039.262500", "110039.722500", "110040.182500", "110040.642500", "110041.102500", "110041.562500", "110042.022500", "110042.482500", "110042.942500", "110043.402500", "110043.862500", "110044.322500", "110044.782500", "110045.242500", "110045.702500", "110046.162500", "110046.622500", "110047.082500", "110047.542500", "110048.002500", "110048.462500", "110048.922500", "110049.382500", "110049.842500", "110050.302500", "110050.762500", "110051.222500", "110051.682500", "110052.142500", "110052.602500", "110053.062500", "110053.522500", "110053.982500", "110054.442500", "110054.902500", "110055.362500", "110055.822500", "110056.282500", "110056.742500", "110057.202500", "110057.662500", "110058.122500", "110058.582500", "110059.042500", "110059.502500", "110059.962500", "110100.422500", "110100.882500", "110101.342500", "110101.802500", "110102.262500", "110102.722500", "110103.182500", "110103.642500", "110104.102500", "110104.562500", "110105.022500", "110105.482500", "110105.942500", "110106.402500", "110106.862500", "110107.322500", "110107.782500", "110108.242500", "110108.702500", "110109.162500", "110109.622500", "110110.082500", "110110.542500", "110111.002500", "110111.462500", "110111.922500", "110112.382500", "110112.842500", "110113.302500", "110113.762500", "110114.222500", "110114.682500", "110115.142500", "110115.602500", "110116.062500", "110116.522500", "110116.982500", "110117.442500", "110117.902500", "110118.362500", "110118.822500", "110119.282500", "110119.742500", "110120.202500", "110120.662500", "110121.122500", "110121.582500", "110122.042500", "110122.502500", "110122.962500", "110123.422500", "110123.882500", "110124.342500", "110124.802500", "110125.262500", "110125.722500", "110126.182500", "110126.642500", "110127.102500", "110127.562500", "110128.022500", "110128.482500", "110128.942500", "110129.402500", "110129.862500", "110130.322500", "110130.782500", "110131.242500", "110131.702500", "110132.162500", "110132.622500", "110133.082500", "110133.542500", "110134.002500", "110134.462500", "110134.922500", "110135.382500", "110135.842500", "110136.302500", "110136.762500", "110137.222500", "110137.682500", "110138.142500", "110138.602500", "110139.062500", "110139.522500", "110139.982500", "110140.442500", "110140.902500", "110141.362500", "110141.822500", "110142.282500", "110142.742500", "110143.202500", "110143.662500", "110144.122500", "110144.582500", "110145.042500", "110145.502500", "110145.962500", "110146.422500", "110146.882500", "110147.342500", "110147.802500", "110148.262500", "110148.722500", "110149.182500", "110149.642500", "110150.102500", "110150.562500", "110151.022500", "110151.482500", "110151.942500", "110152.402500", "110152.862500", "110153.322500", "110153.782500", "110154.242500", "110154.702500", "110155.162500", "110155.622500", "110156.082500", "110156.542500", "110157.002500", "110157.462500", "110157.922500", "110158.382500", "110158.842500", "110159.302500", "110159.762500", "110200.222500", "110200.682500", "110201.142500", "110201.602500", "110202.062500", "110202.522500", "110202.982500", "110203.442500", "110203.902500", "110204.362500", "110204.822500", "110205.282500", "110205.742500", "110206.202500", "110206.662500", "110207.122500", "110207.582500", "110208.042500", "110208.502500", "110208.962500", "110209.422500", "110209.882500", "110210.342500", "110210.802500", "110211.262500", "110211.722500", "110212.182500", "110212.642500", "110213.102500", "110213.562500", "110214.022500", "110214.482500", "110214.942500", "110215.402500", "110215.862500", "110216.322500", "110216.782500", "110217.242500", "110217.702500", "110218.162500", "110218.622500", "110219.082500", "110219.542500", "110220.002500", "110220.462500", "110220.922500", "110221.382500", "110221.842500", "110222.302500", "110222.762500", "110223.222500", "110223.682500", "110224.142500", "110224.602500", "110225.062500", "110225.522500", "110225.982500", "110226.442500", "110226.902500", "110227.362500", "110227.822500", "110228.282500", "110228.742500", "110229.202500", "110229.662500", "110230.122500", "110230.582500", "110231.042500", "110231.502500", "110231.962500", "110232.422500", "110232.882500", "110233.342500", "110233.802500", "110234.262500", "110234.722500", "110235.182500", "110235.642500", "110236.102500", "110236.562500", "110237.022500", "110237.482500", "110237.942500", "110238.402500", "110238.862500", "110239.322500", "110239.782500", "110240.242500", "110240.702500", "110241.162500", "110241.622500", "110242.082500", "110242.542500", "110243.002500", "110243.462500", "110243.922500", "110244.382500", "110244.842500", "110245.302500", "110245.762500", "110246.222500", "110246.682500", "110247.142500", "110247.602500", "110248.062500", "110248.522500", "110248.982500", "110249.442500", "110249.902500", "110250.362500", "110250.822500", "110251.282500", "110251.742500", "110252.202500", "110252.662500", "110253.122500", "110253.582500", "110254.042500", "110254.502500", "110254.962500", "110255.422500", "110255.882500", "110256.342500", "110256.802500", "110257.262500", "110257.722500", "110258.182500", "110258.642500", "110259.102500", "110259.562500", "110300.022500", "110300.482500", "110300.942500", "110301.402500", "110301.862500", "110302.322500", "110302.782500", "110303.242500", "110303.702500", "110304.162500", "110304.622500", "110305.082500", "110305.542500", "110306.002500", "110306.462500", "110306.922500", "110307.382500", "110307.842500", "110308.302500", "110308.762500", "110309.222500", "110309.682500", "110310.142500", "110310.602500", "110311.062500", "110311.522500", "110311.982500", "110312.442500", "110312.902500", "110313.362500", "110313.822500", "110314.282500", "110314.742500", "110315.202500", "110315.662500", "110316.122500", "110316.582500", "110317.042500", "110317.502500", "110317.962500", "110318.422500", "110318.882500", "110319.342500", "110319.802500", "110320.262500", "110320.722500", "110321.182500", "110321.642500", "110322.102500", "110322.562500", "110323.022500", "110323.482500", "110323.942500", "110324.402500", "110324.862500", "110325.322500", "110325.782500", "110326.242500", "110326.702500", "110327.162500", "110327.622500", "110328.082500", "110328.542500", "110329.002500", "110329.462500", "110329.922500", "110330.382500", "110330.842500", "110331.302500", "110331.762500", "110332.222500", "110332.682500", "110333.142500", "110333.602500", "110334.062500", "110334.522500", "110334.982500", "110335.442500", "110335.902500", "110336.362500", "110336.822500", "110337.282500", "110337.742500", "110338.202500", "110338.662500", "110339.122500", "110339.582500", "110340.042500", "110340.502500", "110340.962500", "110341.422500", "110341.882500", "110342.342500", "110342.802500", "110343.262500", "110343.722500", "110344.182500", "110344.642500", "110345.102500", "110345.562500", "110346.022500", "110346.482500", "110346.942500", "110347.402500", "110347.862500", "110348.322500", "110348.782500", "110349.242500", "110349.702500", "110350.162500", "110350.622500", "110351.082500", "110351.542500", "110352.002500", "110352.462500", "110352.922500", "110353.382500", "110353.842500", "110354.302500", "110354.762500", "110355.222500", "110355.682500", "110356.142500", "110356.602500", "110357.062500", "110357.522500", "110357.982500", "110358.442500", "110358.902500", "110359.362500", "110359.822500", "110400.282500", "110400.742500", "110401.202500", "110401.662500", "110402.122500", "110402.582500", "110403.042500", "110403.502500", "110403.962500", "110404.422500", "110404.882500", "110405.342500", "110405.802500", "110406.262500", "110406.722500", "110407.182500", "110407.642500", "110408.102500", "110408.562500", "110409.022500", "110409.482500", "110409.942500", "110410.402500", "110410.862500", "110411.322500", "110411.782500", "110412.242500", "110412.702500", "110413.162500", "110413.622500", "110414.082500", "110414.542500", "110415.002500", "110415.462500", "110415.922500", "110416.382500", "110416.842500", "110417.302500", "110417.762500", "110418.222500", "110418.682500", "110419.142500", "110419.602500", "110420.062500", "110420.522500", "110420.982500", "110421.442500", "110421.902500", "110422.362500", "110422.822500", "110423.282500", "110423.742500", "110424.202500", "110424.662500", "110425.122500", "110425.582500", "110426.042500", "110426.502500", "110426.962500", "110427.422500", "110427.882500", "110428.342500", "110428.802500", "110429.262500", "110429.722500", "110430.182500", "110430.642500", "110431.102500", "110431.562500", "110432.022500", "110432.482500", "110432.942500", "110433.402500", "110433.862500", "110434.322500", "110434.782500", "110435.242500", "110435.702500", "110436.162500", "110436.622500", "110437.082500", "110437.542500", "110438.002500", "110438.462500", "110438.922500", "110439.382500", "110439.842500", "110440.302500", "110440.762500", "110441.222500", "110441.682500", "110442.142500", "110442.602500", "110443.062500", "110443.522500", "110443.982500", "110444.442500", "110444.902500", "110445.362500", "110445.822500", "110446.282500", "110446.742500", "110447.202500", "110447.662500", "110448.122500", "110448.582500", "110449.042500", "110449.502500", "110449.962500", "110450.422500", "110450.882500", "110451.342500", "110451.802500", "110452.262500", "110452.722500", "110453.182500", "110453.642500", "110454.102500", "110454.562500", "110455.022500", "110455.482500", "110455.942500", "110456.402500", "110456.862500", "110457.322500", "110457.782500", "110458.242500", "110458.702500", "110459.162500", "110459.622500", "110500.082500", "110500.542500", "110501.002500", "110501.462500", "110501.922500", "110502.382500", "110502.842500", "110503.302500", "110503.762500", "110504.222500", "110504.682500", "110505.142500", "110505.602500", "110506.062500", "110506.522500", "110506.982500", "110507.442500", "110507.902500", "110508.362500", "110508.822500", "110509.282500", "110509.742500", "110510.202500", "110510.662500", "110511.122500", "110511.582500", "110512.042500", "110512.502500", "110512.962500", "110513.422500", "110513.882500", "110514.342500", "110514.802500", "110515.262500", "110515.722500", "110516.182500", "110516.642500", "110517.102500", "110517.562500", "110518.022500", "110518.482500", "110518.942500", "110519.402500", "110519.862500", "110520.322500", "110520.782500", "110521.242500", "110521.702500", "110522.162500", "110522.622500", "110523.082500", "110523.542500", "110524.002500", "110524.462500", "110524.922500", "110525.382500", "110525.842500", "110526.302500", "110526.762500", "110527.222500", "110527.682500", "110528.142500", "110528.602500", "110529.062500", "110529.522500", "110529.982500", "110530.442500", "110530.902500", "110531.362500", "110531.822500", "110532.282500", "110532.742500", "110533.202500", "110533.662500", "110534.122500", "110534.582500", "110535.042500", "110535.502500", "110535.962500", "110536.422500", "110536.882500", "110537.342500", "110537.802500", "110538.262500", "110538.722500", "110539.182500", "110539.642500", "110540.102500", "110540.562500", "110541.022500", "110541.482500", "110541.942500", "110542.402500", "110542.862500", "110543.322500", "110543.782500", "110544.242500", "110544.702500", "110545.162500", "110545.622500", "110546.082500", "110546.542500", "110547.002500", "110547.462500", "110547.922500", "110548.382500", "110548.842500", "110549.302500", "110549.762500", "110550.222500", "110550.682500", "110551.142500", "110551.602500", "110552.062500", "110552.522500", "110552.982500", "110553.442500", "110553.902500", "110554.362500", "110554.822500", "110555.282500", "110555.742500", "110556.202500", "110556.662500", "110557.122500", "110557.582500", "110558.042500", "110558.502500", "110558.962500", "110559.422500", "110559.882500", "110600.342500", "110600.802500", "110601.262500", "110601.722500", "110602.182500", "110602.642500", "110603.102500", "110603.562500", "110604.022500", "110604.482500", "110604.942500", "110605.402500", "110605.862500", "110606.322500", "110606.782500", "110607.242500", "110607.702500", "110608.162500", "110608.622500", "110609.082500", "110609.542500", "110610.002500", "110610.462500", "110610.922500", "110611.382500", "110611.842500", "110612.302500", "110612.762500", "110613.222500", "110613.682500", "110614.142500", "110614.602500", "110615.062500", "110615.522500", "110615.982500", "110616.442500", "110616.902500", "110617.362500", "110617.822500", "110618.282500", "110618.742500", "110619.202500", "110619.662500", "110620.122500", "110620.582500", "110621.042500", "110621.502500", "110621.962500", "110622.422500", "110622.882500", "110623.342500", "110623.802500", "110624.262500", "110624.722500", "110625.182500", "110625.642500", "110626.102500", "110626.562500", "110627.022500", "110627.482500", "110627.942500", "110628.402500", "110628.862500", "110629.322500", "110629.782500", "110630.242500", "110630.702500", "110631.162500", "110631.622500", "110632.082500", "110632.542500", "110633.002500", "110633.462500", "110633.922500", "110634.382500", "110634.842500", "110635.302500", "110635.762500", "110636.222500", "110636.682500", "110637.142500", "110637.602500", "110638.062500", "110638.522500", "110638.982500", "110639.442500", "110639.902500", "110640.362500", "110640.822500", "110641.282500", "110641.742500", "110642.202500", "110642.662500", "110643.122500", "110643.582500", "110644.042500", "110644.502500", "110644.962500", "110645.422500", "110645.882500", "110646.342500", "110646.802500", "110647.262500", "110647.722500", "110648.182500", "110648.642500", "110649.102500", "110649.562500", "110650.022500", "110650.482500", "110650.942500", "110651.402500", "110651.862500", "110652.322500", "110652.782500", "110653.242500", "110653.702500", "110654.162500", "110654.622500", "110655.082500", "110655.542500", "110656.002500", "110656.462500", "110656.922500", "110657.382500", "110657.842500", "110658.302500", "110658.762500", "110659.222500", "110659.682500", "110700.142500", "110700.602500", "110701.062500", "110701.522500", "110701.982500", "110702.442500", "110702.902500", "110703.362500", "110703.822500", "110704.282500", "110704.742500", "110705.202500", "110705.662500", "110706.122500", "110706.582500", "110707.042500", "110707.502500", "110707.962500", "110708.422500", "110708.882500", "110709.342500", "110709.802500", "110710.262500", "110710.722500", "110711.182500", "110711.642500", "110712.102500", "110712.562500", "110713.022500", "110713.482500", "110713.942500", "110714.402500", "110714.862500", "110715.322500", "110715.782500", "110716.242500", "110716.702500", "110717.162500", "110717.622500", "110718.082500", "110718.542500", "110719.002500", "110719.462500", "110719.922500", "110720.382500", "110720.842500", "110721.302500", "110721.762500", "110722.222500", "110722.682500", "110723.142500", "110723.602500", "110724.062500", "110724.522500", "110724.982500", "110725.442500", "110725.902500", "110726.362500", "110726.822500", "110727.282500", "110727.742500", "110728.202500", "110728.662500", "110729.122500", "110729.582500", "110730.042500", "110730.502500", "110730.962500", "110731.422500", "110731.882500", "110732.342500", "110732.802500", "110733.262500", "110733.722500", "110734.182500", "110734.642500", "110735.102500", "110735.562500", "110736.022500", "110736.482500", "110736.942500", "110737.402500", "110737.862500", "110738.322500", "110738.782500", "110739.242500", "110739.702500", "110740.162500", "110740.622500", "110741.082500", "110741.542500", "110742.002500", "110742.462500", "110742.922500", "110743.382500", "110743.842500", "110744.302500", "110744.762500", "110745.222500", "110745.682500", "110746.142500", "110746.602500", "110747.062500", "110747.522500", "110747.982500", "110748.442500", "110748.902500", "110749.362500", "110749.822500", "110750.282500", "110750.742500", "110751.202500", "110751.662500", "110752.122500", "110752.582500", "110753.042500", "110753.502500", "110753.962500", "110754.422500", "110754.882500", "110755.342500", "110755.802500", "110756.262500", "110756.722500", "110757.182500", "110757.642500", "110758.102500", "110758.562500", "110759.022500", "110759.482500", "110759.942500", "110800.402500", "110800.862500", "110801.322500", "110801.782500", "110802.242500", "110802.702500", "110803.162500", "110803.622500", "110804.082500", "110804.542500", "110805.002500", "110805.462500", "110805.922500", "110806.382500", "110806.842500", "110807.302500", "110807.762500", "110808.222500", "110808.682500", "110809.142500", "110809.602500", "110810.062500", "110810.522500", "110810.982500", "110811.442500", "110811.902500", "110812.362500", "110812.822500", "110813.282500", "110813.742500", "110814.202500", "110814.662500", "110815.122500", "110815.582500", "110816.042500", "110816.502500", "110816.962500", "110817.422500", "110817.882500", "110818.342500", "110818.802500", "110819.262500", "110819.722500", "110820.182500", "110820.642500", "110821.102500", "110821.562500", "110822.022500", "110822.482500", "110822.942500", "110823.402500", "110823.862500", "110824.322500", "110824.782500", "110825.242500", "110825.702500", "110826.162500", "110826.622500", "110827.082500", "110827.542500", "110828.002500", "110828.462500", "110828.922500", "110829.382500", "110829.842500", "110830.302500", "110830.762500", "110831.222500", "110831.682500", "110832.142500", "110832.602500", "110833.062500", "110833.522500", "110833.982500", "110834.442500", "110834.902500", "110835.362500", "110835.822500", "110836.282500", "110836.742500", "110837.202500", "110837.662500", "110838.122500", "110838.582500", "110839.042500", "110839.502500", "110839.962500", "110840.422500", "110840.882500", "110841.342500", "110841.802500", "110842.262500", "110842.722500", "110843.182500", "110843.642500", "110844.102500", "110844.562500", "110845.022500", "110845.482500", "110845.942500", "110846.402500", "110846.862500", "110847.322500", "110847.782500", "110848.242500", "110848.702500", "110849.162500", "110849.622500", "110850.082500", "110850.542500", "110851.002500"],
