{
  "AcquisitionMatrixPE": 82,
  "AcquisitionNumber": 1,
  "AcquisitionTime": "11:20:0.827500",
  "BandwidthPerPixelPhaseEncode": 24.888,
  "BaseResolution": 82,
  "BodyPartExamined": "BRAIN",
  "ConsistencyInfo": "N4_VE11C_LATEST_20160120",
  "ConversionSoftware": "dcm2niix",
  "ConversionSoftwareVersion": "v1.0.20201102",
  "DerivedVendorReportedEchoSpacing": 0.00049,
  "DeviceSerialNumber": "66112",
  "DwellTime": 2e-06,
  "EchoTime": 0.0272,
  "EchoTrainLength": 82,
  "EffectiveEchoSpacing": 0.00049,
  "FlipAngle": 44,
  "ImageComments": "Unaliased MB8/PE3",
  "ImageOrientationPatientDICOM": [0.996315, -0.0521302, 0.0681143, 0.0400161, 0.984897, 0.168455],
  "ImageType": [
    "ORIGINAL",
    "PRIMARY",
    "FMRI",
    "NONE",
    "MB",
    "ND",
    "NORM",
    "MOSAIC"
],
  "ImagingFrequency": 123.252,
  "InPlanePhaseEncodingDirectionDICOM": "COL",
  "InstitutionAddress": "Maynard 3,Hanover,NH,US,03755",
  "InstitutionName": "Dartmouth College - PBS",
  "InstitutionalDepartmentName": "Department",
  "MRAcquisitionType": "2D",
  "MagneticFieldStrength": 3,
  "Manufacturer": "Siemens",
  "ManufacturersModelName": "Prisma",
  "Modality": "MR",
  "MultibandAccelerationFactor": 8,
  "PartialFourier": 1,
  "PatientPosition": "HFS",
  "PercentPhaseFOV": 100,
  "PercentSampling": 100,
  "PhaseEncodingDirection": "j-",
  "PhaseEncodingSteps": 82,
  "PhaseResolution": 1,
  "PixelBandwidth": 3050,
  "ProcedureStepDescription": "Wager_Wager^1076_spacetop",
  "ProtocolName": "func_run-03_task-alignvideo_acq-ap-mb8",
  "PulseSequenceDetails": "%CustomerSeq%\\cmrr_mbep2d_bold",
  "ReceiveCoilActiveElements": "HEA;HEP",
  "ReceiveCoilName": "Head_32",
  "ReconMatrixPE": 82,
  "RepetitionTime": 0.46,
  "SAR": 0.0845649,
  "ScanOptions": "FS",
  "ScanningSequence": "EP",
  "SequenceName": "epfid2d1_82",
  "SequenceVariant": "SK\\SS",
  "SeriesDescription": "func_run-03_task-alignvideo_acq-ap-mb8",
  "SeriesNumber": 52,
  "ShimSetting": [4164, -7777, -7223, 557, -70, -242, 110, 64],
  "SliceThickness": 2.7,
  "SliceTiming": [0, 0.25, 0.0625, 0.3125, 0.125, 0.3775, 0.1875, 0, 0.25, 0.0625, 0.3125, 0.125, 0.3775, 0.1875, 0, 0.25, 0.0625, 0.3125, 0.125, 0.3775, 0.1875, 0, 0.25, 0.0625, 0.3125, 0.125, 0.3775, 0.1875, 0, 0.25, 0.0625, 0.3125, 0.125, 0.3775, 0.1875, 0, 0.25, 0.0625, 0.3125, 0.125, 0.3775, 0.1875, 0, 0.25, 0.0625, 0.3125, 0.125, 0.3775, 0.1875, 0, 0.25, 0.0625, 0.3125, 0.125, 0.3775, 0.1875],
  "SoftwareVersions": "syngo MR E11",
  "SpacingBetweenSlices": 2.7,
  "StationName": "AWP66112",
  "TaskName": "alignvideo",
  "TotalReadoutTime": 0.03969,
  "TxRefAmp": 245.349,
  "WipMemBlock": "5c652c84-ad3e-4400-b158-bc7ee465e6ea||Sequence: R016 ve11c/master r/e634e98; Dec 19 2017 11:00:25 by eja",
  "dcmmeta_affine": [
    [-2.673039436340332, 0.10736031085252762, 0.20484139025211334, 104.33385467529297],
    [0.13986144959926605, 2.6424059867858887, 0.44579288363456726, -108.28345489501953],
    [0.1827457994222641, -0.45195233821868896, 2.6550536155700684, -41.95502853393555],
    [0.0, 0.0, 0.0, 1.0]
],
  "dcmmeta_reorient_transform": [
    [0.0, -1.0, 0.0, 81.0],
    [1.0, 0.0, 0.0, 0.0],
    [0.0, 0.0, 1.0, 0.0],
    [0.0, 0.0, 0.0, 1.0]
],
  "dcmmeta_shape": [82, 82, 56, 1016],
  "dcmmeta_slice_dim": 2,
  "dcmmeta_version": 0.6,
  "global": {
    "const": {
      "AccessionNumber": "A003533",
      "AcquisitionMatrix": [82, 0, 0, 82],
      "AngioFlag": "N",
      "BitsAllocated": 16,
      "BitsStored": 12,
      "BodyPartExamined": "BRAIN",
      "Columns": 656,
      "EchoNumbers": 1,
      "EchoTime": 27.2,
      "EchoTrainLength": 82,
      "FlipAngle": 44.0,
      "HighBit": 11,
      "ImageOrientationPatient": [0.99631464994109, -0.0521301729433, 0.06811434049944, 0.04001611353586, 0.98489676464912, 0.16845496027478],
      "ImagePositionPatient": [-911.0047458488, -823.98172477306, -260.72153606197],
      "ImageType": [
        "ORIGINAL",
        "PRIMARY",
        "FMRI",
        "NONE",
        "MB",
        "ND",
        "NORM",
        "MOSAIC"
],
      "ImagedNucleus": "1H",
      "ImagingFrequency": 123.252139,
      "InPlanePhaseEncodingDirection": "COL",
      "MRAcquisitionType": "2D",
      "MagneticFieldStrength": 3.0,
      "Manufacturer": "SIEMENS",
      "ManufacturerModelName": "Prisma",
      "Modality": "MR",
      "NumberOfAverages": 1.0,
      "NumberOfPhaseEncodingSteps": 82,
      "PercentPhaseFieldOfView": 100.0,
      "PercentSampling": 100.0,
      "PerformedProcedureStepStartTime": "082552.983000",
      "PhotometricInterpretation": "MONOCHROME2",
      "PixelBandwidth": 3050.0,
      "PixelRepresentation": 0,
      "PixelSpacing": [2.6829268932343, 2.6829268932343],
      "ProtocolName": "func_run-03_task-alignvideo_acq-ap-mb8",
      "RepetitionTime": 460.0,
      "Rows": 656,
      "SAR": 0.0845648941074,
      "SamplesPerPixel": 1,
      "ScanOptions": "FS",
      "ScanningSequence": "EP",
      "SequenceName": "epfid2d1_82",
      "SequenceVariant": [
        "SK",
        "SS"
],
      "SeriesDescription": "func_run-03_task-alignvideo_acq-ap-mb8",
      "SeriesNumber": 52,
      "SeriesTime": "112004.865000",
      "SliceLocation": -51.21961082074,
      "SliceThickness": 2.7000000476837,
      "SmallestImagePixelValue": 0,
      "SoftwareVersions": "syngo MR E11",
      "SpacingBetweenSlices": 2.7000000762655,
      "SpecificCharacterSet": "ISO_IR 100",
      "StudyID": "1",
      "StudyTime": "082552.898000",
      "TransmitCoilName": "Body",
      "VariableFlipAngleFlag": "N",
      "WindowCenterWidthExplanation": "Algo1",
      "dBdt": 0.0},
    "slices": {}
  },
  "time": {
    "samples": {
      "AcquisitionNumber": [1, 2, 3, 4, 5, 6, 7, 8, 9, 10, 11, 12, 13, 14, 15, 16, 17, 18, 19, 20, 21, 22, 23, 24, 25, 26, 27, 28, 29, 30, 31, 32, 33, 34, 35, 36, 37, 38, 39, 40, 41, 42, 43, 44, 45, 46, 47, 48, 49, 50, 51, 52, 53, 54, 55, 56, 57, 58, 59, 60, 61, 62, 63, 64, 65, 66, 67, 68, 69, 70, 71, 72, 73, 74, 75, 76, 77, 78, 79, 80, 81, 82, 83, 84, 85, 86, 87, 88, 89, 90, 91, 92, 93, 94, 95, 96, 97, 98, 99, 100, 101, 102, 103, 104, 105, 106, 107, 108, 109, 110, 111, 112, 113, 114, 115, 116, 117, 118, 119, 120, 121, 122, 123, 124, 125, 126, 127, 128, 129, 130, 131, 132, 133, 134, 135, 136, 137, 138, 139, 140, 141, 142, 143, 144, 145, 146, 147, 148, 149, 150, 151, 152, 153, 154, 155, 156, 157, 158, 159, 160, 161, 162, 163, 164, 165, 166, 167, 168, 169, 170, 171, 172, 173, 174, 175, 176, 177, 178, 179, 180, 181, 182, 183, 184, 185, 186, 187, 188, 189, 190, 191, 192, 193, 194, 195, 196, 197, 198, 199, 200, 201, 202, 203, 204, 205, 206, 207, 208, 209, 210, 211, 212, 213, 214, 215, 216, 217, 218, 219, 220, 221, 222, 223, 224, 225, 226, 227, 228, 229, 230, 231, 232, 233, 234, 235, 236, 237, 238, 239, 240, 241, 242, 243, 244, 245, 246, 247, 248, 249, 250, 251, 252, 253, 254, 255, 256, 257, 258, 259, 260, 261, 262, 263, 264, 265, 266, 267, 268, 269, 270, 271, 272, 273, 274, 275, 276, 277, 278, 279, 280, 281, 282, 283, 284, 285, 286, 287, 288, 289, 290, 291, 292, 293, 294, 295, 296, 297, 298, 299, 300, 301, 302, 303, 304, 305, 306, 307, 308, 309, 310, 311, 312, 313, 314, 315, 316, 317, 318, 319, 320, 321, 322, 323, 324, 325, 326, 327, 328, 329, 330, 331, 332, 333, 334, 335, 336, 337, 338, 339, 340, 341, 342, 343, 344, 345, 346, 347, 348, 349, 350, 351, 352, 353, 354, 355, 356, 357, 358, 359, 360, 361, 362, 363, 364, 365, 366, 367, 368, 369, 370, 371, 372, 373, 374, 375, 376, 377, 378, 379, 380, 381, 382, 383, 384, 385, 386, 387, 388, 389, 390, 391, 392, 393, 394, 395, 396, 397, 398, 399, 400, 401, 402, 403, 404, 405, 406, 407, 408, 409, 410, 411, 412, 413, 414, 415, 416, 417, 418, 419, 420, 421, 422, 423, 424, 425, 426, 427, 428, 429, 430, 431, 432, 433, 434, 435, 436, 437, 438, 439, 440, 441, 442, 443, 444, 445, 446, 447, 448, 449, 450, 451, 452, 453, 454, 455, 456, 457, 458, 459, 460, 461, 462, 463, 464, 465, 466, 467, 468, 469, 470, 471, 472, 473, 474, 475, 476, 477, 478, 479, 480, 481, 482, 483, 484, 485, 486, 487, 488, 489, 490, 491, 492, 493, 494, 495, 496, 497, 498, 499, 500, 501, 502, 503, 504, 505, 506, 507, 508, 509, 510, 511, 512, 513, 514, 515, 516, 517, 518, 519, 520, 521, 522, 523, 524, 525, 526, 527, 528, 529, 530, 531, 532, 533, 534, 535, 536, 537, 538, 539, 540, 541, 542, 543, 544, 545, 546, 547, 548, 549, 550, 551, 552, 553, 554, 555, 556, 557, 558, 559, 560, 561, 562, 563, 564, 565, 566, 567, 568, 569, 570, 571, 572, 573, 574, 575, 576, 577, 578, 579, 580, 581, 582, 583, 584, 585, 586, 587, 588, 589, 590, 591, 592, 593, 594, 595, 596, 597, 598, 599, 600, 601, 602, 603, 604, 605, 606, 607, 608, 609, 610, 611, 612, 613, 614, 615, 616, 617, 618, 619, 620, 621, 622, 623, 624, 625, 626, 627, 628, 629, 630, 631, 632, 633, 634, 635, 636, 637, 638, 639, 640, 641, 642, 643, 644, 645, 646, 647, 648, 649, 650, 651, 652, 653, 654, 655, 656, 657, 658, 659, 660, 661, 662, 663, 664, 665, 666, 667, 668, 669, 670, 671, 672, 673, 674, 675, 676, 677, 678, 679, 680, 681, 682, 683, 684, 685, 686, 687, 688, 689, 690, 691, 692, 693, 694, 695, 696, 697, 698, 699, 700, 701, 702, 703, 704, 705, 706, 707, 708, 709, 710, 711, 712, 713, 714, 715, 716, 717, 718, 719, 720, 721, 722, 723, 724, 725, 726, 727, 728, 729, 730, 731, 732, 733, 734, 735, 736, 737, 738, 739, 740, 741, 742, 743, 744, 745, 746, 747, 748, 749, 750, 751, 752, 753, 754, 755, 756, 757, 758, 759, 760, 761, 762, 763, 764, 765, 766, 767, 768, 769, 770, 771, 772, 773, 774, 775, 776, 777, 778, 779, 780, 781, 782, 783, 784, 785, 786, 787, 788, 789, 790, 791, 792, 793, 794, 795, 796, 797, 798, 799, 800, 801, 802, 803, 804, 805, 806, 807, 808, 809, 810, 811, 812, 813, 814, 815, 816, 817, 818, 819, 820, 821, 822, 823, 824, 825, 826, 827, 828, 829, 830, 831, 832, 833, 834, 835, 836, 837, 838, 839, 840, 841, 842, 843, 844, 845, 846, 847, 848, 849, 850, 851, 852, 853, 854, 855, 856, 857, 858, 859, 860, 861, 862, 863, 864, 865, 866, 867, 868, 869, 870, 871, 872, 873, 874, 875, 876, 877, 878, 879, 880, 881, 882, 883, 884, 885, 886, 887, 888, 889, 890, 891, 892, 893, 894, 895, 896, 897, 898, 899, 900, 901, 902, 903, 904, 905, 906, 907, 908, 909, 910, 911, 912, 913, 914, 915, 916, 917, 918, 919, 920, 921, 922, 923, 924, 925, 926, 927, 928, 929, 930, 931, 932, 933, 934, 935, 936, 937, 938, 939, 940, 941, 942, 943, 944, 945, 946, 947, 948, 949, 950, 951, 952, 953, 954, 955, 956, 957, 958, 959, 960, 961, 962, 963, 964, 965, 966, 967, 968, 969, 970, 971, 972, 973, 974, 975, 976, 977, 978, 979, 980, 981, 982, 983, 984, 985, 986, 987, 988, 989, 990, 991, 992, 993, 994, 995, 996, 997, 998, 999, 1000, 1001, 1002, 1003, 1004, 1005, 1006, 1007, 1008, 1009, 1010, 1011, 1012, 1013, 1014, 1015, 1016],
      "AcquisitionTime": ["112000.827500", "112001.287500", "112001.747500", "112002.207500", "112002.667500", "112003.127500", "112003.587500", "112004.047500", "112004.507500", "112004.967500", "112005.427500", "112005.887500", "112006.347500", "112006.807500", "112007.267500", "112007.727500", "112008.187500", "112008.647500", "112009.107500", "112009.567500", "112010.027500", "112010.487500", "112010.947500", "112011.407500", "112011.867500", "112012.327500", "112012.787500", "112013.247500", "112013.707500", "112014.167500", "112014.627500", "112015.087500", "112015.547500", "112016.007500", "112016.467500", "112016.927500", "112017.387500", "112017.847500", "112018.307500", "112018.767500", "112019.227500", "112019.687500", "112020.147500", "112020.607500", "112021.067500", "112021.527500", "112021.987500", "112022.447500", "112022.907500", "112023.367500", "112023.827500", "112024.287500", "112024.747500", "112025.207500", "112025.667500", "112026.127500", "112026.587500", "112027.047500", "112027.507500", "112027.967500", "112028.427500", "112028.887500", "112029.347500", "112029.807500", "112030.267500", "112030.727500", "112031.187500", "112031.647500", "112032.107500", "112032.567500", "112033.027500", "112033.487500", "112033.947500", "112034.407500", "112034.867500", "112035.327500", "112035.787500", "112036.247500", "112036.707500", "112037.167500", "112037.627500", "112038.087500", "112038.547500", "112039.007500", "112039.467500", "112039.927500", "112040.387500", "112040.847500", "112041.307500", "112041.767500", "112042.227500", "112042.687500", "112043.147500", "112043.607500", "112044.067500", "112044.527500", "112044.987500", "112045.447500", "112045.907500", "112046.367500", "112046.827500", "112047.287500", "112047.747500", "112048.207500", "112048.667500", "112049.127500", "112049.587500", "112050.047500", "112050.507500", "112050.967500", "112051.427500", "112051.887500", "112052.347500", "112052.807500", "112053.267500", "112053.727500", "112054.187500", "112054.647500", "112055.107500", "112055.567500", "112056.027500", "112056.487500", "112056.947500", "112057.407500", "112057.867500", "112058.327500", "112058.787500", "112059.247500", "112059.707500", "112100.167500", "112100.627500", "112101.087500", "112101.547500", "112102.007500", "112102.467500", "112102.927500", "112103.387500", "112103.847500", "112104.307500", "112104.767500", "112105.227500", "112105.687500", "112106.147500", "112106.607500", "112107.067500", "112107.527500", "112107.987500", "112108.447500", "112108.907500", "112109.367500", "112109.827500", "112110.287500", "112110.747500", "112111.207500", "112111.667500", "112112.127500", "112112.587500", "112113.047500", "112113.507500", "112113.967500", "112114.427500", "112114.887500", "112115.347500", "112115.807500", "112116.267500", "112116.727500", "112117.187500", "112117.647500", "112118.107500", "112118.567500", "112119.027500", "112119.487500", "112119.947500", "112120.407500", "112120.867500", "112121.327500", "112121.787500", "112122.247500", "112122.707500", "112123.167500", "112123.627500", "112124.087500", "112124.547500", "112125.007500", "112125.467500", "112125.927500", "112126.387500", "112126.847500", "112127.307500", "112127.767500", "112128.227500", "112128.687500", "112129.147500", "112129.607500", "112130.067500", "112130.527500", "112130.987500", "112131.447500", "112131.907500", "112132.367500", "112132.827500", "112133.287500", "112133.747500", "112134.207500", "112134.667500", "112135.127500", "112135.587500", "112136.047500", "112136.507500", "112136.967500", "112137.427500", "112137.887500", "112138.347500", "112138.807500", "112139.267500", "112139.727500", "112140.187500", "112140.647500", "112141.107500", "112141.567500", "112142.027500", "112142.487500", "112142.947500", "112143.407500", "112143.867500", "112144.327500", "112144.787500", "112145.247500", "112145.707500", "112146.167500", "112146.627500", "112147.087500", "112147.547500", "112148.007500", "112148.467500", "112148.927500", "112149.387500", "112149.847500", "112150.307500", "112150.767500", "112151.227500", "112151.687500", "112152.147500", "112152.607500", "112153.067500", "112153.527500", "112153.987500", "112154.447500", "112154.907500", "112155.367500", "112155.827500", "112156.287500", "112156.747500", "112157.207500", "112157.667500", "112158.127500", "112158.587500", "112159.047500", "112159.507500", "112159.967500", "112200.427500", "112200.887500", "112201.347500", "112201.807500", "112202.267500", "112202.727500", "112203.187500", "112203.647500", "112204.107500", "112204.567500", "112205.027500", "112205.487500", "112205.947500", "112206.407500", "112206.867500", "112207.327500", "112207.787500", "112208.247500", "112208.707500", "112209.167500", "112209.627500", "112210.087500", "112210.547500", "112211.007500", "112211.467500", "112211.927500", "112212.387500", "112212.847500", "112213.307500", "112213.767500", "112214.227500", "112214.687500", "112215.147500", "112215.607500", "112216.067500", "112216.527500", "112216.987500", "112217.447500", "112217.907500", "112218.367500", "112218.827500", "112219.287500", "112219.747500", "112220.207500", "112220.667500", "112221.127500", "112221.587500", "112222.047500", "112222.507500", "112222.967500", "112223.427500", "112223.887500", "112224.347500", "112224.807500", "112225.267500", "112225.727500", "112226.187500", "112226.647500", "112227.107500", "112227.567500", "112228.027500", "112228.487500", "112228.947500", "112229.407500", "112229.867500", "112230.327500", "112230.787500", "112231.247500", "112231.707500", "112232.167500", "112232.627500", "112233.087500", "112233.547500", "112234.007500", "112234.467500", "112234.927500", "112235.387500", "112235.847500", "112236.307500", "112236.767500", "112237.227500", "112237.687500", "112238.147500", "112238.607500", "112239.067500", "112239.527500", "112239.987500", "112240.447500", "112240.907500", "112241.367500", "112241.827500", "112242.287500", "112242.747500", "112243.207500", "112243.667500", "112244.127500", "112244.587500", "112245.047500", "112245.507500", "112245.967500", "112246.427500", "112246.887500", "112247.347500", "112247.807500", "112248.267500", "112248.727500", "112249.187500", "112249.647500", "112250.107500", "112250.567500", "112251.027500", "112251.487500", "112251.947500", "112252.407500", "112252.867500", "112253.327500", "112253.787500", "112254.247500", "112254.707500", "112255.167500", "112255.627500", "112256.087500", "112256.547500", "112257.007500", "112257.467500", "112257.927500", "112258.387500", "112258.847500", "112259.307500", "112259.767500", "112300.227500", "112300.687500", "112301.147500", "112301.607500", "112302.067500", "112302.527500", "112302.987500", "112303.447500", "112303.907500", "112304.367500", "112304.827500", "112305.287500", "112305.747500", "112306.207500", "112306.667500", "112307.127500", "112307.587500", "112308.047500", "112308.507500", "112308.967500", "112309.427500", "112309.887500", "112310.347500", "112310.807500", "112311.267500", "112311.727500", "112312.187500", "112312.647500", "112313.107500", "112313.567500", "112314.027500", "112314.487500", "112314.947500", "112315.407500", "112315.867500", "112316.327500", "112316.787500", "112317.247500", "112317.707500", "112318.167500", "112318.627500", "112319.087500", "112319.547500", "112320.007500", "112320.467500", "112320.927500", "112321.387500", "112321.847500", "112322.307500", "112322.767500", "112323.227500", "112323.687500", "112324.147500", "112324.607500", "112325.067500", "112325.527500", "112325.987500", "112326.447500", "112326.907500", "112327.367500", "112327.827500", "112328.287500", "112328.747500", "112329.207500", "112329.667500", "112330.127500", "112330.587500", "112331.047500", "112331.507500", "112331.967500", "112332.427500", "112332.887500", "112333.347500", "112333.807500", "112334.267500", "112334.727500", "112335.187500", "112335.647500", "112336.107500", "112336.567500", "112337.027500", "112337.487500", "112337.947500", "112338.407500", "112338.867500", "112339.327500", "112339.787500", "112340.247500", "112340.707500", "112341.167500", "112341.627500", "112342.087500", "112342.547500", "112343.007500", "112343.467500", "112343.927500", "112344.387500", "112344.847500", "112345.307500", "112345.767500", "112346.227500", "112346.687500", "112347.147500", "112347.607500", "112348.067500", "112348.527500", "112348.987500", "112349.447500", "112349.907500", "112350.367500", "112350.827500", "112351.287500", "112351.747500", "112352.207500", "112352.667500", "112353.127500", "112353.587500", "112354.047500", "112354.507500", "112354.967500", "112355.427500", "112355.887500", "112356.347500", "112356.807500", "112357.267500", "112357.727500", "112358.187500", "112358.647500", "112359.107500", "112359.567500", "112400.027500", "112400.487500", "112400.947500", "112401.407500", "112401.867500", "112402.327500", "112402.787500", "112403.247500", "112403.707500", "112404.167500", "112404.627500", "112405.087500", "112405.547500", "112406.007500", "112406.467500", "112406.927500", "112407.387500", "112407.847500", "112408.307500", "112408.767500", "112409.227500", "112409.687500", "112410.147500", "112410.607500", "112411.067500", "112411.527500", "112411.987500", "112412.447500", "112412.907500", "112413.367500", "112413.827500", "112414.287500", "112414.747500", "112415.207500", "112415.667500", "112416.127500", "112416.587500", "112417.047500", "112417.507500", "112417.967500", "112418.427500", "112418.887500", "112419.347500", "112419.807500", "112420.267500", "112420.727500", "112421.187500", "112421.647500", "112422.107500", "112422.567500", "112423.027500", "112423.487500", "112423.947500", "112424.407500", "112424.867500", "112425.327500", "112425.787500", "112426.247500", "112426.707500", "112427.167500", "112427.627500", "112428.087500", "112428.547500", "112429.007500", "112429.467500", "112429.927500", "112430.387500", "112430.847500", "112431.307500", "112431.767500", "112432.227500", "112432.687500", "112433.147500", "112433.607500", "112434.067500", "112434.527500", "112434.987500", "112435.447500", "112435.907500", "112436.367500", "112436.827500", "112437.287500", "112437.747500", "112438.207500", "112438.667500", "112439.127500", "112439.587500", "112440.047500", "112440.507500", "112440.967500", "112441.427500", "112441.887500", "112442.347500", "112442.807500", "112443.267500", "112443.727500", "112444.187500", "112444.647500", "112445.107500", "112445.567500", "112446.027500", "112446.487500", "112446.947500", "112447.407500", "112447.867500", "112448.327500", "112448.787500", "112449.247500", "112449.707500", "112450.167500", "112450.627500", "112451.087500", "112451.547500", "112452.007500", "112452.467500", "112452.927500", "112453.387500", "112453.847500", "112454.307500", "112454.767500", "112455.227500", "112455.687500", "112456.147500", "112456.607500", "112457.067500", "112457.527500", "112457.987500", "112458.447500", "112458.907500", "112459.367500", "112459.827500", "112500.287500", "112500.747500", "112501.207500", "112501.667500", "112502.127500", "112502.587500", "112503.047500", "112503.507500", "112503.967500", "112504.427500", "112504.887500", "112505.347500", "112505.807500", "112506.267500", "112506.727500", "112507.187500", "112507.647500", "112508.107500", "112508.567500", "112509.027500", "112509.487500", "112509.947500", "112510.407500", "112510.867500", "112511.327500", "112511.787500", "112512.247500", "112512.707500", "112513.167500", "112513.627500", "112514.087500", "112514.547500", "112515.007500", "112515.467500", "112515.927500", "112516.387500", "112516.847500", "112517.307500", "112517.767500", "112518.227500", "112518.687500", "112519.147500", "112519.607500", "112520.067500", "112520.527500", "112520.987500", "112521.447500", "112521.907500", "112522.367500", "112522.827500", "112523.287500", "112523.747500", "112524.207500", "112524.667500", "112525.127500", "112525.587500", "112526.047500", "112526.507500", "112526.967500", "112527.427500", "112527.887500", "112528.347500", "112528.807500", "112529.267500", "112529.727500", "112530.187500", "112530.647500", "112531.107500", "112531.567500", "112532.027500", "112532.487500", "112532.947500", "112533.407500", "112533.867500", "112534.327500", "112534.787500", "112535.247500", "112535.707500", "112536.167500", "112536.627500", "112537.087500", "112537.547500", "112538.007500", "112538.467500", "112538.927500", "112539.387500", "112539.847500", "112540.307500", "112540.767500", "112541.227500", "112541.687500", "112542.147500", "112542.607500", "112543.067500", "112543.527500", "112543.987500", "112544.447500", "112544.907500", "112545.367500", "112545.827500", "112546.287500", "112546.747500", "112547.207500", "112547.667500", "112548.127500", "112548.587500", "112549.047500", "112549.507500", "112549.967500", "112550.427500", "112550.887500", "112551.347500", "112551.807500", "112552.267500", "112552.727500", "112553.187500", "112553.647500", "112554.107500", "112554.567500", "112555.027500", "112555.487500", "112555.947500", "112556.407500", "112556.867500", "112557.327500", "112557.787500", "112558.247500", "112558.707500", "112559.167500", "112559.627500", "112600.087500", "112600.547500", "112601.007500", "112601.467500", "112601.927500", "112602.387500", "112602.847500", "112603.307500", "112603.767500", "112604.227500", "112604.687500", "112605.147500", "112605.607500", "112606.067500", "112606.527500", "112606.987500", "112607.447500", "112607.907500", "112608.367500", "112608.827500", "112609.287500", "112609.747500", "112610.207500", "112610.667500", "112611.127500", "112611.587500", "112612.047500", "112612.507500", "112612.967500", "112613.427500", "112613.887500", "112614.347500", "112614.807500", "112615.267500", "112615.727500", "112616.187500", "112616.647500", "112617.107500", "112617.567500", "112618.027500", "112618.487500", "112618.947500", "112619.407500", "112619.867500", "112620.327500", "112620.787500", "112621.247500", "112621.707500", "112622.167500", "112622.627500", "112623.087500", "112623.547500", "112624.007500", "112624.467500", "112624.927500", "112625.387500", "112625.847500", "112626.307500", "112626.767500", "112627.227500", "112627.687500", "112628.147500", "112628.607500", "112629.067500", "112629.527500", "112629.987500", "112630.447500", "112630.907500", "112631.367500", "112631.827500", "112632.287500", "112632.747500", "112633.207500", "112633.667500", "112634.127500", "112634.587500", "112635.047500", "112635.507500", "112635.967500", "112636.427500", "112636.887500", "112637.347500", "112637.807500", "112638.267500", "112638.727500", "112639.187500", "112639.647500", "112640.107500", "112640.567500", "112641.027500", "112641.487500", "112641.947500", "112642.407500", "112642.867500", "112643.327500", "112643.787500", "112644.247500", "112644.707500", "112645.167500", "112645.627500", "112646.087500", "112646.547500", "112647.007500", "112647.467500", "112647.927500", "112648.387500", "112648.847500", "112649.307500", "112649.767500", "112650.227500", "112650.687500", "112651.147500", "112651.607500", "112652.067500", "112652.527500", "112652.987500", "112653.447500", "112653.907500", "112654.367500", "112654.827500", "112655.287500", "112655.747500", "112656.207500", "112656.667500", "112657.127500", "112657.587500", "112658.047500", "112658.507500", "112658.967500", "112659.427500", "112659.887500", "112700.347500", "112700.807500", "112701.267500", "112701.727500", "112702.187500", "112702.647500", "112703.107500", "112703.567500", "112704.027500", "112704.487500", "112704.947500", "112705.407500", "112705.867500", "112706.327500", "112706.787500", "112707.247500", "112707.707500", "112708.167500", "112708.627500", "112709.087500", "112709.547500", "112710.007500", "112710.467500", "112710.927500", "112711.387500", "112711.847500", "112712.307500", "112712.767500", "112713.227500", "112713.687500", "112714.147500", "112714.607500", "112715.067500", "112715.527500", "112715.987500", "112716.447500", "112716.907500", "112717.367500", "112717.827500", "112718.287500", "112718.747500", "112719.207500", "112719.667500", "112720.127500", "112720.587500", "112721.047500", "112721.507500", "112721.967500", "112722.427500", "112722.887500", "112723.347500", "112723.807500", "112724.267500", "112724.727500", "112725.187500", "112725.647500", "112726.107500", "112726.567500", "112727.027500", "112727.487500", "112727.947500", "112728.407500", "112728.867500", "112729.327500", "112729.787500", "112730.247500", "112730.707500", "112731.167500", "112731.627500", "112732.087500", "112732.547500", "112733.007500", "112733.467500", "112733.927500", "112734.387500", "112734.847500", "112735.307500", "112735.767500", "112736.227500", "112736.687500", "112737.147500", "112737.607500", "112738.067500", "112738.527500", "112738.987500", "112739.447500", "112739.907500", "112740.367500", "112740.827500", "112741.287500", "112741.747500", "112742.207500", "112742.667500", "112743.127500", "112743.587500", "112744.047500", "112744.507500", "112744.967500", "112745.427500", "112745.887500", "112746.347500", "112746.807500", "112747.267500", "112747.727500"],
