{
  "AcquisitionMatrixPE": 82,
  "AcquisitionNumber": 1,
  "AcquisitionTime": "18:49:10.765000",
  "BandwidthPerPixelPhaseEncode": 24.888,
  "BaseResolution": 82,
  "BodyPartExamined": "BRAIN",
  "ConsistencyInfo": "N4_VE11E_LATEST_20181129",
  "ConversionSoftware": "dcm2niix",
  "ConversionSoftwareVersion": "v1.0.20201102",
  "DerivedVendorReportedEchoSpacing": 0.00049,
  "DeviceSerialNumber": "66112",
  "DwellTime": 2e-06,
  "EchoTime": 0.0272,
  "EchoTrainLength": 82,
  "EffectiveEchoSpacing": 0.00049,
  "FlipAngle": 44,
  "ImageComments": "Unaliased MB8/PE3",
  "ImageOrientationPatientDICOM": [0.998769, 0.0101333, -0.0485635, -0.0099364, 0.999941, 0.00429369],
  "ImageType": [
    "ORIGINAL",
    "PRIMARY",
    "M",
    "MB",
    "ND",
    "NORM",
    "MOSAIC"
],
  "ImagingFrequency": 123.259,
  "InPlanePhaseEncodingDirectionDICOM": "COL",
  "InstitutionAddress": "Maynard 3,Hanover,NH,US,03755",
  "InstitutionName": "Dartmouth College - PBS",
  "InstitutionalDepartmentName": "Department",
  "MRAcquisitionType": "2D",
  "MagneticFieldStrength": 3,
  "Manufacturer": "Siemens",
  "ManufacturersModelName": "Prisma",
  "Modality": "MR",
  "MultibandAccelerationFactor": 8,
  "PartialFourier": 1,
  "PatientPosition": "HFS",
  "PercentPhaseFOV": 100,
  "PercentSampling": 100,
  "PhaseEncodingDirection": "j-",
  "PhaseEncodingSteps": 82,
  "PhaseResolution": 1,
  "PixelBandwidth": 3050,
  "ProcedureStepDescription": "Wager_Wager^1076_spacetop",
  "ProtocolName": "func_run-03_task-social_acq-ap-mb8",
  "PulseSequenceDetails": "%CustomerSeq%\\cmrr_mbep2d_bold",
  "ReceiveCoilActiveElements": "HEA;HEP",
  "ReceiveCoilName": "Head_32",
  "ReconMatrixPE": 82,
  "RepetitionTime": 0.46,
  "SAR": 0.0688445,
  "ScanOptions": "FS",
  "ScanningSequence": "EP",
  "SequenceName": "epfid2d1_82",
  "SequenceVariant": "SK\\SS",
  "SeriesDescription": "func_run-03_task-social_acq-ap-mb8",
  "SeriesNumber": 12,
  "ShimSetting": [4211, -7734, -7224, 326, -60, -4, 49, 142],
  "SliceThickness": 2.7,
  "SliceTiming": [0, 0.2525, 0.0625, 0.315, 0.125, 0.3775, 0.1875, 0, 0.2525, 0.0625, 0.315, 0.125, 0.3775, 0.1875, 0, 0.2525, 0.0625, 0.315, 0.125, 0.3775, 0.1875, 0, 0.2525, 0.0625, 0.315, 0.125, 0.3775, 0.1875, 0, 0.2525, 0.0625, 0.315, 0.125, 0.3775, 0.1875, 0, 0.2525, 0.0625, 0.315, 0.125, 0.3775, 0.1875, 0, 0.2525, 0.0625, 0.315, 0.125, 0.3775, 0.1875, 0, 0.2525, 0.0625, 0.315, 0.125, 0.3775, 0.1875],
  "SoftwareVersions": "syngo MR E11",
  "SpacingBetweenSlices": 2.7,
  "StationName": "AWP66112",
  "TaskName": "social",
  "TotalReadoutTime": 0.03969,
  "TxRefAmp": 222.594,
  "WipMemBlock": "c8697183-bc0f-4221-ab7f-cb99392577c1||Sequence: R016 ve11e/master r/434b28f1; Aug  7 2019 18:53:46 by eja",
  "dcmmeta_affine": [
    [-2.6796233654022217, -0.02665862813591957, -0.1312311440706253, 118.07454681396484],
    [-0.027186831459403038, 2.682769775390625, 0.010275820270180702, -106.09562683105469],
    [-0.13029220700263977, -0.011519662104547024, 2.696789503097534, -63.600826263427734],
    [0.0, 0.0, 0.0, 1.0]
],
  "dcmmeta_reorient_transform": [
    [0.0, -1.0, 0.0, 81.0],
    [1.0, 0.0, 0.0, 0.0],
    [0.0, 0.0, 1.0, 0.0],
    [0.0, 0.0, 0.0, 1.0]
],
  "dcmmeta_shape": [82, 82, 56, 872],
  "dcmmeta_slice_dim": 2,
  "dcmmeta_version": 0.6,
  "global": {
    "const": {
      "AccessionNumber": "A004931",
      "AcquisitionMatrix": [82, 0, 0, 82],
      "AngioFlag": "N",
      "BitsAllocated": 16,
      "BitsStored": 16,
      "BodyPartExamined": "BRAIN",
      "Columns": 656,
      "EchoNumbers": 1,
      "EchoTime": 27.2,
      "EchoTrainLength": 82,
      "FlipAngle": 44.0,
      "HighBit": 15,
      "ImageOrientationPatient": [0.99876869551654, 0.01013327301887, -0.0485634598657, -0.0099363975424, 0.99994141438994, 0.00429369208679],
      "ImagePositionPatient": [-877.31608586614, -888.96624658385, -30.446198396468],
      "ImageType": [
        "ORIGINAL",
        "PRIMARY",
        "M",
        "MB",
        "ND",
        "NORM",
        "MOSAIC"
],
      "ImagedNucleus": "1H",
      "ImagingFrequency": 123.259037,
      "InPlanePhaseEncodingDirection": "COL",
      "MRAcquisitionType": "2D",
      "MagneticFieldStrength": 3.0,
      "Manufacturer": "SIEMENS",
      "ManufacturerModelName": "Prisma",
      "Modality": "MR",
      "NumberOfAverages": 1.0,
      "NumberOfPhaseEncodingSteps": 82,
      "PercentPhaseFieldOfView": 100.0,
      "PercentSampling": 100.0,
      "PerformedProcedureStepStartTime": "181747.286000",
      "PhotometricInterpretation": "MONOCHROME2",
      "PixelBandwidth": 3050.0,
      "PixelRepresentation": 0,
      "PixelSpacing": [2.6829268932343, 2.6829268932343],
      "ProtocolName": "func_run-03_task-social_acq-ap-mb8",
      "RepetitionTime": 460.0,
      "Rows": 656,
      "SAR": 0.06884451535038,
      "SamplesPerPixel": 1,
      "ScanOptions": "FS",
      "ScanningSequence": "EP",
      "SequenceName": "epfid2d1_82",
      "SequenceVariant": [
        "SK",
        "SS"
],
      "SeriesDescription": "func_run-03_task-social_acq-ap-mb8",
      "SeriesNumber": 12,
      "SeriesTime": "184934.698000",
      "SliceLocation": -69.667893106773,
      "SliceThickness": 2.7000000476837,
      "SmallestImagePixelValue": 0,
      "SoftwareVersions": "syngo MR E11",
      "SpacingBetweenSlices": 2.7000000621353,
      "SpecificCharacterSet": "ISO_IR 100",
      "StudyID": "3",
      "StudyTime": "181747.250000",
      "TransmitCoilName": "Body",
      "VariableFlipAngleFlag": "N",
      "WindowCenterWidthExplanation": "Algo1"
    },
    "slices": {}
  },
  "time": {
    "samples": {
      "AcquisitionNumber": [1, 2, 3, 4, 5, 6, 7, 8, 9, 10, 11, 12, 13, 14, 15, 16, 17, 18, 19, 20, 21, 22, 23, 24, 25, 26, 27, 28, 29, 30, 31, 32, 33, 34, 35, 36, 37, 38, 39, 40, 41, 42, 43, 44, 45, 46, 47, 48, 49, 50, 51, 52, 53, 54, 55, 56, 57, 58, 59, 60, 61, 62, 63, 64, 65, 66, 67, 68, 69, 70, 71, 72, 73, 74, 75, 76, 77, 78, 79, 80, 81, 82, 83, 84, 85, 86, 87, 88, 89, 90, 91, 92, 93, 94, 95, 96, 97, 98, 99, 100, 101, 102, 103, 104, 105, 106, 107, 108, 109, 110, 111, 112, 113, 114, 115, 116, 117, 118, 119, 120, 121, 122, 123, 124, 125, 126, 127, 128, 129, 130, 131, 132, 133, 134, 135, 136, 137, 138, 139, 140, 141, 142, 143, 144, 145, 146, 147, 148, 149, 150, 151, 152, 153, 154, 155, 156, 157, 158, 159, 160, 161, 162, 163, 164, 165, 166, 167, 168, 169, 170, 171, 172, 173, 174, 175, 176, 177, 178, 179, 180, 181, 182, 183, 184, 185, 186, 187, 188, 189, 190, 191, 192, 193, 194, 195, 196, 197, 198, 199, 200, 201, 202, 203, 204, 205, 206, 207, 208, 209, 210, 211, 212, 213, 214, 215, 216, 217, 218, 219, 220, 221, 222, 223, 224, 225, 226, 227, 228, 229, 230, 231, 232, 233, 234, 235, 236, 237, 238, 239, 240, 241, 242, 243, 244, 245, 246, 247, 248, 249, 250, 251, 252, 253, 254, 255, 256, 257, 258, 259, 260, 261, 262, 263, 264, 265, 266, 267, 268, 269, 270, 271, 272, 273, 274, 275, 276, 277, 278, 279, 280, 281, 282, 283, 284, 285, 286, 287, 288, 289, 290, 291, 292, 293, 294, 295, 296, 297, 298, 299, 300, 301, 302, 303, 304, 305, 306, 307, 308, 309, 310, 311, 312, 313, 314, 315, 316, 317, 318, 319, 320, 321, 322, 323, 324, 325, 326, 327, 328, 329, 330, 331, 332, 333, 334, 335, 336, 337, 338, 339, 340, 341, 342, 343, 344, 345, 346, 347, 348, 349, 350, 351, 352, 353, 354, 355, 356, 357, 358, 359, 360, 361, 362, 363, 364, 365, 366, 367, 368, 369, 370, 371, 372, 373, 374, 375, 376, 377, 378, 379, 380, 381, 382, 383, 384, 385, 386, 387, 388, 389, 390, 391, 392, 393, 394, 395, 396, 397, 398, 399, 400, 401, 402, 403, 404, 405, 406, 407, 408, 409, 410, 411, 412, 413, 414, 415, 416, 417, 418, 419, 420, 421, 422, 423, 424, 425, 426, 427, 428, 429, 430, 431, 432, 433, 434, 435, 436, 437, 438, 439, 440, 441, 442, 443, 444, 445, 446, 447, 448, 449, 450, 451, 452, 453, 454, 455, 456, 457, 458, 459, 460, 461, 462, 463, 464, 465, 466, 467, 468, 469, 470, 471, 472, 473, 474, 475, 476, 477, 478, 479, 480, 481, 482, 483, 484, 485, 486, 487, 488, 489, 490, 491, 492, 493, 494, 495, 496, 497, 498, 499, 500, 501, 502, 503, 504, 505, 506, 507, 508, 509, 510, 511, 512, 513, 514, 515, 516, 517, 518, 519, 520, 521, 522, 523, 524, 525, 526, 527, 528, 529, 530, 531, 532, 533, 534, 535, 536, 537, 538, 539, 540, 541, 542, 543, 544, 545, 546, 547, 548, 549, 550, 551, 552, 553, 554, 555, 556, 557, 558, 559, 560, 561, 562, 563, 564, 565, 566, 567, 568, 569, 570, 571, 572, 573, 574, 575, 576, 577, 578, 579, 580, 581, 582, 583, 584, 585, 586, 587, 588, 589, 590, 591, 592, 593, 594, 595, 596, 597, 598, 599, 600, 601, 602, 603, 604, 605, 606, 607, 608, 609, 610, 611, 612, 613, 614, 615, 616, 617, 618, 619, 620, 621, 622, 623, 624, 625, 626, 627, 628, 629, 630, 631, 632, 633, 634, 635, 636, 637, 638, 639, 640, 641, 642, 643, 644, 645, 646, 647, 648, 649, 650, 651, 652, 653, 654, 655, 656, 657, 658, 659, 660, 661, 662, 663, 664, 665, 666, 667, 668, 669, 670, 671, 672, 673, 674, 675, 676, 677, 678, 679, 680, 681, 682, 683, 684, 685, 686, 687, 688, 689, 690, 691, 692, 693, 694, 695, 696, 697, 698, 699, 700, 701, 702, 703, 704, 705, 706, 707, 708, 709, 710, 711, 712, 713, 714, 715, 716, 717, 718, 719, 720, 721, 722, 723, 724, 725, 726, 727, 728, 729, 730, 731, 732, 733, 734, 735, 736, 737, 738, 739, 740, 741, 742, 743, 744, 745, 746, 747, 748, 749, 750, 751, 752, 753, 754, 755, 756, 757, 758, 759, 760, 761, 762, 763, 764, 765, 766, 767, 768, 769, 770, 771, 772, 773, 774, 775, 776, 777, 778, 779, 780, 781, 782, 783, 784, 785, 786, 787, 788, 789, 790, 791, 792, 793, 794, 795, 796, 797, 798, 799, 800, 801, 802, 803, 804, 805, 806, 807, 808, 809, 810, 811, 812, 813, 814, 815, 816, 817, 818, 819, 820, 821, 822, 823, 824, 825, 826, 827, 828, 829, 830, 831, 832, 833, 834, 835, 836, 837, 838, 839, 840, 841, 842, 843, 844, 845, 846, 847, 848, 849, 850, 851, 852, 853, 854, 855, 856, 857, 858, 859, 860, 861, 862, 863, 864, 865, 866, 867, 868, 869, 870, 871, 872],
      "AcquisitionTime": ["184910.765000", "184911.225000", "184911.685000", "184912.145000", "184912.605000", "184913.065000", "184913.525000", "184913.985000", "184914.445000", "184914.905000", "184915.365000", "184915.825000", "184916.285000", "184916.745000", "184917.205000", "184917.665000", "184918.125000", "184918.585000", "184919.045000", "184919.505000", "184919.965000", "184920.425000", "184920.885000", "184921.345000", "184921.805000", "184922.265000", "184922.725000", "184923.185000", "184923.645000", "184924.105000", "184924.565000", "184925.025000", "184925.485000", "184925.945000", "184926.405000", "184926.865000", "184927.325000", "184927.785000", "184928.245000", "184928.705000", "184929.165000", "184929.625000", "184930.085000", "184930.545000", "184931.005000", "184931.465000", "184931.925000", "184932.385000", "184932.845000", "184933.305000", "184933.765000", "184934.225000", "184934.685000", "184935.145000", "184935.605000", "184936.065000", "184936.525000", "184936.985000", "184937.445000", "184937.905000", "184938.365000", "184938.825000", "184939.285000", "184939.745000", "184940.205000", "184940.665000", "184941.125000", "184941.585000", "184942.045000", "184942.505000", "184942.965000", "184943.425000", "184943.885000", "184944.345000", "184944.805000", "184945.265000", "184945.725000", "184946.185000", "184946.645000", "184947.105000", "184947.565000", "184948.025000", "184948.485000", "184948.945000", "184949.405000", "184949.865000", "184950.325000", "184950.785000", "184951.245000", "184951.705000", "184952.165000", "184952.625000", "184953.085000", "184953.545000", "184954.005000", "184954.465000", "184954.925000", "184955.385000", "184955.845000", "184956.305000", "184956.765000", "184957.225000", "184957.685000", "184958.145000", "184958.605000", "184959.065000", "184959.525000", "184959.985000", "185000.445000", "185000.905000", "185001.365000", "185001.825000", "185002.285000", "185002.745000", "185003.205000", "185003.665000", "185004.125000", "185004.585000", "185005.045000", "185005.505000", "185005.965000", "185006.425000", "185006.885000", "185007.345000", "185007.805000", "185008.265000", "185008.725000", "185009.185000", "185009.645000", "185010.105000", "185010.565000", "185011.025000", "185011.485000", "185011.945000", "185012.405000", "185012.865000", "185013.325000", "185013.785000", "185014.245000", "185014.705000", "185015.165000", "185015.625000", "185016.085000", "185016.545000", "185017.005000", "185017.465000", "185017.925000", "185018.385000", "185018.845000", "185019.305000", "185019.765000", "185020.225000", "185020.685000", "185021.145000", "185021.605000", "185022.065000", "185022.525000", "185022.985000", "185023.445000", "185023.905000", "185024.365000", "185024.825000", "185025.285000", "185025.745000", "185026.205000", "185026.665000", "185027.125000", "185027.585000", "185028.045000", "185028.505000", "185028.965000", "185029.425000", "185029.885000", "185030.345000", "185030.805000", "185031.265000", "185031.725000", "185032.185000", "185032.645000", "185033.105000", "185033.565000", "185034.025000", "185034.485000", "185034.945000", "185035.405000", "185035.865000", "185036.325000", "185036.785000", "185037.245000", "185037.705000", "185038.165000", "185038.625000", "185039.085000", "185039.545000", "185040.005000", "185040.465000", "185040.925000", "185041.385000", "185041.845000", "185042.305000", "185042.765000", "185043.225000", "185043.685000", "185044.145000", "185044.605000", "185045.065000", "185045.525000", "185045.985000", "185046.445000", "185046.905000", "185047.365000", "185047.825000", "185048.285000", "185048.745000", "185049.205000", "185049.665000", "185050.125000", "185050.585000", "185051.045000", "185051.505000", "185051.965000", "185052.425000", "185052.885000", "185053.345000", "185053.805000", "185054.265000", "185054.725000", "185055.185000", "185055.645000", "185056.105000", "185056.565000", "185057.025000", "185057.485000", "185057.945000", "185058.405000", "185058.865000", "185059.325000", "185059.785000", "185100.245000", "185100.705000", "185101.165000", "185101.625000", "185102.085000", "185102.545000", "185103.005000", "185103.465000", "185103.925000", "185104.385000", "185104.845000", "185105.305000", "185105.765000", "185106.225000", "185106.685000", "185107.145000", "185107.605000", "185108.065000", "185108.525000", "185108.985000", "185109.445000", "185109.905000", "185110.365000", "185110.825000", "185111.285000", "185111.745000", "185112.205000", "185112.665000", "185113.125000", "185113.585000", "185114.045000", "185114.505000", "185114.965000", "185115.425000", "185115.885000", "185116.345000", "185116.805000", "185117.265000", "185117.725000", "185118.185000", "185118.645000", "185119.105000", "185119.565000", "185120.025000", "185120.485000", "185120.945000", "185121.405000", "185121.865000", "185122.325000", "185122.785000", "185123.245000", "185123.705000", "185124.165000", "185124.625000", "185125.085000", "185125.545000", "185126.005000", "185126.465000", "185126.925000", "185127.385000", "185127.845000", "185128.305000", "185128.765000", "185129.225000", "185129.685000", "185130.145000", "185130.605000", "185131.065000", "185131.525000", "185131.985000", "185132.445000", "185132.905000", "185133.365000", "185133.825000", "185134.285000", "185134.745000", "185135.205000", "185135.665000", "185136.125000", "185136.585000", "185137.045000", "185137.505000", "185137.965000", "185138.425000", "185138.885000", "185139.345000", "185139.805000", "185140.265000", "185140.725000", "185141.185000", "185141.645000", "185142.105000", "185142.565000", "185143.025000", "185143.485000", "185143.945000", "185144.405000", "185144.865000", "185145.325000", "185145.785000", "185146.245000", "185146.705000", "185147.165000", "185147.625000", "185148.085000", "185148.545000", "185149.005000", "185149.465000", "185149.925000", "185150.385000", "185150.845000", "185151.305000", "185151.765000", "185152.225000", "185152.685000", "185153.145000", "185153.605000", "185154.065000", "185154.525000", "185154.985000", "185155.445000", "185155.905000", "185156.365000", "185156.825000", "185157.285000", "185157.745000", "185158.205000", "185158.665000", "185159.125000", "185159.585000", "185200.045000", "185200.505000", "185200.965000", "185201.425000", "185201.885000", "185202.345000", "185202.805000", "185203.265000", "185203.725000", "185204.185000", "185204.645000", "185205.105000", "185205.565000", "185206.025000", "185206.485000", "185206.945000", "185207.405000", "185207.865000", "185208.325000", "185208.785000", "185209.245000", "185209.705000", "185210.165000", "185210.625000", "185211.085000", "185211.545000", "185212.005000", "185212.465000", "185212.925000", "185213.385000", "185213.845000", "185214.305000", "185214.765000", "185215.225000", "185215.685000", "185216.145000", "185216.605000", "185217.065000", "185217.525000", "185217.985000", "185218.445000", "185218.905000", "185219.365000", "185219.825000", "185220.285000", "185220.745000", "185221.205000", "185221.665000", "185222.125000", "185222.585000", "185223.045000", "185223.505000", "185223.965000", "185224.425000", "185224.885000", "185225.345000", "185225.805000", "185226.265000", "185226.725000", "185227.185000", "185227.645000", "185228.105000", "185228.565000", "185229.025000", "185229.485000", "185229.945000", "185230.405000", "185230.865000", "185231.325000", "185231.785000", "185232.245000", "185232.705000", "185233.165000", "185233.625000", "185234.085000", "185234.545000", "185235.005000", "185235.465000", "185235.925000", "185236.385000", "185236.845000", "185237.305000", "185237.765000", "185238.225000", "185238.685000", "185239.145000", "185239.605000", "185240.065000", "185240.525000", "185240.985000", "185241.445000", "185241.905000", "185242.365000", "185242.825000", "185243.285000", "185243.745000", "185244.205000", "185244.665000", "185245.125000", "185245.585000", "185246.045000", "185246.505000", "185246.965000", "185247.425000", "185247.885000", "185248.345000", "185248.805000", "185249.265000", "185249.725000", "185250.185000", "185250.645000", "185251.105000", "185251.565000", "185252.025000", "185252.485000", "185252.945000", "185253.405000", "185253.865000", "185254.325000", "185254.785000", "185255.245000", "185255.705000", "185256.165000", "185256.625000", "185257.085000", "185257.545000", "185258.005000", "185258.465000", "185258.925000", "185259.385000", "185259.845000", "185300.305000", "185300.765000", "185301.225000", "185301.685000", "185302.145000", "185302.605000", "185303.065000", "185303.525000", "185303.985000", "185304.445000", "185304.905000", "185305.365000", "185305.825000", "185306.285000", "185306.745000", "185307.205000", "185307.665000", "185308.125000", "185308.585000", "185309.045000", "185309.505000", "185309.965000", "185310.425000", "185310.885000", "185311.345000", "185311.805000", "185312.265000", "185312.725000", "185313.185000", "185313.645000", "185314.105000", "185314.565000", "185315.025000", "185315.485000", "185315.945000", "185316.405000", "185316.865000", "185317.325000", "185317.785000", "185318.245000", "185318.705000", "185319.165000", "185319.625000", "185320.085000", "185320.545000", "185321.005000", "185321.465000", "185321.925000", "185322.385000", "185322.845000", "185323.305000", "185323.765000", "185324.225000", "185324.685000", "185325.145000", "185325.605000", "185326.065000", "185326.525000", "185326.985000", "185327.445000", "185327.905000", "185328.365000", "185328.825000", "185329.285000", "185329.745000", "185330.205000", "185330.665000", "185331.125000", "185331.585000", "185332.045000", "185332.505000", "185332.965000", "185333.425000", "185333.885000", "185334.345000", "185334.805000", "185335.265000", "185335.725000", "185336.185000", "185336.645000", "185337.105000", "185337.565000", "185338.025000", "185338.485000", "185338.945000", "185339.405000", "185339.865000", "185340.325000", "185340.785000", "185341.245000", "185341.705000", "185342.165000", "185342.625000", "185343.085000", "185343.545000", "185344.005000", "185344.465000", "185344.925000", "185345.385000", "185345.845000", "185346.305000", "185346.765000", "185347.225000", "185347.685000", "185348.145000", "185348.605000", "185349.065000", "185349.525000", "185349.985000", "185350.445000", "185350.905000", "185351.365000", "185351.825000", "185352.285000", "185352.745000", "185353.205000", "185353.665000", "185354.125000", "185354.585000", "185355.045000", "185355.505000", "185355.965000", "185356.425000", "185356.885000", "185357.345000", "185357.805000", "185358.265000", "185358.725000", "185359.185000", "185359.645000", "185400.105000", "185400.565000", "185401.025000", "185401.485000", "185401.945000", "185402.405000", "185402.865000", "185403.325000", "185403.785000", "185404.245000", "185404.705000", "185405.165000", "185405.625000", "185406.085000", "185406.545000", "185407.005000", "185407.465000", "185407.925000", "185408.385000", "185408.845000", "185409.305000", "185409.765000", "185410.225000", "185410.685000", "185411.145000", "185411.605000", "185412.065000", "185412.525000", "185412.985000", "185413.445000", "185413.905000", "185414.365000", "185414.825000", "185415.285000", "185415.745000", "185416.205000", "185416.665000", "185417.125000", "185417.585000", "185418.045000", "185418.505000", "185418.965000", "185419.425000", "185419.885000", "185420.345000", "185420.805000", "185421.265000", "185421.725000", "185422.185000", "185422.645000", "185423.105000", "185423.565000", "185424.025000", "185424.485000", "185424.945000", "185425.405000", "185425.865000", "185426.325000", "185426.785000", "185427.245000", "185427.705000", "185428.165000", "185428.625000", "185429.085000", "185429.545000", "185430.005000", "185430.465000", "185430.925000", "185431.385000", "185431.845000", "185432.305000", "185432.765000", "185433.225000", "185433.685000", "185434.145000", "185434.605000", "185435.065000", "185435.525000", "185435.985000", "185436.445000", "185436.905000", "185437.365000", "185437.825000", "185438.285000", "185438.745000", "185439.205000", "185439.665000", "185440.125000", "185440.585000", "185441.045000", "185441.505000", "185441.965000", "185442.425000", "185442.885000", "185443.345000", "185443.805000", "185444.265000", "185444.725000", "185445.185000", "185445.645000", "185446.105000", "185446.565000", "185447.025000", "185447.485000", "185447.945000", "185448.405000", "185448.865000", "185449.325000", "185449.785000", "185450.245000", "185450.705000", "185451.165000", "185451.625000", "185452.085000", "185452.545000", "185453.005000", "185453.465000", "185453.925000", "185454.385000", "185454.845000", "185455.305000", "185455.765000", "185456.225000", "185456.685000", "185457.145000", "185457.605000", "185458.065000", "185458.525000", "185458.985000", "185459.445000", "185459.905000", "185500.365000", "185500.825000", "185501.285000", "185501.745000", "185502.205000", "185502.665000", "185503.125000", "185503.585000", "185504.045000", "185504.505000", "185504.965000", "185505.425000", "185505.885000", "185506.345000", "185506.805000", "185507.265000", "185507.725000", "185508.185000", "185508.645000", "185509.105000", "185509.565000", "185510.025000", "185510.485000", "185510.945000", "185511.405000", "185511.865000", "185512.325000", "185512.785000", "185513.245000", "185513.705000", "185514.165000", "185514.625000", "185515.085000", "185515.545000", "185516.005000", "185516.465000", "185516.925000", "185517.385000", "185517.845000", "185518.305000", "185518.765000", "185519.225000", "185519.685000", "185520.145000", "185520.605000", "185521.065000", "185521.525000", "185521.985000", "185522.445000", "185522.905000", "185523.365000", "185523.825000", "185524.285000", "185524.745000", "185525.205000", "185525.665000", "185526.125000", "185526.585000", "185527.045000", "185527.505000", "185527.965000", "185528.425000", "185528.885000", "185529.345000", "185529.805000", "185530.265000", "185530.725000", "185531.185000", "185531.645000", "185532.105000", "185532.565000", "185533.025000", "185533.485000", "185533.945000", "185534.405000", "185534.865000", "185535.325000", "185535.785000", "185536.245000", "185536.705000", "185537.165000", "185537.625000", "185538.085000", "185538.545000", "185539.005000", "185539.465000", "185539.925000", "185540.385000", "185540.845000", "185541.305000", "185541.765000", "185542.225000", "185542.685000", "185543.145000", "185543.605000", "185544.065000", "185544.525000", "185544.985000", "185545.445000", "185545.905000", "185546.365000", "185546.825000", "185547.285000", "185547.745000", "185548.205000", "185548.665000", "185549.125000", "185549.585000", "185550.045000", "185550.505000", "185550.965000", "185551.425000"],
