{
  "AcquisitionMatrixPE": 82,
  "AcquisitionNumber": 1,
  "AcquisitionTime": "15:02:8.782500",
  "BandwidthPerPixelPhaseEncode": 24.888,
  "BaseResolution": 82,
  "BodyPartExamined": "BRAIN",
  "ConsistencyInfo": "N4_VE11E_LATEST_20181129",
  "ConversionSoftware": "dcm2niix",
  "ConversionSoftwareVersion": "v1.0.20201102",
  "DerivedVendorReportedEchoSpacing": 0.00049,
  "DeviceSerialNumber": "66112",
  "DwellTime": 2e-06,
  "EchoTime": 0.0272,
  "EchoTrainLength": 82,
  "EffectiveEchoSpacing": 0.00049,
  "FlipAngle": 44,
  "ImageComments": "Unaliased MB8/PE3",
  "ImageOrientationPatientDICOM": [0.993992, -0.109454, 0.000506062, 0.109387, 0.99352, 0.0308648],
  "ImageType": [
    "ORIGINAL",
    "PRIMARY",
    "M",
    "MB",
    "ND",
    "NORM",
    "MOSAIC"
],
  "ImagingFrequency": 123.259,
  "InPlanePhaseEncodingDirectionDICOM": "COL",
  "InstitutionAddress": "Maynard 3,Hanover,NH,US,03755",
  "InstitutionName": "Dartmouth College - PBS",
  "InstitutionalDepartmentName": "Department",
  "MRAcquisitionType": "2D",
  "MagneticFieldStrength": 3,
  "Manufacturer": "Siemens",
  "ManufacturersModelName": "Prisma",
  "Modality": "MR",
  "MultibandAccelerationFactor": 8,
  "PartialFourier": 1,
  "PatientPosition": "HFS",
  "PercentPhaseFOV": 100,
  "PercentSampling": 100,
  "PhaseEncodingDirection": "j-",
  "PhaseEncodingSteps": 82,
  "PhaseResolution": 1,
  "PixelBandwidth": 3050,
  "ProcedureStepDescription": "Wager_Wager^1076_spacetop",
  "ProtocolName": "func_run-05_task-social_acq-ap-mb8",
  "PulseSequenceDetails": "%CustomerSeq%\\cmrr_mbep2d_bold",
  "ReceiveCoilActiveElements": "HEA;HEP",
  "ReceiveCoilName": "Head_32",
  "ReconMatrixPE": 82,
  "RepetitionTime": 0.46,
  "SAR": 0.0814999,
  "ScanOptions": "FS",
  "ScanningSequence": "EP",
  "SequenceName": "epfid2d1_82",
  "SequenceVariant": "SK\\SS",
  "SeriesDescription": "func_run-05_task-social_acq-ap-mb8",
  "SeriesNumber": 16,
  "ShimSetting": [4248, -7779, -7209, 291, -199, -113, -106, 22],
  "SliceThickness": 2.7,
  "SliceTiming": [0, 0.25, 0.0625, 0.315, 0.125, 0.3775, 0.1875, 0, 0.25, 0.0625, 0.315, 0.125, 0.3775, 0.1875, 0, 0.25, 0.0625, 0.315, 0.125, 0.3775, 0.1875, 0, 0.25, 0.0625, 0.315, 0.125, 0.3775, 0.1875, 0, 0.25, 0.0625, 0.315, 0.125, 0.3775, 0.1875, 0, 0.25, 0.0625, 0.315, 0.125, 0.3775, 0.1875, 0, 0.25, 0.0625, 0.315, 0.125, 0.3775, 0.1875, 0, 0.25, 0.0625, 0.315, 0.125, 0.3775, 0.1875],
  "SoftwareVersions": "syngo MR E11",
  "SpacingBetweenSlices": 2.7,
  "StationName": "AWP66112",
  "TaskName": "social",
  "TotalReadoutTime": 0.03969,
  "TxRefAmp": 230.085,
  "WipMemBlock": "8c3e9d12-63ff-4c1d-98d1-5a612dad0fd6||Sequence: R016 ve11e/master r/434b28f1; Aug  7 2019 18:53:46 by eja",
  "dcmmeta_affine": [
    [-2.666807174682617, 0.2934761643409729, 0.010478888638317585, 88.9291000366211],
    [0.29365769028663635, 2.665541410446167, 0.08268490433692932, -119.07473754882812],
    [0.0013577278004959226, -0.08280810713768005, 2.6987133026123047, -74.59284973144531],
    [0.0, 0.0, 0.0, 1.0]
],
  "dcmmeta_reorient_transform": [
    [0.0, -1.0, 0.0, 81.0],
    [1.0, 0.0, 0.0, 0.0],
    [0.0, 0.0, 1.0, 0.0],
    [0.0, 0.0, 0.0, 1.0]
],
  "dcmmeta_shape": [82, 82, 56, 872],
  "dcmmeta_slice_dim": 2,
  "dcmmeta_version": 0.6,
  "global": {
    "const": {
      "AccessionNumber": "A004339",
      "AcquisitionMatrix": [82, 0, 0, 82],
      "AngioFlag": "N",
      "BitsAllocated": 16,
      "BitsStored": 16,
      "BodyPartExamined": "BRAIN",
      "Columns": 656,
      "EchoNumbers": 1,
      "EchoTime": 27.2,
      "EchoTrainLength": 82,
      "FlipAngle": 44.0,
      "HighBit": 15,
      "ImageOrientationPatient": [0.99399170822607, -0.1094542273232, 0.00050606215854, 0.10938656806602, 0.99351997484018, 0.0308648395478],
      "ImagePositionPatient": [-962.30196588767, -777.56476434888, -105.45590435264],
      "ImageType": [
        "ORIGINAL",
        "PRIMARY",
        "M",
        "MB",
        "ND",
        "NORM",
        "MOSAIC"
],
      "ImagedNucleus": "1H",
      "ImagingFrequency": 123.259132,
      "InPlanePhaseEncodingDirection": "COL",
      "MRAcquisitionType": "2D",
      "MagneticFieldStrength": 3.0,
      "Manufacturer": "SIEMENS",
      "ManufacturerModelName": "Prisma",
      "Modality": "MR",
      "NumberOfAverages": 1.0,
      "NumberOfPhaseEncodingSteps": 82,
      "PercentPhaseFieldOfView": 100.0,
      "PercentSampling": 100.0,
      "PerformedProcedureStepStartTime": "134728.335000",
      "PhotometricInterpretation": "MONOCHROME2",
      "PixelBandwidth": 3050.0,
      "PixelRepresentation": 0,
      "PixelSpacing": [2.6829268932343, 2.6829268932343],
      "ProtocolName": "func_run-05_task-social_acq-ap-mb8",
      "RepetitionTime": 460.0,
      "Rows": 656,
      "SAR": 0.08149991409233,
      "SamplesPerPixel": 1,
      "ScanOptions": "FS",
      "ScanningSequence": "EP",
      "SequenceName": "epfid2d1_82",
      "SequenceVariant": [
        "SK",
        "SS"
],
      "SeriesDescription": "func_run-05_task-social_acq-ap-mb8",
      "SeriesNumber": 16,
      "SeriesTime": "150237.724000",
      "SliceLocation": -77.858713855761,
      "SliceThickness": 2.7000000476837,
      "SmallestImagePixelValue": 0,
      "SoftwareVersions": "syngo MR E11",
      "SpacingBetweenSlices": 2.6999999820353,
      "SpecificCharacterSet": "ISO_IR 100",
      "StudyID": "3",
      "StudyTime": "134728.293000",
      "TransmitCoilName": "Body",
      "VariableFlipAngleFlag": "N",
      "WindowCenterWidthExplanation": "Algo1"
    },
    "slices": {}
  },
  "time": {
    "samples": {
      "AcquisitionNumber": [1, 2, 3, 4, 5, 6, 7, 8, 9, 10, 11, 12, 13, 14, 15, 16, 17, 18, 19, 20, 21, 22, 23, 24, 25, 26, 27, 28, 29, 30, 31, 32, 33, 34, 35, 36, 37, 38, 39, 40, 41, 42, 43, 44, 45, 46, 47, 48, 49, 50, 51, 52, 53, 54, 55, 56, 57, 58, 59, 60, 61, 62, 63, 64, 65, 66, 67, 68, 69, 70, 71, 72, 73, 74, 75, 76, 77, 78, 79, 80, 81, 82, 83, 84, 85, 86, 87, 88, 89, 90, 91, 92, 93, 94, 95, 96, 97, 98, 99, 100, 101, 102, 103, 104, 105, 106, 107, 108, 109, 110, 111, 112, 113, 114, 115, 116, 117, 118, 119, 120, 121, 122, 123, 124, 125, 126, 127, 128, 129, 130, 131, 132, 133, 134, 135, 136, 137, 138, 139, 140, 141, 142, 143, 144, 145, 146, 147, 148, 149, 150, 151, 152, 153, 154, 155, 156, 157, 158, 159, 160, 161, 162, 163, 164, 165, 166, 167, 168, 169, 170, 171, 172, 173, 174, 175, 176, 177, 178, 179, 180, 181, 182, 183, 184, 185, 186, 187, 188, 189, 190, 191, 192, 193, 194, 195, 196, 197, 198, 199, 200, 201, 202, 203, 204, 205, 206, 207, 208, 209, 210, 211, 212, 213, 214, 215, 216, 217, 218, 219, 220, 221, 222, 223, 224, 225, 226, 227, 228, 229, 230, 231, 232, 233, 234, 235, 236, 237, 238, 239, 240, 241, 242, 243, 244, 245, 246, 247, 248, 249, 250, 251, 252, 253, 254, 255, 256, 257, 258, 259, 260, 261, 262, 263, 264, 265, 266, 267, 268, 269, 270, 271, 272, 273, 274, 275, 276, 277, 278, 279, 280, 281, 282, 283, 284, 285, 286, 287, 288, 289, 290, 291, 292, 293, 294, 295, 296, 297, 298, 299, 300, 301, 302, 303, 304, 305, 306, 307, 308, 309, 310, 311, 312, 313, 314, 315, 316, 317, 318, 319, 320, 321, 322, 323, 324, 325, 326, 327, 328, 329, 330, 331, 332, 333, 334, 335, 336, 337, 338, 339, 340, 341, 342, 343, 344, 345, 346, 347, 348, 349, 350, 351, 352, 353, 354, 355, 356, 357, 358, 359, 360, 361, 362, 363, 364, 365, 366, 367, 368, 369, 370, 371, 372, 373, 374, 375, 376, 377, 378, 379, 380, 381, 382, 383, 384, 385, 386, 387, 388, 389, 390, 391, 392, 393, 394, 395, 396, 397, 398, 399, 400, 401, 402, 403, 404, 405, 406, 407, 408, 409, 410, 411, 412, 413, 414, 415, 416, 417, 418, 419, 420, 421, 422, 423, 424, 425, 426, 427, 428, 429, 430, 431, 432, 433, 434, 435, 436, 437, 438, 439, 440, 441, 442, 443, 444, 445, 446, 447, 448, 449, 450, 451, 452, 453, 454, 455, 456, 457, 458, 459, 460, 461, 462, 463, 464, 465, 466, 467, 468, 469, 470, 471, 472, 473, 474, 475, 476, 477, 478, 479, 480, 481, 482, 483, 484, 485, 486, 487, 488, 489, 490, 491, 492, 493, 494, 495, 496, 497, 498, 499, 500, 501, 502, 503, 504, 505, 506, 507, 508, 509, 510, 511, 512, 513, 514, 515, 516, 517, 518, 519, 520, 521, 522, 523, 524, 525, 526, 527, 528, 529, 530, 531, 532, 533, 534, 535, 536, 537, 538, 539, 540, 541, 542, 543, 544, 545, 546, 547, 548, 549, 550, 551, 552, 553, 554, 555, 556, 557, 558, 559, 560, 561, 562, 563, 564, 565, 566, 567, 568, 569, 570, 571, 572, 573, 574, 575, 576, 577, 578, 579, 580, 581, 582, 583, 584, 585, 586, 587, 588, 589, 590, 591, 592, 593, 594, 595, 596, 597, 598, 599, 600, 601, 602, 603, 604, 605, 606, 607, 608, 609, 610, 611, 612, 613, 614, 615, 616, 617, 618, 619, 620, 621, 622, 623, 624, 625, 626, 627, 628, 629, 630, 631, 632, 633, 634, 635, 636, 637, 638, 639, 640, 641, 642, 643, 644, 645, 646, 647, 648, 649, 650, 651, 652, 653, 654, 655, 656, 657, 658, 659, 660, 661, 662, 663, 664, 665, 666, 667, 668, 669, 670, 671, 672, 673, 674, 675, 676, 677, 678, 679, 680, 681, 682, 683, 684, 685, 686, 687, 688, 689, 690, 691, 692, 693, 694, 695, 696, 697, 698, 699, 700, 701, 702, 703, 704, 705, 706, 707, 708, 709, 710, 711, 712, 713, 714, 715, 716, 717, 718, 719, 720, 721, 722, 723, 724, 725, 726, 727, 728, 729, 730, 731, 732, 733, 734, 735, 736, 737, 738, 739, 740, 741, 742, 743, 744, 745, 746, 747, 748, 749, 750, 751, 752, 753, 754, 755, 756, 757, 758, 759, 760, 761, 762, 763, 764, 765, 766, 767, 768, 769, 770, 771, 772, 773, 774, 775, 776, 777, 778, 779, 780, 781, 782, 783, 784, 785, 786, 787, 788, 789, 790, 791, 792, 793, 794, 795, 796, 797, 798, 799, 800, 801, 802, 803, 804, 805, 806, 807, 808, 809, 810, 811, 812, 813, 814, 815, 816, 817, 818, 819, 820, 821, 822, 823, 824, 825, 826, 827, 828, 829, 830, 831, 832, 833, 834, 835, 836, 837, 838, 839, 840, 841, 842, 843, 844, 845, 846, 847, 848, 849, 850, 851, 852, 853, 854, 855, 856, 857, 858, 859, 860, 861, 862, 863, 864, 865, 866, 867, 868, 869, 870, 871, 872],
      "AcquisitionTime": ["150208.782500", "150209.242500", "150209.702500", "150210.162500", "150210.622500", "150211.082500", "150211.542500", "150212.002500", "150212.462500", "150212.922500", "150213.382500", "150213.842500", "150214.302500", "150214.762500", "150215.222500", "150215.682500", "150216.142500", "150216.602500", "150217.062500", "150217.522500", "150217.982500", "150218.442500", "150218.902500", "150219.362500", "150219.822500", "150220.282500", "150220.742500", "150221.202500", "150221.662500", "150222.122500", "150222.582500", "150223.042500", "150223.502500", "150223.962500", "150224.422500", "150224.882500", "150225.342500", "150225.802500", "150226.262500", "150226.722500", "150227.182500", "150227.642500", "150228.102500", "150228.562500", "150229.022500", "150229.482500", "150229.942500", "150230.402500", "150230.862500", "150231.322500", "150231.782500", "150232.242500", "150232.702500", "150233.162500", "150233.622500", "150234.082500", "150234.542500", "150235.002500", "150235.462500", "150235.922500", "150236.382500", "150236.842500", "150237.302500", "150237.762500", "150238.222500", "150238.682500", "150239.142500", "150239.602500", "150240.062500", "150240.522500", "150240.982500", "150241.442500", "150241.902500", "150242.362500", "150242.822500", "150243.282500", "150243.742500", "150244.202500", "150244.662500", "150245.122500", "150245.582500", "150246.042500", "150246.502500", "150246.962500", "150247.422500", "150247.882500", "150248.342500", "150248.802500", "150249.262500", "150249.722500", "150250.182500", "150250.642500", "150251.102500", "150251.562500", "150252.022500", "150252.482500", "150252.942500", "150253.402500", "150253.862500", "150254.322500", "150254.782500", "150255.242500", "150255.702500", "150256.162500", "150256.622500", "150257.082500", "150257.542500", "150258.002500", "150258.462500", "150258.922500", "150259.382500", "150259.842500", "150300.302500", "150300.762500", "150301.222500", "150301.682500", "150302.142500", "150302.602500", "150303.062500", "150303.522500", "150303.982500", "150304.442500", "150304.902500", "150305.362500", "150305.822500", "150306.282500", "150306.742500", "150307.202500", "150307.662500", "150308.122500", "150308.582500", "150309.042500", "150309.502500", "150309.962500", "150310.422500", "150310.882500", "150311.342500", "150311.802500", "150312.262500", "150312.722500", "150313.182500", "150313.642500", "150314.102500", "150314.562500", "150315.022500", "150315.482500", "150315.942500", "150316.402500", "150316.862500", "150317.322500", "150317.782500", "150318.242500", "150318.702500", "150319.162500", "150319.622500", "150320.082500", "150320.542500", "150321.002500", "150321.462500", "150321.922500", "150322.382500", "150322.842500", "150323.302500", "150323.762500", "150324.222500", "150324.682500", "150325.142500", "150325.602500", "150326.062500", "150326.522500", "150326.982500", "150327.442500", "150327.902500", "150328.362500", "150328.822500", "150329.282500", "150329.742500", "150330.202500", "150330.662500", "150331.122500", "150331.582500", "150332.042500", "150332.502500", "150332.962500", "150333.422500", "150333.882500", "150334.342500", "150334.802500", "150335.262500", "150335.722500", "150336.182500", "150336.642500", "150337.102500", "150337.562500", "150338.022500", "150338.482500", "150338.942500", "150339.402500", "150339.862500", "150340.322500", "150340.782500", "150341.242500", "150341.702500", "150342.162500", "150342.622500", "150343.082500", "150343.542500", "150344.002500", "150344.462500", "150344.922500", "150345.382500", "150345.842500", "150346.302500", "150346.762500", "150347.222500", "150347.682500", "150348.142500", "150348.602500", "150349.062500", "150349.522500", "150349.982500", "150350.442500", "150350.902500", "150351.362500", "150351.822500", "150352.282500", "150352.742500", "150353.202500", "150353.662500", "150354.122500", "150354.582500", "150355.042500", "150355.502500", "150355.962500", "150356.422500", "150356.882500", "150357.342500", "150357.802500", "150358.262500", "150358.722500", "150359.182500", "150359.642500", "150400.102500", "150400.562500", "150401.022500", "150401.482500", "150401.942500", "150402.402500", "150402.862500", "150403.322500", "150403.782500", "150404.242500", "150404.702500", "150405.162500", "150405.622500", "150406.082500", "150406.542500", "150407.002500", "150407.462500", "150407.922500", "150408.382500", "150408.842500", "150409.302500", "150409.762500", "150410.222500", "150410.682500", "150411.142500", "150411.602500", "150412.062500", "150412.522500", "150412.982500", "150413.442500", "150413.902500", "150414.362500", "150414.822500", "150415.282500", "150415.742500", "150416.202500", "150416.662500", "150417.122500", "150417.582500", "150418.042500", "150418.502500", "150418.962500", "150419.422500", "150419.882500", "150420.342500", "150420.802500", "150421.262500", "150421.722500", "150422.182500", "150422.642500", "150423.102500", "150423.562500", "150424.022500", "150424.482500", "150424.942500", "150425.402500", "150425.862500", "150426.322500", "150426.782500", "150427.242500", "150427.702500", "150428.162500", "150428.622500", "150429.082500", "150429.542500", "150430.002500", "150430.462500", "150430.922500", "150431.382500", "150431.842500", "150432.302500", "150432.762500", "150433.222500", "150433.682500", "150434.142500", "150434.602500", "150435.062500", "150435.522500", "150435.982500", "150436.442500", "150436.902500", "150437.362500", "150437.822500", "150438.282500", "150438.742500", "150439.202500", "150439.662500", "150440.122500", "150440.582500", "150441.042500", "150441.502500", "150441.962500", "150442.422500", "150442.882500", "150443.342500", "150443.802500", "150444.262500", "150444.722500", "150445.182500", "150445.642500", "150446.102500", "150446.562500", "150447.022500", "150447.482500", "150447.942500", "150448.402500", "150448.862500", "150449.322500", "150449.782500", "150450.242500", "150450.702500", "150451.162500", "150451.622500", "150452.082500", "150452.542500", "150453.002500", "150453.462500", "150453.922500", "150454.382500", "150454.842500", "150455.302500", "150455.762500", "150456.222500", "150456.682500", "150457.142500", "150457.602500", "150458.062500", "150458.522500", "150458.982500", "150459.442500", "150459.902500", "150500.362500", "150500.822500", "150501.282500", "150501.742500", "150502.202500", "150502.662500", "150503.122500", "150503.582500", "150504.042500", "150504.502500", "150504.962500", "150505.422500", "150505.882500", "150506.342500", "150506.802500", "150507.262500", "150507.722500", "150508.182500", "150508.642500", "150509.102500", "150509.562500", "150510.022500", "150510.482500", "150510.942500", "150511.402500", "150511.862500", "150512.322500", "150512.782500", "150513.242500", "150513.702500", "150514.162500", "150514.622500", "150515.082500", "150515.542500", "150516.002500", "150516.462500", "150516.922500", "150517.382500", "150517.842500", "150518.302500", "150518.762500", "150519.222500", "150519.682500", "150520.142500", "150520.602500", "150521.062500", "150521.522500", "150521.982500", "150522.442500", "150522.902500", "150523.362500", "150523.822500", "150524.282500", "150524.742500", "150525.202500", "150525.662500", "150526.122500", "150526.582500", "150527.042500", "150527.502500", "150527.962500", "150528.422500", "150528.882500", "150529.342500", "150529.802500", "150530.262500", "150530.722500", "150531.182500", "150531.642500", "150532.102500", "150532.562500", "150533.022500", "150533.482500", "150533.942500", "150534.402500", "150534.862500", "150535.322500", "150535.782500", "150536.242500", "150536.702500", "150537.162500", "150537.622500", "150538.082500", "150538.542500", "150539.002500", "150539.462500", "150539.922500", "150540.382500", "150540.842500", "150541.302500", "150541.762500", "150542.222500", "150542.682500", "150543.142500", "150543.602500", "150544.062500", "150544.522500", "150544.982500", "150545.442500", "150545.902500", "150546.362500", "150546.822500", "150547.282500", "150547.742500", "150548.202500", "150548.662500", "150549.122500", "150549.582500", "150550.042500", "150550.502500", "150550.962500", "150551.422500", "150551.882500", "150552.342500", "150552.802500", "150553.262500", "150553.722500", "150554.182500", "150554.642500", "150555.102500", "150555.562500", "150556.022500", "150556.482500", "150556.942500", "150557.402500", "150557.862500", "150558.322500", "150558.782500", "150559.242500", "150559.702500", "150600.162500", "150600.622500", "150601.082500", "150601.542500", "150602.002500", "150602.462500", "150602.922500", "150603.382500", "150603.842500", "150604.302500", "150604.762500", "150605.222500", "150605.682500", "150606.142500", "150606.602500", "150607.062500", "150607.522500", "150607.982500", "150608.442500", "150608.902500", "150609.362500", "150609.822500", "150610.282500", "150610.742500", "150611.202500", "150611.662500", "150612.122500", "150612.582500", "150613.042500", "150613.502500", "150613.962500", "150614.422500", "150614.882500", "150615.342500", "150615.802500", "150616.262500", "150616.722500", "150617.182500", "150617.642500", "150618.102500", "150618.562500", "150619.022500", "150619.482500", "150619.942500", "150620.402500", "150620.862500", "150621.322500", "150621.782500", "150622.242500", "150622.702500", "150623.162500", "150623.622500", "150624.082500", "150624.542500", "150625.002500", "150625.462500", "150625.922500", "150626.382500", "150626.842500", "150627.302500", "150627.762500", "150628.222500", "150628.682500", "150629.142500", "150629.602500", "150630.062500", "150630.522500", "150630.982500", "150631.442500", "150631.902500", "150632.362500", "150632.822500", "150633.282500", "150633.742500", "150634.202500", "150634.662500", "150635.122500", "150635.582500", "150636.042500", "150636.502500", "150636.962500", "150637.422500", "150637.882500", "150638.342500", "150638.802500", "150639.262500", "150639.722500", "150640.182500", "150640.642500", "150641.102500", "150641.562500", "150642.022500", "150642.482500", "150642.942500", "150643.402500", "150643.862500", "150644.322500", "150644.782500", "150645.242500", "150645.702500", "150646.162500", "150646.622500", "150647.082500", "150647.542500", "150648.002500", "150648.462500", "150648.922500", "150649.382500", "150649.842500", "150650.302500", "150650.762500", "150651.222500", "150651.682500", "150652.142500", "150652.602500", "150653.062500", "150653.522500", "150653.982500", "150654.442500", "150654.902500", "150655.362500", "150655.822500", "150656.282500", "150656.742500", "150657.202500", "150657.662500", "150658.122500", "150658.582500", "150659.042500", "150659.502500", "150659.962500", "150700.422500", "150700.882500", "150701.342500", "150701.802500", "150702.262500", "150702.722500", "150703.182500", "150703.642500", "150704.102500", "150704.562500", "150705.022500", "150705.482500", "150705.942500", "150706.402500", "150706.862500", "150707.322500", "150707.782500", "150708.242500", "150708.702500", "150709.162500", "150709.622500", "150710.082500", "150710.542500", "150711.002500", "150711.462500", "150711.922500", "150712.382500", "150712.842500", "150713.302500", "150713.762500", "150714.222500", "150714.682500", "150715.142500", "150715.602500", "150716.062500", "150716.522500", "150716.982500", "150717.442500", "150717.902500", "150718.362500", "150718.822500", "150719.282500", "150719.742500", "150720.202500", "150720.662500", "150721.122500", "150721.582500", "150722.042500", "150722.502500", "150722.962500", "150723.422500", "150723.882500", "150724.342500", "150724.802500", "150725.262500", "150725.722500", "150726.182500", "150726.642500", "150727.102500", "150727.562500", "150728.022500", "150728.482500", "150728.942500", "150729.402500", "150729.862500", "150730.322500", "150730.782500", "150731.242500", "150731.702500", "150732.162500", "150732.622500", "150733.082500", "150733.542500", "150734.002500", "150734.462500", "150734.922500", "150735.382500", "150735.842500", "150736.302500", "150736.762500", "150737.222500", "150737.682500", "150738.142500", "150738.602500", "150739.062500", "150739.522500", "150739.982500", "150740.442500", "150740.902500", "150741.362500", "150741.822500", "150742.282500", "150742.742500", "150743.202500", "150743.662500", "150744.122500", "150744.582500", "150745.042500", "150745.502500", "150745.962500", "150746.422500", "150746.882500", "150747.342500", "150747.802500", "150748.262500", "150748.722500", "150749.182500", "150749.642500", "150750.102500", "150750.562500", "150751.022500", "150751.482500", "150751.942500", "150752.402500", "150752.862500", "150753.322500", "150753.782500", "150754.242500", "150754.702500", "150755.162500", "150755.622500", "150756.082500", "150756.542500", "150757.002500", "150757.462500", "150757.922500", "150758.382500", "150758.842500", "150759.302500", "150759.762500", "150800.222500", "150800.682500", "150801.142500", "150801.602500", "150802.062500", "150802.522500", "150802.982500", "150803.442500", "150803.902500", "150804.362500", "150804.822500", "150805.282500", "150805.742500", "150806.202500", "150806.662500", "150807.122500", "150807.582500", "150808.042500", "150808.502500", "150808.962500", "150809.422500", "150809.882500", "150810.342500", "150810.802500", "150811.262500", "150811.722500", "150812.182500", "150812.642500", "150813.102500", "150813.562500", "150814.022500", "150814.482500", "150814.942500", "150815.402500", "150815.862500", "150816.322500", "150816.782500", "150817.242500", "150817.702500", "150818.162500", "150818.622500", "150819.082500", "150819.542500", "150820.002500", "150820.462500", "150820.922500", "150821.382500", "150821.842500", "150822.302500", "150822.762500", "150823.222500", "150823.682500", "150824.142500", "150824.602500", "150825.062500", "150825.522500", "150825.982500", "150826.442500", "150826.902500", "150827.362500", "150827.822500", "150828.282500", "150828.742500", "150829.202500", "150829.662500", "150830.122500", "150830.582500", "150831.042500", "150831.502500", "150831.962500", "150832.422500", "150832.882500", "150833.342500", "150833.802500", "150834.262500", "150834.722500", "150835.182500", "150835.642500", "150836.102500", "150836.562500", "150837.022500", "150837.482500", "150837.942500", "150838.402500", "150838.862500", "150839.322500", "150839.782500", "150840.242500", "150840.702500", "150841.162500", "150841.622500", "150842.082500", "150842.542500", "150843.002500", "150843.462500", "150843.922500", "150844.382500", "150844.842500", "150845.302500", "150845.762500", "150846.222500", "150846.682500", "150847.142500", "150847.602500", "150848.062500", "150848.522500", "150848.982500", "150849.442500"],
