{
  "AcquisitionMatrixPE": 82,
  "AcquisitionNumber": 1,
  "AcquisitionTime": "14:39:55.885000",
  "BandwidthPerPixelPhaseEncode": 24.888,
  "BaseResolution": 82,
  "BodyPartExamined": "BRAIN",
  "ConsistencyInfo": "N4_VE11E_LATEST_20181129",
  "ConversionSoftware": "dcm2niix",
  "ConversionSoftwareVersion": "v1.0.20201102",
  "DerivedVendorReportedEchoSpacing": 0.00049,
  "DeviceSerialNumber": "66112",
  "DwellTime": 2e-06,
  "EchoTime": 0.0272,
  "EchoTrainLength": 82,
  "EffectiveEchoSpacing": 0.00049,
  "FlipAngle": 44,
  "ImageComments": "Unaliased MB8/PE3",
  "ImageOrientationPatientDICOM": [0.993992, -0.109454, 0.000506062, 0.109387, 0.99352, 0.0308648],
  "ImageType": [
    "ORIGINAL",
    "PRIMARY",
    "M",
    "MB",
    "ND",
    "NORM",
    "MOSAIC"
],
  "ImagingFrequency": 123.259,
  "InPlanePhaseEncodingDirectionDICOM": "COL",
  "InstitutionAddress": "Maynard 3,Hanover,NH,US,03755",
  "InstitutionName": "Dartmouth College - PBS",
  "InstitutionalDepartmentName": "Department",
  "MRAcquisitionType": "2D",
  "MagneticFieldStrength": 3,
  "Manufacturer": "Siemens",
  "ManufacturersModelName": "Prisma",
  "Modality": "MR",
  "MultibandAccelerationFactor": 8,
  "PartialFourier": 1,
  "PatientPosition": "HFS",
  "PercentPhaseFOV": 100,
  "PercentSampling": 100,
  "PhaseEncodingDirection": "j-",
  "PhaseEncodingSteps": 82,
  "PhaseResolution": 1,
  "PixelBandwidth": 3050,
  "ProcedureStepDescription": "Wager_Wager^1076_spacetop",
  "ProtocolName": "func_run-02_task-social_acq-ap-mb8",
  "PulseSequenceDetails": "%CustomerSeq%\\cmrr_mbep2d_bold",
  "ReceiveCoilActiveElements": "HEA;HEP",
  "ReceiveCoilName": "Head_32",
  "ReconMatrixPE": 82,
  "RepetitionTime": 0.46,
  "SAR": 0.0814999,
  "ScanOptions": "FS",
  "ScanningSequence": "EP",
  "SequenceName": "epfid2d1_82",
  "SequenceVariant": "SK\\SS",
  "SeriesDescription": "func_run-02_task-social_acq-ap-mb8",
  "SeriesNumber": 10,
  "ShimSetting": [4248, -7779, -7209, 291, -199, -113, -106, 22],
  "SliceThickness": 2.7,
  "SliceTiming": [0, 0.25, 0.0625, 0.3125, 0.125, 0.375, 0.1875, 0, 0.25, 0.0625, 0.3125, 0.125, 0.375, 0.1875, 0, 0.25, 0.0625, 0.3125, 0.125, 0.375, 0.1875, 0, 0.25, 0.0625, 0.3125, 0.125, 0.375, 0.1875, 0, 0.25, 0.0625, 0.3125, 0.125, 0.375, 0.1875, 0, 0.25, 0.0625, 0.3125, 0.125, 0.375, 0.1875, 0, 0.25, 0.0625, 0.3125, 0.125, 0.375, 0.1875, 0, 0.25, 0.0625, 0.3125, 0.125, 0.375, 0.1875],
  "SoftwareVersions": "syngo MR E11",
  "SpacingBetweenSlices": 2.7,
  "StationName": "AWP66112",
  "TaskName": "social",
  "TotalReadoutTime": 0.03969,
  "TxRefAmp": 230.085,
  "WipMemBlock": "07cb50d2-5fba-4230-966b-0d0e3d3533b7||Sequence: R016 ve11e/master r/434b28f1; Aug  7 2019 18:53:46 by eja",
  "dcmmeta_affine": [
    [-2.666807174682617, 0.2934761643409729, 0.010478888638317585, 88.9291000366211],
    [0.29365769028663635, 2.665541410446167, 0.08268490433692932, -119.07473754882812],
    [0.0013577278004959226, -0.08280810713768005, 2.6987133026123047, -74.59284973144531],
    [0.0, 0.0, 0.0, 1.0]
],
  "dcmmeta_reorient_transform": [
    [0.0, -1.0, 0.0, 81.0],
    [1.0, 0.0, 0.0, 0.0],
    [0.0, 0.0, 1.0, 0.0],
    [0.0, 0.0, 0.0, 1.0]
],
  "dcmmeta_shape": [82, 82, 56, 872],
  "dcmmeta_slice_dim": 2,
  "dcmmeta_version": 0.6,
  "global": {
    "const": {
      "AccessionNumber": "A004339",
      "AcquisitionMatrix": [82, 0, 0, 82],
      "AngioFlag": "N",
      "BitsAllocated": 16,
      "BitsStored": 16,
      "BodyPartExamined": "BRAIN",
      "Columns": 656,
      "EchoNumbers": 1,
      "EchoTime": 27.2,
      "EchoTrainLength": 82,
      "FlipAngle": 44.0,
      "HighBit": 15,
      "ImageOrientationPatient": [0.99399170822607, -0.1094542273232, 0.00050606215854, 0.10938656806602, 0.99351997484018, 0.0308648395478],
      "ImagePositionPatient": [-962.30196588767, -777.56476434888, -105.45590435264],
      "ImageType": [
        "ORIGINAL",
        "PRIMARY",
        "M",
        "MB",
        "ND",
        "NORM",
        "MOSAIC"
],
      "ImagedNucleus": "1H",
      "ImagingFrequency": 123.259088,
      "InPlanePhaseEncodingDirection": "COL",
      "MRAcquisitionType": "2D",
      "MagneticFieldStrength": 3.0,
      "Manufacturer": "SIEMENS",
      "ManufacturerModelName": "Prisma",
      "Modality": "MR",
      "NumberOfAverages": 1.0,
      "NumberOfPhaseEncodingSteps": 82,
      "PercentPhaseFieldOfView": 100.0,
      "PercentSampling": 100.0,
      "PerformedProcedureStepStartTime": "134728.335000",
      "PhotometricInterpretation": "MONOCHROME2",
      "PixelBandwidth": 3050.0,
      "PixelRepresentation": 0,
      "PixelSpacing": [2.6829268932343, 2.6829268932343],
      "ProtocolName": "func_run-02_task-social_acq-ap-mb8",
      "RepetitionTime": 460.0,
      "Rows": 656,
      "SAR": 0.08149991409233,
      "SamplesPerPixel": 1,
      "ScanOptions": "FS",
      "ScanningSequence": "EP",
      "SequenceName": "epfid2d1_82",
      "SequenceVariant": [
        "SK",
        "SS"
],
      "SeriesDescription": "func_run-02_task-social_acq-ap-mb8",
      "SeriesNumber": 10,
      "SeriesTime": "144017.716000",
      "SliceLocation": -77.858713855761,
      "SliceThickness": 2.7000000476837,
      "SmallestImagePixelValue": 0,
      "SoftwareVersions": "syngo MR E11",
      "SpacingBetweenSlices": 2.6999999820353,
      "SpecificCharacterSet": "ISO_IR 100",
      "StudyID": "3",
      "StudyTime": "134728.293000",
      "TransmitCoilName": "Body",
      "VariableFlipAngleFlag": "N",
      "WindowCenterWidthExplanation": "Algo1"
    },
    "slices": {}
  },
  "time": {
    "samples": {
      "AcquisitionNumber": [1, 2, 3, 4, 5, 6, 7, 8, 9, 10, 11, 12, 13, 14, 15, 16, 17, 18, 19, 20, 21, 22, 23, 24, 25, 26, 27, 28, 29, 30, 31, 32, 33, 34, 35, 36, 37, 38, 39, 40, 41, 42, 43, 44, 45, 46, 47, 48, 49, 50, 51, 52, 53, 54, 55, 56, 57, 58, 59, 60, 61, 62, 63, 64, 65, 66, 67, 68, 69, 70, 71, 72, 73, 74, 75, 76, 77, 78, 79, 80, 81, 82, 83, 84, 85, 86, 87, 88, 89, 90, 91, 92, 93, 94, 95, 96, 97, 98, 99, 100, 101, 102, 103, 104, 105, 106, 107, 108, 109, 110, 111, 112, 113, 114, 115, 116, 117, 118, 119, 120, 121, 122, 123, 124, 125, 126, 127, 128, 129, 130, 131, 132, 133, 134, 135, 136, 137, 138, 139, 140, 141, 142, 143, 144, 145, 146, 147, 148, 149, 150, 151, 152, 153, 154, 155, 156, 157, 158, 159, 160, 161, 162, 163, 164, 165, 166, 167, 168, 169, 170, 171, 172, 173, 174, 175, 176, 177, 178, 179, 180, 181, 182, 183, 184, 185, 186, 187, 188, 189, 190, 191, 192, 193, 194, 195, 196, 197, 198, 199, 200, 201, 202, 203, 204, 205, 206, 207, 208, 209, 210, 211, 212, 213, 214, 215, 216, 217, 218, 219, 220, 221, 222, 223, 224, 225, 226, 227, 228, 229, 230, 231, 232, 233, 234, 235, 236, 237, 238, 239, 240, 241, 242, 243, 244, 245, 246, 247, 248, 249, 250, 251, 252, 253, 254, 255, 256, 257, 258, 259, 260, 261, 262, 263, 264, 265, 266, 267, 268, 269, 270, 271, 272, 273, 274, 275, 276, 277, 278, 279, 280, 281, 282, 283, 284, 285, 286, 287, 288, 289, 290, 291, 292, 293, 294, 295, 296, 297, 298, 299, 300, 301, 302, 303, 304, 305, 306, 307, 308, 309, 310, 311, 312, 313, 314, 315, 316, 317, 318, 319, 320, 321, 322, 323, 324, 325, 326, 327, 328, 329, 330, 331, 332, 333, 334, 335, 336, 337, 338, 339, 340, 341, 342, 343, 344, 345, 346, 347, 348, 349, 350, 351, 352, 353, 354, 355, 356, 357, 358, 359, 360, 361, 362, 363, 364, 365, 366, 367, 368, 369, 370, 371, 372, 373, 374, 375, 376, 377, 378, 379, 380, 381, 382, 383, 384, 385, 386, 387, 388, 389, 390, 391, 392, 393, 394, 395, 396, 397, 398, 399, 400, 401, 402, 403, 404, 405, 406, 407, 408, 409, 410, 411, 412, 413, 414, 415, 416, 417, 418, 419, 420, 421, 422, 423, 424, 425, 426, 427, 428, 429, 430, 431, 432, 433, 434, 435, 436, 437, 438, 439, 440, 441, 442, 443, 444, 445, 446, 447, 448, 449, 450, 451, 452, 453, 454, 455, 456, 457, 458, 459, 460, 461, 462, 463, 464, 465, 466, 467, 468, 469, 470, 471, 472, 473, 474, 475, 476, 477, 478, 479, 480, 481, 482, 483, 484, 485, 486, 487, 488, 489, 490, 491, 492, 493, 494, 495, 496, 497, 498, 499, 500, 501, 502, 503, 504, 505, 506, 507, 508, 509, 510, 511, 512, 513, 514, 515, 516, 517, 518, 519, 520, 521, 522, 523, 524, 525, 526, 527, 528, 529, 530, 531, 532, 533, 534, 535, 536, 537, 538, 539, 540, 541, 542, 543, 544, 545, 546, 547, 548, 549, 550, 551, 552, 553, 554, 555, 556, 557, 558, 559, 560, 561, 562, 563, 564, 565, 566, 567, 568, 569, 570, 571, 572, 573, 574, 575, 576, 577, 578, 579, 580, 581, 582, 583, 584, 585, 586, 587, 588, 589, 590, 591, 592, 593, 594, 595, 596, 597, 598, 599, 600, 601, 602, 603, 604, 605, 606, 607, 608, 609, 610, 611, 612, 613, 614, 615, 616, 617, 618, 619, 620, 621, 622, 623, 624, 625, 626, 627, 628, 629, 630, 631, 632, 633, 634, 635, 636, 637, 638, 639, 640, 641, 642, 643, 644, 645, 646, 647, 648, 649, 650, 651, 652, 653, 654, 655, 656, 657, 658, 659, 660, 661, 662, 663, 664, 665, 666, 667, 668, 669, 670, 671, 672, 673, 674, 675, 676, 677, 678, 679, 680, 681, 682, 683, 684, 685, 686, 687, 688, 689, 690, 691, 692, 693, 694, 695, 696, 697, 698, 699, 700, 701, 702, 703, 704, 705, 706, 707, 708, 709, 710, 711, 712, 713, 714, 715, 716, 717, 718, 719, 720, 721, 722, 723, 724, 725, 726, 727, 728, 729, 730, 731, 732, 733, 734, 735, 736, 737, 738, 739, 740, 741, 742, 743, 744, 745, 746, 747, 748, 749, 750, 751, 752, 753, 754, 755, 756, 757, 758, 759, 760, 761, 762, 763, 764, 765, 766, 767, 768, 769, 770, 771, 772, 773, 774, 775, 776, 777, 778, 779, 780, 781, 782, 783, 784, 785, 786, 787, 788, 789, 790, 791, 792, 793, 794, 795, 796, 797, 798, 799, 800, 801, 802, 803, 804, 805, 806, 807, 808, 809, 810, 811, 812, 813, 814, 815, 816, 817, 818, 819, 820, 821, 822, 823, 824, 825, 826, 827, 828, 829, 830, 831, 832, 833, 834, 835, 836, 837, 838, 839, 840, 841, 842, 843, 844, 845, 846, 847, 848, 849, 850, 851, 852, 853, 854, 855, 856, 857, 858, 859, 860, 861, 862, 863, 864, 865, 866, 867, 868, 869, 870, 871, 872],
      "AcquisitionTime": ["143955.885000", "143956.345000", "143956.805000", "143957.265000", "143957.725000", "143958.185000", "143958.645000", "143959.105000", "143959.565000", "144000.025000", "144000.485000", "144000.945000", "144001.405000", "144001.865000", "144002.325000", "144002.785000", "144003.245000", "144003.705000", "144004.165000", "144004.625000", "144005.085000", "144005.545000", "144006.005000", "144006.465000", "144006.925000", "144007.385000", "144007.845000", "144008.305000", "144008.765000", "144009.225000", "144009.685000", "144010.145000", "144010.605000", "144011.065000", "144011.525000", "144011.985000", "144012.445000", "144012.905000", "144013.365000", "144013.825000", "144014.285000", "144014.745000", "144015.205000", "144015.665000", "144016.125000", "144016.585000", "144017.045000", "144017.505000", "144017.965000", "144018.425000", "144018.885000", "144019.345000", "144019.805000", "144020.265000", "144020.725000", "144021.185000", "144021.645000", "144022.105000", "144022.565000", "144023.025000", "144023.485000", "144023.945000", "144024.405000", "144024.865000", "144025.325000", "144025.785000", "144026.245000", "144026.705000", "144027.165000", "144027.625000", "144028.085000", "144028.545000", "144029.005000", "144029.465000", "144029.925000", "144030.385000", "144030.845000", "144031.305000", "144031.765000", "144032.225000", "144032.685000", "144033.145000", "144033.605000", "144034.065000", "144034.525000", "144034.985000", "144035.445000", "144035.905000", "144036.365000", "144036.825000", "144037.285000", "144037.745000", "144038.205000", "144038.665000", "144039.125000", "144039.585000", "144040.045000", "144040.505000", "144040.965000", "144041.425000", "144041.885000", "144042.345000", "144042.805000", "144043.265000", "144043.725000", "144044.185000", "144044.645000", "144045.105000", "144045.565000", "144046.025000", "144046.485000", "144046.945000", "144047.405000", "144047.865000", "144048.325000", "144048.785000", "144049.245000", "144049.705000", "144050.165000", "144050.625000", "144051.085000", "144051.545000", "144052.005000", "144052.465000", "144052.925000", "144053.385000", "144053.845000", "144054.305000", "144054.765000", "144055.225000", "144055.685000", "144056.145000", "144056.605000", "144057.065000", "144057.525000", "144057.985000", "144058.445000", "144058.905000", "144059.365000", "144059.825000", "144100.285000", "144100.745000", "144101.205000", "144101.665000", "144102.125000", "144102.585000", "144103.045000", "144103.505000", "144103.965000", "144104.425000", "144104.885000", "144105.345000", "144105.805000", "144106.265000", "144106.725000", "144107.185000", "144107.645000", "144108.105000", "144108.565000", "144109.025000", "144109.485000", "144109.945000", "144110.405000", "144110.865000", "144111.325000", "144111.785000", "144112.245000", "144112.705000", "144113.165000", "144113.625000", "144114.085000", "144114.545000", "144115.005000", "144115.465000", "144115.925000", "144116.385000", "144116.845000", "144117.305000", "144117.765000", "144118.225000", "144118.685000", "144119.145000", "144119.605000", "144120.065000", "144120.525000", "144120.985000", "144121.445000", "144121.905000", "144122.365000", "144122.825000", "144123.285000", "144123.745000", "144124.205000", "144124.665000", "144125.125000", "144125.585000", "144126.045000", "144126.505000", "144126.965000", "144127.425000", "144127.885000", "144128.345000", "144128.805000", "144129.265000", "144129.725000", "144130.185000", "144130.645000", "144131.105000", "144131.565000", "144132.025000", "144132.485000", "144132.945000", "144133.405000", "144133.865000", "144134.325000", "144134.785000", "144135.245000", "144135.705000", "144136.165000", "144136.625000", "144137.085000", "144137.545000", "144138.005000", "144138.465000", "144138.925000", "144139.385000", "144139.845000", "144140.305000", "144140.765000", "144141.225000", "144141.685000", "144142.145000", "144142.605000", "144143.065000", "144143.525000", "144143.985000", "144144.445000", "144144.905000", "144145.365000", "144145.825000", "144146.285000", "144146.745000", "144147.205000", "144147.665000", "144148.125000", "144148.585000", "144149.045000", "144149.505000", "144149.965000", "144150.425000", "144150.885000", "144151.345000", "144151.805000", "144152.265000", "144152.725000", "144153.185000", "144153.645000", "144154.105000", "144154.565000", "144155.025000", "144155.485000", "144155.945000", "144156.405000", "144156.865000", "144157.325000", "144157.785000", "144158.245000", "144158.705000", "144159.165000", "144159.625000", "144200.085000", "144200.545000", "144201.005000", "144201.465000", "144201.925000", "144202.385000", "144202.845000", "144203.305000", "144203.765000", "144204.225000", "144204.685000", "144205.145000", "144205.605000", "144206.065000", "144206.525000", "144206.985000", "144207.445000", "144207.905000", "144208.365000", "144208.825000", "144209.285000", "144209.745000", "144210.205000", "144210.665000", "144211.125000", "144211.585000", "144212.045000", "144212.505000", "144212.965000", "144213.425000", "144213.885000", "144214.345000", "144214.805000", "144215.265000", "144215.725000", "144216.185000", "144216.645000", "144217.105000", "144217.565000", "144218.025000", "144218.485000", "144218.945000", "144219.405000", "144219.865000", "144220.325000", "144220.785000", "144221.245000", "144221.705000", "144222.165000", "144222.625000", "144223.085000", "144223.545000", "144224.005000", "144224.465000", "144224.925000", "144225.385000", "144225.845000", "144226.305000", "144226.765000", "144227.225000", "144227.685000", "144228.145000", "144228.605000", "144229.065000", "144229.525000", "144229.985000", "144230.445000", "144230.905000", "144231.365000", "144231.825000", "144232.285000", "144232.745000", "144233.205000", "144233.665000", "144234.125000", "144234.585000", "144235.045000", "144235.505000", "144235.965000", "144236.425000", "144236.885000", "144237.345000", "144237.805000", "144238.265000", "144238.725000", "144239.185000", "144239.645000", "144240.105000", "144240.565000", "144241.025000", "144241.485000", "144241.945000", "144242.405000", "144242.865000", "144243.325000", "144243.785000", "144244.245000", "144244.705000", "144245.165000", "144245.625000", "144246.085000", "144246.545000", "144247.005000", "144247.465000", "144247.925000", "144248.385000", "144248.845000", "144249.305000", "144249.765000", "144250.225000", "144250.685000", "144251.145000", "144251.605000", "144252.065000", "144252.525000", "144252.985000", "144253.445000", "144253.905000", "144254.365000", "144254.825000", "144255.285000", "144255.745000", "144256.205000", "144256.665000", "144257.125000", "144257.585000", "144258.045000", "144258.505000", "144258.965000", "144259.425000", "144259.885000", "144300.345000", "144300.805000", "144301.265000", "144301.725000", "144302.185000", "144302.645000", "144303.105000", "144303.565000", "144304.025000", "144304.485000", "144304.945000", "144305.405000", "144305.865000", "144306.325000", "144306.785000", "144307.245000", "144307.705000", "144308.165000", "144308.625000", "144309.085000", "144309.545000", "144310.005000", "144310.465000", "144310.925000", "144311.385000", "144311.845000", "144312.305000", "144312.765000", "144313.225000", "144313.685000", "144314.145000", "144314.605000", "144315.065000", "144315.525000", "144315.985000", "144316.445000", "144316.905000", "144317.365000", "144317.825000", "144318.285000", "144318.745000", "144319.205000", "144319.665000", "144320.125000", "144320.585000", "144321.045000", "144321.505000", "144321.965000", "144322.425000", "144322.885000", "144323.345000", "144323.805000", "144324.265000", "144324.725000", "144325.185000", "144325.645000", "144326.105000", "144326.565000", "144327.025000", "144327.485000", "144327.945000", "144328.405000", "144328.865000", "144329.325000", "144329.785000", "144330.245000", "144330.705000", "144331.165000", "144331.625000", "144332.085000", "144332.545000", "144333.005000", "144333.465000", "144333.925000", "144334.385000", "144334.845000", "144335.305000", "144335.765000", "144336.225000", "144336.685000", "144337.145000", "144337.605000", "144338.065000", "144338.525000", "144338.985000", "144339.445000", "144339.905000", "144340.365000", "144340.825000", "144341.285000", "144341.745000", "144342.205000", "144342.665000", "144343.125000", "144343.585000", "144344.045000", "144344.505000", "144344.965000", "144345.425000", "144345.885000", "144346.345000", "144346.805000", "144347.265000", "144347.725000", "144348.185000", "144348.645000", "144349.105000", "144349.565000", "144350.025000", "144350.485000", "144350.945000", "144351.405000", "144351.865000", "144352.325000", "144352.785000", "144353.245000", "144353.705000", "144354.165000", "144354.625000", "144355.085000", "144355.545000", "144356.005000", "144356.465000", "144356.925000", "144357.385000", "144357.845000", "144358.305000", "144358.765000", "144359.225000", "144359.685000", "144400.145000", "144400.605000", "144401.065000", "144401.525000", "144401.985000", "144402.445000", "144402.905000", "144403.365000", "144403.825000", "144404.285000", "144404.745000", "144405.205000", "144405.665000", "144406.125000", "144406.585000", "144407.045000", "144407.505000", "144407.965000", "144408.425000", "144408.885000", "144409.345000", "144409.805000", "144410.265000", "144410.725000", "144411.185000", "144411.645000", "144412.105000", "144412.565000", "144413.025000", "144413.485000", "144413.945000", "144414.405000", "144414.865000", "144415.325000", "144415.785000", "144416.245000", "144416.705000", "144417.165000", "144417.625000", "144418.085000", "144418.545000", "144419.005000", "144419.465000", "144419.925000", "144420.385000", "144420.845000", "144421.305000", "144421.765000", "144422.225000", "144422.685000", "144423.145000", "144423.605000", "144424.065000", "144424.525000", "144424.985000", "144425.445000", "144425.905000", "144426.365000", "144426.825000", "144427.285000", "144427.745000", "144428.205000", "144428.665000", "144429.125000", "144429.585000", "144430.045000", "144430.505000", "144430.965000", "144431.425000", "144431.885000", "144432.345000", "144432.805000", "144433.265000", "144433.725000", "144434.185000", "144434.645000", "144435.105000", "144435.565000", "144436.025000", "144436.485000", "144436.945000", "144437.405000", "144437.865000", "144438.325000", "144438.785000", "144439.245000", "144439.705000", "144440.165000", "144440.625000", "144441.085000", "144441.545000", "144442.005000", "144442.465000", "144442.925000", "144443.385000", "144443.845000", "144444.305000", "144444.765000", "144445.225000", "144445.685000", "144446.145000", "144446.605000", "144447.065000", "144447.525000", "144447.985000", "144448.445000", "144448.905000", "144449.365000", "144449.825000", "144450.285000", "144450.745000", "144451.205000", "144451.665000", "144452.125000", "144452.585000", "144453.045000", "144453.505000", "144453.965000", "144454.425000", "144454.885000", "144455.345000", "144455.805000", "144456.265000", "144456.725000", "144457.185000", "144457.645000", "144458.105000", "144458.565000", "144459.025000", "144459.485000", "144459.945000", "144500.405000", "144500.865000", "144501.325000", "144501.785000", "144502.245000", "144502.705000", "144503.165000", "144503.625000", "144504.085000", "144504.545000", "144505.005000", "144505.465000", "144505.925000", "144506.385000", "144506.845000", "144507.305000", "144507.765000", "144508.225000", "144508.685000", "144509.145000", "144509.605000", "144510.065000", "144510.525000", "144510.985000", "144511.445000", "144511.905000", "144512.365000", "144512.825000", "144513.285000", "144513.745000", "144514.205000", "144514.665000", "144515.125000", "144515.585000", "144516.045000", "144516.505000", "144516.965000", "144517.425000", "144517.885000", "144518.345000", "144518.805000", "144519.265000", "144519.725000", "144520.185000", "144520.645000", "144521.105000", "144521.565000", "144522.025000", "144522.485000", "144522.945000", "144523.405000", "144523.865000", "144524.325000", "144524.785000", "144525.245000", "144525.705000", "144526.165000", "144526.625000", "144527.085000", "144527.545000", "144528.005000", "144528.465000", "144528.925000", "144529.385000", "144529.845000", "144530.305000", "144530.765000", "144531.225000", "144531.685000", "144532.145000", "144532.605000", "144533.065000", "144533.525000", "144533.985000", "144534.445000", "144534.905000", "144535.365000", "144535.825000", "144536.285000", "144536.745000", "144537.205000", "144537.665000", "144538.125000", "144538.585000", "144539.045000", "144539.505000", "144539.965000", "144540.425000", "144540.885000", "144541.345000", "144541.805000", "144542.265000", "144542.725000", "144543.185000", "144543.645000", "144544.105000", "144544.565000", "144545.025000", "144545.485000", "144545.945000", "144546.405000", "144546.865000", "144547.325000", "144547.785000", "144548.245000", "144548.705000", "144549.165000", "144549.625000", "144550.085000", "144550.545000", "144551.005000", "144551.465000", "144551.925000", "144552.385000", "144552.845000", "144553.305000", "144553.765000", "144554.225000", "144554.685000", "144555.145000", "144555.605000", "144556.065000", "144556.525000", "144556.985000", "144557.445000", "144557.905000", "144558.365000", "144558.825000", "144559.285000", "144559.745000", "144600.205000", "144600.665000", "144601.125000", "144601.585000", "144602.045000", "144602.505000", "144602.965000", "144603.425000", "144603.885000", "144604.345000", "144604.805000", "144605.265000", "144605.725000", "144606.185000", "144606.645000", "144607.105000", "144607.565000", "144608.025000", "144608.485000", "144608.945000", "144609.405000", "144609.865000", "144610.325000", "144610.785000", "144611.245000", "144611.705000", "144612.165000", "144612.625000", "144613.085000", "144613.545000", "144614.005000", "144614.465000", "144614.925000", "144615.385000", "144615.845000", "144616.305000", "144616.765000", "144617.225000", "144617.685000", "144618.145000", "144618.605000", "144619.065000", "144619.525000", "144619.985000", "144620.445000", "144620.905000", "144621.365000", "144621.825000", "144622.285000", "144622.745000", "144623.205000", "144623.665000", "144624.125000", "144624.585000", "144625.045000", "144625.505000", "144625.965000", "144626.425000", "144626.885000", "144627.345000", "144627.805000", "144628.265000", "144628.725000", "144629.185000", "144629.645000", "144630.105000", "144630.565000", "144631.025000", "144631.485000", "144631.945000", "144632.405000", "144632.865000", "144633.325000", "144633.785000", "144634.245000", "144634.705000", "144635.165000", "144635.625000", "144636.085000", "144636.545000"],
