{
  "AcquisitionMatrixPE": 82,
  "AcquisitionNumber": 1,
  "AcquisitionTime": "15:52:49.897500",
  "BandwidthPerPixelPhaseEncode": 24.888,
  "BaseResolution": 82,
  "BodyPartExamined": "BRAIN",
  "ConsistencyInfo": "N4_VE11E_LATEST_20181129",
  "ConversionSoftware": "dcm2niix",
  "ConversionSoftwareVersion": "v1.0.20201102",
  "DerivedVendorReportedEchoSpacing": 0.00049,
  "DeviceSerialNumber": "66112",
  "DwellTime": 2e-06,
  "EchoTime": 0.0272,
  "EchoTrainLength": 82,
  "EffectiveEchoSpacing": 0.00049,
  "FlipAngle": 44,
  "ImageComments": "Unaliased MB8/PE3",
  "ImageOrientationPatientDICOM": [0.993042, -0.112431, 0.0350243, 0.11367, 0.992879, -0.0356421],
  "ImageType": [
    "ORIGINAL",
    "PRIMARY",
    "M",
    "MB",
    "ND",
    "NORM",
    "MOSAIC"
],
  "ImagingFrequency": 123.259,
  "InPlanePhaseEncodingDirectionDICOM": "COL",
  "InstitutionAddress": "Maynard 3,Hanover,NH,US,03755",
  "InstitutionName": "Dartmouth College - PBS",
  "InstitutionalDepartmentName": "Department",
  "MRAcquisitionType": "2D",
  "MagneticFieldStrength": 3,
  "Manufacturer": "Siemens",
  "ManufacturersModelName": "Prisma",
  "Modality": "MR",
  "MultibandAccelerationFactor": 8,
  "PartialFourier": 1,
  "PatientPosition": "HFS",
  "PercentPhaseFOV": 100,
  "PercentSampling": 100,
  "PhaseEncodingDirection": "j-",
  "PhaseEncodingSteps": 82,
  "PhaseResolution": 1,
  "PixelBandwidth": 3050,
  "ProcedureStepDescription": "Wager_Wager^1076_spacetop",
  "ProtocolName": "func_run-03_task-alignvideo_acq-ap-mb8",
  "PulseSequenceDetails": "%CustomerSeq%\\cmrr_mbep2d_bold",
  "ReceiveCoilActiveElements": "HEA;HEP",
  "ReceiveCoilName": "Head_32",
  "ReconMatrixPE": 82,
  "RepetitionTime": 0.46,
  "SAR": 0.0815919,
  "ScanOptions": "FS",
  "ScanningSequence": "EP",
  "SequenceName": "epfid2d1_82",
  "SequenceVariant": "SK\\SS",
  "SeriesDescription": "func_run-03_task-alignvideo_acq-ap-mb8",
  "SeriesNumber": 32,
  "ShimSetting": [4250, -7781, -7226, 272, -125, -267, -100, 10],
  "SliceThickness": 2.7,
  "SliceTiming": [0, 0.2525, 0.065, 0.315, 0.1275, 0.3775, 0.19, 0, 0.2525, 0.065, 0.315, 0.1275, 0.3775, 0.19, 0, 0.2525, 0.065, 0.315, 0.1275, 0.3775, 0.19, 0, 0.2525, 0.065, 0.315, 0.1275, 0.3775, 0.19, 0, 0.2525, 0.065, 0.315, 0.1275, 0.3775, 0.19, 0, 0.2525, 0.065, 0.315, 0.1275, 0.3775, 0.19, 0, 0.2525, 0.065, 0.315, 0.1275, 0.3775, 0.19, 0, 0.2525, 0.065, 0.315, 0.1275, 0.3775, 0.19],
  "SoftwareVersions": "syngo MR E11",
  "SpacingBetweenSlices": 2.7,
  "StationName": "AWP66112",
  "TaskName": "alignvideo",
  "TotalReadoutTime": 0.03969,
  "TxRefAmp": 230.085,
  "WipMemBlock": "ed66c87a-35b9-40d3-927d-978173890e35||Sequence: R016 ve11e/master r/434b28f1; Aug  7 2019 18:53:46 by eja",
  "dcmmeta_affine": [
    [-2.664259433746338, 0.30496710538864136, 0.08307254314422607, 83.11073303222656],
    [0.3016439378261566, 2.6638219356536865, -0.10631334781646729, -117.30669403076172],
    [0.09396760910749435, 0.09562518447637558, 2.696626901626587, -111.22736358642578],
    [0.0, 0.0, 0.0, 1.0]
],
  "dcmmeta_reorient_transform": [
    [0.0, -1.0, 0.0, 81.0],
    [1.0, 0.0, 0.0, 0.0],
    [0.0, 0.0, 1.0, 0.0],
    [0.0, 0.0, 0.0, 1.0]
],
  "dcmmeta_shape": [82, 82, 56, 1065],
  "dcmmeta_slice_dim": 2,
  "dcmmeta_version": 0.6,
  "global": {
    "const": {
      "AccessionNumber": "A004339",
      "AcquisitionMatrix": [82, 0, 0, 82],
      "AngioFlag": "N",
      "BitsAllocated": 16,
      "BitsStored": 16,
      "BodyPartExamined": "BRAIN",
      "Columns": 656,
      "EchoNumbers": 1,
      "EchoTime": 27.2,
      "EchoTrainLength": 82,
      "FlipAngle": 44.0,
      "HighBit": 15,
      "ImageOrientationPatient": [0.99304208757105, -0.1124309185781, 0.035024289575, 0.11366954979394, 0.99287908287554, -0.0356421132633],
      "ImagePositionPatient": [-959.98104933347, -776.4079907914, -103.00599775853],
      "ImageType": [
        "ORIGINAL",
        "PRIMARY",
        "M",
        "MB",
        "ND",
        "NORM",
        "MOSAIC"
],
      "ImagedNucleus": "1H",
      "ImagingFrequency": 123.259184,
      "InPlanePhaseEncodingDirection": "COL",
      "MRAcquisitionType": "2D",
      "MagneticFieldStrength": 3.0,
      "Manufacturer": "SIEMENS",
      "ManufacturerModelName": "Prisma",
      "Modality": "MR",
      "NumberOfAverages": 1.0,
      "NumberOfPhaseEncodingSteps": 82,
      "PercentPhaseFieldOfView": 100.0,
      "PercentSampling": 100.0,
      "PerformedProcedureStepStartTime": "134728.335000",
      "PhotometricInterpretation": "MONOCHROME2",
      "PixelBandwidth": 3050.0,
      "PixelRepresentation": 0,
      "PixelSpacing": [2.6829268932343, 2.6829268932343],
      "ProtocolName": "func_run-03_task-alignvideo_acq-ap-mb8",
      "RepetitionTime": 460.0,
      "Rows": 656,
      "SAR": 0.08159184828728,
      "SamplesPerPixel": 1,
      "ScanOptions": "FS",
      "ScanningSequence": "EP",
      "SequenceName": "epfid2d1_82",
      "SequenceVariant": [
        "SK",
        "SS"
],
      "SeriesDescription": "func_run-03_task-alignvideo_acq-ap-mb8",
      "SeriesNumber": 32,
      "SeriesTime": "155317.619000",
      "SliceLocation": -103.91229795243,
      "SliceThickness": 2.7000000476837,
      "SmallestImagePixelValue": 0,
      "SoftwareVersions": "syngo MR E11",
      "SpacingBetweenSlices": 2.6999999760884,
      "SpecificCharacterSet": "ISO_IR 100",
      "StudyID": "3",
      "StudyTime": "134728.293000",
      "TransmitCoilName": "Body",
      "VariableFlipAngleFlag": "N",
      "WindowCenterWidthExplanation": "Algo1"
    },
    "slices": {}
  },
  "time": {
    "samples": {
      "AcquisitionNumber": [1, 2, 3, 4, 5, 6, 7, 8, 9, 10, 11, 12, 13, 14, 15, 16, 17, 18, 19, 20, 21, 22, 23, 24, 25, 26, 27, 28, 29, 30, 31, 32, 33, 34, 35, 36, 37, 38, 39, 40, 41, 42, 43, 44, 45, 46, 47, 48, 49, 50, 51, 52, 53, 54, 55, 56, 57, 58, 59, 60, 61, 62, 63, 64, 65, 66, 67, 68, 69, 70, 71, 72, 73, 74, 75, 76, 77, 78, 79, 80, 81, 82, 83, 84, 85, 86, 87, 88, 89, 90, 91, 92, 93, 94, 95, 96, 97, 98, 99, 100, 101, 102, 103, 104, 105, 106, 107, 108, 109, 110, 111, 112, 113, 114, 115, 116, 117, 118, 119, 120, 121, 122, 123, 124, 125, 126, 127, 128, 129, 130, 131, 132, 133, 134, 135, 136, 137, 138, 139, 140, 141, 142, 143, 144, 145, 146, 147, 148, 149, 150, 151, 152, 153, 154, 155, 156, 157, 158, 159, 160, 161, 162, 163, 164, 165, 166, 167, 168, 169, 170, 171, 172, 173, 174, 175, 176, 177, 178, 179, 180, 181, 182, 183, 184, 185, 186, 187, 188, 189, 190, 191, 192, 193, 194, 195, 196, 197, 198, 199, 200, 201, 202, 203, 204, 205, 206, 207, 208, 209, 210, 211, 212, 213, 214, 215, 216, 217, 218, 219, 220, 221, 222, 223, 224, 225, 226, 227, 228, 229, 230, 231, 232, 233, 234, 235, 236, 237, 238, 239, 240, 241, 242, 243, 244, 245, 246, 247, 248, 249, 250, 251, 252, 253, 254, 255, 256, 257, 258, 259, 260, 261, 262, 263, 264, 265, 266, 267, 268, 269, 270, 271, 272, 273, 274, 275, 276, 277, 278, 279, 280, 281, 282, 283, 284, 285, 286, 287, 288, 289, 290, 291, 292, 293, 294, 295, 296, 297, 298, 299, 300, 301, 302, 303, 304, 305, 306, 307, 308, 309, 310, 311, 312, 313, 314, 315, 316, 317, 318, 319, 320, 321, 322, 323, 324, 325, 326, 327, 328, 329, 330, 331, 332, 333, 334, 335, 336, 337, 338, 339, 340, 341, 342, 343, 344, 345, 346, 347, 348, 349, 350, 351, 352, 353, 354, 355, 356, 357, 358, 359, 360, 361, 362, 363, 364, 365, 366, 367, 368, 369, 370, 371, 372, 373, 374, 375, 376, 377, 378, 379, 380, 381, 382, 383, 384, 385, 386, 387, 388, 389, 390, 391, 392, 393, 394, 395, 396, 397, 398, 399, 400, 401, 402, 403, 404, 405, 406, 407, 408, 409, 410, 411, 412, 413, 414, 415, 416, 417, 418, 419, 420, 421, 422, 423, 424, 425, 426, 427, 428, 429, 430, 431, 432, 433, 434, 435, 436, 437, 438, 439, 440, 441, 442, 443, 444, 445, 446, 447, 448, 449, 450, 451, 452, 453, 454, 455, 456, 457, 458, 459, 460, 461, 462, 463, 464, 465, 466, 467, 468, 469, 470, 471, 472, 473, 474, 475, 476, 477, 478, 479, 480, 481, 482, 483, 484, 485, 486, 487, 488, 489, 490, 491, 492, 493, 494, 495, 496, 497, 498, 499, 500, 501, 502, 503, 504, 505, 506, 507, 508, 509, 510, 511, 512, 513, 514, 515, 516, 517, 518, 519, 520, 521, 522, 523, 524, 525, 526, 527, 528, 529, 530, 531, 532, 533, 534, 535, 536, 537, 538, 539, 540, 541, 542, 543, 544, 545, 546, 547, 548, 549, 550, 551, 552, 553, 554, 555, 556, 557, 558, 559, 560, 561, 562, 563, 564, 565, 566, 567, 568, 569, 570, 571, 572, 573, 574, 575, 576, 577, 578, 579, 580, 581, 582, 583, 584, 585, 586, 587, 588, 589, 590, 591, 592, 593, 594, 595, 596, 597, 598, 599, 600, 601, 602, 603, 604, 605, 606, 607, 608, 609, 610, 611, 612, 613, 614, 615, 616, 617, 618, 619, 620, 621, 622, 623, 624, 625, 626, 627, 628, 629, 630, 631, 632, 633, 634, 635, 636, 637, 638, 639, 640, 641, 642, 643, 644, 645, 646, 647, 648, 649, 650, 651, 652, 653, 654, 655, 656, 657, 658, 659, 660, 661, 662, 663, 664, 665, 666, 667, 668, 669, 670, 671, 672, 673, 674, 675, 676, 677, 678, 679, 680, 681, 682, 683, 684, 685, 686, 687, 688, 689, 690, 691, 692, 693, 694, 695, 696, 697, 698, 699, 700, 701, 702, 703, 704, 705, 706, 707, 708, 709, 710, 711, 712, 713, 714, 715, 716, 717, 718, 719, 720, 721, 722, 723, 724, 725, 726, 727, 728, 729, 730, 731, 732, 733, 734, 735, 736, 737, 738, 739, 740, 741, 742, 743, 744, 745, 746, 747, 748, 749, 750, 751, 752, 753, 754, 755, 756, 757, 758, 759, 760, 761, 762, 763, 764, 765, 766, 767, 768, 769, 770, 771, 772, 773, 774, 775, 776, 777, 778, 779, 780, 781, 782, 783, 784, 785, 786, 787, 788, 789, 790, 791, 792, 793, 794, 795, 796, 797, 798, 799, 800, 801, 802, 803, 804, 805, 806, 807, 808, 809, 810, 811, 812, 813, 814, 815, 816, 817, 818, 819, 820, 821, 822, 823, 824, 825, 826, 827, 828, 829, 830, 831, 832, 833, 834, 835, 836, 837, 838, 839, 840, 841, 842, 843, 844, 845, 846, 847, 848, 849, 850, 851, 852, 853, 854, 855, 856, 857, 858, 859, 860, 861, 862, 863, 864, 865, 866, 867, 868, 869, 870, 871, 872, 873, 874, 875, 876, 877, 878, 879, 880, 881, 882, 883, 884, 885, 886, 887, 888, 889, 890, 891, 892, 893, 894, 895, 896, 897, 898, 899, 900, 901, 902, 903, 904, 905, 906, 907, 908, 909, 910, 911, 912, 913, 914, 915, 916, 917, 918, 919, 920, 921, 922, 923, 924, 925, 926, 927, 928, 929, 930, 931, 932, 933, 934, 935, 936, 937, 938, 939, 940, 941, 942, 943, 944, 945, 946, 947, 948, 949, 950, 951, 952, 953, 954, 955, 956, 957, 958, 959, 960, 961, 962, 963, 964, 965, 966, 967, 968, 969, 970, 971, 972, 973, 974, 975, 976, 977, 978, 979, 980, 981, 982, 983, 984, 985, 986, 987, 988, 989, 990, 991, 992, 993, 994, 995, 996, 997, 998, 999, 1000, 1001, 1002, 1003, 1004, 1005, 1006, 1007, 1008, 1009, 1010, 1011, 1012, 1013, 1014, 1015, 1016, 1017, 1018, 1019, 1020, 1021, 1022, 1023, 1024, 1025, 1026, 1027, 1028, 1029, 1030, 1031, 1032, 1033, 1034, 1035, 1036, 1037, 1038, 1039, 1040, 1041, 1042, 1043, 1044, 1045, 1046, 1047, 1048, 1049, 1050, 1051, 1052, 1053, 1054, 1055, 1056, 1057, 1058, 1059, 1060, 1061, 1062, 1063, 1064, 1065],
      "AcquisitionTime": ["155249.897500", "155250.357500", "155250.817500", "155251.277500", "155251.737500", "155252.197500", "155252.657500", "155253.117500", "155253.577500", "155254.037500", "155254.497500", "155254.957500", "155255.417500", "155255.877500", "155256.337500", "155256.797500", "155257.257500", "155257.717500", "155258.177500", "155258.637500", "155259.097500", "155259.557500", "155300.017500", "155300.477500", "155300.937500", "155301.397500", "155301.857500", "155302.317500", "155302.777500", "155303.237500", "155303.697500", "155304.157500", "155304.617500", "155305.077500", "155305.537500", "155305.997500", "155306.457500", "155306.917500", "155307.377500", "155307.837500", "155308.297500", "155308.757500", "155309.217500", "155309.677500", "155310.137500", "155310.597500", "155311.057500", "155311.517500", "155311.977500", "155312.437500", "155312.897500", "155313.357500", "155313.817500", "155314.277500", "155314.737500", "155315.197500", "155315.657500", "155316.117500", "155316.577500", "155317.037500", "155317.497500", "155317.957500", "155318.417500", "155318.877500", "155319.337500", "155319.797500", "155320.257500", "155320.717500", "155321.177500", "155321.637500", "155322.097500", "155322.557500", "155323.017500", "155323.477500", "155323.937500", "155324.397500", "155324.857500", "155325.317500", "155325.777500", "155326.237500", "155326.697500", "155327.157500", "155327.617500", "155328.077500", "155328.537500", "155328.997500", "155329.457500", "155329.917500", "155330.377500", "155330.837500", "155331.297500", "155331.757500", "155332.217500", "155332.677500", "155333.137500", "155333.597500", "155334.057500", "155334.517500", "155334.977500", "155335.437500", "155335.897500", "155336.357500", "155336.817500", "155337.277500", "155337.737500", "155338.197500", "155338.657500", "155339.117500", "155339.577500", "155340.037500", "155340.497500", "155340.957500", "155341.417500", "155341.877500", "155342.337500", "155342.797500", "155343.257500", "155343.717500", "155344.177500", "155344.637500", "155345.097500", "155345.557500", "155346.017500", "155346.477500", "155346.937500", "155347.397500", "155347.857500", "155348.317500", "155348.777500", "155349.237500", "155349.697500", "155350.157500", "155350.617500", "155351.077500", "155351.537500", "155351.997500", "155352.457500", "155352.917500", "155353.377500", "155353.837500", "155354.297500", "155354.757500", "155355.217500", "155355.677500", "155356.137500", "155356.597500", "155357.057500", "155357.517500", "155357.977500", "155358.437500", "155358.897500", "155359.357500", "155359.817500", "155400.277500", "155400.737500", "155401.197500", "155401.657500", "155402.117500", "155402.577500", "155403.037500", "155403.497500", "155403.957500", "155404.417500", "155404.877500", "155405.337500", "155405.797500", "155406.257500", "155406.717500", "155407.177500", "155407.637500", "155408.097500", "155408.557500", "155409.017500", "155409.477500", "155409.937500", "155410.397500", "155410.857500", "155411.317500", "155411.777500", "155412.237500", "155412.697500", "155413.157500", "155413.617500", "155414.077500", "155414.537500", "155414.997500", "155415.457500", "155415.917500", "155416.377500", "155416.837500", "155417.297500", "155417.757500", "155418.217500", "155418.677500", "155419.137500", "155419.597500", "155420.057500", "155420.517500", "155420.977500", "155421.437500", "155421.897500", "155422.357500", "155422.817500", "155423.277500", "155423.737500", "155424.197500", "155424.657500", "155425.117500", "155425.577500", "155426.037500", "155426.497500", "155426.957500", "155427.417500", "155427.877500", "155428.337500", "155428.797500", "155429.257500", "155429.717500", "155430.177500", "155430.637500", "155431.097500", "155431.557500", "155432.017500", "155432.477500", "155432.937500", "155433.397500", "155433.857500", "155434.317500", "155434.777500", "155435.237500", "155435.697500", "155436.157500", "155436.617500", "155437.077500", "155437.537500", "155437.997500", "155438.457500", "155438.917500", "155439.377500", "155439.837500", "155440.297500", "155440.757500", "155441.217500", "155441.677500", "155442.137500", "155442.597500", "155443.057500", "155443.517500", "155443.977500", "155444.437500", "155444.897500", "155445.357500", "155445.817500", "155446.277500", "155446.737500", "155447.197500", "155447.657500", "155448.117500", "155448.577500", "155449.037500", "155449.497500", "155449.957500", "155450.417500", "155450.877500", "155451.337500", "155451.797500", "155452.257500", "155452.717500", "155453.177500", "155453.637500", "155454.097500", "155454.557500", "155455.017500", "155455.477500", "155455.937500", "155456.397500", "155456.857500", "155457.317500", "155457.777500", "155458.237500", "155458.697500", "155459.157500", "155459.617500", "155500.077500", "155500.537500", "155500.997500", "155501.457500", "155501.917500", "155502.377500", "155502.837500", "155503.297500", "155503.757500", "155504.217500", "155504.677500", "155505.137500", "155505.597500", "155506.057500", "155506.517500", "155506.977500", "155507.437500", "155507.897500", "155508.357500", "155508.817500", "155509.277500", "155509.737500", "155510.197500", "155510.657500", "155511.117500", "155511.577500", "155512.037500", "155512.497500", "155512.957500", "155513.417500", "155513.877500", "155514.337500", "155514.797500", "155515.257500", "155515.717500", "155516.177500", "155516.637500", "155517.097500", "155517.557500", "155518.017500", "155518.477500", "155518.937500", "155519.397500", "155519.857500", "155520.317500", "155520.777500", "155521.237500", "155521.697500", "155522.157500", "155522.617500", "155523.077500", "155523.537500", "155523.997500", "155524.457500", "155524.917500", "155525.377500", "155525.837500", "155526.297500", "155526.757500", "155527.217500", "155527.677500", "155528.137500", "155528.597500", "155529.057500", "155529.517500", "155529.977500", "155530.437500", "155530.897500", "155531.357500", "155531.817500", "155532.277500", "155532.737500", "155533.197500", "155533.657500", "155534.117500", "155534.577500", "155535.037500", "155535.497500", "155535.957500", "155536.417500", "155536.877500", "155537.337500", "155537.797500", "155538.257500", "155538.717500", "155539.177500", "155539.637500", "155540.097500", "155540.557500", "155541.017500", "155541.477500", "155541.937500", "155542.397500", "155542.857500", "155543.317500", "155543.777500", "155544.237500", "155544.697500", "155545.157500", "155545.617500", "155546.077500", "155546.537500", "155546.997500", "155547.457500", "155547.917500", "155548.377500", "155548.837500", "155549.297500", "155549.757500", "155550.217500", "155550.677500", "155551.137500", "155551.597500", "155552.057500", "155552.517500", "155552.977500", "155553.437500", "155553.897500", "155554.357500", "155554.817500", "155555.277500", "155555.737500", "155556.197500", "155556.657500", "155557.117500", "155557.577500", "155558.037500", "155558.497500", "155558.957500", "155559.417500", "155559.877500", "155600.337500", "155600.797500", "155601.257500", "155601.717500", "155602.177500", "155602.637500", "155603.097500", "155603.557500", "155604.017500", "155604.477500", "155604.937500", "155605.397500", "155605.857500", "155606.317500", "155606.777500", "155607.237500", "155607.697500", "155608.157500", "155608.617500", "155609.077500", "155609.537500", "155609.997500", "155610.457500", "155610.917500", "155611.377500", "155611.837500", "155612.297500", "155612.757500", "155613.217500", "155613.677500", "155614.137500", "155614.597500", "155615.057500", "155615.517500", "155615.977500", "155616.437500", "155616.897500", "155617.357500", "155617.817500", "155618.277500", "155618.737500", "155619.197500", "155619.657500", "155620.117500", "155620.577500", "155621.037500", "155621.497500", "155621.957500", "155622.417500", "155622.877500", "155623.337500", "155623.797500", "155624.257500", "155624.717500", "155625.177500", "155625.637500", "155626.097500", "155626.557500", "155627.017500", "155627.477500", "155627.937500", "155628.397500", "155628.857500", "155629.317500", "155629.777500", "155630.237500", "155630.697500", "155631.157500", "155631.617500", "155632.077500", "155632.537500", "155632.997500", "155633.457500", "155633.917500", "155634.377500", "155634.837500", "155635.297500", "155635.757500", "155636.217500", "155636.677500", "155637.137500", "155637.597500", "155638.057500", "155638.517500", "155638.977500", "155639.437500", "155639.897500", "155640.357500", "155640.817500", "155641.277500", "155641.737500", "155642.197500", "155642.657500", "155643.117500", "155643.577500", "155644.037500", "155644.497500", "155644.957500", "155645.417500", "155645.877500", "155646.337500", "155646.797500", "155647.257500", "155647.717500", "155648.177500", "155648.637500", "155649.097500", "155649.557500", "155650.017500", "155650.477500", "155650.937500", "155651.397500", "155651.857500", "155652.317500", "155652.777500", "155653.237500", "155653.697500", "155654.157500", "155654.617500", "155655.077500", "155655.537500", "155655.997500", "155656.457500", "155656.917500", "155657.377500", "155657.837500", "155658.297500", "155658.757500", "155659.217500", "155659.677500", "155700.137500", "155700.597500", "155701.057500", "155701.517500", "155701.977500", "155702.437500", "155702.897500", "155703.357500", "155703.817500", "155704.277500", "155704.737500", "155705.197500", "155705.657500", "155706.117500", "155706.577500", "155707.037500", "155707.497500", "155707.957500", "155708.417500", "155708.877500", "155709.337500", "155709.797500", "155710.257500", "155710.717500", "155711.177500", "155711.637500", "155712.097500", "155712.557500", "155713.017500", "155713.477500", "155713.937500", "155714.397500", "155714.857500", "155715.317500", "155715.777500", "155716.237500", "155716.697500", "155717.157500", "155717.617500", "155718.077500", "155718.537500", "155718.997500", "155719.457500", "155719.917500", "155720.377500", "155720.837500", "155721.297500", "155721.757500", "155722.217500", "155722.677500", "155723.137500", "155723.597500", "155724.057500", "155724.517500", "155724.977500", "155725.437500", "155725.897500", "155726.357500", "155726.817500", "155727.277500", "155727.737500", "155728.197500", "155728.657500", "155729.117500", "155729.577500", "155730.037500", "155730.497500", "155730.957500", "155731.417500", "155731.877500", "155732.337500", "155732.797500", "155733.257500", "155733.717500", "155734.177500", "155734.637500", "155735.097500", "155735.557500", "155736.017500", "155736.477500", "155736.937500", "155737.397500", "155737.857500", "155738.317500", "155738.777500", "155739.237500", "155739.697500", "155740.157500", "155740.617500", "155741.077500", "155741.537500", "155741.997500", "155742.457500", "155742.917500", "155743.377500", "155743.837500", "155744.297500", "155744.757500", "155745.217500", "155745.677500", "155746.137500", "155746.597500", "155747.057500", "155747.517500", "155747.977500", "155748.437500", "155748.897500", "155749.357500", "155749.817500", "155750.277500", "155750.737500", "155751.197500", "155751.657500", "155752.117500", "155752.577500", "155753.037500", "155753.497500", "155753.957500", "155754.417500", "155754.877500", "155755.337500", "155755.797500", "155756.257500", "155756.717500", "155757.177500", "155757.637500", "155758.097500", "155758.557500", "155759.017500", "155759.477500", "155759.937500", "155800.397500", "155800.857500", "155801.317500", "155801.777500", "155802.237500", "155802.697500", "155803.157500", "155803.617500", "155804.077500", "155804.537500", "155804.997500", "155805.457500", "155805.917500", "155806.377500", "155806.837500", "155807.297500", "155807.757500", "155808.217500", "155808.677500", "155809.137500", "155809.597500", "155810.057500", "155810.517500", "155810.977500", "155811.437500", "155811.897500", "155812.357500", "155812.817500", "155813.277500", "155813.737500", "155814.197500", "155814.657500", "155815.117500", "155815.577500", "155816.037500", "155816.497500", "155816.957500", "155817.417500", "155817.877500", "155818.337500", "155818.797500", "155819.257500", "155819.717500", "155820.177500", "155820.637500", "155821.097500", "155821.557500", "155822.017500", "155822.477500", "155822.937500", "155823.397500", "155823.857500", "155824.317500", "155824.777500", "155825.237500", "155825.697500", "155826.157500", "155826.617500", "155827.077500", "155827.537500", "155827.997500", "155828.457500", "155828.917500", "155829.377500", "155829.837500", "155830.297500", "155830.757500", "155831.217500", "155831.677500", "155832.137500", "155832.597500", "155833.057500", "155833.517500", "155833.977500", "155834.437500", "155834.897500", "155835.357500", "155835.817500", "155836.277500", "155836.737500", "155837.197500", "155837.657500", "155838.117500", "155838.577500", "155839.037500", "155839.497500", "155839.957500", "155840.417500", "155840.877500", "155841.337500", "155841.797500", "155842.257500", "155842.717500", "155843.177500", "155843.637500", "155844.097500", "155844.557500", "155845.017500", "155845.477500", "155845.937500", "155846.397500", "155846.857500", "155847.317500", "155847.777500", "155848.237500", "155848.697500", "155849.157500", "155849.617500", "155850.077500", "155850.537500", "155850.997500", "155851.457500", "155851.917500", "155852.377500", "155852.837500", "155853.297500", "155853.757500", "155854.217500", "155854.677500", "155855.137500", "155855.597500", "155856.057500", "155856.517500", "155856.977500", "155857.437500", "155857.897500", "155858.357500", "155858.817500", "155859.277500", "155859.737500", "155900.197500", "155900.657500", "155901.117500", "155901.577500", "155902.037500", "155902.497500", "155902.957500", "155903.417500", "155903.877500", "155904.337500", "155904.797500", "155905.257500", "155905.717500", "155906.177500", "155906.637500", "155907.097500", "155907.557500", "155908.017500", "155908.477500", "155908.937500", "155909.397500", "155909.857500", "155910.317500", "155910.777500", "155911.237500", "155911.697500", "155912.157500", "155912.617500", "155913.077500", "155913.537500", "155913.997500", "155914.457500", "155914.917500", "155915.377500", "155915.837500", "155916.297500", "155916.757500", "155917.217500", "155917.677500", "155918.137500", "155918.597500", "155919.057500", "155919.517500", "155919.977500", "155920.437500", "155920.897500", "155921.357500", "155921.817500", "155922.277500", "155922.737500", "155923.197500", "155923.657500", "155924.117500", "155924.577500", "155925.037500", "155925.497500", "155925.957500", "155926.417500", "155926.877500", "155927.337500", "155927.797500", "155928.257500", "155928.717500", "155929.177500", "155929.637500", "155930.097500", "155930.557500", "155931.017500", "155931.477500", "155931.937500", "155932.397500", "155932.857500", "155933.317500", "155933.777500", "155934.237500", "155934.697500", "155935.157500", "155935.617500", "155936.077500", "155936.537500", "155936.997500", "155937.457500", "155937.917500", "155938.377500", "155938.837500", "155939.297500", "155939.757500", "155940.217500", "155940.677500", "155941.137500", "155941.597500", "155942.057500", "155942.517500", "155942.977500", "155943.437500", "155943.897500", "155944.357500", "155944.817500", "155945.277500", "155945.737500", "155946.197500", "155946.657500", "155947.117500", "155947.577500", "155948.037500", "155948.497500", "155948.957500", "155949.417500", "155949.877500", "155950.337500", "155950.797500", "155951.257500", "155951.717500", "155952.177500", "155952.637500", "155953.097500", "155953.557500", "155954.017500", "155954.477500", "155954.937500", "155955.397500", "155955.857500", "155956.317500", "155956.777500", "155957.237500", "155957.697500", "155958.157500", "155958.617500", "155959.077500", "155959.537500", "155959.997500", "160000.457500", "160000.917500", "160001.377500", "160001.837500", "160002.297500", "160002.757500", "160003.217500", "160003.677500", "160004.137500", "160004.597500", "160005.057500", "160005.517500", "160005.977500", "160006.437500", "160006.897500", "160007.357500", "160007.817500", "160008.277500", "160008.737500", "160009.197500", "160009.657500", "160010.117500", "160010.577500", "160011.037500", "160011.497500", "160011.957500", "160012.417500", "160012.877500", "160013.337500", "160013.797500", "160014.257500", "160014.717500", "160015.177500", "160015.637500", "160016.097500", "160016.557500", "160017.017500", "160017.477500", "160017.937500", "160018.397500", "160018.857500", "160019.317500", "160019.777500", "160020.237500", "160020.697500", "160021.157500", "160021.617500", "160022.077500", "160022.537500", "160022.997500", "160023.457500", "160023.917500", "160024.377500", "160024.837500", "160025.297500", "160025.757500", "160026.217500", "160026.677500", "160027.137500", "160027.597500", "160028.057500", "160028.517500", "160028.977500", "160029.437500", "160029.897500", "160030.357500", "160030.817500", "160031.277500", "160031.737500", "160032.197500", "160032.657500", "160033.117500", "160033.577500", "160034.037500", "160034.497500", "160034.957500", "160035.417500", "160035.877500", "160036.337500", "160036.797500", "160037.257500", "160037.717500", "160038.177500", "160038.637500", "160039.097500", "160039.557500", "160040.017500", "160040.477500", "160040.937500", "160041.397500", "160041.857500", "160042.317500", "160042.777500", "160043.237500", "160043.697500", "160044.157500", "160044.617500", "160045.077500", "160045.537500", "160045.997500", "160046.457500", "160046.917500", "160047.377500", "160047.837500", "160048.297500", "160048.757500", "160049.217500", "160049.677500", "160050.137500", "160050.597500", "160051.057500", "160051.517500", "160051.977500", "160052.437500", "160052.897500", "160053.357500", "160053.817500", "160054.277500", "160054.737500", "160055.197500", "160055.657500", "160056.117500", "160056.577500", "160057.037500", "160057.497500", "160057.957500", "160058.417500", "160058.877500", "160059.337500"],
