{
  "AcquisitionMatrixPE": 82,
  "AcquisitionNumber": 1,
  "AcquisitionTime": "14:32:57.027500",
  "BandwidthPerPixelPhaseEncode": 24.888,
  "BaseResolution": 82,
  "BodyPartExamined": "BRAIN",
  "ConsistencyInfo": "N4_VE11E_LATEST_20181129",
  "ConversionSoftware": "dcm2niix",
  "ConversionSoftwareVersion": "v1.0.20201102",
  "DerivedVendorReportedEchoSpacing": 0.00049,
  "DeviceSerialNumber": "66112",
  "DwellTime": 2e-06,
  "EchoTime": 0.0272,
  "EchoTrainLength": 82,
  "EffectiveEchoSpacing": 0.00049,
  "FlipAngle": 44,
  "ImageComments": "Unaliased MB8/PE3",
  "ImageOrientationPatientDICOM": [0.993992, -0.109454, 0.000506062, 0.109387, 0.99352, 0.0308648],
  "ImageType": [
    "ORIGINAL",
    "PRIMARY",
    "M",
    "MB",
    "ND",
    "NORM",
    "MOSAIC"
],
  "ImagingFrequency": 123.259,
  "InPlanePhaseEncodingDirectionDICOM": "COL",
  "InstitutionAddress": "Maynard 3,Hanover,NH,US,03755",
  "InstitutionName": "Dartmouth College - PBS",
  "InstitutionalDepartmentName": "Department",
  "MRAcquisitionType": "2D",
  "MagneticFieldStrength": 3,
  "Manufacturer": "Siemens",
  "ManufacturersModelName": "Prisma",
  "Modality": "MR",
  "MultibandAccelerationFactor": 8,
  "PartialFourier": 1,
  "PatientPosition": "HFS",
  "PercentPhaseFOV": 100,
  "PercentSampling": 100,
  "PhaseEncodingDirection": "j-",
  "PhaseEncodingSteps": 82,
  "PhaseResolution": 1,
  "PixelBandwidth": 3050,
  "ProcedureStepDescription": "Wager_Wager^1076_spacetop",
  "ProtocolName": "func_run-01_task-social_acq-ap-mb8",
  "PulseSequenceDetails": "%CustomerSeq%\\cmrr_mbep2d_bold",
  "ReceiveCoilActiveElements": "HEA;HEP",
  "ReceiveCoilName": "Head_32",
  "ReconMatrixPE": 82,
  "RepetitionTime": 0.46,
  "SAR": 0.0814999,
  "ScanOptions": "FS",
  "ScanningSequence": "EP",
  "SequenceName": "epfid2d1_82",
  "SequenceVariant": "SK\\SS",
  "SeriesDescription": "func_run-01_task-social_acq-ap-mb8",
  "SeriesNumber": 8,
  "ShimSetting": [4248, -7779, -7209, 291, -199, -113, -106, 22],
  "SliceThickness": 2.7,
  "SliceTiming": [0, 0.25, 0.0625, 0.3125, 0.125, 0.375, 0.1875, 0, 0.25, 0.0625, 0.3125, 0.125, 0.375, 0.1875, 0, 0.25, 0.0625, 0.3125, 0.125, 0.375, 0.1875, 0, 0.25, 0.0625, 0.3125, 0.125, 0.375, 0.1875, 0, 0.25, 0.0625, 0.3125, 0.125, 0.375, 0.1875, 0, 0.25, 0.0625, 0.3125, 0.125, 0.375, 0.1875, 0, 0.25, 0.0625, 0.3125, 0.125, 0.375, 0.1875, 0, 0.25, 0.0625, 0.3125, 0.125, 0.375, 0.1875],
  "SoftwareVersions": "syngo MR E11",
  "SpacingBetweenSlices": 2.7,
  "StationName": "AWP66112",
  "TaskName": "social",
  "TotalReadoutTime": 0.03969,
  "TxRefAmp": 230.085,
  "WipMemBlock": "30f74857-3f55-41b3-89eb-49c8f2240fde||Sequence: R016 ve11e/master r/434b28f1; Aug  7 2019 18:53:46 by eja",
  "dcmmeta_affine": [
    [-2.666807174682617, 0.2934761643409729, 0.010478888638317585, 88.9291000366211],
    [0.29365769028663635, 2.665541410446167, 0.08268490433692932, -119.07473754882812],
    [0.0013577278004959226, -0.08280810713768005, 2.6987133026123047, -74.59284973144531],
    [0.0, 0.0, 0.0, 1.0]
],
  "dcmmeta_reorient_transform": [
    [0.0, -1.0, 0.0, 81.0],
    [1.0, 0.0, 0.0, 0.0],
    [0.0, 0.0, 1.0, 0.0],
    [0.0, 0.0, 0.0, 1.0]
],
  "dcmmeta_shape": [82, 82, 56, 872],
  "dcmmeta_slice_dim": 2,
  "dcmmeta_version": 0.6,
  "global": {
    "const": {
      "AccessionNumber": "A004339",
      "AcquisitionMatrix": [82, 0, 0, 82],
      "AngioFlag": "N",
      "BitsAllocated": 16,
      "BitsStored": 16,
      "BodyPartExamined": "BRAIN",
      "Columns": 656,
      "EchoNumbers": 1,
      "EchoTime": 27.2,
      "EchoTrainLength": 82,
      "FlipAngle": 44.0,
      "HighBit": 15,
      "ImageOrientationPatient": [0.99399170822607, -0.1094542273232, 0.00050606215854, 0.10938656806602, 0.99351997484018, 0.0308648395478],
      "ImagePositionPatient": [-962.30196588767, -777.56476434888, -105.45590435264],
      "ImageType": [
        "ORIGINAL",
        "PRIMARY",
        "M",
        "MB",
        "ND",
        "NORM",
        "MOSAIC"
],
      "ImagedNucleus": "1H",
      "ImagingFrequency": 123.259075,
      "InPlanePhaseEncodingDirection": "COL",
      "MRAcquisitionType": "2D",
      "MagneticFieldStrength": 3.0,
      "Manufacturer": "SIEMENS",
      "ManufacturerModelName": "Prisma",
      "Modality": "MR",
      "NumberOfAverages": 1.0,
      "NumberOfPhaseEncodingSteps": 82,
      "PercentPhaseFieldOfView": 100.0,
      "PercentSampling": 100.0,
      "PerformedProcedureStepStartTime": "134728.335000",
      "PhotometricInterpretation": "MONOCHROME2",
      "PixelBandwidth": 3050.0,
      "PixelRepresentation": 0,
      "PixelSpacing": [2.6829268932343, 2.6829268932343],
      "ProtocolName": "func_run-01_task-social_acq-ap-mb8",
      "RepetitionTime": 460.0,
      "Rows": 656,
      "SAR": 0.08149991409233,
      "SamplesPerPixel": 1,
      "ScanOptions": "FS",
      "ScanningSequence": "EP",
      "SequenceName": "epfid2d1_82",
      "SequenceVariant": [
        "SK",
        "SS"
],
      "SeriesDescription": "func_run-01_task-social_acq-ap-mb8",
      "SeriesNumber": 8,
      "SeriesTime": "143317.623000",
      "SliceLocation": -77.858713855761,
      "SliceThickness": 2.7000000476837,
      "SmallestImagePixelValue": 0,
      "SoftwareVersions": "syngo MR E11",
      "SpacingBetweenSlices": 2.6999999820353,
      "SpecificCharacterSet": "ISO_IR 100",
      "StudyID": "3",
      "StudyTime": "134728.293000",
      "TransmitCoilName": "Body",
      "VariableFlipAngleFlag": "N",
      "WindowCenterWidthExplanation": "Algo1"
    },
    "slices": {}
  },
  "time": {
    "samples": {
      "AcquisitionNumber": [1, 2, 3, 4, 5, 6, 7, 8, 9, 10, 11, 12, 13, 14, 15, 16, 17, 18, 19, 20, 21, 22, 23, 24, 25, 26, 27, 28, 29, 30, 31, 32, 33, 34, 35, 36, 37, 38, 39, 40, 41, 42, 43, 44, 45, 46, 47, 48, 49, 50, 51, 52, 53, 54, 55, 56, 57, 58, 59, 60, 61, 62, 63, 64, 65, 66, 67, 68, 69, 70, 71, 72, 73, 74, 75, 76, 77, 78, 79, 80, 81, 82, 83, 84, 85, 86, 87, 88, 89, 90, 91, 92, 93, 94, 95, 96, 97, 98, 99, 100, 101, 102, 103, 104, 105, 106, 107, 108, 109, 110, 111, 112, 113, 114, 115, 116, 117, 118, 119, 120, 121, 122, 123, 124, 125, 126, 127, 128, 129, 130, 131, 132, 133, 134, 135, 136, 137, 138, 139, 140, 141, 142, 143, 144, 145, 146, 147, 148, 149, 150, 151, 152, 153, 154, 155, 156, 157, 158, 159, 160, 161, 162, 163, 164, 165, 166, 167, 168, 169, 170, 171, 172, 173, 174, 175, 176, 177, 178, 179, 180, 181, 182, 183, 184, 185, 186, 187, 188, 189, 190, 191, 192, 193, 194, 195, 196, 197, 198, 199, 200, 201, 202, 203, 204, 205, 206, 207, 208, 209, 210, 211, 212, 213, 214, 215, 216, 217, 218, 219, 220, 221, 222, 223, 224, 225, 226, 227, 228, 229, 230, 231, 232, 233, 234, 235, 236, 237, 238, 239, 240, 241, 242, 243, 244, 245, 246, 247, 248, 249, 250, 251, 252, 253, 254, 255, 256, 257, 258, 259, 260, 261, 262, 263, 264, 265, 266, 267, 268, 269, 270, 271, 272, 273, 274, 275, 276, 277, 278, 279, 280, 281, 282, 283, 284, 285, 286, 287, 288, 289, 290, 291, 292, 293, 294, 295, 296, 297, 298, 299, 300, 301, 302, 303, 304, 305, 306, 307, 308, 309, 310, 311, 312, 313, 314, 315, 316, 317, 318, 319, 320, 321, 322, 323, 324, 325, 326, 327, 328, 329, 330, 331, 332, 333, 334, 335, 336, 337, 338, 339, 340, 341, 342, 343, 344, 345, 346, 347, 348, 349, 350, 351, 352, 353, 354, 355, 356, 357, 358, 359, 360, 361, 362, 363, 364, 365, 366, 367, 368, 369, 370, 371, 372, 373, 374, 375, 376, 377, 378, 379, 380, 381, 382, 383, 384, 385, 386, 387, 388, 389, 390, 391, 392, 393, 394, 395, 396, 397, 398, 399, 400, 401, 402, 403, 404, 405, 406, 407, 408, 409, 410, 411, 412, 413, 414, 415, 416, 417, 418, 419, 420, 421, 422, 423, 424, 425, 426, 427, 428, 429, 430, 431, 432, 433, 434, 435, 436, 437, 438, 439, 440, 441, 442, 443, 444, 445, 446, 447, 448, 449, 450, 451, 452, 453, 454, 455, 456, 457, 458, 459, 460, 461, 462, 463, 464, 465, 466, 467, 468, 469, 470, 471, 472, 473, 474, 475, 476, 477, 478, 479, 480, 481, 482, 483, 484, 485, 486, 487, 488, 489, 490, 491, 492, 493, 494, 495, 496, 497, 498, 499, 500, 501, 502, 503, 504, 505, 506, 507, 508, 509, 510, 511, 512, 513, 514, 515, 516, 517, 518, 519, 520, 521, 522, 523, 524, 525, 526, 527, 528, 529, 530, 531, 532, 533, 534, 535, 536, 537, 538, 539, 540, 541, 542, 543, 544, 545, 546, 547, 548, 549, 550, 551, 552, 553, 554, 555, 556, 557, 558, 559, 560, 561, 562, 563, 564, 565, 566, 567, 568, 569, 570, 571, 572, 573, 574, 575, 576, 577, 578, 579, 580, 581, 582, 583, 584, 585, 586, 587, 588, 589, 590, 591, 592, 593, 594, 595, 596, 597, 598, 599, 600, 601, 602, 603, 604, 605, 606, 607, 608, 609, 610, 611, 612, 613, 614, 615, 616, 617, 618, 619, 620, 621, 622, 623, 624, 625, 626, 627, 628, 629, 630, 631, 632, 633, 634, 635, 636, 637, 638, 639, 640, 641, 642, 643, 644, 645, 646, 647, 648, 649, 650, 651, 652, 653, 654, 655, 656, 657, 658, 659, 660, 661, 662, 663, 664, 665, 666, 667, 668, 669, 670, 671, 672, 673, 674, 675, 676, 677, 678, 679, 680, 681, 682, 683, 684, 685, 686, 687, 688, 689, 690, 691, 692, 693, 694, 695, 696, 697, 698, 699, 700, 701, 702, 703, 704, 705, 706, 707, 708, 709, 710, 711, 712, 713, 714, 715, 716, 717, 718, 719, 720, 721, 722, 723, 724, 725, 726, 727, 728, 729, 730, 731, 732, 733, 734, 735, 736, 737, 738, 739, 740, 741, 742, 743, 744, 745, 746, 747, 748, 749, 750, 751, 752, 753, 754, 755, 756, 757, 758, 759, 760, 761, 762, 763, 764, 765, 766, 767, 768, 769, 770, 771, 772, 773, 774, 775, 776, 777, 778, 779, 780, 781, 782, 783, 784, 785, 786, 787, 788, 789, 790, 791, 792, 793, 794, 795, 796, 797, 798, 799, 800, 801, 802, 803, 804, 805, 806, 807, 808, 809, 810, 811, 812, 813, 814, 815, 816, 817, 818, 819, 820, 821, 822, 823, 824, 825, 826, 827, 828, 829, 830, 831, 832, 833, 834, 835, 836, 837, 838, 839, 840, 841, 842, 843, 844, 845, 846, 847, 848, 849, 850, 851, 852, 853, 854, 855, 856, 857, 858, 859, 860, 861, 862, 863, 864, 865, 866, 867, 868, 869, 870, 871, 872],
      "AcquisitionTime": ["143257.027500", "143257.487500", "143257.947500", "143258.407500", "143258.867500", "143259.327500", "143259.787500", "143300.247500", "143300.707500", "143301.167500", "143301.627500", "143302.087500", "143302.547500", "143303.007500", "143303.467500", "143303.927500", "143304.387500", "143304.847500", "143305.307500", "143305.767500", "143306.227500", "143306.687500", "143307.147500", "143307.607500", "143308.067500", "143308.527500", "143308.987500", "143309.447500", "143309.907500", "143310.367500", "143310.827500", "143311.287500", "143311.747500", "143312.207500", "143312.667500", "143313.127500", "143313.587500", "143314.047500", "143314.507500", "143314.967500", "143315.427500", "143315.887500", "143316.347500", "143316.807500", "143317.267500", "143317.727500", "143318.187500", "143318.647500", "143319.107500", "143319.567500", "143320.027500", "143320.487500", "143320.947500", "143321.407500", "143321.867500", "143322.327500", "143322.787500", "143323.247500", "143323.707500", "143324.167500", "143324.627500", "143325.087500", "143325.547500", "143326.007500", "143326.467500", "143326.927500", "143327.387500", "143327.847500", "143328.307500", "143328.767500", "143329.227500", "143329.687500", "143330.147500", "143330.607500", "143331.067500", "143331.527500", "143331.987500", "143332.447500", "143332.907500", "143333.367500", "143333.827500", "143334.287500", "143334.747500", "143335.207500", "143335.667500", "143336.127500", "143336.587500", "143337.047500", "143337.507500", "143337.967500", "143338.427500", "143338.887500", "143339.347500", "143339.807500", "143340.267500", "143340.727500", "143341.187500", "143341.647500", "143342.107500", "143342.567500", "143343.027500", "143343.487500", "143343.947500", "143344.407500", "143344.867500", "143345.327500", "143345.787500", "143346.247500", "143346.707500", "143347.167500", "143347.627500", "143348.087500", "143348.547500", "143349.007500", "143349.467500", "143349.927500", "143350.387500", "143350.847500", "143351.307500", "143351.767500", "143352.227500", "143352.687500", "143353.147500", "143353.607500", "143354.067500", "143354.527500", "143354.987500", "143355.447500", "143355.907500", "143356.367500", "143356.827500", "143357.287500", "143357.747500", "143358.207500", "143358.667500", "143359.127500", "143359.587500", "143400.047500", "143400.507500", "143400.967500", "143401.427500", "143401.887500", "143402.347500", "143402.807500", "143403.267500", "143403.727500", "143404.187500", "143404.647500", "143405.107500", "143405.567500", "143406.027500", "143406.487500", "143406.947500", "143407.407500", "143407.867500", "143408.327500", "143408.787500", "143409.247500", "143409.707500", "143410.167500", "143410.627500", "143411.087500", "143411.547500", "143412.007500", "143412.467500", "143412.927500", "143413.387500", "143413.847500", "143414.307500", "143414.767500", "143415.227500", "143415.687500", "143416.147500", "143416.607500", "143417.067500", "143417.527500", "143417.987500", "143418.447500", "143418.907500", "143419.367500", "143419.827500", "143420.287500", "143420.747500", "143421.207500", "143421.667500", "143422.127500", "143422.587500", "143423.047500", "143423.507500", "143423.967500", "143424.427500", "143424.887500", "143425.347500", "143425.807500", "143426.267500", "143426.727500", "143427.187500", "143427.647500", "143428.107500", "143428.567500", "143429.027500", "143429.487500", "143429.947500", "143430.407500", "143430.867500", "143431.327500", "143431.787500", "143432.247500", "143432.707500", "143433.167500", "143433.627500", "143434.087500", "143434.547500", "143435.007500", "143435.467500", "143435.927500", "143436.387500", "143436.847500", "143437.307500", "143437.767500", "143438.227500", "143438.687500", "143439.147500", "143439.607500", "143440.067500", "143440.527500", "143440.987500", "143441.447500", "143441.907500", "143442.367500", "143442.827500", "143443.287500", "143443.747500", "143444.207500", "143444.667500", "143445.127500", "143445.587500", "143446.047500", "143446.507500", "143446.967500", "143447.427500", "143447.887500", "143448.347500", "143448.807500", "143449.267500", "143449.727500", "143450.187500", "143450.647500", "143451.107500", "143451.567500", "143452.027500", "143452.487500", "143452.947500", "143453.407500", "143453.867500", "143454.327500", "143454.787500", "143455.247500", "143455.707500", "143456.167500", "143456.627500", "143457.087500", "143457.547500", "143458.007500", "143458.467500", "143458.927500", "143459.387500", "143459.847500", "143500.307500", "143500.767500", "143501.227500", "143501.687500", "143502.147500", "143502.607500", "143503.067500", "143503.527500", "143503.987500", "143504.447500", "143504.907500", "143505.367500", "143505.827500", "143506.287500", "143506.747500", "143507.207500", "143507.667500", "143508.127500", "143508.587500", "143509.047500", "143509.507500", "143509.967500", "143510.427500", "143510.887500", "143511.347500", "143511.807500", "143512.267500", "143512.727500", "143513.187500", "143513.647500", "143514.107500", "143514.567500", "143515.027500", "143515.487500", "143515.947500", "143516.407500", "143516.867500", "143517.327500", "143517.787500", "143518.247500", "143518.707500", "143519.167500", "143519.627500", "143520.087500", "143520.547500", "143521.007500", "143521.467500", "143521.927500", "143522.387500", "143522.847500", "143523.307500", "143523.767500", "143524.227500", "143524.687500", "143525.147500", "143525.607500", "143526.067500", "143526.527500", "143526.987500", "143527.447500", "143527.907500", "143528.367500", "143528.827500", "143529.287500", "143529.747500", "143530.207500", "143530.667500", "143531.127500", "143531.587500", "143532.047500", "143532.507500", "143532.967500", "143533.427500", "143533.887500", "143534.347500", "143534.807500", "143535.267500", "143535.727500", "143536.187500", "143536.647500", "143537.107500", "143537.567500", "143538.027500", "143538.487500", "143538.947500", "143539.407500", "143539.867500", "143540.327500", "143540.787500", "143541.247500", "143541.707500", "143542.167500", "143542.627500", "143543.087500", "143543.547500", "143544.007500", "143544.467500", "143544.927500", "143545.387500", "143545.847500", "143546.307500", "143546.767500", "143547.227500", "143547.687500", "143548.147500", "143548.607500", "143549.067500", "143549.527500", "143549.987500", "143550.447500", "143550.907500", "143551.367500", "143551.827500", "143552.287500", "143552.747500", "143553.207500", "143553.667500", "143554.127500", "143554.587500", "143555.047500", "143555.507500", "143555.967500", "143556.427500", "143556.887500", "143557.347500", "143557.807500", "143558.267500", "143558.727500", "143559.187500", "143559.647500", "143600.107500", "143600.567500", "143601.027500", "143601.487500", "143601.947500", "143602.407500", "143602.867500", "143603.327500", "143603.787500", "143604.247500", "143604.707500", "143605.167500", "143605.627500", "143606.087500", "143606.547500", "143607.007500", "143607.467500", "143607.927500", "143608.387500", "143608.847500", "143609.307500", "143609.767500", "143610.227500", "143610.687500", "143611.147500", "143611.607500", "143612.067500", "143612.527500", "143612.987500", "143613.447500", "143613.907500", "143614.367500", "143614.827500", "143615.287500", "143615.747500", "143616.207500", "143616.667500", "143617.127500", "143617.587500", "143618.047500", "143618.507500", "143618.967500", "143619.427500", "143619.887500", "143620.347500", "143620.807500", "143621.267500", "143621.727500", "143622.187500", "143622.647500", "143623.107500", "143623.567500", "143624.027500", "143624.487500", "143624.947500", "143625.407500", "143625.867500", "143626.327500", "143626.787500", "143627.247500", "143627.707500", "143628.167500", "143628.627500", "143629.087500", "143629.547500", "143630.007500", "143630.467500", "143630.927500", "143631.387500", "143631.847500", "143632.307500", "143632.767500", "143633.227500", "143633.687500", "143634.147500", "143634.607500", "143635.067500", "143635.527500", "143635.987500", "143636.447500", "143636.907500", "143637.367500", "143637.827500", "143638.287500", "143638.747500", "143639.207500", "143639.667500", "143640.127500", "143640.587500", "143641.047500", "143641.507500", "143641.967500", "143642.427500", "143642.887500", "143643.347500", "143643.807500", "143644.267500", "143644.727500", "143645.187500", "143645.647500", "143646.107500", "143646.567500", "143647.027500", "143647.487500", "143647.947500", "143648.407500", "143648.867500", "143649.327500", "143649.787500", "143650.247500", "143650.707500", "143651.167500", "143651.627500", "143652.087500", "143652.547500", "143653.007500", "143653.467500", "143653.927500", "143654.387500", "143654.847500", "143655.307500", "143655.767500", "143656.227500", "143656.687500", "143657.147500", "143657.607500", "143658.067500", "143658.527500", "143658.987500", "143659.447500", "143659.907500", "143700.367500", "143700.827500", "143701.287500", "143701.747500", "143702.207500", "143702.667500", "143703.127500", "143703.587500", "143704.047500", "143704.507500", "143704.967500", "143705.427500", "143705.887500", "143706.347500", "143706.807500", "143707.267500", "143707.727500", "143708.187500", "143708.647500", "143709.107500", "143709.567500", "143710.027500", "143710.487500", "143710.947500", "143711.407500", "143711.867500", "143712.327500", "143712.787500", "143713.247500", "143713.707500", "143714.167500", "143714.627500", "143715.087500", "143715.547500", "143716.007500", "143716.467500", "143716.927500", "143717.387500", "143717.847500", "143718.307500", "143718.767500", "143719.227500", "143719.687500", "143720.147500", "143720.607500", "143721.067500", "143721.527500", "143721.987500", "143722.447500", "143722.907500", "143723.367500", "143723.827500", "143724.287500", "143724.747500", "143725.207500", "143725.667500", "143726.127500", "143726.587500", "143727.047500", "143727.507500", "143727.967500", "143728.427500", "143728.887500", "143729.347500", "143729.807500", "143730.267500", "143730.727500", "143731.187500", "143731.647500", "143732.107500", "143732.567500", "143733.027500", "143733.487500", "143733.947500", "143734.407500", "143734.867500", "143735.327500", "143735.787500", "143736.247500", "143736.707500", "143737.167500", "143737.627500", "143738.087500", "143738.547500", "143739.007500", "143739.467500", "143739.927500", "143740.387500", "143740.847500", "143741.307500", "143741.767500", "143742.227500", "143742.687500", "143743.147500", "143743.607500", "143744.067500", "143744.527500", "143744.987500", "143745.447500", "143745.907500", "143746.367500", "143746.827500", "143747.287500", "143747.747500", "143748.207500", "143748.667500", "143749.127500", "143749.587500", "143750.047500", "143750.507500", "143750.967500", "143751.427500", "143751.887500", "143752.347500", "143752.807500", "143753.267500", "143753.727500", "143754.187500", "143754.647500", "143755.107500", "143755.567500", "143756.027500", "143756.487500", "143756.947500", "143757.407500", "143757.867500", "143758.327500", "143758.787500", "143759.247500", "143759.707500", "143800.167500", "143800.627500", "143801.087500", "143801.547500", "143802.007500", "143802.467500", "143802.927500", "143803.387500", "143803.847500", "143804.307500", "143804.767500", "143805.227500", "143805.687500", "143806.147500", "143806.607500", "143807.067500", "143807.527500", "143807.987500", "143808.447500", "143808.907500", "143809.367500", "143809.827500", "143810.287500", "143810.747500", "143811.207500", "143811.667500", "143812.127500", "143812.587500", "143813.047500", "143813.507500", "143813.967500", "143814.427500", "143814.887500", "143815.347500", "143815.807500", "143816.267500", "143816.727500", "143817.187500", "143817.647500", "143818.107500", "143818.567500", "143819.027500", "143819.487500", "143819.947500", "143820.407500", "143820.867500", "143821.327500", "143821.787500", "143822.247500", "143822.707500", "143823.167500", "143823.627500", "143824.087500", "143824.547500", "143825.007500", "143825.467500", "143825.927500", "143826.387500", "143826.847500", "143827.307500", "143827.767500", "143828.227500", "143828.687500", "143829.147500", "143829.607500", "143830.067500", "143830.527500", "143830.987500", "143831.447500", "143831.907500", "143832.367500", "143832.827500", "143833.287500", "143833.747500", "143834.207500", "143834.667500", "143835.127500", "143835.587500", "143836.047500", "143836.507500", "143836.967500", "143837.427500", "143837.887500", "143838.347500", "143838.807500", "143839.267500", "143839.727500", "143840.187500", "143840.647500", "143841.107500", "143841.567500", "143842.027500", "143842.487500", "143842.947500", "143843.407500", "143843.867500", "143844.327500", "143844.787500", "143845.247500", "143845.707500", "143846.167500", "143846.627500", "143847.087500", "143847.547500", "143848.007500", "143848.467500", "143848.927500", "143849.387500", "143849.847500", "143850.307500", "143850.767500", "143851.227500", "143851.687500", "143852.147500", "143852.607500", "143853.067500", "143853.527500", "143853.987500", "143854.447500", "143854.907500", "143855.367500", "143855.827500", "143856.287500", "143856.747500", "143857.207500", "143857.667500", "143858.127500", "143858.587500", "143859.047500", "143859.507500", "143859.967500", "143900.427500", "143900.887500", "143901.347500", "143901.807500", "143902.267500", "143902.727500", "143903.187500", "143903.647500", "143904.107500", "143904.567500", "143905.027500", "143905.487500", "143905.947500", "143906.407500", "143906.867500", "143907.327500", "143907.787500", "143908.247500", "143908.707500", "143909.167500", "143909.627500", "143910.087500", "143910.547500", "143911.007500", "143911.467500", "143911.927500", "143912.387500", "143912.847500", "143913.307500", "143913.767500", "143914.227500", "143914.687500", "143915.147500", "143915.607500", "143916.067500", "143916.527500", "143916.987500", "143917.447500", "143917.907500", "143918.367500", "143918.827500", "143919.287500", "143919.747500", "143920.207500", "143920.667500", "143921.127500", "143921.587500", "143922.047500", "143922.507500", "143922.967500", "143923.427500", "143923.887500", "143924.347500", "143924.807500", "143925.267500", "143925.727500", "143926.187500", "143926.647500", "143927.107500", "143927.567500", "143928.027500", "143928.487500", "143928.947500", "143929.407500", "143929.867500", "143930.327500", "143930.787500", "143931.247500", "143931.707500", "143932.167500", "143932.627500", "143933.087500", "143933.547500", "143934.007500", "143934.467500", "143934.927500", "143935.387500", "143935.847500", "143936.307500", "143936.767500", "143937.227500", "143937.687500"],
