{
  "AcquisitionMatrixPE": 82,
  "AcquisitionNumber": 1,
  "AcquisitionTime": "14:55:11.360000",
  "BandwidthPerPixelPhaseEncode": 24.888,
  "BaseResolution": 82,
  "BodyPartExamined": "BRAIN",
  "ConsistencyInfo": "N4_VE11E_LATEST_20181129",
  "ConversionSoftware": "dcm2niix",
  "ConversionSoftwareVersion": "v1.0.20201102",
  "DerivedVendorReportedEchoSpacing": 0.00049,
  "DeviceSerialNumber": "66112",
  "DwellTime": 2e-06,
  "EchoTime": 0.0272,
  "EchoTrainLength": 82,
  "EffectiveEchoSpacing": 0.00049,
  "FlipAngle": 44,
  "ImageComments": "Unaliased MB8/PE3",
  "ImageOrientationPatientDICOM": [0.993992, -0.109454, 0.000506062, 0.109387, 0.99352, 0.0308648],
  "ImageType": [
    "ORIGINAL",
    "PRIMARY",
    "M",
    "MB",
    "ND",
    "NORM",
    "MOSAIC"
],
  "ImagingFrequency": 123.259,
  "InPlanePhaseEncodingDirectionDICOM": "COL",
  "InstitutionAddress": "Maynard 3,Hanover,NH,US,03755",
  "InstitutionName": "Dartmouth College - PBS",
  "InstitutionalDepartmentName": "Department",
  "MRAcquisitionType": "2D",
  "MagneticFieldStrength": 3,
  "Manufacturer": "Siemens",
  "ManufacturersModelName": "Prisma",
  "Modality": "MR",
  "MultibandAccelerationFactor": 8,
  "PartialFourier": 1,
  "PatientPosition": "HFS",
  "PercentPhaseFOV": 100,
  "PercentSampling": 100,
  "PhaseEncodingDirection": "j-",
  "PhaseEncodingSteps": 82,
  "PhaseResolution": 1,
  "PixelBandwidth": 3050,
  "ProcedureStepDescription": "Wager_Wager^1076_spacetop",
  "ProtocolName": "func_run-04_task-social_acq-ap-mb8",
  "PulseSequenceDetails": "%CustomerSeq%\\cmrr_mbep2d_bold",
  "ReceiveCoilActiveElements": "HEA;HEP",
  "ReceiveCoilName": "Head_32",
  "ReconMatrixPE": 82,
  "RepetitionTime": 0.46,
  "SAR": 0.0814999,
  "ScanOptions": "FS",
  "ScanningSequence": "EP",
  "SequenceName": "epfid2d1_82",
  "SequenceVariant": "SK\\SS",
  "SeriesDescription": "func_run-04_task-social_acq-ap-mb8",
  "SeriesNumber": 14,
  "ShimSetting": [4248, -7779, -7209, 291, -199, -113, -106, 22],
  "SliceThickness": 2.7,
  "SliceTiming": [0, 0.25, 0.0625, 0.315, 0.125, 0.3775, 0.1875, 0, 0.25, 0.0625, 0.315, 0.125, 0.3775, 0.1875, 0, 0.25, 0.0625, 0.315, 0.125, 0.3775, 0.1875, 0, 0.25, 0.0625, 0.315, 0.125, 0.3775, 0.1875, 0, 0.25, 0.0625, 0.315, 0.125, 0.3775, 0.1875, 0, 0.25, 0.0625, 0.315, 0.125, 0.3775, 0.1875, 0, 0.25, 0.0625, 0.315, 0.125, 0.3775, 0.1875, 0, 0.25, 0.0625, 0.315, 0.125, 0.3775, 0.1875],
  "SoftwareVersions": "syngo MR E11",
  "SpacingBetweenSlices": 2.7,
  "StationName": "AWP66112",
  "TaskName": "social",
  "TotalReadoutTime": 0.03969,
  "TxRefAmp": 230.085,
  "WipMemBlock": "2a5309e9-0854-4517-8aca-c3a9b004b046||Sequence: R016 ve11e/master r/434b28f1; Aug  7 2019 18:53:46 by eja",
  "dcmmeta_affine": [
    [-2.666807174682617, 0.2934761643409729, 0.010478888638317585, 88.9291000366211],
    [0.29365769028663635, 2.665541410446167, 0.08268490433692932, -119.07473754882812],
    [0.0013577278004959226, -0.08280810713768005, 2.6987133026123047, -74.59284973144531],
    [0.0, 0.0, 0.0, 1.0]
],
  "dcmmeta_reorient_transform": [
    [0.0, -1.0, 0.0, 81.0],
    [1.0, 0.0, 0.0, 0.0],
    [0.0, 0.0, 1.0, 0.0],
    [0.0, 0.0, 0.0, 1.0]
],
  "dcmmeta_shape": [82, 82, 56, 872],
  "dcmmeta_slice_dim": 2,
  "dcmmeta_version": 0.6,
  "global": {
    "const": {
      "AccessionNumber": "A004339",
      "AcquisitionMatrix": [82, 0, 0, 82],
      "AngioFlag": "N",
      "BitsAllocated": 16,
      "BitsStored": 16,
      "BodyPartExamined": "BRAIN",
      "Columns": 656,
      "EchoNumbers": 1,
      "EchoTime": 27.2,
      "EchoTrainLength": 82,
      "FlipAngle": 44.0,
      "HighBit": 15,
      "ImageOrientationPatient": [0.99399170822607, -0.1094542273232, 0.00050606215854, 0.10938656806602, 0.99351997484018, 0.0308648395478],
      "ImagePositionPatient": [-962.30196588767, -777.56476434888, -105.45590435264],
      "ImageType": [
        "ORIGINAL",
        "PRIMARY",
        "M",
        "MB",
        "ND",
        "NORM",
        "MOSAIC"
],
      "ImagedNucleus": "1H",
      "ImagingFrequency": 123.2591,
      "InPlanePhaseEncodingDirection": "COL",
      "MRAcquisitionType": "2D",
      "MagneticFieldStrength": 3.0,
      "Manufacturer": "SIEMENS",
      "ManufacturerModelName": "Prisma",
      "Modality": "MR",
      "NumberOfAverages": 1.0,
      "NumberOfPhaseEncodingSteps": 82,
      "PercentPhaseFieldOfView": 100.0,
      "PercentSampling": 100.0,
      "PerformedProcedureStepStartTime": "134728.335000",
      "PhotometricInterpretation": "MONOCHROME2",
      "PixelBandwidth": 3050.0,
      "PixelRepresentation": 0,
      "PixelSpacing": [2.6829268932343, 2.6829268932343],
      "ProtocolName": "func_run-04_task-social_acq-ap-mb8",
      "RepetitionTime": 460.0,
      "Rows": 656,
      "SAR": 0.08149991409233,
      "SamplesPerPixel": 1,
      "ScanOptions": "FS",
      "ScanningSequence": "EP",
      "SequenceName": "epfid2d1_82",
      "SequenceVariant": [
        "SK",
        "SS"
],
      "SeriesDescription": "func_run-04_task-social_acq-ap-mb8",
      "SeriesNumber": 14,
      "SeriesTime": "145517.683000",
      "SliceLocation": -77.858713855761,
      "SliceThickness": 2.7000000476837,
      "SmallestImagePixelValue": 0,
      "SoftwareVersions": "syngo MR E11",
      "SpacingBetweenSlices": 2.6999999820353,
      "SpecificCharacterSet": "ISO_IR 100",
      "StudyID": "3",
      "StudyTime": "134728.293000",
      "TransmitCoilName": "Body",
      "VariableFlipAngleFlag": "N",
      "WindowCenterWidthExplanation": "Algo1"
    },
    "slices": {}
  },
  "time": {
    "samples": {
      "AcquisitionNumber": [1, 2, 3, 4, 5, 6, 7, 8, 9, 10, 11, 12, 13, 14, 15, 16, 17, 18, 19, 20, 21, 22, 23, 24, 25, 26, 27, 28, 29, 30, 31, 32, 33, 34, 35, 36, 37, 38, 39, 40, 41, 42, 43, 44, 45, 46, 47, 48, 49, 50, 51, 52, 53, 54, 55, 56, 57, 58, 59, 60, 61, 62, 63, 64, 65, 66, 67, 68, 69, 70, 71, 72, 73, 74, 75, 76, 77, 78, 79, 80, 81, 82, 83, 84, 85, 86, 87, 88, 89, 90, 91, 92, 93, 94, 95, 96, 97, 98, 99, 100, 101, 102, 103, 104, 105, 106, 107, 108, 109, 110, 111, 112, 113, 114, 115, 116, 117, 118, 119, 120, 121, 122, 123, 124, 125, 126, 127, 128, 129, 130, 131, 132, 133, 134, 135, 136, 137, 138, 139, 140, 141, 142, 143, 144, 145, 146, 147, 148, 149, 150, 151, 152, 153, 154, 155, 156, 157, 158, 159, 160, 161, 162, 163, 164, 165, 166, 167, 168, 169, 170, 171, 172, 173, 174, 175, 176, 177, 178, 179, 180, 181, 182, 183, 184, 185, 186, 187, 188, 189, 190, 191, 192, 193, 194, 195, 196, 197, 198, 199, 200, 201, 202, 203, 204, 205, 206, 207, 208, 209, 210, 211, 212, 213, 214, 215, 216, 217, 218, 219, 220, 221, 222, 223, 224, 225, 226, 227, 228, 229, 230, 231, 232, 233, 234, 235, 236, 237, 238, 239, 240, 241, 242, 243, 244, 245, 246, 247, 248, 249, 250, 251, 252, 253, 254, 255, 256, 257, 258, 259, 260, 261, 262, 263, 264, 265, 266, 267, 268, 269, 270, 271, 272, 273, 274, 275, 276, 277, 278, 279, 280, 281, 282, 283, 284, 285, 286, 287, 288, 289, 290, 291, 292, 293, 294, 295, 296, 297, 298, 299, 300, 301, 302, 303, 304, 305, 306, 307, 308, 309, 310, 311, 312, 313, 314, 315, 316, 317, 318, 319, 320, 321, 322, 323, 324, 325, 326, 327, 328, 329, 330, 331, 332, 333, 334, 335, 336, 337, 338, 339, 340, 341, 342, 343, 344, 345, 346, 347, 348, 349, 350, 351, 352, 353, 354, 355, 356, 357, 358, 359, 360, 361, 362, 363, 364, 365, 366, 367, 368, 369, 370, 371, 372, 373, 374, 375, 376, 377, 378, 379, 380, 381, 382, 383, 384, 385, 386, 387, 388, 389, 390, 391, 392, 393, 394, 395, 396, 397, 398, 399, 400, 401, 402, 403, 404, 405, 406, 407, 408, 409, 410, 411, 412, 413, 414, 415, 416, 417, 418, 419, 420, 421, 422, 423, 424, 425, 426, 427, 428, 429, 430, 431, 432, 433, 434, 435, 436, 437, 438, 439, 440, 441, 442, 443, 444, 445, 446, 447, 448, 449, 450, 451, 452, 453, 454, 455, 456, 457, 458, 459, 460, 461, 462, 463, 464, 465, 466, 467, 468, 469, 470, 471, 472, 473, 474, 475, 476, 477, 478, 479, 480, 481, 482, 483, 484, 485, 486, 487, 488, 489, 490, 491, 492, 493, 494, 495, 496, 497, 498, 499, 500, 501, 502, 503, 504, 505, 506, 507, 508, 509, 510, 511, 512, 513, 514, 515, 516, 517, 518, 519, 520, 521, 522, 523, 524, 525, 526, 527, 528, 529, 530, 531, 532, 533, 534, 535, 536, 537, 538, 539, 540, 541, 542, 543, 544, 545, 546, 547, 548, 549, 550, 551, 552, 553, 554, 555, 556, 557, 558, 559, 560, 561, 562, 563, 564, 565, 566, 567, 568, 569, 570, 571, 572, 573, 574, 575, 576, 577, 578, 579, 580, 581, 582, 583, 584, 585, 586, 587, 588, 589, 590, 591, 592, 593, 594, 595, 596, 597, 598, 599, 600, 601, 602, 603, 604, 605, 606, 607, 608, 609, 610, 611, 612, 613, 614, 615, 616, 617, 618, 619, 620, 621, 622, 623, 624, 625, 626, 627, 628, 629, 630, 631, 632, 633, 634, 635, 636, 637, 638, 639, 640, 641, 642, 643, 644, 645, 646, 647, 648, 649, 650, 651, 652, 653, 654, 655, 656, 657, 658, 659, 660, 661, 662, 663, 664, 665, 666, 667, 668, 669, 670, 671, 672, 673, 674, 675, 676, 677, 678, 679, 680, 681, 682, 683, 684, 685, 686, 687, 688, 689, 690, 691, 692, 693, 694, 695, 696, 697, 698, 699, 700, 701, 702, 703, 704, 705, 706, 707, 708, 709, 710, 711, 712, 713, 714, 715, 716, 717, 718, 719, 720, 721, 722, 723, 724, 725, 726, 727, 728, 729, 730, 731, 732, 733, 734, 735, 736, 737, 738, 739, 740, 741, 742, 743, 744, 745, 746, 747, 748, 749, 750, 751, 752, 753, 754, 755, 756, 757, 758, 759, 760, 761, 762, 763, 764, 765, 766, 767, 768, 769, 770, 771, 772, 773, 774, 775, 776, 777, 778, 779, 780, 781, 782, 783, 784, 785, 786, 787, 788, 789, 790, 791, 792, 793, 794, 795, 796, 797, 798, 799, 800, 801, 802, 803, 804, 805, 806, 807, 808, 809, 810, 811, 812, 813, 814, 815, 816, 817, 818, 819, 820, 821, 822, 823, 824, 825, 826, 827, 828, 829, 830, 831, 832, 833, 834, 835, 836, 837, 838, 839, 840, 841, 842, 843, 844, 845, 846, 847, 848, 849, 850, 851, 852, 853, 854, 855, 856, 857, 858, 859, 860, 861, 862, 863, 864, 865, 866, 867, 868, 869, 870, 871, 872],
      "AcquisitionTime": ["145511.360000", "145511.820000", "145512.280000", "145512.740000", "145513.200000", "145513.660000", "145514.120000", "145514.580000", "145515.040000", "145515.500000", "145515.960000", "145516.420000", "145516.880000", "145517.340000", "145517.800000", "145518.260000", "145518.720000", "145519.180000", "145519.640000", "145520.100000", "145520.560000", "145521.020000", "145521.480000", "145521.940000", "145522.400000", "145522.860000", "145523.320000", "145523.780000", "145524.240000", "145524.700000", "145525.160000", "145525.620000", "145526.080000", "145526.540000", "145527.000000", "145527.460000", "145527.920000", "145528.380000", "145528.840000", "145529.300000", "145529.760000", "145530.220000", "145530.680000", "145531.140000", "145531.600000", "145532.060000", "145532.520000", "145532.980000", "145533.440000", "145533.900000", "145534.360000", "145534.820000", "145535.280000", "145535.740000", "145536.200000", "145536.660000", "145537.120000", "145537.580000", "145538.040000", "145538.500000", "145538.960000", "145539.420000", "145539.880000", "145540.340000", "145540.800000", "145541.260000", "145541.720000", "145542.180000", "145542.640000", "145543.100000", "145543.560000", "145544.020000", "145544.480000", "145544.940000", "145545.400000", "145545.860000", "145546.320000", "145546.780000", "145547.240000", "145547.700000", "145548.160000", "145548.620000", "145549.080000", "145549.540000", "145550.000000", "145550.460000", "145550.920000", "145551.380000", "145551.840000", "145552.300000", "145552.760000", "145553.220000", "145553.680000", "145554.140000", "145554.600000", "145555.060000", "145555.520000", "145555.980000", "145556.440000", "145556.900000", "145557.360000", "145557.820000", "145558.280000", "145558.740000", "145559.200000", "145559.660000", "145600.120000", "145600.580000", "145601.040000", "145601.500000", "145601.960000", "145602.420000", "145602.880000", "145603.340000", "145603.800000", "145604.260000", "145604.720000", "145605.180000", "145605.640000", "145606.100000", "145606.560000", "145607.020000", "145607.480000", "145607.940000", "145608.400000", "145608.860000", "145609.320000", "145609.780000", "145610.240000", "145610.700000", "145611.160000", "145611.620000", "145612.080000", "145612.540000", "145613.000000", "145613.460000", "145613.920000", "145614.380000", "145614.840000", "145615.300000", "145615.760000", "145616.220000", "145616.680000", "145617.140000", "145617.600000", "145618.060000", "145618.520000", "145618.980000", "145619.440000", "145619.900000", "145620.360000", "145620.820000", "145621.280000", "145621.740000", "145622.200000", "145622.660000", "145623.120000", "145623.580000", "145624.040000", "145624.500000", "145624.960000", "145625.420000", "145625.880000", "145626.340000", "145626.800000", "145627.260000", "145627.720000", "145628.180000", "145628.640000", "145629.100000", "145629.560000", "145630.020000", "145630.480000", "145630.940000", "145631.400000", "145631.860000", "145632.320000", "145632.780000", "145633.240000", "145633.700000", "145634.160000", "145634.620000", "145635.080000", "145635.540000", "145636.000000", "145636.460000", "145636.920000", "145637.380000", "145637.840000", "145638.300000", "145638.760000", "145639.220000", "145639.680000", "145640.140000", "145640.600000", "145641.060000", "145641.520000", "145641.980000", "145642.440000", "145642.900000", "145643.360000", "145643.820000", "145644.280000", "145644.740000", "145645.200000", "145645.660000", "145646.120000", "145646.580000", "145647.040000", "145647.500000", "145647.960000", "145648.420000", "145648.880000", "145649.340000", "145649.800000", "145650.260000", "145650.720000", "145651.180000", "145651.640000", "145652.100000", "145652.560000", "145653.020000", "145653.480000", "145653.940000", "145654.400000", "145654.860000", "145655.320000", "145655.780000", "145656.240000", "145656.700000", "145657.160000", "145657.620000", "145658.080000", "145658.540000", "145659.000000", "145659.460000", "145659.920000", "145700.380000", "145700.840000", "145701.300000", "145701.760000", "145702.220000", "145702.680000", "145703.140000", "145703.600000", "145704.060000", "145704.520000", "145704.980000", "145705.440000", "145705.900000", "145706.360000", "145706.820000", "145707.280000", "145707.740000", "145708.200000", "145708.660000", "145709.120000", "145709.580000", "145710.040000", "145710.500000", "145710.960000", "145711.420000", "145711.880000", "145712.340000", "145712.800000", "145713.260000", "145713.720000", "145714.180000", "145714.640000", "145715.100000", "145715.560000", "145716.020000", "145716.480000", "145716.940000", "145717.400000", "145717.860000", "145718.320000", "145718.780000", "145719.240000", "145719.700000", "145720.160000", "145720.620000", "145721.080000", "145721.540000", "145722.000000", "145722.460000", "145722.920000", "145723.380000", "145723.840000", "145724.300000", "145724.760000", "145725.220000", "145725.680000", "145726.140000", "145726.600000", "145727.060000", "145727.520000", "145727.980000", "145728.440000", "145728.900000", "145729.360000", "145729.820000", "145730.280000", "145730.740000", "145731.200000", "145731.660000", "145732.120000", "145732.580000", "145733.040000", "145733.500000", "145733.960000", "145734.420000", "145734.880000", "145735.340000", "145735.800000", "145736.260000", "145736.720000", "145737.180000", "145737.640000", "145738.100000", "145738.560000", "145739.020000", "145739.480000", "145739.940000", "145740.400000", "145740.860000", "145741.320000", "145741.780000", "145742.240000", "145742.700000", "145743.160000", "145743.620000", "145744.080000", "145744.540000", "145745.000000", "145745.460000", "145745.920000", "145746.380000", "145746.840000", "145747.300000", "145747.760000", "145748.220000", "145748.680000", "145749.140000", "145749.600000", "145750.060000", "145750.520000", "145750.980000", "145751.440000", "145751.900000", "145752.360000", "145752.820000", "145753.280000", "145753.740000", "145754.200000", "145754.660000", "145755.120000", "145755.580000", "145756.040000", "145756.500000", "145756.960000", "145757.420000", "145757.880000", "145758.340000", "145758.800000", "145759.260000", "145759.720000", "145800.180000", "145800.640000", "145801.100000", "145801.560000", "145802.020000", "145802.480000", "145802.940000", "145803.400000", "145803.860000", "145804.320000", "145804.780000", "145805.240000", "145805.700000", "145806.160000", "145806.620000", "145807.080000", "145807.540000", "145808.000000", "145808.460000", "145808.920000", "145809.380000", "145809.840000", "145810.300000", "145810.760000", "145811.220000", "145811.680000", "145812.140000", "145812.600000", "145813.060000", "145813.520000", "145813.980000", "145814.440000", "145814.900000", "145815.360000", "145815.820000", "145816.280000", "145816.740000", "145817.200000", "145817.660000", "145818.120000", "145818.580000", "145819.040000", "145819.500000", "145819.960000", "145820.420000", "145820.880000", "145821.340000", "145821.800000", "145822.260000", "145822.720000", "145823.180000", "145823.640000", "145824.100000", "145824.560000", "145825.020000", "145825.480000", "145825.940000", "145826.400000", "145826.860000", "145827.320000", "145827.780000", "145828.240000", "145828.700000", "145829.160000", "145829.620000", "145830.080000", "145830.540000", "145831.000000", "145831.460000", "145831.920000", "145832.380000", "145832.840000", "145833.300000", "145833.760000", "145834.220000", "145834.680000", "145835.140000", "145835.600000", "145836.060000", "145836.520000", "145836.980000", "145837.440000", "145837.900000", "145838.360000", "145838.820000", "145839.280000", "145839.740000", "145840.200000", "145840.660000", "145841.120000", "145841.580000", "145842.040000", "145842.500000", "145842.960000", "145843.420000", "145843.880000", "145844.340000", "145844.800000", "145845.260000", "145845.720000", "145846.180000", "145846.640000", "145847.100000", "145847.560000", "145848.020000", "145848.480000", "145848.940000", "145849.400000", "145849.860000", "145850.320000", "145850.780000", "145851.240000", "145851.700000", "145852.160000", "145852.620000", "145853.080000", "145853.540000", "145854.000000", "145854.460000", "145854.920000", "145855.380000", "145855.840000", "145856.300000", "145856.760000", "145857.220000", "145857.680000", "145858.140000", "145858.600000", "145859.060000", "145859.520000", "145859.980000", "145900.440000", "145900.900000", "145901.360000", "145901.820000", "145902.280000", "145902.740000", "145903.200000", "145903.660000", "145904.120000", "145904.580000", "145905.040000", "145905.500000", "145905.960000", "145906.420000", "145906.880000", "145907.340000", "145907.800000", "145908.260000", "145908.720000", "145909.180000", "145909.640000", "145910.100000", "145910.560000", "145911.020000", "145911.480000", "145911.940000", "145912.400000", "145912.860000", "145913.320000", "145913.780000", "145914.240000", "145914.700000", "145915.160000", "145915.620000", "145916.080000", "145916.540000", "145917.000000", "145917.460000", "145917.920000", "145918.380000", "145918.840000", "145919.300000", "145919.760000", "145920.220000", "145920.680000", "145921.140000", "145921.600000", "145922.060000", "145922.520000", "145922.980000", "145923.440000", "145923.900000", "145924.360000", "145924.820000", "145925.280000", "145925.740000", "145926.200000", "145926.660000", "145927.120000", "145927.580000", "145928.040000", "145928.500000", "145928.960000", "145929.420000", "145929.880000", "145930.340000", "145930.800000", "145931.260000", "145931.720000", "145932.180000", "145932.640000", "145933.100000", "145933.560000", "145934.020000", "145934.480000", "145934.940000", "145935.400000", "145935.860000", "145936.320000", "145936.780000", "145937.240000", "145937.700000", "145938.160000", "145938.620000", "145939.080000", "145939.540000", "145940.000000", "145940.460000", "145940.920000", "145941.380000", "145941.840000", "145942.300000", "145942.760000", "145943.220000", "145943.680000", "145944.140000", "145944.600000", "145945.060000", "145945.520000", "145945.980000", "145946.440000", "145946.900000", "145947.360000", "145947.820000", "145948.280000", "145948.740000", "145949.200000", "145949.660000", "145950.120000", "145950.580000", "145951.040000", "145951.500000", "145951.960000", "145952.420000", "145952.880000", "145953.340000", "145953.800000", "145954.260000", "145954.720000", "145955.180000", "145955.640000", "145956.100000", "145956.560000", "145957.020000", "145957.480000", "145957.940000", "145958.400000", "145958.860000", "145959.320000", "145959.780000", "150000.240000", "150000.700000", "150001.160000", "150001.620000", "150002.080000", "150002.540000", "150003.000000", "150003.460000", "150003.920000", "150004.380000", "150004.840000", "150005.300000", "150005.760000", "150006.220000", "150006.680000", "150007.140000", "150007.600000", "150008.060000", "150008.520000", "150008.980000", "150009.440000", "150009.900000", "150010.360000", "150010.820000", "150011.280000", "150011.740000", "150012.200000", "150012.660000", "150013.120000", "150013.580000", "150014.040000", "150014.500000", "150014.960000", "150015.420000", "150015.880000", "150016.340000", "150016.800000", "150017.260000", "150017.720000", "150018.180000", "150018.640000", "150019.100000", "150019.560000", "150020.020000", "150020.480000", "150020.940000", "150021.400000", "150021.860000", "150022.320000", "150022.780000", "150023.240000", "150023.700000", "150024.160000", "150024.620000", "150025.080000", "150025.540000", "150026.000000", "150026.460000", "150026.920000", "150027.380000", "150027.840000", "150028.300000", "150028.760000", "150029.220000", "150029.680000", "150030.140000", "150030.600000", "150031.060000", "150031.520000", "150031.980000", "150032.440000", "150032.900000", "150033.360000", "150033.820000", "150034.280000", "150034.740000", "150035.200000", "150035.660000", "150036.120000", "150036.580000", "150037.040000", "150037.500000", "150037.960000", "150038.420000", "150038.880000", "150039.340000", "150039.800000", "150040.260000", "150040.720000", "150041.180000", "150041.640000", "150042.100000", "150042.560000", "150043.020000", "150043.480000", "150043.940000", "150044.400000", "150044.860000", "150045.320000", "150045.780000", "150046.240000", "150046.700000", "150047.160000", "150047.620000", "150048.080000", "150048.540000", "150049.000000", "150049.460000", "150049.920000", "150050.380000", "150050.840000", "150051.300000", "150051.760000", "150052.220000", "150052.680000", "150053.140000", "150053.600000", "150054.060000", "150054.520000", "150054.980000", "150055.440000", "150055.900000", "150056.360000", "150056.820000", "150057.280000", "150057.740000", "150058.200000", "150058.660000", "150059.120000", "150059.580000", "150100.040000", "150100.500000", "150100.960000", "150101.420000", "150101.880000", "150102.340000", "150102.800000", "150103.260000", "150103.720000", "150104.180000", "150104.640000", "150105.100000", "150105.560000", "150106.020000", "150106.480000", "150106.940000", "150107.400000", "150107.860000", "150108.320000", "150108.780000", "150109.240000", "150109.700000", "150110.160000", "150110.620000", "150111.080000", "150111.540000", "150112.000000", "150112.460000", "150112.920000", "150113.380000", "150113.840000", "150114.300000", "150114.760000", "150115.220000", "150115.680000", "150116.140000", "150116.600000", "150117.060000", "150117.520000", "150117.980000", "150118.440000", "150118.900000", "150119.360000", "150119.820000", "150120.280000", "150120.740000", "150121.200000", "150121.660000", "150122.120000", "150122.580000", "150123.040000", "150123.500000", "150123.960000", "150124.420000", "150124.880000", "150125.340000", "150125.800000", "150126.260000", "150126.720000", "150127.180000", "150127.640000", "150128.100000", "150128.560000", "150129.020000", "150129.480000", "150129.940000", "150130.400000", "150130.860000", "150131.320000", "150131.780000", "150132.240000", "150132.700000", "150133.160000", "150133.620000", "150134.080000", "150134.540000", "150135.000000", "150135.460000", "150135.920000", "150136.380000", "150136.840000", "150137.300000", "150137.760000", "150138.220000", "150138.680000", "150139.140000", "150139.600000", "150140.060000", "150140.520000", "150140.980000", "150141.440000", "150141.900000", "150142.360000", "150142.820000", "150143.280000", "150143.740000", "150144.200000", "150144.660000", "150145.120000", "150145.580000", "150146.040000", "150146.500000", "150146.960000", "150147.420000", "150147.880000", "150148.340000", "150148.800000", "150149.260000", "150149.720000", "150150.180000", "150150.640000", "150151.100000", "150151.560000", "150152.020000"],
