{
  "AcquisitionMatrixPE": 82,
  "AcquisitionNumber": 1,
  "AcquisitionTime": "21:27:47.227500",
  "BandwidthPerPixelPhaseEncode": 24.888,
  "BaseResolution": 82,
  "BodyPartExamined": "BRAIN",
  "ConsistencyInfo": "N4_VE11E_LATEST_20181129",
  "ConversionSoftware": "dcm2niix",
  "ConversionSoftwareVersion": "v1.0.20201102",
  "DerivedVendorReportedEchoSpacing": 0.00049,
  "DeviceSerialNumber": "66112",
  "DwellTime": 2e-06,
  "EchoTime": 0.0272,
  "EchoTrainLength": 82,
  "EffectiveEchoSpacing": 0.00049,
  "FlipAngle": 44,
  "ImageComments": "Unaliased MB8/PE3",
  "ImageOrientationPatientDICOM": [0.999982, 0.00556838, 0.00239751, -0.00558508, 0.99996, 0.00701654],
  "ImageType": [
    "ORIGINAL",
    "PRIMARY",
    "M",
    "MB",
    "ND",
    "NORM",
    "MOSAIC"
],
  "ImagingFrequency": 123.252,
  "InPlanePhaseEncodingDirectionDICOM": "COL",
  "InstitutionAddress": "Maynard 3,Hanover,NH,US,03755",
  "InstitutionName": "Dartmouth College - PBS",
  "InstitutionalDepartmentName": "Department",
  "MRAcquisitionType": "2D",
  "MagneticFieldStrength": 3,
  "Manufacturer": "Siemens",
  "ManufacturersModelName": "Prisma",
  "Modality": "MR",
  "MultibandAccelerationFactor": 8,
  "PartialFourier": 1,
  "PatientPosition": "HFS",
  "PercentPhaseFOV": 100,
  "PercentSampling": 100,
  "PhaseEncodingDirection": "j-",
  "PhaseEncodingSteps": 82,
  "PhaseResolution": 1,
  "PixelBandwidth": 3050,
  "ProcedureStepDescription": "Wager_Wager^1076_spacetop",
  "ProtocolName": "func_run-03_task-social_acq-ap-mb8",
  "PulseSequenceDetails": "%CustomerSeq%\\cmrr_mbep2d_bold",
  "ReceiveCoilActiveElements": "HEA;HEP",
  "ReceiveCoilName": "Head_32",
  "ReconMatrixPE": 82,
  "RepetitionTime": 0.46,
  "SAR": 0.0747853,
  "ScanOptions": "FS",
  "ScanningSequence": "EP",
  "SequenceName": "epfid2d1_82",
  "SequenceVariant": "SK\\SS",
  "SeriesDescription": "func_run-03_task-social_acq-ap-mb8",
  "SeriesNumber": 16,
  "ShimSetting": [4143, -7743, -7263, 740, -52, -134, -123, 83],
  "SliceThickness": 2.7,
  "SliceTiming": [0, 0.2525, 0.0625, 0.315, 0.1275, 0.3775, 0.19, 0, 0.2525, 0.0625, 0.315, 0.1275, 0.3775, 0.19, 0, 0.2525, 0.0625, 0.315, 0.1275, 0.3775, 0.19, 0, 0.2525, 0.0625, 0.315, 0.1275, 0.3775, 0.19, 0, 0.2525, 0.0625, 0.315, 0.1275, 0.3775, 0.19, 0, 0.2525, 0.0625, 0.315, 0.1275, 0.3775, 0.19, 0, 0.2525, 0.0625, 0.315, 0.1275, 0.3775, 0.19, 0, 0.2525, 0.0625, 0.315, 0.1275, 0.3775, 0.19],
  "SoftwareVersions": "syngo MR E11",
  "SpacingBetweenSlices": 2.7,
  "StationName": "AWP66112",
  "TaskName": "social",
  "TotalReadoutTime": 0.03969,
  "TxRefAmp": 229.603,
  "WipMemBlock": "dd8123ad-f3f8-4087-b699-e3c789cea6d6||Sequence: R016 ve11e/master r/434b28f1; Aug  7 2019 18:53:46 by eja",
  "dcmmeta_affine": [
    [-2.682877540588379, -0.014984353445470333, 0.006367535330355167, 113.98953247070312],
    [-0.014939546585083008, 2.68281888961792, 0.018980471417307854, -93.3877182006836],
    [0.006432353984564543, -0.018824871629476547, 2.6999258995056152, -75.3232421875],
    [0.0, 0.0, 0.0, 1.0]
],
  "dcmmeta_reorient_transform": [
    [0.0, -1.0, 0.0, 81.0],
    [1.0, 0.0, 0.0, 0.0],
    [0.0, 0.0, 1.0, 0.0],
    [0.0, 0.0, 0.0, 1.0]
],
  "dcmmeta_shape": [82, 82, 56, 872],
  "dcmmeta_slice_dim": 2,
  "dcmmeta_version": 0.6,
  "global": {
    "const": {
      "AccessionNumber": "A004086",
      "AcquisitionMatrix": [82, 0, 0, 82],
      "AngioFlag": "N",
      "BitsAllocated": 16,
      "BitsStored": 16,
      "BodyPartExamined": "BRAIN",
      "Columns": 656,
      "EchoNumbers": 1,
      "EchoTime": 27.2,
      "EchoTrainLength": 82,
      "FlipAngle": 44.0,
      "HighBit": 15,
      "ImageOrientationPatient": [0.99998162238835, 0.00556837623038, 0.00239751365538, -0.0055850772058, 0.99995978670964, 0.00701654303844],
      "ImagePositionPatient": [-878.46116058991, -898.17732355752, -84.096877717471],
      "ImageType": [
        "ORIGINAL",
        "PRIMARY",
        "M",
        "MB",
        "ND",
        "NORM",
        "MOSAIC"
],
      "ImagedNucleus": "1H",
      "ImagingFrequency": 123.252232,
      "InPlanePhaseEncodingDirection": "COL",
      "MRAcquisitionType": "2D",
      "MagneticFieldStrength": 3.0,
      "Manufacturer": "SIEMENS",
      "ManufacturerModelName": "Prisma",
      "Modality": "MR",
      "NumberOfAverages": 1.0,
      "NumberOfPhaseEncodingSteps": 82,
      "PercentPhaseFieldOfView": 100.0,
      "PercentSampling": 100.0,
      "PerformedProcedureStepStartTime": "204206.737000",
      "PhotometricInterpretation": "MONOCHROME2",
      "PixelBandwidth": 3050.0,
      "PixelRepresentation": 0,
      "PixelSpacing": [2.6829268932343, 2.6829268932343],
      "ProtocolName": "func_run-03_task-social_acq-ap-mb8",
      "RepetitionTime": 460.0,
      "Rows": 656,
      "SAR": 0.07478532068647,
      "SamplesPerPixel": 1,
      "ScanOptions": "FS",
      "ScanningSequence": "EP",
      "SequenceName": "epfid2d1_82",
      "SequenceVariant": [
        "SK",
        "SS"
],
      "SeriesDescription": "func_run-03_task-social_acq-ap-mb8",
      "SeriesNumber": 16,
      "SeriesTime": "212806.676000",
      "SliceLocation": -75.708839176139,
      "SliceThickness": 2.7000000476837,
      "SmallestImagePixelValue": 0,
      "SoftwareVersions": "syngo MR E11",
      "SpacingBetweenSlices": 2.7000000107862,
      "SpecificCharacterSet": "ISO_IR 100",
      "StudyID": "4",
      "StudyTime": "204206.689000",
      "TransmitCoilName": "Body",
      "VariableFlipAngleFlag": "N",
      "WindowCenterWidthExplanation": "Algo1"
    },
    "slices": {}
  },
  "time": {
    "samples": {
      "AcquisitionNumber": [1, 2, 3, 4, 5, 6, 7, 8, 9, 10, 11, 12, 13, 14, 15, 16, 17, 18, 19, 20, 21, 22, 23, 24, 25, 26, 27, 28, 29, 30, 31, 32, 33, 34, 35, 36, 37, 38, 39, 40, 41, 42, 43, 44, 45, 46, 47, 48, 49, 50, 51, 52, 53, 54, 55, 56, 57, 58, 59, 60, 61, 62, 63, 64, 65, 66, 67, 68, 69, 70, 71, 72, 73, 74, 75, 76, 77, 78, 79, 80, 81, 82, 83, 84, 85, 86, 87, 88, 89, 90, 91, 92, 93, 94, 95, 96, 97, 98, 99, 100, 101, 102, 103, 104, 105, 106, 107, 108, 109, 110, 111, 112, 113, 114, 115, 116, 117, 118, 119, 120, 121, 122, 123, 124, 125, 126, 127, 128, 129, 130, 131, 132, 133, 134, 135, 136, 137, 138, 139, 140, 141, 142, 143, 144, 145, 146, 147, 148, 149, 150, 151, 152, 153, 154, 155, 156, 157, 158, 159, 160, 161, 162, 163, 164, 165, 166, 167, 168, 169, 170, 171, 172, 173, 174, 175, 176, 177, 178, 179, 180, 181, 182, 183, 184, 185, 186, 187, 188, 189, 190, 191, 192, 193, 194, 195, 196, 197, 198, 199, 200, 201, 202, 203, 204, 205, 206, 207, 208, 209, 210, 211, 212, 213, 214, 215, 216, 217, 218, 219, 220, 221, 222, 223, 224, 225, 226, 227, 228, 229, 230, 231, 232, 233, 234, 235, 236, 237, 238, 239, 240, 241, 242, 243, 244, 245, 246, 247, 248, 249, 250, 251, 252, 253, 254, 255, 256, 257, 258, 259, 260, 261, 262, 263, 264, 265, 266, 267, 268, 269, 270, 271, 272, 273, 274, 275, 276, 277, 278, 279, 280, 281, 282, 283, 284, 285, 286, 287, 288, 289, 290, 291, 292, 293, 294, 295, 296, 297, 298, 299, 300, 301, 302, 303, 304, 305, 306, 307, 308, 309, 310, 311, 312, 313, 314, 315, 316, 317, 318, 319, 320, 321, 322, 323, 324, 325, 326, 327, 328, 329, 330, 331, 332, 333, 334, 335, 336, 337, 338, 339, 340, 341, 342, 343, 344, 345, 346, 347, 348, 349, 350, 351, 352, 353, 354, 355, 356, 357, 358, 359, 360, 361, 362, 363, 364, 365, 366, 367, 368, 369, 370, 371, 372, 373, 374, 375, 376, 377, 378, 379, 380, 381, 382, 383, 384, 385, 386, 387, 388, 389, 390, 391, 392, 393, 394, 395, 396, 397, 398, 399, 400, 401, 402, 403, 404, 405, 406, 407, 408, 409, 410, 411, 412, 413, 414, 415, 416, 417, 418, 419, 420, 421, 422, 423, 424, 425, 426, 427, 428, 429, 430, 431, 432, 433, 434, 435, 436, 437, 438, 439, 440, 441, 442, 443, 444, 445, 446, 447, 448, 449, 450, 451, 452, 453, 454, 455, 456, 457, 458, 459, 460, 461, 462, 463, 464, 465, 466, 467, 468, 469, 470, 471, 472, 473, 474, 475, 476, 477, 478, 479, 480, 481, 482, 483, 484, 485, 486, 487, 488, 489, 490, 491, 492, 493, 494, 495, 496, 497, 498, 499, 500, 501, 502, 503, 504, 505, 506, 507, 508, 509, 510, 511, 512, 513, 514, 515, 516, 517, 518, 519, 520, 521, 522, 523, 524, 525, 526, 527, 528, 529, 530, 531, 532, 533, 534, 535, 536, 537, 538, 539, 540, 541, 542, 543, 544, 545, 546, 547, 548, 549, 550, 551, 552, 553, 554, 555, 556, 557, 558, 559, 560, 561, 562, 563, 564, 565, 566, 567, 568, 569, 570, 571, 572, 573, 574, 575, 576, 577, 578, 579, 580, 581, 582, 583, 584, 585, 586, 587, 588, 589, 590, 591, 592, 593, 594, 595, 596, 597, 598, 599, 600, 601, 602, 603, 604, 605, 606, 607, 608, 609, 610, 611, 612, 613, 614, 615, 616, 617, 618, 619, 620, 621, 622, 623, 624, 625, 626, 627, 628, 629, 630, 631, 632, 633, 634, 635, 636, 637, 638, 639, 640, 641, 642, 643, 644, 645, 646, 647, 648, 649, 650, 651, 652, 653, 654, 655, 656, 657, 658, 659, 660, 661, 662, 663, 664, 665, 666, 667, 668, 669, 670, 671, 672, 673, 674, 675, 676, 677, 678, 679, 680, 681, 682, 683, 684, 685, 686, 687, 688, 689, 690, 691, 692, 693, 694, 695, 696, 697, 698, 699, 700, 701, 702, 703, 704, 705, 706, 707, 708, 709, 710, 711, 712, 713, 714, 715, 716, 717, 718, 719, 720, 721, 722, 723, 724, 725, 726, 727, 728, 729, 730, 731, 732, 733, 734, 735, 736, 737, 738, 739, 740, 741, 742, 743, 744, 745, 746, 747, 748, 749, 750, 751, 752, 753, 754, 755, 756, 757, 758, 759, 760, 761, 762, 763, 764, 765, 766, 767, 768, 769, 770, 771, 772, 773, 774, 775, 776, 777, 778, 779, 780, 781, 782, 783, 784, 785, 786, 787, 788, 789, 790, 791, 792, 793, 794, 795, 796, 797, 798, 799, 800, 801, 802, 803, 804, 805, 806, 807, 808, 809, 810, 811, 812, 813, 814, 815, 816, 817, 818, 819, 820, 821, 822, 823, 824, 825, 826, 827, 828, 829, 830, 831, 832, 833, 834, 835, 836, 837, 838, 839, 840, 841, 842, 843, 844, 845, 846, 847, 848, 849, 850, 851, 852, 853, 854, 855, 856, 857, 858, 859, 860, 861, 862, 863, 864, 865, 866, 867, 868, 869, 870, 871, 872],
      "AcquisitionTime": ["212747.227500", "212747.687500", "212748.147500", "212748.607500", "212749.067500", "212749.527500", "212749.987500", "212750.447500", "212750.907500", "212751.367500", "212751.827500", "212752.287500", "212752.747500", "212753.207500", "212753.667500", "212754.127500", "212754.587500", "212755.047500", "212755.507500", "212755.967500", "212756.427500", "212756.887500", "212757.347500", "212757.807500", "212758.267500", "212758.727500", "212759.187500", "212759.647500", "212800.107500", "212800.567500", "212801.027500", "212801.487500", "212801.947500", "212802.407500", "212802.867500", "212803.327500", "212803.787500", "212804.247500", "212804.707500", "212805.167500", "212805.627500", "212806.087500", "212806.547500", "212807.007500", "212807.467500", "212807.927500", "212808.387500", "212808.847500", "212809.307500", "212809.767500", "212810.227500", "212810.687500", "212811.147500", "212811.607500", "212812.067500", "212812.527500", "212812.987500", "212813.447500", "212813.907500", "212814.367500", "212814.827500", "212815.287500", "212815.747500", "212816.207500", "212816.667500", "212817.127500", "212817.587500", "212818.047500", "212818.507500", "212818.967500", "212819.427500", "212819.887500", "212820.347500", "212820.807500", "212821.267500", "212821.727500", "212822.187500", "212822.647500", "212823.107500", "212823.567500", "212824.027500", "212824.487500", "212824.947500", "212825.407500", "212825.867500", "212826.327500", "212826.787500", "212827.247500", "212827.707500", "212828.167500", "212828.627500", "212829.087500", "212829.547500", "212830.007500", "212830.467500", "212830.927500", "212831.387500", "212831.847500", "212832.307500", "212832.767500", "212833.227500", "212833.687500", "212834.147500", "212834.607500", "212835.067500", "212835.527500", "212835.987500", "212836.447500", "212836.907500", "212837.367500", "212837.827500", "212838.287500", "212838.747500", "212839.207500", "212839.667500", "212840.127500", "212840.587500", "212841.047500", "212841.507500", "212841.967500", "212842.427500", "212842.887500", "212843.347500", "212843.807500", "212844.267500", "212844.727500", "212845.187500", "212845.647500", "212846.107500", "212846.567500", "212847.027500", "212847.487500", "212847.947500", "212848.407500", "212848.867500", "212849.327500", "212849.787500", "212850.247500", "212850.707500", "212851.167500", "212851.627500", "212852.087500", "212852.547500", "212853.007500", "212853.467500", "212853.927500", "212854.387500", "212854.847500", "212855.307500", "212855.767500", "212856.227500", "212856.687500", "212857.147500", "212857.607500", "212858.067500", "212858.527500", "212858.987500", "212859.447500", "212859.907500", "212900.367500", "212900.827500", "212901.287500", "212901.747500", "212902.207500", "212902.667500", "212903.127500", "212903.587500", "212904.047500", "212904.507500", "212904.967500", "212905.427500", "212905.887500", "212906.347500", "212906.807500", "212907.267500", "212907.727500", "212908.187500", "212908.647500", "212909.107500", "212909.567500", "212910.027500", "212910.487500", "212910.947500", "212911.407500", "212911.867500", "212912.327500", "212912.787500", "212913.247500", "212913.707500", "212914.167500", "212914.627500", "212915.087500", "212915.547500", "212916.007500", "212916.467500", "212916.927500", "212917.387500", "212917.847500", "212918.307500", "212918.767500", "212919.227500", "212919.687500", "212920.147500", "212920.607500", "212921.067500", "212921.527500", "212921.987500", "212922.447500", "212922.907500", "212923.367500", "212923.827500", "212924.287500", "212924.747500", "212925.207500", "212925.667500", "212926.127500", "212926.587500", "212927.047500", "212927.507500", "212927.967500", "212928.427500", "212928.887500", "212929.347500", "212929.807500", "212930.267500", "212930.727500", "212931.187500", "212931.647500", "212932.107500", "212932.567500", "212933.027500", "212933.487500", "212933.947500", "212934.407500", "212934.867500", "212935.327500", "212935.787500", "212936.247500", "212936.707500", "212937.167500", "212937.627500", "212938.087500", "212938.547500", "212939.007500", "212939.467500", "212939.927500", "212940.387500", "212940.847500", "212941.307500", "212941.767500", "212942.227500", "212942.687500", "212943.147500", "212943.607500", "212944.067500", "212944.527500", "212944.987500", "212945.447500", "212945.907500", "212946.367500", "212946.827500", "212947.287500", "212947.747500", "212948.207500", "212948.667500", "212949.127500", "212949.587500", "212950.047500", "212950.507500", "212950.967500", "212951.427500", "212951.887500", "212952.347500", "212952.807500", "212953.267500", "212953.727500", "212954.187500", "212954.647500", "212955.107500", "212955.567500", "212956.027500", "212956.487500", "212956.947500", "212957.407500", "212957.867500", "212958.327500", "212958.787500", "212959.247500", "212959.707500", "213000.167500", "213000.627500", "213001.087500", "213001.547500", "213002.007500", "213002.467500", "213002.927500", "213003.387500", "213003.847500", "213004.307500", "213004.767500", "213005.227500", "213005.687500", "213006.147500", "213006.607500", "213007.067500", "213007.527500", "213007.987500", "213008.447500", "213008.907500", "213009.367500", "213009.827500", "213010.287500", "213010.747500", "213011.207500", "213011.667500", "213012.127500", "213012.587500", "213013.047500", "213013.507500", "213013.967500", "213014.427500", "213014.887500", "213015.347500", "213015.807500", "213016.267500", "213016.727500", "213017.187500", "213017.647500", "213018.107500", "213018.567500", "213019.027500", "213019.487500", "213019.947500", "213020.407500", "213020.867500", "213021.327500", "213021.787500", "213022.247500", "213022.707500", "213023.167500", "213023.627500", "213024.087500", "213024.547500", "213025.007500", "213025.467500", "213025.927500", "213026.387500", "213026.847500", "213027.307500", "213027.767500", "213028.227500", "213028.687500", "213029.147500", "213029.607500", "213030.067500", "213030.527500", "213030.987500", "213031.447500", "213031.907500", "213032.367500", "213032.827500", "213033.287500", "213033.747500", "213034.207500", "213034.667500", "213035.127500", "213035.587500", "213036.047500", "213036.507500", "213036.967500", "213037.427500", "213037.887500", "213038.347500", "213038.807500", "213039.267500", "213039.727500", "213040.187500", "213040.647500", "213041.107500", "213041.567500", "213042.027500", "213042.487500", "213042.947500", "213043.407500", "213043.867500", "213044.327500", "213044.787500", "213045.247500", "213045.707500", "213046.167500", "213046.627500", "213047.087500", "213047.547500", "213048.007500", "213048.467500", "213048.927500", "213049.387500", "213049.847500", "213050.307500", "213050.767500", "213051.227500", "213051.687500", "213052.147500", "213052.607500", "213053.067500", "213053.527500", "213053.987500", "213054.447500", "213054.907500", "213055.367500", "213055.827500", "213056.287500", "213056.747500", "213057.207500", "213057.667500", "213058.127500", "213058.587500", "213059.047500", "213059.507500", "213059.967500", "213100.427500", "213100.887500", "213101.347500", "213101.807500", "213102.267500", "213102.727500", "213103.187500", "213103.647500", "213104.107500", "213104.567500", "213105.027500", "213105.487500", "213105.947500", "213106.407500", "213106.867500", "213107.327500", "213107.787500", "213108.247500", "213108.707500", "213109.167500", "213109.627500", "213110.087500", "213110.547500", "213111.007500", "213111.467500", "213111.927500", "213112.387500", "213112.847500", "213113.307500", "213113.767500", "213114.227500", "213114.687500", "213115.147500", "213115.607500", "213116.067500", "213116.527500", "213116.987500", "213117.447500", "213117.907500", "213118.367500", "213118.827500", "213119.287500", "213119.747500", "213120.207500", "213120.667500", "213121.127500", "213121.587500", "213122.047500", "213122.507500", "213122.967500", "213123.427500", "213123.887500", "213124.347500", "213124.807500", "213125.267500", "213125.727500", "213126.187500", "213126.647500", "213127.107500", "213127.567500", "213128.027500", "213128.487500", "213128.947500", "213129.407500", "213129.867500", "213130.327500", "213130.787500", "213131.247500", "213131.707500", "213132.167500", "213132.627500", "213133.087500", "213133.547500", "213134.007500", "213134.467500", "213134.927500", "213135.387500", "213135.847500", "213136.307500", "213136.767500", "213137.227500", "213137.687500", "213138.147500", "213138.607500", "213139.067500", "213139.527500", "213139.987500", "213140.447500", "213140.907500", "213141.367500", "213141.827500", "213142.287500", "213142.747500", "213143.207500", "213143.667500", "213144.127500", "213144.587500", "213145.047500", "213145.507500", "213145.967500", "213146.427500", "213146.887500", "213147.347500", "213147.807500", "213148.267500", "213148.727500", "213149.187500", "213149.647500", "213150.107500", "213150.567500", "213151.027500", "213151.487500", "213151.947500", "213152.407500", "213152.867500", "213153.327500", "213153.787500", "213154.247500", "213154.707500", "213155.167500", "213155.627500", "213156.087500", "213156.547500", "213157.007500", "213157.467500", "213157.927500", "213158.387500", "213158.847500", "213159.307500", "213159.767500", "213200.227500", "213200.687500", "213201.147500", "213201.607500", "213202.067500", "213202.527500", "213202.987500", "213203.447500", "213203.907500", "213204.367500", "213204.827500", "213205.287500", "213205.747500", "213206.207500", "213206.667500", "213207.127500", "213207.587500", "213208.047500", "213208.507500", "213208.967500", "213209.427500", "213209.887500", "213210.347500", "213210.807500", "213211.267500", "213211.727500", "213212.187500", "213212.647500", "213213.107500", "213213.567500", "213214.027500", "213214.487500", "213214.947500", "213215.407500", "213215.867500", "213216.327500", "213216.787500", "213217.247500", "213217.707500", "213218.167500", "213218.627500", "213219.087500", "213219.547500", "213220.007500", "213220.467500", "213220.927500", "213221.387500", "213221.847500", "213222.307500", "213222.767500", "213223.227500", "213223.687500", "213224.147500", "213224.607500", "213225.067500", "213225.527500", "213225.987500", "213226.447500", "213226.907500", "213227.367500", "213227.827500", "213228.287500", "213228.747500", "213229.207500", "213229.667500", "213230.127500", "213230.587500", "213231.047500", "213231.507500", "213231.967500", "213232.427500", "213232.887500", "213233.347500", "213233.807500", "213234.267500", "213234.727500", "213235.187500", "213235.647500", "213236.107500", "213236.567500", "213237.027500", "213237.487500", "213237.947500", "213238.407500", "213238.867500", "213239.327500", "213239.787500", "213240.247500", "213240.707500", "213241.167500", "213241.627500", "213242.087500", "213242.547500", "213243.007500", "213243.467500", "213243.927500", "213244.387500", "213244.847500", "213245.307500", "213245.767500", "213246.227500", "213246.687500", "213247.147500", "213247.607500", "213248.067500", "213248.527500", "213248.987500", "213249.447500", "213249.907500", "213250.367500", "213250.827500", "213251.287500", "213251.747500", "213252.207500", "213252.667500", "213253.127500", "213253.587500", "213254.047500", "213254.507500", "213254.967500", "213255.427500", "213255.887500", "213256.347500", "213256.807500", "213257.267500", "213257.727500", "213258.187500", "213258.647500", "213259.107500", "213259.567500", "213300.027500", "213300.487500", "213300.947500", "213301.407500", "213301.867500", "213302.327500", "213302.787500", "213303.247500", "213303.707500", "213304.167500", "213304.627500", "213305.087500", "213305.547500", "213306.007500", "213306.467500", "213306.927500", "213307.387500", "213307.847500", "213308.307500", "213308.767500", "213309.227500", "213309.687500", "213310.147500", "213310.607500", "213311.067500", "213311.527500", "213311.987500", "213312.447500", "213312.907500", "213313.367500", "213313.827500", "213314.287500", "213314.747500", "213315.207500", "213315.667500", "213316.127500", "213316.587500", "213317.047500", "213317.507500", "213317.967500", "213318.427500", "213318.887500", "213319.347500", "213319.807500", "213320.267500", "213320.727500", "213321.187500", "213321.647500", "213322.107500", "213322.567500", "213323.027500", "213323.487500", "213323.947500", "213324.407500", "213324.867500", "213325.327500", "213325.787500", "213326.247500", "213326.707500", "213327.167500", "213327.627500", "213328.087500", "213328.547500", "213329.007500", "213329.467500", "213329.927500", "213330.387500", "213330.847500", "213331.307500", "213331.767500", "213332.227500", "213332.687500", "213333.147500", "213333.607500", "213334.067500", "213334.527500", "213334.987500", "213335.447500", "213335.907500", "213336.367500", "213336.827500", "213337.287500", "213337.747500", "213338.207500", "213338.667500", "213339.127500", "213339.587500", "213340.047500", "213340.507500", "213340.967500", "213341.427500", "213341.887500", "213342.347500", "213342.807500", "213343.267500", "213343.727500", "213344.187500", "213344.647500", "213345.107500", "213345.567500", "213346.027500", "213346.487500", "213346.947500", "213347.407500", "213347.867500", "213348.327500", "213348.787500", "213349.247500", "213349.707500", "213350.167500", "213350.627500", "213351.087500", "213351.547500", "213352.007500", "213352.467500", "213352.927500", "213353.387500", "213353.847500", "213354.307500", "213354.767500", "213355.227500", "213355.687500", "213356.147500", "213356.607500", "213357.067500", "213357.527500", "213357.987500", "213358.447500", "213358.907500", "213359.367500", "213359.827500", "213400.287500", "213400.747500", "213401.207500", "213401.667500", "213402.127500", "213402.587500", "213403.047500", "213403.507500", "213403.967500", "213404.427500", "213404.887500", "213405.347500", "213405.807500", "213406.267500", "213406.727500", "213407.187500", "213407.647500", "213408.107500", "213408.567500", "213409.027500", "213409.487500", "213409.947500", "213410.407500", "213410.867500", "213411.327500", "213411.787500", "213412.247500", "213412.707500", "213413.167500", "213413.627500", "213414.087500", "213414.547500", "213415.007500", "213415.467500", "213415.927500", "213416.387500", "213416.847500", "213417.307500", "213417.767500", "213418.227500", "213418.687500", "213419.147500", "213419.607500", "213420.067500", "213420.527500", "213420.987500", "213421.447500", "213421.907500", "213422.367500", "213422.827500", "213423.287500", "213423.747500", "213424.207500", "213424.667500", "213425.127500", "213425.587500", "213426.047500", "213426.507500", "213426.967500", "213427.427500", "213427.887500"],
