{
  "AcquisitionMatrixPE": 82,
  "AcquisitionNumber": 1,
  "AcquisitionTime": "22:11:41.920000",
  "BandwidthPerPixelPhaseEncode": 24.888,
  "BaseResolution": 82,
  "BodyPartExamined": "BRAIN",
  "ConsistencyInfo": "N4_VE11E_LATEST_20181129",
  "ConversionSoftware": "dcm2niix",
  "ConversionSoftwareVersion": "v1.0.20201102",
  "DerivedVendorReportedEchoSpacing": 0.00049,
  "DeviceSerialNumber": "66112",
  "DwellTime": 2e-06,
  "EchoTime": 0.0272,
  "EchoTrainLength": 82,
  "EffectiveEchoSpacing": 0.00049,
  "FlipAngle": 44,
  "ImageComments": "Unaliased MB8/PE3",
  "ImageOrientationPatientDICOM": [0.999923, 0.0121646, 0.00234938, -0.012217, 0.999644, 0.0237264],
  "ImageType": [
    "ORIGINAL",
    "PRIMARY",
    "M",
    "MB",
    "ND",
    "NORM",
    "MOSAIC"
],
  "ImagingFrequency": 123.252,
  "InPlanePhaseEncodingDirectionDICOM": "COL",
  "InstitutionAddress": "Maynard 3,Hanover,NH,US,03755",
  "InstitutionName": "Dartmouth College - PBS",
  "InstitutionalDepartmentName": "Department",
  "MRAcquisitionType": "2D",
  "MagneticFieldStrength": 3,
  "Manufacturer": "Siemens",
  "ManufacturersModelName": "Prisma",
  "Modality": "MR",
  "MultibandAccelerationFactor": 8,
  "PartialFourier": 1,
  "PatientPosition": "HFS",
  "PercentPhaseFOV": 100,
  "PercentSampling": 100,
  "PhaseEncodingDirection": "j-",
  "PhaseEncodingSteps": 82,
  "PhaseResolution": 1,
  "PixelBandwidth": 3050,
  "ProcedureStepDescription": "Wager_Wager^1076_spacetop",
  "ProtocolName": "func_run-02_task-alignvideo_acq-ap-mb8",
  "PulseSequenceDetails": "%CustomerSeq%\\cmrr_mbep2d_bold",
  "ReceiveCoilActiveElements": "HEA;HEP",
  "ReceiveCoilName": "Head_32",
  "ReconMatrixPE": 82,
  "RepetitionTime": 0.46,
  "SAR": 0.0748124,
  "ScanOptions": "FS",
  "ScanningSequence": "EP",
  "SequenceName": "epfid2d1_82",
  "SequenceVariant": "SK\\SS",
  "SeriesDescription": "func_run-02_task-alignvideo_acq-ap-mb8",
  "SeriesNumber": 32,
  "ShimSetting": [4143, -7744, -7263, 749, -47, -141, -123, 85],
  "SliceThickness": 2.7,
  "SliceTiming": [0, 0.25, 0.0625, 0.3125, 0.125, 0.375, 0.1875, 0, 0.25, 0.0625, 0.3125, 0.125, 0.375, 0.1875, 0, 0.25, 0.0625, 0.3125, 0.125, 0.375, 0.1875, 0, 0.25, 0.0625, 0.3125, 0.125, 0.375, 0.1875, 0, 0.25, 0.0625, 0.3125, 0.125, 0.375, 0.1875, 0, 0.25, 0.0625, 0.3125, 0.125, 0.375, 0.1875, 0, 0.25, 0.0625, 0.3125, 0.125, 0.375, 0.1875, 0, 0.25, 0.0625, 0.3125, 0.125, 0.375, 0.1875],
  "SoftwareVersions": "syngo MR E11",
  "SpacingBetweenSlices": 2.7,
  "StationName": "AWP66112",
  "TaskName": "alignvideo",
  "TotalReadoutTime": 0.03969,
  "TxRefAmp": 229.603,
  "WipMemBlock": "6f8387ab-34da-46c4-8098-17bc1f88a7cd||Sequence: R016 ve11e/master r/434b28f1; Aug  7 2019 18:53:46 by eja",
  "dcmmeta_affine": [
    [-2.682720899581909, -0.032777272164821625, 0.005561784841120243, 114.4652099609375],
    [-0.03263682872056961, 2.681971311569214, 0.06413386017084122, -94.02000427246094],
    [0.006303214933723211, -0.06365619599819183, 2.699232578277588, -76.21825408935547],
    [0.0, 0.0, 0.0, 1.0]
],
  "dcmmeta_reorient_transform": [
    [0.0, -1.0, 0.0, 81.0],
    [1.0, 0.0, 0.0, 0.0],
    [0.0, 0.0, 1.0, 0.0],
    [0.0, 0.0, 0.0, 1.0]
],
  "dcmmeta_shape": [82, 82, 56, 926],
  "dcmmeta_slice_dim": 2,
  "dcmmeta_version": 0.6,
  "global": {
    "const": {
      "AccessionNumber": "A004086",
      "AcquisitionMatrix": [82, 0, 0, 82],
      "AngioFlag": "N",
      "BitsAllocated": 16,
      "BitsStored": 16,
      "BodyPartExamined": "BRAIN",
      "Columns": 656,
      "EchoNumbers": 1,
      "EchoTime": 27.2,
      "EchoTrainLength": 82,
      "FlipAngle": 44.0,
      "HighBit": 15,
      "ImageOrientationPatient": [0.99992324807637, 0.01216463604355, 0.00234937999033, -0.0122169834696, 0.99964383822243, 0.02372639919637],
      "ImagePositionPatient": [-872.34409284768, -902.31221966388, -101.45275922943],
      "ImageType": [
        "ORIGINAL",
        "PRIMARY",
        "M",
        "MB",
        "ND",
        "NORM",
        "MOSAIC"
],
      "ImagedNucleus": "1H",
      "ImagingFrequency": 123.252239,
      "InPlanePhaseEncodingDirection": "COL",
      "MRAcquisitionType": "2D",
      "MagneticFieldStrength": 3.0,
      "Manufacturer": "SIEMENS",
      "ManufacturerModelName": "Prisma",
      "Modality": "MR",
      "NumberOfAverages": 1.0,
      "NumberOfPhaseEncodingSteps": 82,
      "PercentPhaseFieldOfView": 100.0,
      "PercentSampling": 100.0,
      "PerformedProcedureStepStartTime": "204206.737000",
      "PhotometricInterpretation": "MONOCHROME2",
      "PixelBandwidth": 3050.0,
      "PixelRepresentation": 0,
      "PixelSpacing": [2.6829268932343, 2.6829268932343],
      "ProtocolName": "func_run-02_task-alignvideo_acq-ap-mb8",
      "RepetitionTime": 460.0,
      "Rows": 656,
      "SAR": 0.07481241714711,
      "SamplesPerPixel": 1,
      "ScanOptions": "FS",
      "ScanningSequence": "EP",
      "SequenceName": "epfid2d1_82",
      "SequenceVariant": [
        "SK",
        "SS"
],
      "SeriesDescription": "func_run-02_task-alignvideo_acq-ap-mb8",
      "SeriesNumber": 32,
      "SeriesTime": "221206.574000",
      "SliceLocation": -78.194084655574,
      "SliceThickness": 2.7000000476837,
      "SmallestImagePixelValue": 0,
      "SoftwareVersions": "syngo MR E11",
      "SpacingBetweenSlices": 2.7000000150548,
      "SpecificCharacterSet": "ISO_IR 100",
      "StudyID": "4",
      "StudyTime": "204206.689000",
      "TransmitCoilName": "Body",
      "VariableFlipAngleFlag": "N",
      "WindowCenterWidthExplanation": "Algo1"
    },
    "slices": {}
  },
  "time": {
    "samples": {
      "AcquisitionNumber": [1, 2, 3, 4, 5, 6, 7, 8, 9, 10, 11, 12, 13, 14, 15, 16, 17, 18, 19, 20, 21, 22, 23, 24, 25, 26, 27, 28, 29, 30, 31, 32, 33, 34, 35, 36, 37, 38, 39, 40, 41, 42, 43, 44, 45, 46, 47, 48, 49, 50, 51, 52, 53, 54, 55, 56, 57, 58, 59, 60, 61, 62, 63, 64, 65, 66, 67, 68, 69, 70, 71, 72, 73, 74, 75, 76, 77, 78, 79, 80, 81, 82, 83, 84, 85, 86, 87, 88, 89, 90, 91, 92, 93, 94, 95, 96, 97, 98, 99, 100, 101, 102, 103, 104, 105, 106, 107, 108, 109, 110, 111, 112, 113, 114, 115, 116, 117, 118, 119, 120, 121, 122, 123, 124, 125, 126, 127, 128, 129, 130, 131, 132, 133, 134, 135, 136, 137, 138, 139, 140, 141, 142, 143, 144, 145, 146, 147, 148, 149, 150, 151, 152, 153, 154, 155, 156, 157, 158, 159, 160, 161, 162, 163, 164, 165, 166, 167, 168, 169, 170, 171, 172, 173, 174, 175, 176, 177, 178, 179, 180, 181, 182, 183, 184, 185, 186, 187, 188, 189, 190, 191, 192, 193, 194, 195, 196, 197, 198, 199, 200, 201, 202, 203, 204, 205, 206, 207, 208, 209, 210, 211, 212, 213, 214, 215, 216, 217, 218, 219, 220, 221, 222, 223, 224, 225, 226, 227, 228, 229, 230, 231, 232, 233, 234, 235, 236, 237, 238, 239, 240, 241, 242, 243, 244, 245, 246, 247, 248, 249, 250, 251, 252, 253, 254, 255, 256, 257, 258, 259, 260, 261, 262, 263, 264, 265, 266, 267, 268, 269, 270, 271, 272, 273, 274, 275, 276, 277, 278, 279, 280, 281, 282, 283, 284, 285, 286, 287, 288, 289, 290, 291, 292, 293, 294, 295, 296, 297, 298, 299, 300, 301, 302, 303, 304, 305, 306, 307, 308, 309, 310, 311, 312, 313, 314, 315, 316, 317, 318, 319, 320, 321, 322, 323, 324, 325, 326, 327, 328, 329, 330, 331, 332, 333, 334, 335, 336, 337, 338, 339, 340, 341, 342, 343, 344, 345, 346, 347, 348, 349, 350, 351, 352, 353, 354, 355, 356, 357, 358, 359, 360, 361, 362, 363, 364, 365, 366, 367, 368, 369, 370, 371, 372, 373, 374, 375, 376, 377, 378, 379, 380, 381, 382, 383, 384, 385, 386, 387, 388, 389, 390, 391, 392, 393, 394, 395, 396, 397, 398, 399, 400, 401, 402, 403, 404, 405, 406, 407, 408, 409, 410, 411, 412, 413, 414, 415, 416, 417, 418, 419, 420, 421, 422, 423, 424, 425, 426, 427, 428, 429, 430, 431, 432, 433, 434, 435, 436, 437, 438, 439, 440, 441, 442, 443, 444, 445, 446, 447, 448, 449, 450, 451, 452, 453, 454, 455, 456, 457, 458, 459, 460, 461, 462, 463, 464, 465, 466, 467, 468, 469, 470, 471, 472, 473, 474, 475, 476, 477, 478, 479, 480, 481, 482, 483, 484, 485, 486, 487, 488, 489, 490, 491, 492, 493, 494, 495, 496, 497, 498, 499, 500, 501, 502, 503, 504, 505, 506, 507, 508, 509, 510, 511, 512, 513, 514, 515, 516, 517, 518, 519, 520, 521, 522, 523, 524, 525, 526, 527, 528, 529, 530, 531, 532, 533, 534, 535, 536, 537, 538, 539, 540, 541, 542, 543, 544, 545, 546, 547, 548, 549, 550, 551, 552, 553, 554, 555, 556, 557, 558, 559, 560, 561, 562, 563, 564, 565, 566, 567, 568, 569, 570, 571, 572, 573, 574, 575, 576, 577, 578, 579, 580, 581, 582, 583, 584, 585, 586, 587, 588, 589, 590, 591, 592, 593, 594, 595, 596, 597, 598, 599, 600, 601, 602, 603, 604, 605, 606, 607, 608, 609, 610, 611, 612, 613, 614, 615, 616, 617, 618, 619, 620, 621, 622, 623, 624, 625, 626, 627, 628, 629, 630, 631, 632, 633, 634, 635, 636, 637, 638, 639, 640, 641, 642, 643, 644, 645, 646, 647, 648, 649, 650, 651, 652, 653, 654, 655, 656, 657, 658, 659, 660, 661, 662, 663, 664, 665, 666, 667, 668, 669, 670, 671, 672, 673, 674, 675, 676, 677, 678, 679, 680, 681, 682, 683, 684, 685, 686, 687, 688, 689, 690, 691, 692, 693, 694, 695, 696, 697, 698, 699, 700, 701, 702, 703, 704, 705, 706, 707, 708, 709, 710, 711, 712, 713, 714, 715, 716, 717, 718, 719, 720, 721, 722, 723, 724, 725, 726, 727, 728, 729, 730, 731, 732, 733, 734, 735, 736, 737, 738, 739, 740, 741, 742, 743, 744, 745, 746, 747, 748, 749, 750, 751, 752, 753, 754, 755, 756, 757, 758, 759, 760, 761, 762, 763, 764, 765, 766, 767, 768, 769, 770, 771, 772, 773, 774, 775, 776, 777, 778, 779, 780, 781, 782, 783, 784, 785, 786, 787, 788, 789, 790, 791, 792, 793, 794, 795, 796, 797, 798, 799, 800, 801, 802, 803, 804, 805, 806, 807, 808, 809, 810, 811, 812, 813, 814, 815, 816, 817, 818, 819, 820, 821, 822, 823, 824, 825, 826, 827, 828, 829, 830, 831, 832, 833, 834, 835, 836, 837, 838, 839, 840, 841, 842, 843, 844, 845, 846, 847, 848, 849, 850, 851, 852, 853, 854, 855, 856, 857, 858, 859, 860, 861, 862, 863, 864, 865, 866, 867, 868, 869, 870, 871, 872, 873, 874, 875, 876, 877, 878, 879, 880, 881, 882, 883, 884, 885, 886, 887, 888, 889, 890, 891, 892, 893, 894, 895, 896, 897, 898, 899, 900, 901, 902, 903, 904, 905, 906, 907, 908, 909, 910, 911, 912, 913, 914, 915, 916, 917, 918, 919, 920, 921, 922, 923, 924, 925, 926],
      "AcquisitionTime": ["221141.920000", "221142.380000", "221142.840000", "221143.300000", "221143.760000", "221144.220000", "221144.680000", "221145.140000", "221145.600000", "221146.060000", "221146.520000", "221146.980000", "221147.440000", "221147.900000", "221148.360000", "221148.820000", "221149.280000", "221149.740000", "221150.200000", "221150.660000", "221151.120000", "221151.580000", "221152.040000", "221152.500000", "221152.960000", "221153.420000", "221153.880000", "221154.340000", "221154.800000", "221155.260000", "221155.720000", "221156.180000", "221156.640000", "221157.100000", "221157.560000", "221158.020000", "221158.480000", "221158.940000", "221159.400000", "221159.860000", "221200.320000", "221200.780000", "221201.240000", "221201.700000", "221202.160000", "221202.620000", "221203.080000", "221203.540000", "221204.000000", "221204.460000", "221204.920000", "221205.380000", "221205.840000", "221206.300000", "221206.760000", "221207.220000", "221207.680000", "221208.140000", "221208.600000", "221209.060000", "221209.520000", "221209.980000", "221210.440000", "221210.900000", "221211.360000", "221211.820000", "221212.280000", "221212.740000", "221213.200000", "221213.660000", "221214.120000", "221214.580000", "221215.040000", "221215.500000", "221215.960000", "221216.420000", "221216.880000", "221217.340000", "221217.800000", "221218.260000", "221218.720000", "221219.180000", "221219.640000", "221220.100000", "221220.560000", "221221.020000", "221221.480000", "221221.940000", "221222.400000", "221222.860000", "221223.320000", "221223.780000", "221224.240000", "221224.700000", "221225.160000", "221225.620000", "221226.080000", "221226.540000", "221227.000000", "221227.460000", "221227.920000", "221228.380000", "221228.840000", "221229.300000", "221229.760000", "221230.220000", "221230.680000", "221231.140000", "221231.600000", "221232.060000", "221232.520000", "221232.980000", "221233.440000", "221233.900000", "221234.360000", "221234.820000", "221235.280000", "221235.740000", "221236.200000", "221236.660000", "221237.120000", "221237.580000", "221238.040000", "221238.500000", "221238.960000", "221239.420000", "221239.880000", "221240.340000", "221240.800000", "221241.260000", "221241.720000", "221242.180000", "221242.640000", "221243.100000", "221243.560000", "221244.020000", "221244.480000", "221244.940000", "221245.400000", "221245.860000", "221246.320000", "221246.780000", "221247.240000", "221247.700000", "221248.160000", "221248.620000", "221249.080000", "221249.540000", "221250.000000", "221250.460000", "221250.920000", "221251.380000", "221251.840000", "221252.300000", "221252.760000", "221253.220000", "221253.680000", "221254.140000", "221254.600000", "221255.060000", "221255.520000", "221255.980000", "221256.440000", "221256.900000", "221257.360000", "221257.820000", "221258.280000", "221258.740000", "221259.200000", "221259.660000", "221300.120000", "221300.580000", "221301.040000", "221301.500000", "221301.960000", "221302.420000", "221302.880000", "221303.340000", "221303.800000", "221304.260000", "221304.720000", "221305.180000", "221305.640000", "221306.100000", "221306.560000", "221307.020000", "221307.480000", "221307.940000", "221308.400000", "221308.860000", "221309.320000", "221309.780000", "221310.240000", "221310.700000", "221311.160000", "221311.620000", "221312.080000", "221312.540000", "221313.000000", "221313.460000", "221313.920000", "221314.380000", "221314.840000", "221315.300000", "221315.760000", "221316.220000", "221316.680000", "221317.140000", "221317.600000", "221318.060000", "221318.520000", "221318.980000", "221319.440000", "221319.900000", "221320.360000", "221320.820000", "221321.280000", "221321.740000", "221322.200000", "221322.660000", "221323.120000", "221323.580000", "221324.040000", "221324.500000", "221324.960000", "221325.420000", "221325.880000", "221326.340000", "221326.800000", "221327.260000", "221327.720000", "221328.180000", "221328.640000", "221329.100000", "221329.560000", "221330.020000", "221330.480000", "221330.940000", "221331.400000", "221331.860000", "221332.320000", "221332.780000", "221333.240000", "221333.700000", "221334.160000", "221334.620000", "221335.080000", "221335.540000", "221336.000000", "221336.460000", "221336.920000", "221337.380000", "221337.840000", "221338.300000", "221338.760000", "221339.220000", "221339.680000", "221340.140000", "221340.600000", "221341.060000", "221341.520000", "221341.980000", "221342.440000", "221342.900000", "221343.360000", "221343.820000", "221344.280000", "221344.740000", "221345.200000", "221345.660000", "221346.120000", "221346.580000", "221347.040000", "221347.500000", "221347.960000", "221348.420000", "221348.880000", "221349.340000", "221349.800000", "221350.260000", "221350.720000", "221351.180000", "221351.640000", "221352.100000", "221352.560000", "221353.020000", "221353.480000", "221353.940000", "221354.400000", "221354.860000", "221355.320000", "221355.780000", "221356.240000", "221356.700000", "221357.160000", "221357.620000", "221358.080000", "221358.540000", "221359.000000", "221359.460000", "221359.920000", "221400.380000", "221400.840000", "221401.300000", "221401.760000", "221402.220000", "221402.680000", "221403.140000", "221403.600000", "221404.060000", "221404.520000", "221404.980000", "221405.440000", "221405.900000", "221406.360000", "221406.820000", "221407.280000", "221407.740000", "221408.200000", "221408.660000", "221409.120000", "221409.580000", "221410.040000", "221410.500000", "221410.960000", "221411.420000", "221411.880000", "221412.340000", "221412.800000", "221413.260000", "221413.720000", "221414.180000", "221414.640000", "221415.100000", "221415.560000", "221416.020000", "221416.480000", "221416.940000", "221417.400000", "221417.860000", "221418.320000", "221418.780000", "221419.240000", "221419.700000", "221420.160000", "221420.620000", "221421.080000", "221421.540000", "221422.000000", "221422.460000", "221422.920000", "221423.380000", "221423.840000", "221424.300000", "221424.760000", "221425.220000", "221425.680000", "221426.140000", "221426.600000", "221427.060000", "221427.520000", "221427.980000", "221428.440000", "221428.900000", "221429.360000", "221429.820000", "221430.280000", "221430.740000", "221431.200000", "221431.660000", "221432.120000", "221432.580000", "221433.040000", "221433.500000", "221433.960000", "221434.420000", "221434.880000", "221435.340000", "221435.800000", "221436.260000", "221436.720000", "221437.180000", "221437.640000", "221438.100000", "221438.560000", "221439.020000", "221439.480000", "221439.940000", "221440.400000", "221440.860000", "221441.320000", "221441.780000", "221442.240000", "221442.700000", "221443.160000", "221443.620000", "221444.080000", "221444.540000", "221445.000000", "221445.460000", "221445.920000", "221446.380000", "221446.840000", "221447.300000", "221447.760000", "221448.220000", "221448.680000", "221449.140000", "221449.600000", "221450.060000", "221450.520000", "221450.980000", "221451.440000", "221451.900000", "221452.360000", "221452.820000", "221453.280000", "221453.740000", "221454.200000", "221454.660000", "221455.120000", "221455.580000", "221456.040000", "221456.500000", "221456.960000", "221457.420000", "221457.880000", "221458.340000", "221458.800000", "221459.260000", "221459.720000", "221500.180000", "221500.640000", "221501.100000", "221501.560000", "221502.020000", "221502.480000", "221502.940000", "221503.400000", "221503.860000", "221504.320000", "221504.780000", "221505.240000", "221505.700000", "221506.160000", "221506.620000", "221507.080000", "221507.540000", "221508.000000", "221508.460000", "221508.920000", "221509.380000", "221509.840000", "221510.300000", "221510.760000", "221511.220000", "221511.680000", "221512.140000", "221512.600000", "221513.060000", "221513.520000", "221513.980000", "221514.440000", "221514.900000", "221515.360000", "221515.820000", "221516.280000", "221516.740000", "221517.200000", "221517.660000", "221518.120000", "221518.580000", "221519.040000", "221519.500000", "221519.960000", "221520.420000", "221520.880000", "221521.340000", "221521.800000", "221522.260000", "221522.720000", "221523.180000", "221523.640000", "221524.100000", "221524.560000", "221525.020000", "221525.480000", "221525.940000", "221526.400000", "221526.860000", "221527.320000", "221527.780000", "221528.240000", "221528.700000", "221529.160000", "221529.620000", "221530.080000", "221530.540000", "221531.000000", "221531.460000", "221531.920000", "221532.380000", "221532.840000", "221533.300000", "221533.760000", "221534.220000", "221534.680000", "221535.140000", "221535.600000", "221536.060000", "221536.520000", "221536.980000", "221537.440000", "221537.900000", "221538.360000", "221538.820000", "221539.280000", "221539.740000", "221540.200000", "221540.660000", "221541.120000", "221541.580000", "221542.040000", "221542.500000", "221542.960000", "221543.420000", "221543.880000", "221544.340000", "221544.800000", "221545.260000", "221545.720000", "221546.180000", "221546.640000", "221547.100000", "221547.560000", "221548.020000", "221548.480000", "221548.940000", "221549.400000", "221549.860000", "221550.320000", "221550.780000", "221551.240000", "221551.700000", "221552.160000", "221552.620000", "221553.080000", "221553.540000", "221554.000000", "221554.460000", "221554.920000", "221555.380000", "221555.840000", "221556.300000", "221556.760000", "221557.220000", "221557.680000", "221558.140000", "221558.600000", "221559.060000", "221559.520000", "221559.980000", "221600.440000", "221600.900000", "221601.360000", "221601.820000", "221602.280000", "221602.740000", "221603.200000", "221603.660000", "221604.120000", "221604.580000", "221605.040000", "221605.500000", "221605.960000", "221606.420000", "221606.880000", "221607.340000", "221607.800000", "221608.260000", "221608.720000", "221609.180000", "221609.640000", "221610.100000", "221610.560000", "221611.020000", "221611.480000", "221611.940000", "221612.400000", "221612.860000", "221613.320000", "221613.780000", "221614.240000", "221614.700000", "221615.160000", "221615.620000", "221616.080000", "221616.540000", "221617.000000", "221617.460000", "221617.920000", "221618.380000", "221618.840000", "221619.300000", "221619.760000", "221620.220000", "221620.680000", "221621.140000", "221621.600000", "221622.060000", "221622.520000", "221622.980000", "221623.440000", "221623.900000", "221624.360000", "221624.820000", "221625.280000", "221625.740000", "221626.200000", "221626.660000", "221627.120000", "221627.580000", "221628.040000", "221628.500000", "221628.960000", "221629.420000", "221629.880000", "221630.340000", "221630.800000", "221631.260000", "221631.720000", "221632.180000", "221632.640000", "221633.100000", "221633.560000", "221634.020000", "221634.480000", "221634.940000", "221635.400000", "221635.860000", "221636.320000", "221636.780000", "221637.240000", "221637.700000", "221638.160000", "221638.620000", "221639.080000", "221639.540000", "221640.000000", "221640.460000", "221640.920000", "221641.380000", "221641.840000", "221642.300000", "221642.760000", "221643.220000", "221643.680000", "221644.140000", "221644.600000", "221645.060000", "221645.520000", "221645.980000", "221646.440000", "221646.900000", "221647.360000", "221647.820000", "221648.280000", "221648.740000", "221649.200000", "221649.660000", "221650.120000", "221650.580000", "221651.040000", "221651.500000", "221651.960000", "221652.420000", "221652.880000", "221653.340000", "221653.800000", "221654.260000", "221654.720000", "221655.180000", "221655.640000", "221656.100000", "221656.560000", "221657.020000", "221657.480000", "221657.940000", "221658.400000", "221658.860000", "221659.320000", "221659.780000", "221700.240000", "221700.700000", "221701.160000", "221701.620000", "221702.080000", "221702.540000", "221703.000000", "221703.460000", "221703.920000", "221704.380000", "221704.840000", "221705.300000", "221705.760000", "221706.220000", "221706.680000", "221707.140000", "221707.600000", "221708.060000", "221708.520000", "221708.980000", "221709.440000", "221709.900000", "221710.360000", "221710.820000", "221711.280000", "221711.740000", "221712.200000", "221712.660000", "221713.120000", "221713.580000", "221714.040000", "221714.500000", "221714.960000", "221715.420000", "221715.880000", "221716.340000", "221716.800000", "221717.260000", "221717.720000", "221718.180000", "221718.640000", "221719.100000", "221719.560000", "221720.020000", "221720.480000", "221720.940000", "221721.400000", "221721.860000", "221722.320000", "221722.780000", "221723.240000", "221723.700000", "221724.160000", "221724.620000", "221725.080000", "221725.540000", "221726.000000", "221726.460000", "221726.920000", "221727.380000", "221727.840000", "221728.300000", "221728.760000", "221729.220000", "221729.680000", "221730.140000", "221730.600000", "221731.060000", "221731.520000", "221731.980000", "221732.440000", "221732.900000", "221733.360000", "221733.820000", "221734.280000", "221734.740000", "221735.200000", "221735.660000", "221736.120000", "221736.580000", "221737.040000", "221737.500000", "221737.960000", "221738.420000", "221738.880000", "221739.340000", "221739.800000", "221740.260000", "221740.720000", "221741.180000", "221741.640000", "221742.100000", "221742.560000", "221743.020000", "221743.480000", "221743.940000", "221744.400000", "221744.860000", "221745.320000", "221745.780000", "221746.240000", "221746.700000", "221747.160000", "221747.620000", "221748.080000", "221748.540000", "221749.000000", "221749.460000", "221749.920000", "221750.380000", "221750.840000", "221751.300000", "221751.760000", "221752.220000", "221752.680000", "221753.140000", "221753.600000", "221754.060000", "221754.520000", "221754.980000", "221755.440000", "221755.900000", "221756.360000", "221756.820000", "221757.280000", "221757.740000", "221758.200000", "221758.660000", "221759.120000", "221759.580000", "221800.040000", "221800.500000", "221800.960000", "221801.420000", "221801.880000", "221802.340000", "221802.800000", "221803.260000", "221803.720000", "221804.180000", "221804.640000", "221805.100000", "221805.560000", "221806.020000", "221806.480000", "221806.940000", "221807.400000", "221807.860000", "221808.320000", "221808.780000", "221809.240000", "221809.700000", "221810.160000", "221810.620000", "221811.080000", "221811.540000", "221812.000000", "221812.460000", "221812.920000", "221813.380000", "221813.840000", "221814.300000", "221814.760000", "221815.220000", "221815.680000", "221816.140000", "221816.600000", "221817.060000", "221817.520000", "221817.980000", "221818.440000", "221818.900000", "221819.360000", "221819.820000", "221820.280000", "221820.740000", "221821.200000", "221821.660000", "221822.120000", "221822.580000", "221823.040000", "221823.500000", "221823.960000", "221824.420000", "221824.880000", "221825.340000", "221825.800000", "221826.260000", "221826.720000", "221827.180000", "221827.640000", "221828.100000", "221828.560000", "221829.020000", "221829.480000", "221829.940000", "221830.400000", "221830.860000", "221831.320000", "221831.780000", "221832.240000", "221832.700000", "221833.160000", "221833.620000", "221834.080000", "221834.540000", "221835.000000", "221835.460000", "221835.920000", "221836.380000", "221836.840000", "221837.300000", "221837.760000", "221838.220000", "221838.680000", "221839.140000", "221839.600000", "221840.060000", "221840.520000", "221840.980000", "221841.440000", "221841.900000", "221842.360000", "221842.820000", "221843.280000", "221843.740000", "221844.200000", "221844.660000", "221845.120000", "221845.580000", "221846.040000", "221846.500000", "221846.960000", "221847.420000"],
