{
  "AcquisitionMatrixPE": 82,
  "AcquisitionNumber": 1,
  "AcquisitionTime": "14:38:29.682500",
  "BandwidthPerPixelPhaseEncode": 24.888,
  "BaseResolution": 82,
  "BodyPartExamined": "BRAIN",
  "ConsistencyInfo": "N4_VE11C_LATEST_20160120",
  "ConversionSoftware": "dcm2niix",
  "ConversionSoftwareVersion": "v1.0.20201102",
  "DerivedVendorReportedEchoSpacing": 0.00049,
  "DeviceSerialNumber": "66112",
  "DwellTime": 2e-06,
  "EchoTime": 0.0272,
  "EchoTrainLength": 82,
  "EffectiveEchoSpacing": 0.00049,
  "FlipAngle": 44,
  "ImageComments": "Unaliased MB8/PE3",
  "ImageOrientationPatientDICOM": [0.998402, 0.0161273, 0.0541662, -0.00975851, 0.993219, -0.115848],
  "ImageType": [
    "ORIGINAL",
    "PRIMARY",
    "M",
    "MB",
    "ND",
    "NORM",
    "MOSAIC"
],
  "ImagingFrequency": 123.252,
  "InPlanePhaseEncodingDirectionDICOM": "COL",
  "InstitutionAddress": "Maynard 3,Hanover,NH,US,03755",
  "InstitutionName": "Dartmouth College - PBS",
  "InstitutionalDepartmentName": "Department",
  "MRAcquisitionType": "2D",
  "MagneticFieldStrength": 3,
  "Manufacturer": "Siemens",
  "ManufacturersModelName": "Prisma",
  "Modality": "MR",
  "MultibandAccelerationFactor": 8,
  "PartialFourier": 1,
  "PatientPosition": "HFS",
  "PercentPhaseFOV": 100,
  "PercentSampling": 100,
  "PhaseEncodingDirection": "j-",
  "PhaseEncodingSteps": 82,
  "PhaseResolution": 1,
  "PixelBandwidth": 3050,
  "ProcedureStepDescription": "Wager_Wager^1076_spacetop",
  "ProtocolName": "func_run-05_task-social_acq-ap-mb8",
  "PulseSequenceDetails": "%CustomerSeq%\\cmrr_mbep2d_bold",
  "ReceiveCoilActiveElements": "HEA;HEP",
  "ReceiveCoilName": "Head_32",
  "ReconMatrixPE": 82,
  "RepetitionTime": 0.46,
  "SAR": 0.0715621,
  "ScanOptions": "FS",
  "ScanningSequence": "EP",
  "SequenceName": "epfid2d1_82",
  "SequenceVariant": "SK\\SS",
  "SeriesDescription": "func_run-05_task-social_acq-ap-mb8",
  "SeriesNumber": 22,
  "ShimSetting": [4163, -7717, -7286, 657, -62, -18, 9, 91],
  "SliceThickness": 2.7,
  "SliceTiming": [0, 0.25, 0.0625, 0.3125, 0.125, 0.375, 0.1875, 0, 0.25, 0.0625, 0.3125, 0.125, 0.375, 0.1875, 0, 0.25, 0.0625, 0.3125, 0.125, 0.375, 0.1875, 0, 0.25, 0.0625, 0.3125, 0.125, 0.375, 0.1875, 0, 0.25, 0.0625, 0.3125, 0.125, 0.375, 0.1875, 0, 0.25, 0.0625, 0.3125, 0.125, 0.375, 0.1875, 0, 0.25, 0.0625, 0.3125, 0.125, 0.375, 0.1875, 0, 0.25, 0.0625, 0.3125, 0.125, 0.375, 0.1875],
  "SoftwareVersions": "syngo MR E11",
  "SpacingBetweenSlices": 2.7,
  "StationName": "AWP66112",
  "TaskName": "social",
  "TotalReadoutTime": 0.03969,
  "TxRefAmp": 227.296,
  "WipMemBlock": "747e2aa2-d2c0-46aa-a80d-89af7bbd6830||Sequence: R016 ve11c/master r/e634e98; Dec 19 2017 11:00:25 by eja",
  "dcmmeta_affine": [
    [-2.6786386966705322, -0.026181375607848167, 0.15030157566070557, 112.2219467163086],
    [-0.04326846823096275, 2.66473388671875, -0.3108631372451782, -70.58336639404297],
    [0.14532403647899628, 0.3108123540878296, 2.6778299808502197, -74.68352508544922],
    [0.0, 0.0, 0.0, 1.0]
],
  "dcmmeta_reorient_transform": [
    [0.0, -1.0, 0.0, 81.0],
    [1.0, 0.0, 0.0, 0.0],
    [0.0, 0.0, 1.0, 0.0],
    [0.0, 0.0, 0.0, 1.0]
],
  "dcmmeta_shape": [82, 82, 56, 872],
  "dcmmeta_slice_dim": 2,
  "dcmmeta_version": 0.6,
  "global": {
    "const": {
      "AccessionNumber": "A003469",
      "AcquisitionMatrix": [82, 0, 0, 82],
      "AngioFlag": "N",
      "BitsAllocated": 16,
      "BitsStored": 16,
      "BodyPartExamined": "BRAIN",
      "Columns": 656,
      "EchoNumbers": 1,
      "EchoTime": 27.2,
      "EchoTrainLength": 82,
      "FlipAngle": 44.0,
      "HighBit": 15,
      "ImageOrientationPatient": [0.9984016870034, 0.01612733722496, 0.05416622917284, -0.0097585124326, 0.99321898739125, -0.1158482391778],
      "ImagePositionPatient": [-871.3565169751, -922.45677002401, -2.0125735843221],
      "ImageType": [
        "ORIGINAL",
        "PRIMARY",
        "M",
        "MB",
        "ND",
        "NORM",
        "MOSAIC"
],
      "ImagedNucleus": "1H",
      "ImagingFrequency": 123.252142,
      "InPlanePhaseEncodingDirection": "COL",
      "MRAcquisitionType": "2D",
      "MagneticFieldStrength": 3.0,
      "Manufacturer": "SIEMENS",
      "ManufacturerModelName": "Prisma",
      "Modality": "MR",
      "NumberOfAverages": 1.0,
      "NumberOfPhaseEncodingSteps": 82,
      "PercentPhaseFieldOfView": 100.0,
      "PercentSampling": 100.0,
      "PerformedProcedureStepStartTime": "131750.328000",
      "PhotometricInterpretation": "MONOCHROME2",
      "PixelBandwidth": 3050.0,
      "PixelRepresentation": 0,
      "PixelSpacing": [2.6829268932343, 2.6829268932343],
      "ProtocolName": "func_run-05_task-social_acq-ap-mb8",
      "RepetitionTime": 460.0,
      "Rows": 656,
      "SAR": 0.0715620945632,
      "SamplesPerPixel": 1,
      "ScanOptions": "FS",
      "ScanningSequence": "EP",
      "SequenceName": "epfid2d1_82",
      "SequenceVariant": [
        "SK",
        "SS"
],
      "SeriesDescription": "func_run-05_task-social_acq-ap-mb8",
      "SeriesNumber": 22,
      "SeriesTime": "143852.919000",
      "SliceLocation": -59.696621200948,
      "SliceThickness": 2.7000000476837,
      "SmallestImagePixelValue": 0,
      "SoftwareVersions": "syngo MR E11",
      "SpacingBetweenSlices": 2.700000014031,
      "SpecificCharacterSet": "ISO_IR 100",
      "StudyID": "1",
      "StudyTime": "131750.202000",
      "TransmitCoilName": "Body",
      "VariableFlipAngleFlag": "N",
      "WindowCenterWidthExplanation": "Algo1",
      "dBdt": 0.0},
    "slices": {}
  },
  "time": {
    "samples": {
      "AcquisitionNumber": [1, 2, 3, 4, 5, 6, 7, 8, 9, 10, 11, 12, 13, 14, 15, 16, 17, 18, 19, 20, 21, 22, 23, 24, 25, 26, 27, 28, 29, 30, 31, 32, 33, 34, 35, 36, 37, 38, 39, 40, 41, 42, 43, 44, 45, 46, 47, 48, 49, 50, 51, 52, 53, 54, 55, 56, 57, 58, 59, 60, 61, 62, 63, 64, 65, 66, 67, 68, 69, 70, 71, 72, 73, 74, 75, 76, 77, 78, 79, 80, 81, 82, 83, 84, 85, 86, 87, 88, 89, 90, 91, 92, 93, 94, 95, 96, 97, 98, 99, 100, 101, 102, 103, 104, 105, 106, 107, 108, 109, 110, 111, 112, 113, 114, 115, 116, 117, 118, 119, 120, 121, 122, 123, 124, 125, 126, 127, 128, 129, 130, 131, 132, 133, 134, 135, 136, 137, 138, 139, 140, 141, 142, 143, 144, 145, 146, 147, 148, 149, 150, 151, 152, 153, 154, 155, 156, 157, 158, 159, 160, 161, 162, 163, 164, 165, 166, 167, 168, 169, 170, 171, 172, 173, 174, 175, 176, 177, 178, 179, 180, 181, 182, 183, 184, 185, 186, 187, 188, 189, 190, 191, 192, 193, 194, 195, 196, 197, 198, 199, 200, 201, 202, 203, 204, 205, 206, 207, 208, 209, 210, 211, 212, 213, 214, 215, 216, 217, 218, 219, 220, 221, 222, 223, 224, 225, 226, 227, 228, 229, 230, 231, 232, 233, 234, 235, 236, 237, 238, 239, 240, 241, 242, 243, 244, 245, 246, 247, 248, 249, 250, 251, 252, 253, 254, 255, 256, 257, 258, 259, 260, 261, 262, 263, 264, 265, 266, 267, 268, 269, 270, 271, 272, 273, 274, 275, 276, 277, 278, 279, 280, 281, 282, 283, 284, 285, 286, 287, 288, 289, 290, 291, 292, 293, 294, 295, 296, 297, 298, 299, 300, 301, 302, 303, 304, 305, 306, 307, 308, 309, 310, 311, 312, 313, 314, 315, 316, 317, 318, 319, 320, 321, 322, 323, 324, 325, 326, 327, 328, 329, 330, 331, 332, 333, 334, 335, 336, 337, 338, 339, 340, 341, 342, 343, 344, 345, 346, 347, 348, 349, 350, 351, 352, 353, 354, 355, 356, 357, 358, 359, 360, 361, 362, 363, 364, 365, 366, 367, 368, 369, 370, 371, 372, 373, 374, 375, 376, 377, 378, 379, 380, 381, 382, 383, 384, 385, 386, 387, 388, 389, 390, 391, 392, 393, 394, 395, 396, 397, 398, 399, 400, 401, 402, 403, 404, 405, 406, 407, 408, 409, 410, 411, 412, 413, 414, 415, 416, 417, 418, 419, 420, 421, 422, 423, 424, 425, 426, 427, 428, 429, 430, 431, 432, 433, 434, 435, 436, 437, 438, 439, 440, 441, 442, 443, 444, 445, 446, 447, 448, 449, 450, 451, 452, 453, 454, 455, 456, 457, 458, 459, 460, 461, 462, 463, 464, 465, 466, 467, 468, 469, 470, 471, 472, 473, 474, 475, 476, 477, 478, 479, 480, 481, 482, 483, 484, 485, 486, 487, 488, 489, 490, 491, 492, 493, 494, 495, 496, 497, 498, 499, 500, 501, 502, 503, 504, 505, 506, 507, 508, 509, 510, 511, 512, 513, 514, 515, 516, 517, 518, 519, 520, 521, 522, 523, 524, 525, 526, 527, 528, 529, 530, 531, 532, 533, 534, 535, 536, 537, 538, 539, 540, 541, 542, 543, 544, 545, 546, 547, 548, 549, 550, 551, 552, 553, 554, 555, 556, 557, 558, 559, 560, 561, 562, 563, 564, 565, 566, 567, 568, 569, 570, 571, 572, 573, 574, 575, 576, 577, 578, 579, 580, 581, 582, 583, 584, 585, 586, 587, 588, 589, 590, 591, 592, 593, 594, 595, 596, 597, 598, 599, 600, 601, 602, 603, 604, 605, 606, 607, 608, 609, 610, 611, 612, 613, 614, 615, 616, 617, 618, 619, 620, 621, 622, 623, 624, 625, 626, 627, 628, 629, 630, 631, 632, 633, 634, 635, 636, 637, 638, 639, 640, 641, 642, 643, 644, 645, 646, 647, 648, 649, 650, 651, 652, 653, 654, 655, 656, 657, 658, 659, 660, 661, 662, 663, 664, 665, 666, 667, 668, 669, 670, 671, 672, 673, 674, 675, 676, 677, 678, 679, 680, 681, 682, 683, 684, 685, 686, 687, 688, 689, 690, 691, 692, 693, 694, 695, 696, 697, 698, 699, 700, 701, 702, 703, 704, 705, 706, 707, 708, 709, 710, 711, 712, 713, 714, 715, 716, 717, 718, 719, 720, 721, 722, 723, 724, 725, 726, 727, 728, 729, 730, 731, 732, 733, 734, 735, 736, 737, 738, 739, 740, 741, 742, 743, 744, 745, 746, 747, 748, 749, 750, 751, 752, 753, 754, 755, 756, 757, 758, 759, 760, 761, 762, 763, 764, 765, 766, 767, 768, 769, 770, 771, 772, 773, 774, 775, 776, 777, 778, 779, 780, 781, 782, 783, 784, 785, 786, 787, 788, 789, 790, 791, 792, 793, 794, 795, 796, 797, 798, 799, 800, 801, 802, 803, 804, 805, 806, 807, 808, 809, 810, 811, 812, 813, 814, 815, 816, 817, 818, 819, 820, 821, 822, 823, 824, 825, 826, 827, 828, 829, 830, 831, 832, 833, 834, 835, 836, 837, 838, 839, 840, 841, 842, 843, 844, 845, 846, 847, 848, 849, 850, 851, 852, 853, 854, 855, 856, 857, 858, 859, 860, 861, 862, 863, 864, 865, 866, 867, 868, 869, 870, 871, 872],
      "AcquisitionTime": ["143829.682500", "143830.142500", "143830.602500", "143831.062500", "143831.522500", "143831.982500", "143832.442500", "143832.902500", "143833.362500", "143833.822500", "143834.282500", "143834.742500", "143835.202500", "143835.662500", "143836.122500", "143836.582500", "143837.042500", "143837.502500", "143837.962500", "143838.422500", "143838.882500", "143839.342500", "143839.802500", "143840.262500", "143840.722500", "143841.182500", "143841.642500", "143842.102500", "143842.562500", "143843.022500", "143843.482500", "143843.942500", "143844.402500", "143844.862500", "143845.322500", "143845.782500", "143846.242500", "143846.702500", "143847.162500", "143847.622500", "143848.082500", "143848.542500", "143849.002500", "143849.462500", "143849.922500", "143850.382500", "143850.842500", "143851.302500", "143851.762500", "143852.222500", "143852.682500", "143853.142500", "143853.602500", "143854.062500", "143854.522500", "143854.982500", "143855.442500", "143855.902500", "143856.362500", "143856.822500", "143857.282500", "143857.742500", "143858.202500", "143858.662500", "143859.122500", "143859.582500", "143900.042500", "143900.502500", "143900.962500", "143901.422500", "143901.882500", "143902.342500", "143902.802500", "143903.262500", "143903.722500", "143904.182500", "143904.642500", "143905.102500", "143905.562500", "143906.022500", "143906.482500", "143906.942500", "143907.402500", "143907.862500", "143908.322500", "143908.782500", "143909.242500", "143909.702500", "143910.162500", "143910.622500", "143911.082500", "143911.542500", "143912.002500", "143912.462500", "143912.922500", "143913.382500", "143913.842500", "143914.302500", "143914.762500", "143915.222500", "143915.682500", "143916.142500", "143916.602500", "143917.062500", "143917.522500", "143917.982500", "143918.442500", "143918.902500", "143919.362500", "143919.822500", "143920.282500", "143920.742500", "143921.202500", "143921.662500", "143922.122500", "143922.582500", "143923.042500", "143923.502500", "143923.962500", "143924.422500", "143924.882500", "143925.342500", "143925.802500", "143926.262500", "143926.722500", "143927.182500", "143927.642500", "143928.102500", "143928.562500", "143929.022500", "143929.482500", "143929.942500", "143930.402500", "143930.862500", "143931.322500", "143931.782500", "143932.242500", "143932.702500", "143933.162500", "143933.622500", "143934.082500", "143934.542500", "143935.002500", "143935.462500", "143935.922500", "143936.382500", "143936.842500", "143937.302500", "143937.762500", "143938.222500", "143938.682500", "143939.142500", "143939.602500", "143940.062500", "143940.522500", "143940.982500", "143941.442500", "143941.902500", "143942.362500", "143942.822500", "143943.282500", "143943.742500", "143944.202500", "143944.662500", "143945.122500", "143945.582500", "143946.042500", "143946.502500", "143946.962500", "143947.422500", "143947.882500", "143948.342500", "143948.802500", "143949.262500", "143949.722500", "143950.182500", "143950.642500", "143951.102500", "143951.562500", "143952.022500", "143952.482500", "143952.942500", "143953.402500", "143953.862500", "143954.322500", "143954.782500", "143955.242500", "143955.702500", "143956.162500", "143956.622500", "143957.082500", "143957.542500", "143958.002500", "143958.462500", "143958.922500", "143959.382500", "143959.842500", "144000.302500", "144000.762500", "144001.222500", "144001.682500", "144002.142500", "144002.602500", "144003.062500", "144003.522500", "144003.982500", "144004.442500", "144004.902500", "144005.362500", "144005.822500", "144006.282500", "144006.742500", "144007.202500", "144007.662500", "144008.122500", "144008.582500", "144009.042500", "144009.502500", "144009.962500", "144010.422500", "144010.882500", "144011.342500", "144011.802500", "144012.262500", "144012.722500", "144013.182500", "144013.642500", "144014.102500", "144014.562500", "144015.022500", "144015.482500", "144015.942500", "144016.402500", "144016.862500", "144017.322500", "144017.782500", "144018.242500", "144018.702500", "144019.162500", "144019.622500", "144020.082500", "144020.542500", "144021.002500", "144021.462500", "144021.922500", "144022.382500", "144022.842500", "144023.302500", "144023.762500", "144024.222500", "144024.682500", "144025.142500", "144025.602500", "144026.062500", "144026.522500", "144026.982500", "144027.442500", "144027.902500", "144028.362500", "144028.822500", "144029.282500", "144029.742500", "144030.202500", "144030.662500", "144031.122500", "144031.582500", "144032.042500", "144032.502500", "144032.962500", "144033.422500", "144033.882500", "144034.342500", "144034.802500", "144035.262500", "144035.722500", "144036.182500", "144036.642500", "144037.102500", "144037.562500", "144038.022500", "144038.482500", "144038.942500", "144039.402500", "144039.862500", "144040.322500", "144040.782500", "144041.242500", "144041.702500", "144042.162500", "144042.622500", "144043.082500", "144043.542500", "144044.002500", "144044.462500", "144044.922500", "144045.382500", "144045.842500", "144046.302500", "144046.762500", "144047.222500", "144047.682500", "144048.142500", "144048.602500", "144049.062500", "144049.522500", "144049.982500", "144050.442500", "144050.902500", "144051.362500", "144051.822500", "144052.282500", "144052.742500", "144053.202500", "144053.662500", "144054.122500", "144054.582500", "144055.042500", "144055.502500", "144055.962500", "144056.422500", "144056.882500", "144057.342500", "144057.802500", "144058.262500", "144058.722500", "144059.182500", "144059.642500", "144100.102500", "144100.562500", "144101.022500", "144101.482500", "144101.942500", "144102.402500", "144102.862500", "144103.322500", "144103.782500", "144104.242500", "144104.702500", "144105.162500", "144105.622500", "144106.082500", "144106.542500", "144107.002500", "144107.462500", "144107.922500", "144108.382500", "144108.842500", "144109.302500", "144109.762500", "144110.222500", "144110.682500", "144111.142500", "144111.602500", "144112.062500", "144112.522500", "144112.982500", "144113.442500", "144113.902500", "144114.362500", "144114.822500", "144115.282500", "144115.742500", "144116.202500", "144116.662500", "144117.122500", "144117.582500", "144118.042500", "144118.502500", "144118.962500", "144119.422500", "144119.882500", "144120.342500", "144120.802500", "144121.262500", "144121.722500", "144122.182500", "144122.642500", "144123.102500", "144123.562500", "144124.022500", "144124.482500", "144124.942500", "144125.402500", "144125.862500", "144126.322500", "144126.782500", "144127.242500", "144127.702500", "144128.162500", "144128.622500", "144129.082500", "144129.542500", "144130.002500", "144130.462500", "144130.922500", "144131.382500", "144131.842500", "144132.302500", "144132.762500", "144133.222500", "144133.682500", "144134.142500", "144134.602500", "144135.062500", "144135.522500", "144135.982500", "144136.442500", "144136.902500", "144137.362500", "144137.822500", "144138.282500", "144138.742500", "144139.202500", "144139.662500", "144140.122500", "144140.582500", "144141.042500", "144141.502500", "144141.962500", "144142.422500", "144142.882500", "144143.342500", "144143.802500", "144144.262500", "144144.722500", "144145.182500", "144145.642500", "144146.102500", "144146.562500", "144147.022500", "144147.482500", "144147.942500", "144148.402500", "144148.862500", "144149.322500", "144149.782500", "144150.242500", "144150.702500", "144151.162500", "144151.622500", "144152.082500", "144152.542500", "144153.002500", "144153.462500", "144153.922500", "144154.382500", "144154.842500", "144155.302500", "144155.762500", "144156.222500", "144156.682500", "144157.142500", "144157.602500", "144158.062500", "144158.522500", "144158.982500", "144159.442500", "144159.902500", "144200.362500", "144200.822500", "144201.282500", "144201.742500", "144202.202500", "144202.662500", "144203.122500", "144203.582500", "144204.042500", "144204.502500", "144204.962500", "144205.422500", "144205.882500", "144206.342500", "144206.802500", "144207.262500", "144207.722500", "144208.182500", "144208.642500", "144209.102500", "144209.562500", "144210.022500", "144210.482500", "144210.942500", "144211.402500", "144211.862500", "144212.322500", "144212.782500", "144213.242500", "144213.702500", "144214.162500", "144214.622500", "144215.082500", "144215.542500", "144216.002500", "144216.462500", "144216.922500", "144217.382500", "144217.842500", "144218.302500", "144218.762500", "144219.222500", "144219.682500", "144220.142500", "144220.602500", "144221.062500", "144221.522500", "144221.982500", "144222.442500", "144222.902500", "144223.362500", "144223.822500", "144224.282500", "144224.742500", "144225.202500", "144225.662500", "144226.122500", "144226.582500", "144227.042500", "144227.502500", "144227.962500", "144228.422500", "144228.882500", "144229.342500", "144229.802500", "144230.262500", "144230.722500", "144231.182500", "144231.642500", "144232.102500", "144232.562500", "144233.022500", "144233.482500", "144233.942500", "144234.402500", "144234.862500", "144235.322500", "144235.782500", "144236.242500", "144236.702500", "144237.162500", "144237.622500", "144238.082500", "144238.542500", "144239.002500", "144239.462500", "144239.922500", "144240.382500", "144240.842500", "144241.302500", "144241.762500", "144242.222500", "144242.682500", "144243.142500", "144243.602500", "144244.062500", "144244.522500", "144244.982500", "144245.442500", "144245.902500", "144246.362500", "144246.822500", "144247.282500", "144247.742500", "144248.202500", "144248.662500", "144249.122500", "144249.582500", "144250.042500", "144250.502500", "144250.962500", "144251.422500", "144251.882500", "144252.342500", "144252.802500", "144253.262500", "144253.722500", "144254.182500", "144254.642500", "144255.102500", "144255.562500", "144256.022500", "144256.482500", "144256.942500", "144257.402500", "144257.862500", "144258.322500", "144258.782500", "144259.242500", "144259.702500", "144300.162500", "144300.622500", "144301.082500", "144301.542500", "144302.002500", "144302.462500", "144302.922500", "144303.382500", "144303.842500", "144304.302500", "144304.762500", "144305.222500", "144305.682500", "144306.142500", "144306.602500", "144307.062500", "144307.522500", "144307.982500", "144308.442500", "144308.902500", "144309.362500", "144309.822500", "144310.282500", "144310.742500", "144311.202500", "144311.662500", "144312.122500", "144312.582500", "144313.042500", "144313.502500", "144313.962500", "144314.422500", "144314.882500", "144315.342500", "144315.802500", "144316.262500", "144316.722500", "144317.182500", "144317.642500", "144318.102500", "144318.562500", "144319.022500", "144319.482500", "144319.942500", "144320.402500", "144320.862500", "144321.322500", "144321.782500", "144322.242500", "144322.702500", "144323.162500", "144323.622500", "144324.082500", "144324.542500", "144325.002500", "144325.462500", "144325.922500", "144326.382500", "144326.842500", "144327.302500", "144327.762500", "144328.222500", "144328.682500", "144329.142500", "144329.602500", "144330.062500", "144330.522500", "144330.982500", "144331.442500", "144331.902500", "144332.362500", "144332.822500", "144333.282500", "144333.742500", "144334.202500", "144334.662500", "144335.122500", "144335.582500", "144336.042500", "144336.502500", "144336.962500", "144337.422500", "144337.882500", "144338.342500", "144338.802500", "144339.262500", "144339.722500", "144340.182500", "144340.642500", "144341.102500", "144341.562500", "144342.022500", "144342.482500", "144342.942500", "144343.402500", "144343.862500", "144344.322500", "144344.782500", "144345.242500", "144345.702500", "144346.162500", "144346.622500", "144347.082500", "144347.542500", "144348.002500", "144348.462500", "144348.922500", "144349.382500", "144349.842500", "144350.302500", "144350.762500", "144351.222500", "144351.682500", "144352.142500", "144352.602500", "144353.062500", "144353.522500", "144353.982500", "144354.442500", "144354.902500", "144355.362500", "144355.822500", "144356.282500", "144356.742500", "144357.202500", "144357.662500", "144358.122500", "144358.582500", "144359.042500", "144359.502500", "144359.962500", "144400.422500", "144400.882500", "144401.342500", "144401.802500", "144402.262500", "144402.722500", "144403.182500", "144403.642500", "144404.102500", "144404.562500", "144405.022500", "144405.482500", "144405.942500", "144406.402500", "144406.862500", "144407.322500", "144407.782500", "144408.242500", "144408.702500", "144409.162500", "144409.622500", "144410.082500", "144410.542500", "144411.002500", "144411.462500", "144411.922500", "144412.382500", "144412.842500", "144413.302500", "144413.762500", "144414.222500", "144414.682500", "144415.142500", "144415.602500", "144416.062500", "144416.522500", "144416.982500", "144417.442500", "144417.902500", "144418.362500", "144418.822500", "144419.282500", "144419.742500", "144420.202500", "144420.662500", "144421.122500", "144421.582500", "144422.042500", "144422.502500", "144422.962500", "144423.422500", "144423.882500", "144424.342500", "144424.802500", "144425.262500", "144425.722500", "144426.182500", "144426.642500", "144427.102500", "144427.562500", "144428.022500", "144428.482500", "144428.942500", "144429.402500", "144429.862500", "144430.322500", "144430.782500", "144431.242500", "144431.702500", "144432.162500", "144432.622500", "144433.082500", "144433.542500", "144434.002500", "144434.462500", "144434.922500", "144435.382500", "144435.842500", "144436.302500", "144436.762500", "144437.222500", "144437.682500", "144438.142500", "144438.602500", "144439.062500", "144439.522500", "144439.982500", "144440.442500", "144440.902500", "144441.362500", "144441.822500", "144442.282500", "144442.742500", "144443.202500", "144443.662500", "144444.122500", "144444.582500", "144445.042500", "144445.502500", "144445.962500", "144446.422500", "144446.882500", "144447.342500", "144447.802500", "144448.262500", "144448.722500", "144449.182500", "144449.642500", "144450.102500", "144450.562500", "144451.022500", "144451.482500", "144451.942500", "144452.402500", "144452.862500", "144453.322500", "144453.782500", "144454.242500", "144454.702500", "144455.162500", "144455.622500", "144456.082500", "144456.542500", "144457.002500", "144457.462500", "144457.922500", "144458.382500", "144458.842500", "144459.302500", "144459.762500", "144500.222500", "144500.682500", "144501.142500", "144501.602500", "144502.062500", "144502.522500", "144502.982500", "144503.442500", "144503.902500", "144504.362500", "144504.822500", "144505.282500", "144505.742500", "144506.202500", "144506.662500", "144507.122500", "144507.582500", "144508.042500", "144508.502500", "144508.962500", "144509.422500", "144509.882500", "144510.342500"],
