{
  "AcquisitionMatrixPE": 82,
  "AcquisitionNumber": 1,
  "AcquisitionTime": "14:14:36.172500",
  "BandwidthPerPixelPhaseEncode": 24.888,
  "BaseResolution": 82,
  "BodyPartExamined": "BRAIN",
  "ConsistencyInfo": "N4_VE11C_LATEST_20160120",
  "ConversionSoftware": "dcm2niix",
  "ConversionSoftwareVersion": "v1.0.20201102",
  "DerivedVendorReportedEchoSpacing": 0.00049,
  "DeviceSerialNumber": "66112",
  "DwellTime": 2e-06,
  "EchoTime": 0.0272,
  "EchoTrainLength": 82,
  "EffectiveEchoSpacing": 0.00049,
  "FlipAngle": 44,
  "ImageComments": "Unaliased MB8/PE3",
  "ImageOrientationPatientDICOM": [0.998402, 0.0161273, 0.0541662, -0.00975851, 0.993219, -0.115848],
  "ImageType": [
    "ORIGINAL",
    "PRIMARY",
    "M",
    "MB",
    "ND",
    "NORM",
    "MOSAIC"
],
  "ImagingFrequency": 123.252,
  "InPlanePhaseEncodingDirectionDICOM": "COL",
  "InstitutionAddress": "Maynard 3,Hanover,NH,US,03755",
  "InstitutionName": "Dartmouth College - PBS",
  "InstitutionalDepartmentName": "Department",
  "MRAcquisitionType": "2D",
  "MagneticFieldStrength": 3,
  "Manufacturer": "Siemens",
  "ManufacturersModelName": "Prisma",
  "Modality": "MR",
  "MultibandAccelerationFactor": 8,
  "PartialFourier": 1,
  "PatientPosition": "HFS",
  "PercentPhaseFOV": 100,
  "PercentSampling": 100,
  "PhaseEncodingDirection": "j-",
  "PhaseEncodingSteps": 82,
  "PhaseResolution": 1,
  "PixelBandwidth": 3050,
  "ProcedureStepDescription": "Wager_Wager^1076_spacetop",
  "ProtocolName": "func_run-02_task-social_acq-ap-mb8",
  "PulseSequenceDetails": "%CustomerSeq%\\cmrr_mbep2d_bold",
  "ReceiveCoilActiveElements": "HEA;HEP",
  "ReceiveCoilName": "Head_32",
  "ReconMatrixPE": 82,
  "RepetitionTime": 0.46,
  "SAR": 0.0715621,
  "ScanOptions": "FS",
  "ScanningSequence": "EP",
  "SequenceName": "epfid2d1_82",
  "SequenceVariant": "SK\\SS",
  "SeriesDescription": "func_run-02_task-social_acq-ap-mb8",
  "SeriesNumber": 16,
  "ShimSetting": [4163, -7717, -7286, 657, -62, -18, 9, 91],
  "SliceThickness": 2.7,
  "SliceTiming": [0, 0.2525, 0.0625, 0.315, 0.1275, 0.3775, 0.19, 0, 0.2525, 0.0625, 0.315, 0.1275, 0.3775, 0.19, 0, 0.2525, 0.0625, 0.315, 0.1275, 0.3775, 0.19, 0, 0.2525, 0.0625, 0.315, 0.1275, 0.3775, 0.19, 0, 0.2525, 0.0625, 0.315, 0.1275, 0.3775, 0.19, 0, 0.2525, 0.0625, 0.315, 0.1275, 0.3775, 0.19, 0, 0.2525, 0.0625, 0.315, 0.1275, 0.3775, 0.19, 0, 0.2525, 0.0625, 0.315, 0.1275, 0.3775, 0.19],
  "SoftwareVersions": "syngo MR E11",
  "SpacingBetweenSlices": 2.7,
  "StationName": "AWP66112",
  "TaskName": "social",
  "TotalReadoutTime": 0.03969,
  "TxRefAmp": 227.296,
  "WipMemBlock": "7392d34e-b4a9-416d-966b-7096515a2ceb||Sequence: R016 ve11c/master r/e634e98; Dec 19 2017 11:00:25 by eja",
  "dcmmeta_affine": [
    [-2.6786386966705322, -0.026181375607848167, 0.15030157566070557, 112.2219467163086],
    [-0.04326846823096275, 2.66473388671875, -0.3108631372451782, -70.58336639404297],
    [0.14532403647899628, 0.3108123540878296, 2.6778299808502197, -74.68352508544922],
    [0.0, 0.0, 0.0, 1.0]
],
  "dcmmeta_reorient_transform": [
    [0.0, -1.0, 0.0, 81.0],
    [1.0, 0.0, 0.0, 0.0],
    [0.0, 0.0, 1.0, 0.0],
    [0.0, 0.0, 0.0, 1.0]
],
  "dcmmeta_shape": [82, 82, 56, 872],
  "dcmmeta_slice_dim": 2,
  "dcmmeta_version": 0.6,
  "global": {
    "const": {
      "AccessionNumber": "A003469",
      "AcquisitionMatrix": [82, 0, 0, 82],
      "AngioFlag": "N",
      "BitsAllocated": 16,
      "BitsStored": 16,
      "BodyPartExamined": "BRAIN",
      "Columns": 656,
      "EchoNumbers": 1,
      "EchoTime": 27.2,
      "EchoTrainLength": 82,
      "FlipAngle": 44.0,
      "HighBit": 15,
      "ImageOrientationPatient": [0.9984016870034, 0.01612733722496, 0.05416622917284, -0.0097585124326, 0.99321898739125, -0.1158482391778],
      "ImagePositionPatient": [-871.3565169751, -922.45677002401, -2.0125735843221],
      "ImageType": [
        "ORIGINAL",
        "PRIMARY",
        "M",
        "MB",
        "ND",
        "NORM",
        "MOSAIC"
],
      "ImagedNucleus": "1H",
      "ImagingFrequency": 123.252133,
      "InPlanePhaseEncodingDirection": "COL",
      "MRAcquisitionType": "2D",
      "MagneticFieldStrength": 3.0,
      "Manufacturer": "SIEMENS",
      "ManufacturerModelName": "Prisma",
      "Modality": "MR",
      "NumberOfAverages": 1.0,
      "NumberOfPhaseEncodingSteps": 82,
      "PercentPhaseFieldOfView": 100.0,
      "PercentSampling": 100.0,
      "PerformedProcedureStepStartTime": "131750.328000",
      "PhotometricInterpretation": "MONOCHROME2",
      "PixelBandwidth": 3050.0,
      "PixelRepresentation": 0,
      "PixelSpacing": [2.6829268932343, 2.6829268932343],
      "ProtocolName": "func_run-02_task-social_acq-ap-mb8",
      "RepetitionTime": 460.0,
      "Rows": 656,
      "SAR": 0.0715620945632,
      "SamplesPerPixel": 1,
      "ScanOptions": "FS",
      "ScanningSequence": "EP",
      "SequenceName": "epfid2d1_82",
      "SequenceVariant": [
        "SK",
        "SS"
],
      "SeriesDescription": "func_run-02_task-social_acq-ap-mb8",
      "SeriesNumber": 16,
      "SeriesTime": "141452.914000",
      "SliceLocation": -59.696621200948,
      "SliceThickness": 2.7000000476837,
      "SmallestImagePixelValue": 0,
      "SoftwareVersions": "syngo MR E11",
      "SpacingBetweenSlices": 2.700000014031,
      "SpecificCharacterSet": "ISO_IR 100",
      "StudyID": "1",
      "StudyTime": "131750.202000",
      "TransmitCoilName": "Body",
      "VariableFlipAngleFlag": "N",
      "WindowCenterWidthExplanation": "Algo1",
      "dBdt": 0.0},
    "slices": {}
  },
  "time": {
    "samples": {
      "AcquisitionNumber": [1, 2, 3, 4, 5, 6, 7, 8, 9, 10, 11, 12, 13, 14, 15, 16, 17, 18, 19, 20, 21, 22, 23, 24, 25, 26, 27, 28, 29, 30, 31, 32, 33, 34, 35, 36, 37, 38, 39, 40, 41, 42, 43, 44, 45, 46, 47, 48, 49, 50, 51, 52, 53, 54, 55, 56, 57, 58, 59, 60, 61, 62, 63, 64, 65, 66, 67, 68, 69, 70, 71, 72, 73, 74, 75, 76, 77, 78, 79, 80, 81, 82, 83, 84, 85, 86, 87, 88, 89, 90, 91, 92, 93, 94, 95, 96, 97, 98, 99, 100, 101, 102, 103, 104, 105, 106, 107, 108, 109, 110, 111, 112, 113, 114, 115, 116, 117, 118, 119, 120, 121, 122, 123, 124, 125, 126, 127, 128, 129, 130, 131, 132, 133, 134, 135, 136, 137, 138, 139, 140, 141, 142, 143, 144, 145, 146, 147, 148, 149, 150, 151, 152, 153, 154, 155, 156, 157, 158, 159, 160, 161, 162, 163, 164, 165, 166, 167, 168, 169, 170, 171, 172, 173, 174, 175, 176, 177, 178, 179, 180, 181, 182, 183, 184, 185, 186, 187, 188, 189, 190, 191, 192, 193, 194, 195, 196, 197, 198, 199, 200, 201, 202, 203, 204, 205, 206, 207, 208, 209, 210, 211, 212, 213, 214, 215, 216, 217, 218, 219, 220, 221, 222, 223, 224, 225, 226, 227, 228, 229, 230, 231, 232, 233, 234, 235, 236, 237, 238, 239, 240, 241, 242, 243, 244, 245, 246, 247, 248, 249, 250, 251, 252, 253, 254, 255, 256, 257, 258, 259, 260, 261, 262, 263, 264, 265, 266, 267, 268, 269, 270, 271, 272, 273, 274, 275, 276, 277, 278, 279, 280, 281, 282, 283, 284, 285, 286, 287, 288, 289, 290, 291, 292, 293, 294, 295, 296, 297, 298, 299, 300, 301, 302, 303, 304, 305, 306, 307, 308, 309, 310, 311, 312, 313, 314, 315, 316, 317, 318, 319, 320, 321, 322, 323, 324, 325, 326, 327, 328, 329, 330, 331, 332, 333, 334, 335, 336, 337, 338, 339, 340, 341, 342, 343, 344, 345, 346, 347, 348, 349, 350, 351, 352, 353, 354, 355, 356, 357, 358, 359, 360, 361, 362, 363, 364, 365, 366, 367, 368, 369, 370, 371, 372, 373, 374, 375, 376, 377, 378, 379, 380, 381, 382, 383, 384, 385, 386, 387, 388, 389, 390, 391, 392, 393, 394, 395, 396, 397, 398, 399, 400, 401, 402, 403, 404, 405, 406, 407, 408, 409, 410, 411, 412, 413, 414, 415, 416, 417, 418, 419, 420, 421, 422, 423, 424, 425, 426, 427, 428, 429, 430, 431, 432, 433, 434, 435, 436, 437, 438, 439, 440, 441, 442, 443, 444, 445, 446, 447, 448, 449, 450, 451, 452, 453, 454, 455, 456, 457, 458, 459, 460, 461, 462, 463, 464, 465, 466, 467, 468, 469, 470, 471, 472, 473, 474, 475, 476, 477, 478, 479, 480, 481, 482, 483, 484, 485, 486, 487, 488, 489, 490, 491, 492, 493, 494, 495, 496, 497, 498, 499, 500, 501, 502, 503, 504, 505, 506, 507, 508, 509, 510, 511, 512, 513, 514, 515, 516, 517, 518, 519, 520, 521, 522, 523, 524, 525, 526, 527, 528, 529, 530, 531, 532, 533, 534, 535, 536, 537, 538, 539, 540, 541, 542, 543, 544, 545, 546, 547, 548, 549, 550, 551, 552, 553, 554, 555, 556, 557, 558, 559, 560, 561, 562, 563, 564, 565, 566, 567, 568, 569, 570, 571, 572, 573, 574, 575, 576, 577, 578, 579, 580, 581, 582, 583, 584, 585, 586, 587, 588, 589, 590, 591, 592, 593, 594, 595, 596, 597, 598, 599, 600, 601, 602, 603, 604, 605, 606, 607, 608, 609, 610, 611, 612, 613, 614, 615, 616, 617, 618, 619, 620, 621, 622, 623, 624, 625, 626, 627, 628, 629, 630, 631, 632, 633, 634, 635, 636, 637, 638, 639, 640, 641, 642, 643, 644, 645, 646, 647, 648, 649, 650, 651, 652, 653, 654, 655, 656, 657, 658, 659, 660, 661, 662, 663, 664, 665, 666, 667, 668, 669, 670, 671, 672, 673, 674, 675, 676, 677, 678, 679, 680, 681, 682, 683, 684, 685, 686, 687, 688, 689, 690, 691, 692, 693, 694, 695, 696, 697, 698, 699, 700, 701, 702, 703, 704, 705, 706, 707, 708, 709, 710, 711, 712, 713, 714, 715, 716, 717, 718, 719, 720, 721, 722, 723, 724, 725, 726, 727, 728, 729, 730, 731, 732, 733, 734, 735, 736, 737, 738, 739, 740, 741, 742, 743, 744, 745, 746, 747, 748, 749, 750, 751, 752, 753, 754, 755, 756, 757, 758, 759, 760, 761, 762, 763, 764, 765, 766, 767, 768, 769, 770, 771, 772, 773, 774, 775, 776, 777, 778, 779, 780, 781, 782, 783, 784, 785, 786, 787, 788, 789, 790, 791, 792, 793, 794, 795, 796, 797, 798, 799, 800, 801, 802, 803, 804, 805, 806, 807, 808, 809, 810, 811, 812, 813, 814, 815, 816, 817, 818, 819, 820, 821, 822, 823, 824, 825, 826, 827, 828, 829, 830, 831, 832, 833, 834, 835, 836, 837, 838, 839, 840, 841, 842, 843, 844, 845, 846, 847, 848, 849, 850, 851, 852, 853, 854, 855, 856, 857, 858, 859, 860, 861, 862, 863, 864, 865, 866, 867, 868, 869, 870, 871, 872],
      "AcquisitionTime": ["141436.172500", "141436.632500", "141437.092500", "141437.552500", "141438.012500", "141438.472500", "141438.932500", "141439.392500", "141439.852500", "141440.312500", "141440.772500", "141441.232500", "141441.692500", "141442.152500", "141442.612500", "141443.072500", "141443.532500", "141443.992500", "141444.452500", "141444.912500", "141445.372500", "141445.832500", "141446.292500", "141446.752500", "141447.212500", "141447.672500", "141448.132500", "141448.592500", "141449.052500", "141449.512500", "141449.972500", "141450.432500", "141450.892500", "141451.352500", "141451.812500", "141452.272500", "141452.732500", "141453.192500", "141453.652500", "141454.112500", "141454.572500", "141455.032500", "141455.492500", "141455.952500", "141456.412500", "141456.872500", "141457.332500", "141457.792500", "141458.252500", "141458.712500", "141459.172500", "141459.632500", "141500.092500", "141500.552500", "141501.012500", "141501.472500", "141501.932500", "141502.392500", "141502.852500", "141503.312500", "141503.772500", "141504.232500", "141504.692500", "141505.152500", "141505.612500", "141506.072500", "141506.532500", "141506.992500", "141507.452500", "141507.912500", "141508.372500", "141508.832500", "141509.292500", "141509.752500", "141510.212500", "141510.672500", "141511.132500", "141511.592500", "141512.052500", "141512.512500", "141512.972500", "141513.432500", "141513.892500", "141514.352500", "141514.812500", "141515.272500", "141515.732500", "141516.192500", "141516.652500", "141517.112500", "141517.572500", "141518.032500", "141518.492500", "141518.952500", "141519.412500", "141519.872500", "141520.332500", "141520.792500", "141521.252500", "141521.712500", "141522.172500", "141522.632500", "141523.092500", "141523.552500", "141524.012500", "141524.472500", "141524.932500", "141525.392500", "141525.852500", "141526.312500", "141526.772500", "141527.232500", "141527.692500", "141528.152500", "141528.612500", "141529.072500", "141529.532500", "141529.992500", "141530.452500", "141530.912500", "141531.372500", "141531.832500", "141532.292500", "141532.752500", "141533.212500", "141533.672500", "141534.132500", "141534.592500", "141535.052500", "141535.512500", "141535.972500", "141536.432500", "141536.892500", "141537.352500", "141537.812500", "141538.272500", "141538.732500", "141539.192500", "141539.652500", "141540.112500", "141540.572500", "141541.032500", "141541.492500", "141541.952500", "141542.412500", "141542.872500", "141543.332500", "141543.792500", "141544.252500", "141544.712500", "141545.172500", "141545.632500", "141546.092500", "141546.552500", "141547.012500", "141547.472500", "141547.932500", "141548.392500", "141548.852500", "141549.312500", "141549.772500", "141550.232500", "141550.692500", "141551.152500", "141551.612500", "141552.072500", "141552.532500", "141552.992500", "141553.452500", "141553.912500", "141554.372500", "141554.832500", "141555.292500", "141555.752500", "141556.212500", "141556.672500", "141557.132500", "141557.592500", "141558.052500", "141558.512500", "141558.972500", "141559.432500", "141559.892500", "141600.352500", "141600.812500", "141601.272500", "141601.732500", "141602.192500", "141602.652500", "141603.112500", "141603.572500", "141604.032500", "141604.492500", "141604.952500", "141605.412500", "141605.872500", "141606.332500", "141606.792500", "141607.252500", "141607.712500", "141608.172500", "141608.632500", "141609.092500", "141609.552500", "141610.012500", "141610.472500", "141610.932500", "141611.392500", "141611.852500", "141612.312500", "141612.772500", "141613.232500", "141613.692500", "141614.152500", "141614.612500", "141615.072500", "141615.532500", "141615.992500", "141616.452500", "141616.912500", "141617.372500", "141617.832500", "141618.292500", "141618.752500", "141619.212500", "141619.672500", "141620.132500", "141620.592500", "141621.052500", "141621.512500", "141621.972500", "141622.432500", "141622.892500", "141623.352500", "141623.812500", "141624.272500", "141624.732500", "141625.192500", "141625.652500", "141626.112500", "141626.572500", "141627.032500", "141627.492500", "141627.952500", "141628.412500", "141628.872500", "141629.332500", "141629.792500", "141630.252500", "141630.712500", "141631.172500", "141631.632500", "141632.092500", "141632.552500", "141633.012500", "141633.472500", "141633.932500", "141634.392500", "141634.852500", "141635.312500", "141635.772500", "141636.232500", "141636.692500", "141637.152500", "141637.612500", "141638.072500", "141638.532500", "141638.992500", "141639.452500", "141639.912500", "141640.372500", "141640.832500", "141641.292500", "141641.752500", "141642.212500", "141642.672500", "141643.132500", "141643.592500", "141644.052500", "141644.512500", "141644.972500", "141645.432500", "141645.892500", "141646.352500", "141646.812500", "141647.272500", "141647.732500", "141648.192500", "141648.652500", "141649.112500", "141649.572500", "141650.032500", "141650.492500", "141650.952500", "141651.412500", "141651.872500", "141652.332500", "141652.792500", "141653.252500", "141653.712500", "141654.172500", "141654.632500", "141655.092500", "141655.552500", "141656.012500", "141656.472500", "141656.932500", "141657.392500", "141657.852500", "141658.312500", "141658.772500", "141659.232500", "141659.692500", "141700.152500", "141700.612500", "141701.072500", "141701.532500", "141701.992500", "141702.452500", "141702.912500", "141703.372500", "141703.832500", "141704.292500", "141704.752500", "141705.212500", "141705.672500", "141706.132500", "141706.592500", "141707.052500", "141707.512500", "141707.972500", "141708.432500", "141708.892500", "141709.352500", "141709.812500", "141710.272500", "141710.732500", "141711.192500", "141711.652500", "141712.112500", "141712.572500", "141713.032500", "141713.492500", "141713.952500", "141714.412500", "141714.872500", "141715.332500", "141715.792500", "141716.252500", "141716.712500", "141717.172500", "141717.632500", "141718.092500", "141718.552500", "141719.012500", "141719.472500", "141719.932500", "141720.392500", "141720.852500", "141721.312500", "141721.772500", "141722.232500", "141722.692500", "141723.152500", "141723.612500", "141724.072500", "141724.532500", "141724.992500", "141725.452500", "141725.912500", "141726.372500", "141726.832500", "141727.292500", "141727.752500", "141728.212500", "141728.672500", "141729.132500", "141729.592500", "141730.052500", "141730.512500", "141730.972500", "141731.432500", "141731.892500", "141732.352500", "141732.812500", "141733.272500", "141733.732500", "141734.192500", "141734.652500", "141735.112500", "141735.572500", "141736.032500", "141736.492500", "141736.952500", "141737.412500", "141737.872500", "141738.332500", "141738.792500", "141739.252500", "141739.712500", "141740.172500", "141740.632500", "141741.092500", "141741.552500", "141742.012500", "141742.472500", "141742.932500", "141743.392500", "141743.852500", "141744.312500", "141744.772500", "141745.232500", "141745.692500", "141746.152500", "141746.612500", "141747.072500", "141747.532500", "141747.992500", "141748.452500", "141748.912500", "141749.372500", "141749.832500", "141750.292500", "141750.752500", "141751.212500", "141751.672500", "141752.132500", "141752.592500", "141753.052500", "141753.512500", "141753.972500", "141754.432500", "141754.892500", "141755.352500", "141755.812500", "141756.272500", "141756.732500", "141757.192500", "141757.652500", "141758.112500", "141758.572500", "141759.032500", "141759.492500", "141759.952500", "141800.412500", "141800.872500", "141801.332500", "141801.792500", "141802.252500", "141802.712500", "141803.172500", "141803.632500", "141804.092500", "141804.552500", "141805.012500", "141805.472500", "141805.932500", "141806.392500", "141806.852500", "141807.312500", "141807.772500", "141808.232500", "141808.692500", "141809.152500", "141809.612500", "141810.072500", "141810.532500", "141810.992500", "141811.452500", "141811.912500", "141812.372500", "141812.832500", "141813.292500", "141813.752500", "141814.212500", "141814.672500", "141815.132500", "141815.592500", "141816.052500", "141816.512500", "141816.972500", "141817.432500", "141817.892500", "141818.352500", "141818.812500", "141819.272500", "141819.732500", "141820.192500", "141820.652500", "141821.112500", "141821.572500", "141822.032500", "141822.492500", "141822.952500", "141823.412500", "141823.872500", "141824.332500", "141824.792500", "141825.252500", "141825.712500", "141826.172500", "141826.632500", "141827.092500", "141827.552500", "141828.012500", "141828.472500", "141828.932500", "141829.392500", "141829.852500", "141830.312500", "141830.772500", "141831.232500", "141831.692500", "141832.152500", "141832.612500", "141833.072500", "141833.532500", "141833.992500", "141834.452500", "141834.912500", "141835.372500", "141835.832500", "141836.292500", "141836.752500", "141837.212500", "141837.672500", "141838.132500", "141838.592500", "141839.052500", "141839.512500", "141839.972500", "141840.432500", "141840.892500", "141841.352500", "141841.812500", "141842.272500", "141842.732500", "141843.192500", "141843.652500", "141844.112500", "141844.572500", "141845.032500", "141845.492500", "141845.952500", "141846.412500", "141846.872500", "141847.332500", "141847.792500", "141848.252500", "141848.712500", "141849.172500", "141849.632500", "141850.092500", "141850.552500", "141851.012500", "141851.472500", "141851.932500", "141852.392500", "141852.852500", "141853.312500", "141853.772500", "141854.232500", "141854.692500", "141855.152500", "141855.612500", "141856.072500", "141856.532500", "141856.992500", "141857.452500", "141857.912500", "141858.372500", "141858.832500", "141859.292500", "141859.752500", "141900.212500", "141900.672500", "141901.132500", "141901.592500", "141902.052500", "141902.512500", "141902.972500", "141903.432500", "141903.892500", "141904.352500", "141904.812500", "141905.272500", "141905.732500", "141906.192500", "141906.652500", "141907.112500", "141907.572500", "141908.032500", "141908.492500", "141908.952500", "141909.412500", "141909.872500", "141910.332500", "141910.792500", "141911.252500", "141911.712500", "141912.172500", "141912.632500", "141913.092500", "141913.552500", "141914.012500", "141914.472500", "141914.932500", "141915.392500", "141915.852500", "141916.312500", "141916.772500", "141917.232500", "141917.692500", "141918.152500", "141918.612500", "141919.072500", "141919.532500", "141919.992500", "141920.452500", "141920.912500", "141921.372500", "141921.832500", "141922.292500", "141922.752500", "141923.212500", "141923.672500", "141924.132500", "141924.592500", "141925.052500", "141925.512500", "141925.972500", "141926.432500", "141926.892500", "141927.352500", "141927.812500", "141928.272500", "141928.732500", "141929.192500", "141929.652500", "141930.112500", "141930.572500", "141931.032500", "141931.492500", "141931.952500", "141932.412500", "141932.872500", "141933.332500", "141933.792500", "141934.252500", "141934.712500", "141935.172500", "141935.632500", "141936.092500", "141936.552500", "141937.012500", "141937.472500", "141937.932500", "141938.392500", "141938.852500", "141939.312500", "141939.772500", "141940.232500", "141940.692500", "141941.152500", "141941.612500", "141942.072500", "141942.532500", "141942.992500", "141943.452500", "141943.912500", "141944.372500", "141944.832500", "141945.292500", "141945.752500", "141946.212500", "141946.672500", "141947.132500", "141947.592500", "141948.052500", "141948.512500", "141948.972500", "141949.432500", "141949.892500", "141950.352500", "141950.812500", "141951.272500", "141951.732500", "141952.192500", "141952.652500", "141953.112500", "141953.572500", "141954.032500", "141954.492500", "141954.952500", "141955.412500", "141955.872500", "141956.332500", "141956.792500", "141957.252500", "141957.712500", "141958.172500", "141958.632500", "141959.092500", "141959.552500", "142000.012500", "142000.472500", "142000.932500", "142001.392500", "142001.852500", "142002.312500", "142002.772500", "142003.232500", "142003.692500", "142004.152500", "142004.612500", "142005.072500", "142005.532500", "142005.992500", "142006.452500", "142006.912500", "142007.372500", "142007.832500", "142008.292500", "142008.752500", "142009.212500", "142009.672500", "142010.132500", "142010.592500", "142011.052500", "142011.512500", "142011.972500", "142012.432500", "142012.892500", "142013.352500", "142013.812500", "142014.272500", "142014.732500", "142015.192500", "142015.652500", "142016.112500", "142016.572500", "142017.032500", "142017.492500", "142017.952500", "142018.412500", "142018.872500", "142019.332500", "142019.792500", "142020.252500", "142020.712500", "142021.172500", "142021.632500", "142022.092500", "142022.552500", "142023.012500", "142023.472500", "142023.932500", "142024.392500", "142024.852500", "142025.312500", "142025.772500", "142026.232500", "142026.692500", "142027.152500", "142027.612500", "142028.072500", "142028.532500", "142028.992500", "142029.452500", "142029.912500", "142030.372500", "142030.832500", "142031.292500", "142031.752500", "142032.212500", "142032.672500", "142033.132500", "142033.592500", "142034.052500", "142034.512500", "142034.972500", "142035.432500", "142035.892500", "142036.352500", "142036.812500", "142037.272500", "142037.732500", "142038.192500", "142038.652500", "142039.112500", "142039.572500", "142040.032500", "142040.492500", "142040.952500", "142041.412500", "142041.872500", "142042.332500", "142042.792500", "142043.252500", "142043.712500", "142044.172500", "142044.632500", "142045.092500", "142045.552500", "142046.012500", "142046.472500", "142046.932500", "142047.392500", "142047.852500", "142048.312500", "142048.772500", "142049.232500", "142049.692500", "142050.152500", "142050.612500", "142051.072500", "142051.532500", "142051.992500", "142052.452500", "142052.912500", "142053.372500", "142053.832500", "142054.292500", "142054.752500", "142055.212500", "142055.672500", "142056.132500", "142056.592500", "142057.052500", "142057.512500", "142057.972500", "142058.432500", "142058.892500", "142059.352500", "142059.812500", "142100.272500", "142100.732500", "142101.192500", "142101.652500", "142102.112500", "142102.572500", "142103.032500", "142103.492500", "142103.952500", "142104.412500", "142104.872500", "142105.332500", "142105.792500", "142106.252500", "142106.712500", "142107.172500", "142107.632500", "142108.092500", "142108.552500", "142109.012500", "142109.472500", "142109.932500", "142110.392500", "142110.852500", "142111.312500", "142111.772500", "142112.232500", "142112.692500", "142113.152500", "142113.612500", "142114.072500", "142114.532500", "142114.992500", "142115.452500", "142115.912500", "142116.372500", "142116.832500"],
