{
  "AcquisitionMatrixPE": 82,
  "AcquisitionNumber": 1,
  "AcquisitionTime": "15:16:20.010000",
  "BandwidthPerPixelPhaseEncode": 24.888,
  "BaseResolution": 82,
  "BodyPartExamined": "BRAIN",
  "ConsistencyInfo": "N4_VE11C_LATEST_20160120",
  "ConversionSoftware": "dcm2niix",
  "ConversionSoftwareVersion": "v1.0.20201102",
  "DerivedVendorReportedEchoSpacing": 0.00049,
  "DeviceSerialNumber": "66112",
  "DwellTime": 2e-06,
  "EchoTime": 0.0272,
  "EchoTrainLength": 82,
  "EffectiveEchoSpacing": 0.00049,
  "FlipAngle": 44,
  "ImageComments": "Unaliased MB8/PE3",
  "ImageOrientationPatientDICOM": [0.998084, 0.00787989, 0.061365, -0.00749071, 0.99995, -0.00656956],
  "ImageType": [
    "ORIGINAL",
    "PRIMARY",
    "M",
    "MB",
    "ND",
    "NORM",
    "MOSAIC"
],
  "ImagingFrequency": 123.252,
  "InPlanePhaseEncodingDirectionDICOM": "COL",
  "InstitutionAddress": "Maynard 3,Hanover,NH,US,03755",
  "InstitutionName": "Dartmouth College - PBS",
  "InstitutionalDepartmentName": "Department",
  "MRAcquisitionType": "2D",
  "MagneticFieldStrength": 3,
  "Manufacturer": "Siemens",
  "ManufacturersModelName": "Prisma",
  "Modality": "MR",
  "MultibandAccelerationFactor": 8,
  "PartialFourier": 1,
  "PatientPosition": "HFS",
  "PercentPhaseFOV": 100,
  "PercentSampling": 100,
  "PhaseEncodingDirection": "j-",
  "PhaseEncodingSteps": 82,
  "PhaseResolution": 1,
  "PixelBandwidth": 3050,
  "ProcedureStepDescription": "Wager_Wager^1076_spacetop",
  "ProtocolName": "func_run-03_task-alignvideo_acq-ap-mb8",
  "PulseSequenceDetails": "%CustomerSeq%\\cmrr_mbep2d_bold",
  "ReceiveCoilActiveElements": "HEA;HEP",
  "ReceiveCoilName": "Head_32",
  "ReconMatrixPE": 82,
  "RepetitionTime": 0.46,
  "SAR": 0.0716252,
  "ScanOptions": "FS",
  "ScanningSequence": "EP",
  "SequenceName": "epfid2d1_82",
  "SequenceVariant": "SK\\SS",
  "SeriesDescription": "func_run-03_task-alignvideo_acq-ap-mb8",
  "SeriesNumber": 36,
  "ShimSetting": [4164, -7718, -7297, 614, -64, -3, 20, 88],
  "SliceThickness": 2.7,
  "SliceTiming": [0, 0.25, 0.0625, 0.3125, 0.125, 0.3775, 0.1875, 0, 0.25, 0.0625, 0.3125, 0.125, 0.3775, 0.1875, 0, 0.25, 0.0625, 0.3125, 0.125, 0.3775, 0.1875, 0, 0.25, 0.0625, 0.3125, 0.125, 0.3775, 0.1875, 0, 0.25, 0.0625, 0.3125, 0.125, 0.3775, 0.1875, 0, 0.25, 0.0625, 0.3125, 0.125, 0.3775, 0.1875, 0, 0.25, 0.0625, 0.3125, 0.125, 0.3775, 0.1875, 0, 0.25, 0.0625, 0.3125, 0.125, 0.3775, 0.1875],
  "SoftwareVersions": "syngo MR E11",
  "SpacingBetweenSlices": 2.7,
  "StationName": "AWP66112",
  "TaskName": "alignvideo",
  "TotalReadoutTime": 0.03969,
  "TxRefAmp": 227.296,
  "WipMemBlock": "fde5eda1-1a71-4699-b424-98034cc5a7ef||Sequence: R016 ve11c/master r/e634e98; Dec 19 2017 11:00:25 by eja",
  "dcmmeta_affine": [
    [-2.6777870655059814, -0.02009701356291771, 0.16581696271896362, 110.68607330322266],
    [-0.021141162142157555, 2.682793617248535, -0.016462739557027817, -79.23753356933594],
    [0.1646377295255661, 0.017625659704208374, 2.6948530673980713, -62.09650421142578],
    [0.0, 0.0, 0.0, 1.0]
],
  "dcmmeta_reorient_transform": [
    [0.0, -1.0, 0.0, 81.0],
    [1.0, 0.0, 0.0, 0.0],
    [0.0, 0.0, 1.0, 0.0],
    [0.0, 0.0, 0.0, 1.0]
],
  "dcmmeta_shape": [82, 82, 56, 1016],
  "dcmmeta_slice_dim": 2,
  "dcmmeta_version": 0.6,
  "global": {
    "const": {
      "AccessionNumber": "A003469",
      "AcquisitionMatrix": [82, 0, 0, 82],
      "AngioFlag": "N",
      "BitsAllocated": 16,
      "BitsStored": 16,
      "BodyPartExamined": "BRAIN",
      "Columns": 656,
      "EchoNumbers": 1,
      "EchoTime": 27.2,
      "EchoTrainLength": 82,
      "FlipAngle": 44.0,
      "HighBit": 15,
      "ImageOrientationPatient": [0.99808428907583, 0.00787988734326, 0.06136496781922, -0.0074907051802, 0.99995036385285, -0.0065695636426],
      "ImagePositionPatient": [-871.81529030304, -914.09806636152, -102.86128754403],
      "ImageType": [
        "ORIGINAL",
        "PRIMARY",
        "M",
        "MB",
        "ND",
        "NORM",
        "MOSAIC"
],
      "ImagedNucleus": "1H",
      "ImagingFrequency": 123.252152,
      "InPlanePhaseEncodingDirection": "COL",
      "MRAcquisitionType": "2D",
      "MagneticFieldStrength": 3.0,
      "Manufacturer": "SIEMENS",
      "ManufacturerModelName": "Prisma",
      "Modality": "MR",
      "NumberOfAverages": 1.0,
      "NumberOfPhaseEncodingSteps": 82,
      "PercentPhaseFieldOfView": 100.0,
      "PercentSampling": 100.0,
      "PerformedProcedureStepStartTime": "131750.328000",
      "PhotometricInterpretation": "MONOCHROME2",
      "PixelBandwidth": 3050.0,
      "PixelRepresentation": 0,
      "PixelSpacing": [2.6829268932343, 2.6829268932343],
      "ProtocolName": "func_run-03_task-alignvideo_acq-ap-mb8",
      "RepetitionTime": 460.0,
      "Rows": 656,
      "SAR": 0.07162518807642,
      "SamplesPerPixel": 1,
      "ScanOptions": "FS",
      "ScanningSequence": "EP",
      "SequenceName": "epfid2d1_82",
      "SequenceVariant": [
        "SK",
        "SS"
],
      "SeriesDescription": "func_run-03_task-alignvideo_acq-ap-mb8",
      "SeriesNumber": 36,
      "SeriesTime": "151632.983000",
      "SliceLocation": -54.69735783133,
      "SliceThickness": 2.7000000476837,
      "SmallestImagePixelValue": 0,
      "SoftwareVersions": "syngo MR E11",
      "SpacingBetweenSlices": 2.6999999517017,
      "SpecificCharacterSet": "ISO_IR 100",
      "StudyID": "1",
      "StudyTime": "131750.202000",
      "TransmitCoilName": "Body",
      "VariableFlipAngleFlag": "N",
      "WindowCenterWidthExplanation": "Algo1",
      "dBdt": 0.0},
    "slices": {}
  },
  "time": {
    "samples": {
      "AcquisitionNumber": [1, 2, 3, 4, 5, 6, 7, 8, 9, 10, 11, 12, 13, 14, 15, 16, 17, 18, 19, 20, 21, 22, 23, 24, 25, 26, 27, 28, 29, 30, 31, 32, 33, 34, 35, 36, 37, 38, 39, 40, 41, 42, 43, 44, 45, 46, 47, 48, 49, 50, 51, 52, 53, 54, 55, 56, 57, 58, 59, 60, 61, 62, 63, 64, 65, 66, 67, 68, 69, 70, 71, 72, 73, 74, 75, 76, 77, 78, 79, 80, 81, 82, 83, 84, 85, 86, 87, 88, 89, 90, 91, 92, 93, 94, 95, 96, 97, 98, 99, 100, 101, 102, 103, 104, 105, 106, 107, 108, 109, 110, 111, 112, 113, 114, 115, 116, 117, 118, 119, 120, 121, 122, 123, 124, 125, 126, 127, 128, 129, 130, 131, 132, 133, 134, 135, 136, 137, 138, 139, 140, 141, 142, 143, 144, 145, 146, 147, 148, 149, 150, 151, 152, 153, 154, 155, 156, 157, 158, 159, 160, 161, 162, 163, 164, 165, 166, 167, 168, 169, 170, 171, 172, 173, 174, 175, 176, 177, 178, 179, 180, 181, 182, 183, 184, 185, 186, 187, 188, 189, 190, 191, 192, 193, 194, 195, 196, 197, 198, 199, 200, 201, 202, 203, 204, 205, 206, 207, 208, 209, 210, 211, 212, 213, 214, 215, 216, 217, 218, 219, 220, 221, 222, 223, 224, 225, 226, 227, 228, 229, 230, 231, 232, 233, 234, 235, 236, 237, 238, 239, 240, 241, 242, 243, 244, 245, 246, 247, 248, 249, 250, 251, 252, 253, 254, 255, 256, 257, 258, 259, 260, 261, 262, 263, 264, 265, 266, 267, 268, 269, 270, 271, 272, 273, 274, 275, 276, 277, 278, 279, 280, 281, 282, 283, 284, 285, 286, 287, 288, 289, 290, 291, 292, 293, 294, 295, 296, 297, 298, 299, 300, 301, 302, 303, 304, 305, 306, 307, 308, 309, 310, 311, 312, 313, 314, 315, 316, 317, 318, 319, 320, 321, 322, 323, 324, 325, 326, 327, 328, 329, 330, 331, 332, 333, 334, 335, 336, 337, 338, 339, 340, 341, 342, 343, 344, 345, 346, 347, 348, 349, 350, 351, 352, 353, 354, 355, 356, 357, 358, 359, 360, 361, 362, 363, 364, 365, 366, 367, 368, 369, 370, 371, 372, 373, 374, 375, 376, 377, 378, 379, 380, 381, 382, 383, 384, 385, 386, 387, 388, 389, 390, 391, 392, 393, 394, 395, 396, 397, 398, 399, 400, 401, 402, 403, 404, 405, 406, 407, 408, 409, 410, 411, 412, 413, 414, 415, 416, 417, 418, 419, 420, 421, 422, 423, 424, 425, 426, 427, 428, 429, 430, 431, 432, 433, 434, 435, 436, 437, 438, 439, 440, 441, 442, 443, 444, 445, 446, 447, 448, 449, 450, 451, 452, 453, 454, 455, 456, 457, 458, 459, 460, 461, 462, 463, 464, 465, 466, 467, 468, 469, 470, 471, 472, 473, 474, 475, 476, 477, 478, 479, 480, 481, 482, 483, 484, 485, 486, 487, 488, 489, 490, 491, 492, 493, 494, 495, 496, 497, 498, 499, 500, 501, 502, 503, 504, 505, 506, 507, 508, 509, 510, 511, 512, 513, 514, 515, 516, 517, 518, 519, 520, 521, 522, 523, 524, 525, 526, 527, 528, 529, 530, 531, 532, 533, 534, 535, 536, 537, 538, 539, 540, 541, 542, 543, 544, 545, 546, 547, 548, 549, 550, 551, 552, 553, 554, 555, 556, 557, 558, 559, 560, 561, 562, 563, 564, 565, 566, 567, 568, 569, 570, 571, 572, 573, 574, 575, 576, 577, 578, 579, 580, 581, 582, 583, 584, 585, 586, 587, 588, 589, 590, 591, 592, 593, 594, 595, 596, 597, 598, 599, 600, 601, 602, 603, 604, 605, 606, 607, 608, 609, 610, 611, 612, 613, 614, 615, 616, 617, 618, 619, 620, 621, 622, 623, 624, 625, 626, 627, 628, 629, 630, 631, 632, 633, 634, 635, 636, 637, 638, 639, 640, 641, 642, 643, 644, 645, 646, 647, 648, 649, 650, 651, 652, 653, 654, 655, 656, 657, 658, 659, 660, 661, 662, 663, 664, 665, 666, 667, 668, 669, 670, 671, 672, 673, 674, 675, 676, 677, 678, 679, 680, 681, 682, 683, 684, 685, 686, 687, 688, 689, 690, 691, 692, 693, 694, 695, 696, 697, 698, 699, 700, 701, 702, 703, 704, 705, 706, 707, 708, 709, 710, 711, 712, 713, 714, 715, 716, 717, 718, 719, 720, 721, 722, 723, 724, 725, 726, 727, 728, 729, 730, 731, 732, 733, 734, 735, 736, 737, 738, 739, 740, 741, 742, 743, 744, 745, 746, 747, 748, 749, 750, 751, 752, 753, 754, 755, 756, 757, 758, 759, 760, 761, 762, 763, 764, 765, 766, 767, 768, 769, 770, 771, 772, 773, 774, 775, 776, 777, 778, 779, 780, 781, 782, 783, 784, 785, 786, 787, 788, 789, 790, 791, 792, 793, 794, 795, 796, 797, 798, 799, 800, 801, 802, 803, 804, 805, 806, 807, 808, 809, 810, 811, 812, 813, 814, 815, 816, 817, 818, 819, 820, 821, 822, 823, 824, 825, 826, 827, 828, 829, 830, 831, 832, 833, 834, 835, 836, 837, 838, 839, 840, 841, 842, 843, 844, 845, 846, 847, 848, 849, 850, 851, 852, 853, 854, 855, 856, 857, 858, 859, 860, 861, 862, 863, 864, 865, 866, 867, 868, 869, 870, 871, 872, 873, 874, 875, 876, 877, 878, 879, 880, 881, 882, 883, 884, 885, 886, 887, 888, 889, 890, 891, 892, 893, 894, 895, 896, 897, 898, 899, 900, 901, 902, 903, 904, 905, 906, 907, 908, 909, 910, 911, 912, 913, 914, 915, 916, 917, 918, 919, 920, 921, 922, 923, 924, 925, 926, 927, 928, 929, 930, 931, 932, 933, 934, 935, 936, 937, 938, 939, 940, 941, 942, 943, 944, 945, 946, 947, 948, 949, 950, 951, 952, 953, 954, 955, 956, 957, 958, 959, 960, 961, 962, 963, 964, 965, 966, 967, 968, 969, 970, 971, 972, 973, 974, 975, 976, 977, 978, 979, 980, 981, 982, 983, 984, 985, 986, 987, 988, 989, 990, 991, 992, 993, 994, 995, 996, 997, 998, 999, 1000, 1001, 1002, 1003, 1004, 1005, 1006, 1007, 1008, 1009, 1010, 1011, 1012, 1013, 1014, 1015, 1016],
      "AcquisitionTime": ["151620.010000", "151620.470000", "151620.930000", "151621.390000", "151621.850000", "151622.310000", "151622.770000", "151623.230000", "151623.690000", "151624.150000", "151624.610000", "151625.070000", "151625.530000", "151625.990000", "151626.450000", "151626.910000", "151627.370000", "151627.830000", "151628.290000", "151628.750000", "151629.210000", "151629.670000", "151630.130000", "151630.590000", "151631.050000", "151631.510000", "151631.970000", "151632.430000", "151632.890000", "151633.350000", "151633.810000", "151634.270000", "151634.730000", "151635.190000", "151635.650000", "151636.110000", "151636.570000", "151637.030000", "151637.490000", "151637.950000", "151638.410000", "151638.870000", "151639.330000", "151639.790000", "151640.250000", "151640.710000", "151641.170000", "151641.630000", "151642.090000", "151642.550000", "151643.010000", "151643.470000", "151643.930000", "151644.390000", "151644.850000", "151645.310000", "151645.770000", "151646.230000", "151646.690000", "151647.150000", "151647.610000", "151648.070000", "151648.530000", "151648.990000", "151649.450000", "151649.910000", "151650.370000", "151650.830000", "151651.290000", "151651.750000", "151652.210000", "151652.670000", "151653.130000", "151653.590000", "151654.050000", "151654.510000", "151654.970000", "151655.430000", "151655.890000", "151656.350000", "151656.810000", "151657.270000", "151657.730000", "151658.190000", "151658.650000", "151659.110000", "151659.570000", "151700.030000", "151700.490000", "151700.950000", "151701.410000", "151701.870000", "151702.330000", "151702.790000", "151703.250000", "151703.710000", "151704.170000", "151704.630000", "151705.090000", "151705.550000", "151706.010000", "151706.470000", "151706.930000", "151707.390000", "151707.850000", "151708.310000", "151708.770000", "151709.230000", "151709.690000", "151710.150000", "151710.610000", "151711.070000", "151711.530000", "151711.990000", "151712.450000", "151712.910000", "151713.370000", "151713.830000", "151714.290000", "151714.750000", "151715.210000", "151715.670000", "151716.130000", "151716.590000", "151717.050000", "151717.510000", "151717.970000", "151718.430000", "151718.890000", "151719.350000", "151719.810000", "151720.270000", "151720.730000", "151721.190000", "151721.650000", "151722.110000", "151722.570000", "151723.030000", "151723.490000", "151723.950000", "151724.410000", "151724.870000", "151725.330000", "151725.790000", "151726.250000", "151726.710000", "151727.170000", "151727.630000", "151728.090000", "151728.550000", "151729.010000", "151729.470000", "151729.930000", "151730.390000", "151730.850000", "151731.310000", "151731.770000", "151732.230000", "151732.690000", "151733.150000", "151733.610000", "151734.070000", "151734.530000", "151734.990000", "151735.450000", "151735.910000", "151736.370000", "151736.830000", "151737.290000", "151737.750000", "151738.210000", "151738.670000", "151739.130000", "151739.590000", "151740.050000", "151740.510000", "151740.970000", "151741.430000", "151741.890000", "151742.350000", "151742.810000", "151743.270000", "151743.730000", "151744.190000", "151744.650000", "151745.110000", "151745.570000", "151746.030000", "151746.490000", "151746.950000", "151747.410000", "151747.870000", "151748.330000", "151748.790000", "151749.250000", "151749.710000", "151750.170000", "151750.630000", "151751.090000", "151751.550000", "151752.010000", "151752.470000", "151752.930000", "151753.390000", "151753.850000", "151754.310000", "151754.770000", "151755.230000", "151755.690000", "151756.150000", "151756.610000", "151757.070000", "151757.530000", "151757.990000", "151758.450000", "151758.910000", "151759.370000", "151759.830000", "151800.290000", "151800.750000", "151801.210000", "151801.670000", "151802.130000", "151802.590000", "151803.050000", "151803.510000", "151803.970000", "151804.430000", "151804.890000", "151805.350000", "151805.810000", "151806.270000", "151806.730000", "151807.190000", "151807.650000", "151808.110000", "151808.570000", "151809.030000", "151809.490000", "151809.950000", "151810.410000", "151810.870000", "151811.330000", "151811.790000", "151812.250000", "151812.710000", "151813.170000", "151813.630000", "151814.090000", "151814.550000", "151815.010000", "151815.470000", "151815.930000", "151816.390000", "151816.850000", "151817.310000", "151817.770000", "151818.230000", "151818.690000", "151819.150000", "151819.610000", "151820.070000", "151820.530000", "151820.990000", "151821.450000", "151821.910000", "151822.370000", "151822.830000", "151823.290000", "151823.750000", "151824.210000", "151824.670000", "151825.130000", "151825.590000", "151826.050000", "151826.510000", "151826.970000", "151827.430000", "151827.890000", "151828.350000", "151828.810000", "151829.270000", "151829.730000", "151830.190000", "151830.650000", "151831.110000", "151831.570000", "151832.030000", "151832.490000", "151832.950000", "151833.410000", "151833.870000", "151834.330000", "151834.790000", "151835.250000", "151835.710000", "151836.170000", "151836.630000", "151837.090000", "151837.550000", "151838.010000", "151838.470000", "151838.930000", "151839.390000", "151839.850000", "151840.310000", "151840.770000", "151841.230000", "151841.690000", "151842.150000", "151842.610000", "151843.070000", "151843.530000", "151843.990000", "151844.450000", "151844.910000", "151845.370000", "151845.830000", "151846.290000", "151846.750000", "151847.210000", "151847.670000", "151848.130000", "151848.590000", "151849.050000", "151849.510000", "151849.970000", "151850.430000", "151850.890000", "151851.350000", "151851.810000", "151852.270000", "151852.730000", "151853.190000", "151853.650000", "151854.110000", "151854.570000", "151855.030000", "151855.490000", "151855.950000", "151856.410000", "151856.870000", "151857.330000", "151857.790000", "151858.250000", "151858.710000", "151859.170000", "151859.630000", "151900.090000", "151900.550000", "151901.010000", "151901.470000", "151901.930000", "151902.390000", "151902.850000", "151903.310000", "151903.770000", "151904.230000", "151904.690000", "151905.150000", "151905.610000", "151906.070000", "151906.530000", "151906.990000", "151907.450000", "151907.910000", "151908.370000", "151908.830000", "151909.290000", "151909.750000", "151910.210000", "151910.670000", "151911.130000", "151911.590000", "151912.050000", "151912.510000", "151912.970000", "151913.430000", "151913.890000", "151914.350000", "151914.810000", "151915.270000", "151915.730000", "151916.190000", "151916.650000", "151917.110000", "151917.570000", "151918.030000", "151918.490000", "151918.950000", "151919.410000", "151919.870000", "151920.330000", "151920.790000", "151921.250000", "151921.710000", "151922.170000", "151922.630000", "151923.090000", "151923.550000", "151924.010000", "151924.470000", "151924.930000", "151925.390000", "151925.850000", "151926.310000", "151926.770000", "151927.230000", "151927.690000", "151928.150000", "151928.610000", "151929.070000", "151929.530000", "151929.990000", "151930.450000", "151930.910000", "151931.370000", "151931.830000", "151932.290000", "151932.750000", "151933.210000", "151933.670000", "151934.130000", "151934.590000", "151935.050000", "151935.510000", "151935.970000", "151936.430000", "151936.890000", "151937.350000", "151937.810000", "151938.270000", "151938.730000", "151939.190000", "151939.650000", "151940.110000", "151940.570000", "151941.030000", "151941.490000", "151941.950000", "151942.410000", "151942.870000", "151943.330000", "151943.790000", "151944.250000", "151944.710000", "151945.170000", "151945.630000", "151946.090000", "151946.550000", "151947.010000", "151947.470000", "151947.930000", "151948.390000", "151948.850000", "151949.310000", "151949.770000", "151950.230000", "151950.690000", "151951.150000", "151951.610000", "151952.070000", "151952.530000", "151952.990000", "151953.450000", "151953.910000", "151954.370000", "151954.830000", "151955.290000", "151955.750000", "151956.210000", "151956.670000", "151957.130000", "151957.590000", "151958.050000", "151958.510000", "151958.970000", "151959.430000", "151959.890000", "152000.350000", "152000.810000", "152001.270000", "152001.730000", "152002.190000", "152002.650000", "152003.110000", "152003.570000", "152004.030000", "152004.490000", "152004.950000", "152005.410000", "152005.870000", "152006.330000", "152006.790000", "152007.250000", "152007.710000", "152008.170000", "152008.630000", "152009.090000", "152009.550000", "152010.010000", "152010.470000", "152010.930000", "152011.390000", "152011.850000", "152012.310000", "152012.770000", "152013.230000", "152013.690000", "152014.150000", "152014.610000", "152015.070000", "152015.530000", "152015.990000", "152016.450000", "152016.910000", "152017.370000", "152017.830000", "152018.290000", "152018.750000", "152019.210000", "152019.670000", "152020.130000", "152020.590000", "152021.050000", "152021.510000", "152021.970000", "152022.430000", "152022.890000", "152023.350000", "152023.810000", "152024.270000", "152024.730000", "152025.190000", "152025.650000", "152026.110000", "152026.570000", "152027.030000", "152027.490000", "152027.950000", "152028.410000", "152028.870000", "152029.330000", "152029.790000", "152030.250000", "152030.710000", "152031.170000", "152031.630000", "152032.090000", "152032.550000", "152033.010000", "152033.470000", "152033.930000", "152034.390000", "152034.850000", "152035.310000", "152035.770000", "152036.230000", "152036.690000", "152037.150000", "152037.610000", "152038.070000", "152038.530000", "152038.990000", "152039.450000", "152039.910000", "152040.370000", "152040.830000", "152041.290000", "152041.750000", "152042.210000", "152042.670000", "152043.130000", "152043.590000", "152044.050000", "152044.510000", "152044.970000", "152045.430000", "152045.890000", "152046.350000", "152046.810000", "152047.270000", "152047.730000", "152048.190000", "152048.650000", "152049.110000", "152049.570000", "152050.030000", "152050.490000", "152050.950000", "152051.410000", "152051.870000", "152052.330000", "152052.790000", "152053.250000", "152053.710000", "152054.170000", "152054.630000", "152055.090000", "152055.550000", "152056.010000", "152056.470000", "152056.930000", "152057.390000", "152057.850000", "152058.310000", "152058.770000", "152059.230000", "152059.690000", "152100.150000", "152100.610000", "152101.070000", "152101.530000", "152101.990000", "152102.450000", "152102.910000", "152103.370000", "152103.830000", "152104.290000", "152104.750000", "152105.210000", "152105.670000", "152106.130000", "152106.590000", "152107.050000", "152107.510000", "152107.970000", "152108.430000", "152108.890000", "152109.350000", "152109.810000", "152110.270000", "152110.730000", "152111.190000", "152111.650000", "152112.110000", "152112.570000", "152113.030000", "152113.490000", "152113.950000", "152114.410000", "152114.870000", "152115.330000", "152115.790000", "152116.250000", "152116.710000", "152117.170000", "152117.630000", "152118.090000", "152118.550000", "152119.010000", "152119.470000", "152119.930000", "152120.390000", "152120.850000", "152121.310000", "152121.770000", "152122.230000", "152122.690000", "152123.150000", "152123.610000", "152124.070000", "152124.530000", "152124.990000", "152125.450000", "152125.910000", "152126.370000", "152126.830000", "152127.290000", "152127.750000", "152128.210000", "152128.670000", "152129.130000", "152129.590000", "152130.050000", "152130.510000", "152130.970000", "152131.430000", "152131.890000", "152132.350000", "152132.810000", "152133.270000", "152133.730000", "152134.190000", "152134.650000", "152135.110000", "152135.570000", "152136.030000", "152136.490000", "152136.950000", "152137.410000", "152137.870000", "152138.330000", "152138.790000", "152139.250000", "152139.710000", "152140.170000", "152140.630000", "152141.090000", "152141.550000", "152142.010000", "152142.470000", "152142.930000", "152143.390000", "152143.850000", "152144.310000", "152144.770000", "152145.230000", "152145.690000", "152146.150000", "152146.610000", "152147.070000", "152147.530000", "152147.990000", "152148.450000", "152148.910000", "152149.370000", "152149.830000", "152150.290000", "152150.750000", "152151.210000", "152151.670000", "152152.130000", "152152.590000", "152153.050000", "152153.510000", "152153.970000", "152154.430000", "152154.890000", "152155.350000", "152155.810000", "152156.270000", "152156.730000", "152157.190000", "152157.650000", "152158.110000", "152158.570000", "152159.030000", "152159.490000", "152159.950000", "152200.410000", "152200.870000", "152201.330000", "152201.790000", "152202.250000", "152202.710000", "152203.170000", "152203.630000", "152204.090000", "152204.550000", "152205.010000", "152205.470000", "152205.930000", "152206.390000", "152206.850000", "152207.310000", "152207.770000", "152208.230000", "152208.690000", "152209.150000", "152209.610000", "152210.070000", "152210.530000", "152210.990000", "152211.450000", "152211.910000", "152212.370000", "152212.830000", "152213.290000", "152213.750000", "152214.210000", "152214.670000", "152215.130000", "152215.590000", "152216.050000", "152216.510000", "152216.970000", "152217.430000", "152217.890000", "152218.350000", "152218.810000", "152219.270000", "152219.730000", "152220.190000", "152220.650000", "152221.110000", "152221.570000", "152222.030000", "152222.490000", "152222.950000", "152223.410000", "152223.870000", "152224.330000", "152224.790000", "152225.250000", "152225.710000", "152226.170000", "152226.630000", "152227.090000", "152227.550000", "152228.010000", "152228.470000", "152228.930000", "152229.390000", "152229.850000", "152230.310000", "152230.770000", "152231.230000", "152231.690000", "152232.150000", "152232.610000", "152233.070000", "152233.530000", "152233.990000", "152234.450000", "152234.910000", "152235.370000", "152235.830000", "152236.290000", "152236.750000", "152237.210000", "152237.670000", "152238.130000", "152238.590000", "152239.050000", "152239.510000", "152239.970000", "152240.430000", "152240.890000", "152241.350000", "152241.810000", "152242.270000", "152242.730000", "152243.190000", "152243.650000", "152244.110000", "152244.570000", "152245.030000", "152245.490000", "152245.950000", "152246.410000", "152246.870000", "152247.330000", "152247.790000", "152248.250000", "152248.710000", "152249.170000", "152249.630000", "152250.090000", "152250.550000", "152251.010000", "152251.470000", "152251.930000", "152252.390000", "152252.850000", "152253.310000", "152253.770000", "152254.230000", "152254.690000", "152255.150000", "152255.610000", "152256.070000", "152256.530000", "152256.990000", "152257.450000", "152257.910000", "152258.370000", "152258.830000", "152259.290000", "152259.750000", "152300.210000", "152300.670000", "152301.130000", "152301.590000", "152302.050000", "152302.510000", "152302.970000", "152303.430000", "152303.890000", "152304.350000", "152304.810000", "152305.270000", "152305.730000", "152306.190000", "152306.650000", "152307.110000", "152307.570000", "152308.030000", "152308.490000", "152308.950000", "152309.410000", "152309.870000", "152310.330000", "152310.790000", "152311.250000", "152311.710000", "152312.170000", "152312.630000", "152313.090000", "152313.550000", "152314.010000", "152314.470000", "152314.930000", "152315.390000", "152315.850000", "152316.310000", "152316.770000", "152317.230000", "152317.690000", "152318.150000", "152318.610000", "152319.070000", "152319.530000", "152319.990000", "152320.450000", "152320.910000", "152321.370000", "152321.830000", "152322.290000", "152322.750000", "152323.210000", "152323.670000", "152324.130000", "152324.590000", "152325.050000", "152325.510000", "152325.970000", "152326.430000", "152326.890000", "152327.350000", "152327.810000", "152328.270000", "152328.730000", "152329.190000", "152329.650000", "152330.110000", "152330.570000", "152331.030000", "152331.490000", "152331.950000", "152332.410000", "152332.870000", "152333.330000", "152333.790000", "152334.250000", "152334.710000", "152335.170000", "152335.630000", "152336.090000", "152336.550000", "152337.010000", "152337.470000", "152337.930000", "152338.390000", "152338.850000", "152339.310000", "152339.770000", "152340.230000", "152340.690000", "152341.150000", "152341.610000", "152342.070000", "152342.530000", "152342.990000", "152343.450000", "152343.910000", "152344.370000", "152344.830000", "152345.290000", "152345.750000", "152346.210000", "152346.670000", "152347.130000", "152347.590000", "152348.050000", "152348.510000", "152348.970000", "152349.430000", "152349.890000", "152350.350000", "152350.810000", "152351.270000", "152351.730000", "152352.190000", "152352.650000", "152353.110000", "152353.570000", "152354.030000", "152354.490000", "152354.950000", "152355.410000", "152355.870000", "152356.330000", "152356.790000", "152357.250000", "152357.710000", "152358.170000", "152358.630000", "152359.090000", "152359.550000", "152400.010000", "152400.470000", "152400.930000", "152401.390000", "152401.850000", "152402.310000", "152402.770000", "152403.230000", "152403.690000", "152404.150000", "152404.610000", "152405.070000", "152405.530000", "152405.990000", "152406.450000", "152406.910000"],
