{
  "AcquisitionMatrixPE": 82,
  "AcquisitionNumber": 1,
  "AcquisitionTime": "14:56:57.372500",
  "BandwidthPerPixelPhaseEncode": 24.888,
  "BaseResolution": 82,
  "BodyPartExamined": "BRAIN",
  "ConsistencyInfo": "N4_VE11C_LATEST_20160120",
  "ConversionSoftware": "dcm2niix",
  "ConversionSoftwareVersion": "v1.0.20201102",
  "DerivedVendorReportedEchoSpacing": 0.00049,
  "DeviceSerialNumber": "66112",
  "DwellTime": 2e-06,
  "EchoTime": 0.0272,
  "EchoTrainLength": 82,
  "EffectiveEchoSpacing": 0.00049,
  "FlipAngle": 44,
  "ImageComments": "Unaliased MB8/PE3",
  "ImageOrientationPatientDICOM": [0.998084, 0.00787989, 0.061365, -0.00749071, 0.99995, -0.00656956],
  "ImageType": [
    "ORIGINAL",
    "PRIMARY",
    "M",
    "MB",
    "ND",
    "NORM",
    "MOSAIC"
],
  "ImagingFrequency": 123.252,
  "InPlanePhaseEncodingDirectionDICOM": "COL",
  "InstitutionAddress": "Maynard 3,Hanover,NH,US,03755",
  "InstitutionName": "Dartmouth College - PBS",
  "InstitutionalDepartmentName": "Department",
  "MRAcquisitionType": "2D",
  "MagneticFieldStrength": 3,
  "Manufacturer": "Siemens",
  "ManufacturersModelName": "Prisma",
  "Modality": "MR",
  "MultibandAccelerationFactor": 8,
  "PartialFourier": 1,
  "PatientPosition": "HFS",
  "PercentPhaseFOV": 100,
  "PercentSampling": 100,
  "PhaseEncodingDirection": "j-",
  "PhaseEncodingSteps": 82,
  "PhaseResolution": 1,
  "PixelBandwidth": 3050,
  "ProcedureStepDescription": "Wager_Wager^1076_spacetop",
  "ProtocolName": "func_run-01_task-alignvideo_acq-ap-mb8",
  "PulseSequenceDetails": "%CustomerSeq%\\cmrr_mbep2d_bold",
  "ReceiveCoilActiveElements": "HEA;HEP",
  "ReceiveCoilName": "Head_32",
  "ReconMatrixPE": 82,
  "RepetitionTime": 0.46,
  "SAR": 0.0716456,
  "ScanOptions": "FS",
  "ScanningSequence": "EP",
  "SequenceName": "epfid2d1_82",
  "SequenceVariant": "SK\\SS",
  "SeriesDescription": "func_run-01_task-alignvideo_acq-ap-mb8",
  "SeriesNumber": 32,
  "ShimSetting": [4164, -7718, -7297, 614, -64, -3, 20, 88],
  "SliceThickness": 2.7,
  "SliceTiming": [0, 0.2525, 0.0625, 0.315, 0.125, 0.3775, 0.19, 0, 0.2525, 0.0625, 0.315, 0.125, 0.3775, 0.19, 0, 0.2525, 0.0625, 0.315, 0.125, 0.3775, 0.19, 0, 0.2525, 0.0625, 0.315, 0.125, 0.3775, 0.19, 0, 0.2525, 0.0625, 0.315, 0.125, 0.3775, 0.19, 0, 0.2525, 0.0625, 0.315, 0.125, 0.3775, 0.19, 0, 0.2525, 0.0625, 0.315, 0.125, 0.3775, 0.19, 0, 0.2525, 0.0625, 0.315, 0.125, 0.3775, 0.19],
  "SoftwareVersions": "syngo MR E11",
  "SpacingBetweenSlices": 2.7,
  "StationName": "AWP66112",
  "TaskName": "alignvideo",
  "TotalReadoutTime": 0.03969,
  "TxRefAmp": 227.296,
  "WipMemBlock": "6e86c91f-fc50-4214-85be-7475c144d790||Sequence: R016 ve11c/master r/e634e98; Dec 19 2017 11:00:25 by eja",
  "dcmmeta_affine": [
    [-2.6777870655059814, -0.02009701356291771, 0.16581696271896362, 110.68607330322266],
    [-0.021141162142157555, 2.682793617248535, -0.016462739557027817, -79.23753356933594],
    [0.1646377295255661, 0.017625659704208374, 2.6948530673980713, -62.09650421142578],
    [0.0, 0.0, 0.0, 1.0]
],
  "dcmmeta_reorient_transform": [
    [0.0, -1.0, 0.0, 81.0],
    [1.0, 0.0, 0.0, 0.0],
    [0.0, 0.0, 1.0, 0.0],
    [0.0, 0.0, 0.0, 1.0]
],
  "dcmmeta_shape": [82, 82, 56, 1073],
  "dcmmeta_slice_dim": 2,
  "dcmmeta_version": 0.6,
  "global": {
    "const": {
      "AccessionNumber": "A003469",
      "AcquisitionMatrix": [82, 0, 0, 82],
      "AngioFlag": "N",
      "BitsAllocated": 16,
      "BitsStored": 16,
      "BodyPartExamined": "BRAIN",
      "Columns": 656,
      "EchoNumbers": 1,
      "EchoTime": 27.2,
      "EchoTrainLength": 82,
      "FlipAngle": 44.0,
      "HighBit": 15,
      "ImageOrientationPatient": [0.99808428907583, 0.00787988734326, 0.06136496781922, -0.0074907051802, 0.99995036385285, -0.0065695636426],
      "ImagePositionPatient": [-871.81529030304, -914.09806636152, -102.86128754403],
      "ImageType": [
        "ORIGINAL",
        "PRIMARY",
        "M",
        "MB",
        "ND",
        "NORM",
        "MOSAIC"
],
      "ImagedNucleus": "1H",
      "ImagingFrequency": 123.252144,
      "InPlanePhaseEncodingDirection": "COL",
      "MRAcquisitionType": "2D",
      "MagneticFieldStrength": 3.0,
      "Manufacturer": "SIEMENS",
      "ManufacturerModelName": "Prisma",
      "Modality": "MR",
      "NumberOfAverages": 1.0,
      "NumberOfPhaseEncodingSteps": 82,
      "PercentPhaseFieldOfView": 100.0,
      "PercentSampling": 100.0,
      "PerformedProcedureStepStartTime": "131750.328000",
      "PhotometricInterpretation": "MONOCHROME2",
      "PixelBandwidth": 3050.0,
      "PixelRepresentation": 0,
      "PixelSpacing": [2.6829268932343, 2.6829268932343],
      "ProtocolName": "func_run-01_task-alignvideo_acq-ap-mb8",
      "RepetitionTime": 460.0,
      "Rows": 656,
      "SAR": 0.07164555065151,
      "SamplesPerPixel": 1,
      "ScanOptions": "FS",
      "ScanningSequence": "EP",
      "SequenceName": "epfid2d1_82",
      "SequenceVariant": [
        "SK",
        "SS"
],
      "SeriesDescription": "func_run-01_task-alignvideo_acq-ap-mb8",
      "SeriesNumber": 32,
      "SeriesTime": "145712.835000",
      "SliceLocation": -54.69735783133,
      "SliceThickness": 2.7000000476837,
      "SmallestImagePixelValue": 0,
      "SoftwareVersions": "syngo MR E11",
      "SpacingBetweenSlices": 2.6999999517017,
      "SpecificCharacterSet": "ISO_IR 100",
      "StudyID": "1",
      "StudyTime": "131750.202000",
      "TransmitCoilName": "Body",
      "VariableFlipAngleFlag": "N",
      "WindowCenterWidthExplanation": "Algo1",
      "dBdt": 0.0},
    "slices": {}
  },
  "time": {
    "samples": {
      "AcquisitionNumber": [1, 2, 3, 4, 5, 6, 7, 8, 9, 10, 11, 12, 13, 14, 15, 16, 17, 18, 19, 20, 21, 22, 23, 24, 25, 26, 27, 28, 29, 30, 31, 32, 33, 34, 35, 36, 37, 38, 39, 40, 41, 42, 43, 44, 45, 46, 47, 48, 49, 50, 51, 52, 53, 54, 55, 56, 57, 58, 59, 60, 61, 62, 63, 64, 65, 66, 67, 68, 69, 70, 71, 72, 73, 74, 75, 76, 77, 78, 79, 80, 81, 82, 83, 84, 85, 86, 87, 88, 89, 90, 91, 92, 93, 94, 95, 96, 97, 98, 99, 100, 101, 102, 103, 104, 105, 106, 107, 108, 109, 110, 111, 112, 113, 114, 115, 116, 117, 118, 119, 120, 121, 122, 123, 124, 125, 126, 127, 128, 129, 130, 131, 132, 133, 134, 135, 136, 137, 138, 139, 140, 141, 142, 143, 144, 145, 146, 147, 148, 149, 150, 151, 152, 153, 154, 155, 156, 157, 158, 159, 160, 161, 162, 163, 164, 165, 166, 167, 168, 169, 170, 171, 172, 173, 174, 175, 176, 177, 178, 179, 180, 181, 182, 183, 184, 185, 186, 187, 188, 189, 190, 191, 192, 193, 194, 195, 196, 197, 198, 199, 200, 201, 202, 203, 204, 205, 206, 207, 208, 209, 210, 211, 212, 213, 214, 215, 216, 217, 218, 219, 220, 221, 222, 223, 224, 225, 226, 227, 228, 229, 230, 231, 232, 233, 234, 235, 236, 237, 238, 239, 240, 241, 242, 243, 244, 245, 246, 247, 248, 249, 250, 251, 252, 253, 254, 255, 256, 257, 258, 259, 260, 261, 262, 263, 264, 265, 266, 267, 268, 269, 270, 271, 272, 273, 274, 275, 276, 277, 278, 279, 280, 281, 282, 283, 284, 285, 286, 287, 288, 289, 290, 291, 292, 293, 294, 295, 296, 297, 298, 299, 300, 301, 302, 303, 304, 305, 306, 307, 308, 309, 310, 311, 312, 313, 314, 315, 316, 317, 318, 319, 320, 321, 322, 323, 324, 325, 326, 327, 328, 329, 330, 331, 332, 333, 334, 335, 336, 337, 338, 339, 340, 341, 342, 343, 344, 345, 346, 347, 348, 349, 350, 351, 352, 353, 354, 355, 356, 357, 358, 359, 360, 361, 362, 363, 364, 365, 366, 367, 368, 369, 370, 371, 372, 373, 374, 375, 376, 377, 378, 379, 380, 381, 382, 383, 384, 385, 386, 387, 388, 389, 390, 391, 392, 393, 394, 395, 396, 397, 398, 399, 400, 401, 402, 403, 404, 405, 406, 407, 408, 409, 410, 411, 412, 413, 414, 415, 416, 417, 418, 419, 420, 421, 422, 423, 424, 425, 426, 427, 428, 429, 430, 431, 432, 433, 434, 435, 436, 437, 438, 439, 440, 441, 442, 443, 444, 445, 446, 447, 448, 449, 450, 451, 452, 453, 454, 455, 456, 457, 458, 459, 460, 461, 462, 463, 464, 465, 466, 467, 468, 469, 470, 471, 472, 473, 474, 475, 476, 477, 478, 479, 480, 481, 482, 483, 484, 485, 486, 487, 488, 489, 490, 491, 492, 493, 494, 495, 496, 497, 498, 499, 500, 501, 502, 503, 504, 505, 506, 507, 508, 509, 510, 511, 512, 513, 514, 515, 516, 517, 518, 519, 520, 521, 522, 523, 524, 525, 526, 527, 528, 529, 530, 531, 532, 533, 534, 535, 536, 537, 538, 539, 540, 541, 542, 543, 544, 545, 546, 547, 548, 549, 550, 551, 552, 553, 554, 555, 556, 557, 558, 559, 560, 561, 562, 563, 564, 565, 566, 567, 568, 569, 570, 571, 572, 573, 574, 575, 576, 577, 578, 579, 580, 581, 582, 583, 584, 585, 586, 587, 588, 589, 590, 591, 592, 593, 594, 595, 596, 597, 598, 599, 600, 601, 602, 603, 604, 605, 606, 607, 608, 609, 610, 611, 612, 613, 614, 615, 616, 617, 618, 619, 620, 621, 622, 623, 624, 625, 626, 627, 628, 629, 630, 631, 632, 633, 634, 635, 636, 637, 638, 639, 640, 641, 642, 643, 644, 645, 646, 647, 648, 649, 650, 651, 652, 653, 654, 655, 656, 657, 658, 659, 660, 661, 662, 663, 664, 665, 666, 667, 668, 669, 670, 671, 672, 673, 674, 675, 676, 677, 678, 679, 680, 681, 682, 683, 684, 685, 686, 687, 688, 689, 690, 691, 692, 693, 694, 695, 696, 697, 698, 699, 700, 701, 702, 703, 704, 705, 706, 707, 708, 709, 710, 711, 712, 713, 714, 715, 716, 717, 718, 719, 720, 721, 722, 723, 724, 725, 726, 727, 728, 729, 730, 731, 732, 733, 734, 735, 736, 737, 738, 739, 740, 741, 742, 743, 744, 745, 746, 747, 748, 749, 750, 751, 752, 753, 754, 755, 756, 757, 758, 759, 760, 761, 762, 763, 764, 765, 766, 767, 768, 769, 770, 771, 772, 773, 774, 775, 776, 777, 778, 779, 780, 781, 782, 783, 784, 785, 786, 787, 788, 789, 790, 791, 792, 793, 794, 795, 796, 797, 798, 799, 800, 801, 802, 803, 804, 805, 806, 807, 808, 809, 810, 811, 812, 813, 814, 815, 816, 817, 818, 819, 820, 821, 822, 823, 824, 825, 826, 827, 828, 829, 830, 831, 832, 833, 834, 835, 836, 837, 838, 839, 840, 841, 842, 843, 844, 845, 846, 847, 848, 849, 850, 851, 852, 853, 854, 855, 856, 857, 858, 859, 860, 861, 862, 863, 864, 865, 866, 867, 868, 869, 870, 871, 872, 873, 874, 875, 876, 877, 878, 879, 880, 881, 882, 883, 884, 885, 886, 887, 888, 889, 890, 891, 892, 893, 894, 895, 896, 897, 898, 899, 900, 901, 902, 903, 904, 905, 906, 907, 908, 909, 910, 911, 912, 913, 914, 915, 916, 917, 918, 919, 920, 921, 922, 923, 924, 925, 926, 927, 928, 929, 930, 931, 932, 933, 934, 935, 936, 937, 938, 939, 940, 941, 942, 943, 944, 945, 946, 947, 948, 949, 950, 951, 952, 953, 954, 955, 956, 957, 958, 959, 960, 961, 962, 963, 964, 965, 966, 967, 968, 969, 970, 971, 972, 973, 974, 975, 976, 977, 978, 979, 980, 981, 982, 983, 984, 985, 986, 987, 988, 989, 990, 991, 992, 993, 994, 995, 996, 997, 998, 999, 1000, 1001, 1002, 1003, 1004, 1005, 1006, 1007, 1008, 1009, 1010, 1011, 1012, 1013, 1014, 1015, 1016, 1017, 1018, 1019, 1020, 1021, 1022, 1023, 1024, 1025, 1026, 1027, 1028, 1029, 1030, 1031, 1032, 1033, 1034, 1035, 1036, 1037, 1038, 1039, 1040, 1041, 1042, 1043, 1044, 1045, 1046, 1047, 1048, 1049, 1050, 1051, 1052, 1053, 1054, 1055, 1056, 1057, 1058, 1059, 1060, 1061, 1062, 1063, 1064, 1065, 1066, 1067, 1068, 1069, 1070, 1071, 1072, 1073],
      "AcquisitionTime": ["145657.372500", "145657.832500", "145658.292500", "145658.752500", "145659.212500", "145659.672500", "145700.132500", "145700.592500", "145701.052500", "145701.512500", "145701.972500", "145702.432500", "145702.892500", "145703.352500", "145703.812500", "145704.272500", "145704.732500", "145705.192500", "145705.652500", "145706.112500", "145706.572500", "145707.032500", "145707.492500", "145707.952500", "145708.412500", "145708.872500", "145709.332500", "145709.792500", "145710.252500", "145710.712500", "145711.172500", "145711.632500", "145712.092500", "145712.552500", "145713.012500", "145713.472500", "145713.932500", "145714.392500", "145714.852500", "145715.312500", "145715.772500", "145716.232500", "145716.692500", "145717.152500", "145717.612500", "145718.072500", "145718.532500", "145718.992500", "145719.452500", "145719.912500", "145720.372500", "145720.832500", "145721.292500", "145721.752500", "145722.212500", "145722.672500", "145723.132500", "145723.592500", "145724.052500", "145724.512500", "145724.972500", "145725.432500", "145725.892500", "145726.352500", "145726.812500", "145727.272500", "145727.732500", "145728.192500", "145728.652500", "145729.112500", "145729.572500", "145730.032500", "145730.492500", "145730.952500", "145731.412500", "145731.872500", "145732.332500", "145732.792500", "145733.252500", "145733.712500", "145734.172500", "145734.632500", "145735.092500", "145735.552500", "145736.012500", "145736.472500", "145736.932500", "145737.392500", "145737.852500", "145738.312500", "145738.772500", "145739.232500", "145739.692500", "145740.152500", "145740.612500", "145741.072500", "145741.532500", "145741.992500", "145742.452500", "145742.912500", "145743.372500", "145743.832500", "145744.292500", "145744.752500", "145745.212500", "145745.672500", "145746.132500", "145746.592500", "145747.052500", "145747.512500", "145747.972500", "145748.432500", "145748.892500", "145749.352500", "145749.812500", "145750.272500", "145750.732500", "145751.192500", "145751.652500", "145752.112500", "145752.572500", "145753.032500", "145753.492500", "145753.952500", "145754.412500", "145754.872500", "145755.332500", "145755.792500", "145756.252500", "145756.712500", "145757.172500", "145757.632500", "145758.092500", "145758.552500", "145759.012500", "145759.472500", "145759.932500", "145800.392500", "145800.852500", "145801.312500", "145801.772500", "145802.232500", "145802.692500", "145803.152500", "145803.612500", "145804.072500", "145804.532500", "145804.992500", "145805.452500", "145805.912500", "145806.372500", "145806.832500", "145807.292500", "145807.752500", "145808.212500", "145808.672500", "145809.132500", "145809.592500", "145810.052500", "145810.512500", "145810.972500", "145811.432500", "145811.892500", "145812.352500", "145812.812500", "145813.272500", "145813.732500", "145814.192500", "145814.652500", "145815.112500", "145815.572500", "145816.032500", "145816.492500", "145816.952500", "145817.412500", "145817.872500", "145818.332500", "145818.792500", "145819.252500", "145819.712500", "145820.172500", "145820.632500", "145821.092500", "145821.552500", "145822.012500", "145822.472500", "145822.932500", "145823.392500", "145823.852500", "145824.312500", "145824.772500", "145825.232500", "145825.692500", "145826.152500", "145826.612500", "145827.072500", "145827.532500", "145827.992500", "145828.452500", "145828.912500", "145829.372500", "145829.832500", "145830.292500", "145830.752500", "145831.212500", "145831.672500", "145832.132500", "145832.592500", "145833.052500", "145833.512500", "145833.972500", "145834.432500", "145834.892500", "145835.352500", "145835.812500", "145836.272500", "145836.732500", "145837.192500", "145837.652500", "145838.112500", "145838.572500", "145839.032500", "145839.492500", "145839.952500", "145840.412500", "145840.872500", "145841.332500", "145841.792500", "145842.252500", "145842.712500", "145843.172500", "145843.632500", "145844.092500", "145844.552500", "145845.012500", "145845.472500", "145845.932500", "145846.392500", "145846.852500", "145847.312500", "145847.772500", "145848.232500", "145848.692500", "145849.152500", "145849.612500", "145850.072500", "145850.532500", "145850.992500", "145851.452500", "145851.912500", "145852.372500", "145852.832500", "145853.292500", "145853.752500", "145854.212500", "145854.672500", "145855.132500", "145855.592500", "145856.052500", "145856.512500", "145856.972500", "145857.432500", "145857.892500", "145858.352500", "145858.812500", "145859.272500", "145859.732500", "145900.192500", "145900.652500", "145901.112500", "145901.572500", "145902.032500", "145902.492500", "145902.952500", "145903.412500", "145903.872500", "145904.332500", "145904.792500", "145905.252500", "145905.712500", "145906.172500", "145906.632500", "145907.092500", "145907.552500", "145908.012500", "145908.472500", "145908.932500", "145909.392500", "145909.852500", "145910.312500", "145910.772500", "145911.232500", "145911.692500", "145912.152500", "145912.612500", "145913.072500", "145913.532500", "145913.992500", "145914.452500", "145914.912500", "145915.372500", "145915.832500", "145916.292500", "145916.752500", "145917.212500", "145917.672500", "145918.132500", "145918.592500", "145919.052500", "145919.512500", "145919.972500", "145920.432500", "145920.892500", "145921.352500", "145921.812500", "145922.272500", "145922.732500", "145923.192500", "145923.652500", "145924.112500", "145924.572500", "145925.032500", "145925.492500", "145925.952500", "145926.412500", "145926.872500", "145927.332500", "145927.792500", "145928.252500", "145928.712500", "145929.172500", "145929.632500", "145930.092500", "145930.552500", "145931.012500", "145931.472500", "145931.932500", "145932.392500", "145932.852500", "145933.312500", "145933.772500", "145934.232500", "145934.692500", "145935.152500", "145935.612500", "145936.072500", "145936.532500", "145936.992500", "145937.452500", "145937.912500", "145938.372500", "145938.832500", "145939.292500", "145939.752500", "145940.212500", "145940.672500", "145941.132500", "145941.592500", "145942.052500", "145942.512500", "145942.972500", "145943.432500", "145943.892500", "145944.352500", "145944.812500", "145945.272500", "145945.732500", "145946.192500", "145946.652500", "145947.112500", "145947.572500", "145948.032500", "145948.492500", "145948.952500", "145949.412500", "145949.872500", "145950.332500", "145950.792500", "145951.252500", "145951.712500", "145952.172500", "145952.632500", "145953.092500", "145953.552500", "145954.012500", "145954.472500", "145954.932500", "145955.392500", "145955.852500", "145956.312500", "145956.772500", "145957.232500", "145957.692500", "145958.152500", "145958.612500", "145959.072500", "145959.532500", "145959.992500", "150000.452500", "150000.912500", "150001.372500", "150001.832500", "150002.292500", "150002.752500", "150003.212500", "150003.672500", "150004.132500", "150004.592500", "150005.052500", "150005.512500", "150005.972500", "150006.432500", "150006.892500", "150007.352500", "150007.812500", "150008.272500", "150008.732500", "150009.192500", "150009.652500", "150010.112500", "150010.572500", "150011.032500", "150011.492500", "150011.952500", "150012.412500", "150012.872500", "150013.332500", "150013.792500", "150014.252500", "150014.712500", "150015.172500", "150015.632500", "150016.092500", "150016.552500", "150017.012500", "150017.472500", "150017.932500", "150018.392500", "150018.852500", "150019.312500", "150019.772500", "150020.232500", "150020.692500", "150021.152500", "150021.612500", "150022.072500", "150022.532500", "150022.992500", "150023.452500", "150023.912500", "150024.372500", "150024.832500", "150025.292500", "150025.752500", "150026.212500", "150026.672500", "150027.132500", "150027.592500", "150028.052500", "150028.512500", "150028.972500", "150029.432500", "150029.892500", "150030.352500", "150030.812500", "150031.272500", "150031.732500", "150032.192500", "150032.652500", "150033.112500", "150033.572500", "150034.032500", "150034.492500", "150034.952500", "150035.412500", "150035.872500", "150036.332500", "150036.792500", "150037.252500", "150037.712500", "150038.172500", "150038.632500", "150039.092500", "150039.552500", "150040.012500", "150040.472500", "150040.932500", "150041.392500", "150041.852500", "150042.312500", "150042.772500", "150043.232500", "150043.692500", "150044.152500", "150044.612500", "150045.072500", "150045.532500", "150045.992500", "150046.452500", "150046.912500", "150047.372500", "150047.832500", "150048.292500", "150048.752500", "150049.212500", "150049.672500", "150050.132500", "150050.592500", "150051.052500", "150051.512500", "150051.972500", "150052.432500", "150052.892500", "150053.352500", "150053.812500", "150054.272500", "150054.732500", "150055.192500", "150055.652500", "150056.112500", "150056.572500", "150057.032500", "150057.492500", "150057.952500", "150058.412500", "150058.872500", "150059.332500", "150059.792500", "150100.252500", "150100.712500", "150101.172500", "150101.632500", "150102.092500", "150102.552500", "150103.012500", "150103.472500", "150103.932500", "150104.392500", "150104.852500", "150105.312500", "150105.772500", "150106.232500", "150106.692500", "150107.152500", "150107.612500", "150108.072500", "150108.532500", "150108.992500", "150109.452500", "150109.912500", "150110.372500", "150110.832500", "150111.292500", "150111.752500", "150112.212500", "150112.672500", "150113.132500", "150113.592500", "150114.052500", "150114.512500", "150114.972500", "150115.432500", "150115.892500", "150116.352500", "150116.812500", "150117.272500", "150117.732500", "150118.192500", "150118.652500", "150119.112500", "150119.572500", "150120.032500", "150120.492500", "150120.952500", "150121.412500", "150121.872500", "150122.332500", "150122.792500", "150123.252500", "150123.712500", "150124.172500", "150124.632500", "150125.092500", "150125.552500", "150126.012500", "150126.472500", "150126.932500", "150127.392500", "150127.852500", "150128.312500", "150128.772500", "150129.232500", "150129.692500", "150130.152500", "150130.612500", "150131.072500", "150131.532500", "150131.992500", "150132.452500", "150132.912500", "150133.372500", "150133.832500", "150134.292500", "150134.752500", "150135.212500", "150135.672500", "150136.132500", "150136.592500", "150137.052500", "150137.512500", "150137.972500", "150138.432500", "150138.892500", "150139.352500", "150139.812500", "150140.272500", "150140.732500", "150141.192500", "150141.652500", "150142.112500", "150142.572500", "150143.032500", "150143.492500", "150143.952500", "150144.412500", "150144.872500", "150145.332500", "150145.792500", "150146.252500", "150146.712500", "150147.172500", "150147.632500", "150148.092500", "150148.552500", "150149.012500", "150149.472500", "150149.932500", "150150.392500", "150150.852500", "150151.312500", "150151.772500", "150152.232500", "150152.692500", "150153.152500", "150153.612500", "150154.072500", "150154.532500", "150154.992500", "150155.452500", "150155.912500", "150156.372500", "150156.832500", "150157.292500", "150157.752500", "150158.212500", "150158.672500", "150159.132500", "150159.592500", "150200.052500", "150200.512500", "150200.972500", "150201.432500", "150201.892500", "150202.352500", "150202.812500", "150203.272500", "150203.732500", "150204.192500", "150204.652500", "150205.112500", "150205.572500", "150206.032500", "150206.492500", "150206.952500", "150207.412500", "150207.872500", "150208.332500", "150208.792500", "150209.252500", "150209.712500", "150210.172500", "150210.632500", "150211.092500", "150211.552500", "150212.012500", "150212.472500", "150212.932500", "150213.392500", "150213.852500", "150214.312500", "150214.772500", "150215.232500", "150215.692500", "150216.152500", "150216.612500", "150217.072500", "150217.532500", "150217.992500", "150218.452500", "150218.912500", "150219.372500", "150219.832500", "150220.292500", "150220.752500", "150221.212500", "150221.672500", "150222.132500", "150222.592500", "150223.052500", "150223.512500", "150223.972500", "150224.432500", "150224.892500", "150225.352500", "150225.812500", "150226.272500", "150226.732500", "150227.192500", "150227.652500", "150228.112500", "150228.572500", "150229.032500", "150229.492500", "150229.952500", "150230.412500", "150230.872500", "150231.332500", "150231.792500", "150232.252500", "150232.712500", "150233.172500", "150233.632500", "150234.092500", "150234.552500", "150235.012500", "150235.472500", "150235.932500", "150236.392500", "150236.852500", "150237.312500", "150237.772500", "150238.232500", "150238.692500", "150239.152500", "150239.612500", "150240.072500", "150240.532500", "150240.992500", "150241.452500", "150241.912500", "150242.372500", "150242.832500", "150243.292500", "150243.752500", "150244.212500", "150244.672500", "150245.132500", "150245.592500", "150246.052500", "150246.512500", "150246.972500", "150247.432500", "150247.892500", "150248.352500", "150248.812500", "150249.272500", "150249.732500", "150250.192500", "150250.652500", "150251.112500", "150251.572500", "150252.032500", "150252.492500", "150252.952500", "150253.412500", "150253.872500", "150254.332500", "150254.792500", "150255.252500", "150255.712500", "150256.172500", "150256.632500", "150257.092500", "150257.552500", "150258.012500", "150258.472500", "150258.932500", "150259.392500", "150259.852500", "150300.312500", "150300.772500", "150301.232500", "150301.692500", "150302.152500", "150302.612500", "150303.072500", "150303.532500", "150303.992500", "150304.452500", "150304.912500", "150305.372500", "150305.832500", "150306.292500", "150306.752500", "150307.212500", "150307.672500", "150308.132500", "150308.592500", "150309.052500", "150309.512500", "150309.972500", "150310.432500", "150310.892500", "150311.352500", "150311.812500", "150312.272500", "150312.732500", "150313.192500", "150313.652500", "150314.112500", "150314.572500", "150315.032500", "150315.492500", "150315.952500", "150316.412500", "150316.872500", "150317.332500", "150317.792500", "150318.252500", "150318.712500", "150319.172500", "150319.632500", "150320.092500", "150320.552500", "150321.012500", "150321.472500", "150321.932500", "150322.392500", "150322.852500", "150323.312500", "150323.772500", "150324.232500", "150324.692500", "150325.152500", "150325.612500", "150326.072500", "150326.532500", "150326.992500", "150327.452500", "150327.912500", "150328.372500", "150328.832500", "150329.292500", "150329.752500", "150330.212500", "150330.672500", "150331.132500", "150331.592500", "150332.052500", "150332.512500", "150332.972500", "150333.432500", "150333.892500", "150334.352500", "150334.812500", "150335.272500", "150335.732500", "150336.192500", "150336.652500", "150337.112500", "150337.572500", "150338.032500", "150338.492500", "150338.952500", "150339.412500", "150339.872500", "150340.332500", "150340.792500", "150341.252500", "150341.712500", "150342.172500", "150342.632500", "150343.092500", "150343.552500", "150344.012500", "150344.472500", "150344.932500", "150345.392500", "150345.852500", "150346.312500", "150346.772500", "150347.232500", "150347.692500", "150348.152500", "150348.612500", "150349.072500", "150349.532500", "150349.992500", "150350.452500", "150350.912500", "150351.372500", "150351.832500", "150352.292500", "150352.752500", "150353.212500", "150353.672500", "150354.132500", "150354.592500", "150355.052500", "150355.512500", "150355.972500", "150356.432500", "150356.892500", "150357.352500", "150357.812500", "150358.272500", "150358.732500", "150359.192500", "150359.652500", "150400.112500", "150400.572500", "150401.032500", "150401.492500", "150401.952500", "150402.412500", "150402.872500", "150403.332500", "150403.792500", "150404.252500", "150404.712500", "150405.172500", "150405.632500", "150406.092500", "150406.552500", "150407.012500", "150407.472500", "150407.932500", "150408.392500", "150408.852500", "150409.312500", "150409.772500", "150410.232500", "150410.692500", "150411.152500", "150411.612500", "150412.072500", "150412.532500", "150412.992500", "150413.452500", "150413.912500", "150414.372500", "150414.832500", "150415.292500", "150415.752500", "150416.212500", "150416.672500", "150417.132500", "150417.592500", "150418.052500", "150418.512500", "150418.972500", "150419.432500", "150419.892500", "150420.352500", "150420.812500", "150421.272500", "150421.732500", "150422.192500", "150422.652500", "150423.112500", "150423.572500", "150424.032500", "150424.492500", "150424.952500", "150425.412500", "150425.872500", "150426.332500", "150426.792500", "150427.252500", "150427.712500", "150428.172500", "150428.632500", "150429.092500", "150429.552500", "150430.012500", "150430.472500", "150430.932500", "150431.392500", "150431.852500", "150432.312500", "150432.772500", "150433.232500", "150433.692500", "150434.152500", "150434.612500", "150435.072500", "150435.532500", "150435.992500", "150436.452500", "150436.912500", "150437.372500", "150437.832500", "150438.292500", "150438.752500", "150439.212500", "150439.672500", "150440.132500", "150440.592500", "150441.052500", "150441.512500", "150441.972500", "150442.432500", "150442.892500", "150443.352500", "150443.812500", "150444.272500", "150444.732500", "150445.192500", "150445.652500", "150446.112500", "150446.572500", "150447.032500", "150447.492500", "150447.952500", "150448.412500", "150448.872500", "150449.332500", "150449.792500", "150450.252500", "150450.712500", "150451.172500", "150451.632500", "150452.092500", "150452.552500", "150453.012500", "150453.472500", "150453.932500", "150454.392500", "150454.852500", "150455.312500", "150455.772500", "150456.232500", "150456.692500", "150457.152500", "150457.612500", "150458.072500", "150458.532500", "150458.992500", "150459.452500", "150459.912500", "150500.372500", "150500.832500", "150501.292500", "150501.752500", "150502.212500", "150502.672500", "150503.132500", "150503.592500", "150504.052500", "150504.512500", "150504.972500", "150505.432500", "150505.892500", "150506.352500", "150506.812500", "150507.272500", "150507.732500", "150508.192500", "150508.652500", "150509.112500", "150509.572500", "150510.032500", "150510.492500"],
