{
  "AcquisitionMatrixPE": 82,
  "AcquisitionNumber": 1,
  "AcquisitionTime": "14:24:33.010000",
  "BandwidthPerPixelPhaseEncode": 24.888,
  "BaseResolution": 82,
  "BodyPartExamined": "BRAIN",
  "ConsistencyInfo": "N4_VE11C_LATEST_20160120",
  "ConversionSoftware": "dcm2niix",
  "ConversionSoftwareVersion": "v1.0.20201102",
  "DerivedVendorReportedEchoSpacing": 0.00049,
  "DeviceSerialNumber": "66112",
  "DwellTime": 2e-06,
  "EchoTime": 0.0272,
  "EchoTrainLength": 82,
  "EffectiveEchoSpacing": 0.00049,
  "FlipAngle": 44,
  "ImageComments": "Unaliased MB8/PE3",
  "ImageOrientationPatientDICOM": [0.998402, 0.0161273, 0.0541662, -0.00975851, 0.993219, -0.115848],
  "ImageType": [
    "ORIGINAL",
    "PRIMARY",
    "M",
    "MB",
    "ND",
    "NORM",
    "MOSAIC"
],
  "ImagingFrequency": 123.252,
  "InPlanePhaseEncodingDirectionDICOM": "COL",
  "InstitutionAddress": "Maynard 3,Hanover,NH,US,03755",
  "InstitutionName": "Dartmouth College - PBS",
  "InstitutionalDepartmentName": "Department",
  "MRAcquisitionType": "2D",
  "MagneticFieldStrength": 3,
  "Manufacturer": "Siemens",
  "ManufacturersModelName": "Prisma",
  "Modality": "MR",
  "MultibandAccelerationFactor": 8,
  "PartialFourier": 1,
  "PatientPosition": "HFS",
  "PercentPhaseFOV": 100,
  "PercentSampling": 100,
  "PhaseEncodingDirection": "j-",
  "PhaseEncodingSteps": 82,
  "PhaseResolution": 1,
  "PixelBandwidth": 3050,
  "ProcedureStepDescription": "Wager_Wager^1076_spacetop",
  "ProtocolName": "func_run-03_task-social_acq-ap-mb8",
  "PulseSequenceDetails": "%CustomerSeq%\\cmrr_mbep2d_bold",
  "ReceiveCoilActiveElements": "HEA;HEP",
  "ReceiveCoilName": "Head_32",
  "ReconMatrixPE": 82,
  "RepetitionTime": 0.46,
  "SAR": 0.0715621,
  "ScanOptions": "FS",
  "ScanningSequence": "EP",
  "SequenceName": "epfid2d1_82",
  "SequenceVariant": "SK\\SS",
  "SeriesDescription": "func_run-03_task-social_acq-ap-mb8",
  "SeriesNumber": 18,
  "ShimSetting": [4163, -7717, -7286, 657, -62, -18, 9, 91],
  "SliceThickness": 2.7,
  "SliceTiming": [0, 0.2525, 0.0625, 0.315, 0.125, 0.3775, 0.19, 0, 0.2525, 0.0625, 0.315, 0.125, 0.3775, 0.19, 0, 0.2525, 0.0625, 0.315, 0.125, 0.3775, 0.19, 0, 0.2525, 0.0625, 0.315, 0.125, 0.3775, 0.19, 0, 0.2525, 0.0625, 0.315, 0.125, 0.3775, 0.19, 0, 0.2525, 0.0625, 0.315, 0.125, 0.3775, 0.19, 0, 0.2525, 0.0625, 0.315, 0.125, 0.3775, 0.19, 0, 0.2525, 0.0625, 0.315, 0.125, 0.3775, 0.19],
  "SoftwareVersions": "syngo MR E11",
  "SpacingBetweenSlices": 2.7,
  "StationName": "AWP66112",
  "TaskName": "social",
  "TotalReadoutTime": 0.03969,
  "TxRefAmp": 227.296,
  "WipMemBlock": "48240e5e-a679-40e7-8c1e-26e91e74dbf9||Sequence: R016 ve11c/master r/e634e98; Dec 19 2017 11:00:25 by eja",
  "dcmmeta_affine": [
    [-2.6786386966705322, -0.026181375607848167, 0.15030157566070557, 112.2219467163086],
    [-0.04326846823096275, 2.66473388671875, -0.3108631372451782, -70.58336639404297],
    [0.14532403647899628, 0.3108123540878296, 2.6778299808502197, -74.68352508544922],
    [0.0, 0.0, 0.0, 1.0]
],
  "dcmmeta_reorient_transform": [
    [0.0, -1.0, 0.0, 81.0],
    [1.0, 0.0, 0.0, 0.0],
    [0.0, 0.0, 1.0, 0.0],
    [0.0, 0.0, 0.0, 1.0]
],
  "dcmmeta_shape": [82, 82, 56, 872],
  "dcmmeta_slice_dim": 2,
  "dcmmeta_version": 0.6,
  "global": {
    "const": {
      "AccessionNumber": "A003469",
      "AcquisitionMatrix": [82, 0, 0, 82],
      "AngioFlag": "N",
      "BitsAllocated": 16,
      "BitsStored": 16,
      "BodyPartExamined": "BRAIN",
      "Columns": 656,
      "EchoNumbers": 1,
      "EchoTime": 27.2,
      "EchoTrainLength": 82,
      "FlipAngle": 44.0,
      "HighBit": 15,
      "ImageOrientationPatient": [0.9984016870034, 0.01612733722496, 0.05416622917284, -0.0097585124326, 0.99321898739125, -0.1158482391778],
      "ImagePositionPatient": [-871.3565169751, -922.45677002401, -2.0125735843221],
      "ImageType": [
        "ORIGINAL",
        "PRIMARY",
        "M",
        "MB",
        "ND",
        "NORM",
        "MOSAIC"
],
      "ImagedNucleus": "1H",
      "ImagingFrequency": 123.252135,
      "InPlanePhaseEncodingDirection": "COL",
      "MRAcquisitionType": "2D",
      "MagneticFieldStrength": 3.0,
      "Manufacturer": "SIEMENS",
      "ManufacturerModelName": "Prisma",
      "Modality": "MR",
      "NumberOfAverages": 1.0,
      "NumberOfPhaseEncodingSteps": 82,
      "PercentPhaseFieldOfView": 100.0,
      "PercentSampling": 100.0,
      "PerformedProcedureStepStartTime": "131750.328000",
      "PhotometricInterpretation": "MONOCHROME2",
      "PixelBandwidth": 3050.0,
      "PixelRepresentation": 0,
      "PixelSpacing": [2.6829268932343, 2.6829268932343],
      "ProtocolName": "func_run-03_task-social_acq-ap-mb8",
      "RepetitionTime": 460.0,
      "Rows": 656,
      "SAR": 0.0715620945632,
      "SamplesPerPixel": 1,
      "ScanOptions": "FS",
      "ScanningSequence": "EP",
      "SequenceName": "epfid2d1_82",
      "SequenceVariant": [
        "SK",
        "SS"
],
      "SeriesDescription": "func_run-03_task-social_acq-ap-mb8",
      "SeriesNumber": 18,
      "SeriesTime": "142452.981000",
      "SliceLocation": -59.696621200948,
      "SliceThickness": 2.7000000476837,
      "SmallestImagePixelValue": 0,
      "SoftwareVersions": "syngo MR E11",
      "SpacingBetweenSlices": 2.700000014031,
      "SpecificCharacterSet": "ISO_IR 100",
      "StudyID": "1",
      "StudyTime": "131750.202000",
      "TransmitCoilName": "Body",
      "VariableFlipAngleFlag": "N",
      "WindowCenterWidthExplanation": "Algo1",
      "dBdt": 0.0},
    "slices": {}
  },
  "time": {
    "samples": {
      "AcquisitionNumber": [1, 2, 3, 4, 5, 6, 7, 8, 9, 10, 11, 12, 13, 14, 15, 16, 17, 18, 19, 20, 21, 22, 23, 24, 25, 26, 27, 28, 29, 30, 31, 32, 33, 34, 35, 36, 37, 38, 39, 40, 41, 42, 43, 44, 45, 46, 47, 48, 49, 50, 51, 52, 53, 54, 55, 56, 57, 58, 59, 60, 61, 62, 63, 64, 65, 66, 67, 68, 69, 70, 71, 72, 73, 74, 75, 76, 77, 78, 79, 80, 81, 82, 83, 84, 85, 86, 87, 88, 89, 90, 91, 92, 93, 94, 95, 96, 97, 98, 99, 100, 101, 102, 103, 104, 105, 106, 107, 108, 109, 110, 111, 112, 113, 114, 115, 116, 117, 118, 119, 120, 121, 122, 123, 124, 125, 126, 127, 128, 129, 130, 131, 132, 133, 134, 135, 136, 137, 138, 139, 140, 141, 142, 143, 144, 145, 146, 147, 148, 149, 150, 151, 152, 153, 154, 155, 156, 157, 158, 159, 160, 161, 162, 163, 164, 165, 166, 167, 168, 169, 170, 171, 172, 173, 174, 175, 176, 177, 178, 179, 180, 181, 182, 183, 184, 185, 186, 187, 188, 189, 190, 191, 192, 193, 194, 195, 196, 197, 198, 199, 200, 201, 202, 203, 204, 205, 206, 207, 208, 209, 210, 211, 212, 213, 214, 215, 216, 217, 218, 219, 220, 221, 222, 223, 224, 225, 226, 227, 228, 229, 230, 231, 232, 233, 234, 235, 236, 237, 238, 239, 240, 241, 242, 243, 244, 245, 246, 247, 248, 249, 250, 251, 252, 253, 254, 255, 256, 257, 258, 259, 260, 261, 262, 263, 264, 265, 266, 267, 268, 269, 270, 271, 272, 273, 274, 275, 276, 277, 278, 279, 280, 281, 282, 283, 284, 285, 286, 287, 288, 289, 290, 291, 292, 293, 294, 295, 296, 297, 298, 299, 300, 301, 302, 303, 304, 305, 306, 307, 308, 309, 310, 311, 312, 313, 314, 315, 316, 317, 318, 319, 320, 321, 322, 323, 324, 325, 326, 327, 328, 329, 330, 331, 332, 333, 334, 335, 336, 337, 338, 339, 340, 341, 342, 343, 344, 345, 346, 347, 348, 349, 350, 351, 352, 353, 354, 355, 356, 357, 358, 359, 360, 361, 362, 363, 364, 365, 366, 367, 368, 369, 370, 371, 372, 373, 374, 375, 376, 377, 378, 379, 380, 381, 382, 383, 384, 385, 386, 387, 388, 389, 390, 391, 392, 393, 394, 395, 396, 397, 398, 399, 400, 401, 402, 403, 404, 405, 406, 407, 408, 409, 410, 411, 412, 413, 414, 415, 416, 417, 418, 419, 420, 421, 422, 423, 424, 425, 426, 427, 428, 429, 430, 431, 432, 433, 434, 435, 436, 437, 438, 439, 440, 441, 442, 443, 444, 445, 446, 447, 448, 449, 450, 451, 452, 453, 454, 455, 456, 457, 458, 459, 460, 461, 462, 463, 464, 465, 466, 467, 468, 469, 470, 471, 472, 473, 474, 475, 476, 477, 478, 479, 480, 481, 482, 483, 484, 485, 486, 487, 488, 489, 490, 491, 492, 493, 494, 495, 496, 497, 498, 499, 500, 501, 502, 503, 504, 505, 506, 507, 508, 509, 510, 511, 512, 513, 514, 515, 516, 517, 518, 519, 520, 521, 522, 523, 524, 525, 526, 527, 528, 529, 530, 531, 532, 533, 534, 535, 536, 537, 538, 539, 540, 541, 542, 543, 544, 545, 546, 547, 548, 549, 550, 551, 552, 553, 554, 555, 556, 557, 558, 559, 560, 561, 562, 563, 564, 565, 566, 567, 568, 569, 570, 571, 572, 573, 574, 575, 576, 577, 578, 579, 580, 581, 582, 583, 584, 585, 586, 587, 588, 589, 590, 591, 592, 593, 594, 595, 596, 597, 598, 599, 600, 601, 602, 603, 604, 605, 606, 607, 608, 609, 610, 611, 612, 613, 614, 615, 616, 617, 618, 619, 620, 621, 622, 623, 624, 625, 626, 627, 628, 629, 630, 631, 632, 633, 634, 635, 636, 637, 638, 639, 640, 641, 642, 643, 644, 645, 646, 647, 648, 649, 650, 651, 652, 653, 654, 655, 656, 657, 658, 659, 660, 661, 662, 663, 664, 665, 666, 667, 668, 669, 670, 671, 672, 673, 674, 675, 676, 677, 678, 679, 680, 681, 682, 683, 684, 685, 686, 687, 688, 689, 690, 691, 692, 693, 694, 695, 696, 697, 698, 699, 700, 701, 702, 703, 704, 705, 706, 707, 708, 709, 710, 711, 712, 713, 714, 715, 716, 717, 718, 719, 720, 721, 722, 723, 724, 725, 726, 727, 728, 729, 730, 731, 732, 733, 734, 735, 736, 737, 738, 739, 740, 741, 742, 743, 744, 745, 746, 747, 748, 749, 750, 751, 752, 753, 754, 755, 756, 757, 758, 759, 760, 761, 762, 763, 764, 765, 766, 767, 768, 769, 770, 771, 772, 773, 774, 775, 776, 777, 778, 779, 780, 781, 782, 783, 784, 785, 786, 787, 788, 789, 790, 791, 792, 793, 794, 795, 796, 797, 798, 799, 800, 801, 802, 803, 804, 805, 806, 807, 808, 809, 810, 811, 812, 813, 814, 815, 816, 817, 818, 819, 820, 821, 822, 823, 824, 825, 826, 827, 828, 829, 830, 831, 832, 833, 834, 835, 836, 837, 838, 839, 840, 841, 842, 843, 844, 845, 846, 847, 848, 849, 850, 851, 852, 853, 854, 855, 856, 857, 858, 859, 860, 861, 862, 863, 864, 865, 866, 867, 868, 869, 870, 871, 872],
      "AcquisitionTime": ["142433.010000", "142433.470000", "142433.930000", "142434.390000", "142434.850000", "142435.310000", "142435.770000", "142436.230000", "142436.690000", "142437.150000", "142437.610000", "142438.070000", "142438.530000", "142438.990000", "142439.450000", "142439.910000", "142440.370000", "142440.830000", "142441.290000", "142441.750000", "142442.210000", "142442.670000", "142443.130000", "142443.590000", "142444.050000", "142444.510000", "142444.970000", "142445.430000", "142445.890000", "142446.350000", "142446.810000", "142447.270000", "142447.730000", "142448.190000", "142448.650000", "142449.110000", "142449.570000", "142450.030000", "142450.490000", "142450.950000", "142451.410000", "142451.870000", "142452.330000", "142452.790000", "142453.250000", "142453.710000", "142454.170000", "142454.630000", "142455.090000", "142455.550000", "142456.010000", "142456.470000", "142456.930000", "142457.390000", "142457.850000", "142458.310000", "142458.770000", "142459.230000", "142459.690000", "142500.150000", "142500.610000", "142501.070000", "142501.530000", "142501.990000", "142502.450000", "142502.910000", "142503.370000", "142503.830000", "142504.290000", "142504.750000", "142505.210000", "142505.670000", "142506.130000", "142506.590000", "142507.050000", "142507.510000", "142507.970000", "142508.430000", "142508.890000", "142509.350000", "142509.810000", "142510.270000", "142510.730000", "142511.190000", "142511.650000", "142512.110000", "142512.570000", "142513.030000", "142513.490000", "142513.950000", "142514.410000", "142514.870000", "142515.330000", "142515.790000", "142516.250000", "142516.710000", "142517.170000", "142517.630000", "142518.090000", "142518.550000", "142519.010000", "142519.470000", "142519.930000", "142520.390000", "142520.850000", "142521.310000", "142521.770000", "142522.230000", "142522.690000", "142523.150000", "142523.610000", "142524.070000", "142524.530000", "142524.990000", "142525.450000", "142525.910000", "142526.370000", "142526.830000", "142527.290000", "142527.750000", "142528.210000", "142528.670000", "142529.130000", "142529.590000", "142530.050000", "142530.510000", "142530.970000", "142531.430000", "142531.890000", "142532.350000", "142532.810000", "142533.270000", "142533.730000", "142534.190000", "142534.650000", "142535.110000", "142535.570000", "142536.030000", "142536.490000", "142536.950000", "142537.410000", "142537.870000", "142538.330000", "142538.790000", "142539.250000", "142539.710000", "142540.170000", "142540.630000", "142541.090000", "142541.550000", "142542.010000", "142542.470000", "142542.930000", "142543.390000", "142543.850000", "142544.310000", "142544.770000", "142545.230000", "142545.690000", "142546.150000", "142546.610000", "142547.070000", "142547.530000", "142547.990000", "142548.450000", "142548.910000", "142549.370000", "142549.830000", "142550.290000", "142550.750000", "142551.210000", "142551.670000", "142552.130000", "142552.590000", "142553.050000", "142553.510000", "142553.970000", "142554.430000", "142554.890000", "142555.350000", "142555.810000", "142556.270000", "142556.730000", "142557.190000", "142557.650000", "142558.110000", "142558.570000", "142559.030000", "142559.490000", "142559.950000", "142600.410000", "142600.870000", "142601.330000", "142601.790000", "142602.250000", "142602.710000", "142603.170000", "142603.630000", "142604.090000", "142604.550000", "142605.010000", "142605.470000", "142605.930000", "142606.390000", "142606.850000", "142607.310000", "142607.770000", "142608.230000", "142608.690000", "142609.150000", "142609.610000", "142610.070000", "142610.530000", "142610.990000", "142611.450000", "142611.910000", "142612.370000", "142612.830000", "142613.290000", "142613.750000", "142614.210000", "142614.670000", "142615.130000", "142615.590000", "142616.050000", "142616.510000", "142616.970000", "142617.430000", "142617.890000", "142618.350000", "142618.810000", "142619.270000", "142619.730000", "142620.190000", "142620.650000", "142621.110000", "142621.570000", "142622.030000", "142622.490000", "142622.950000", "142623.410000", "142623.870000", "142624.330000", "142624.790000", "142625.250000", "142625.710000", "142626.170000", "142626.630000", "142627.090000", "142627.550000", "142628.010000", "142628.470000", "142628.930000", "142629.390000", "142629.850000", "142630.310000", "142630.770000", "142631.230000", "142631.690000", "142632.150000", "142632.610000", "142633.070000", "142633.530000", "142633.990000", "142634.450000", "142634.910000", "142635.370000", "142635.830000", "142636.290000", "142636.750000", "142637.210000", "142637.670000", "142638.130000", "142638.590000", "142639.050000", "142639.510000", "142639.970000", "142640.430000", "142640.890000", "142641.350000", "142641.810000", "142642.270000", "142642.730000", "142643.190000", "142643.650000", "142644.110000", "142644.570000", "142645.030000", "142645.490000", "142645.950000", "142646.410000", "142646.870000", "142647.330000", "142647.790000", "142648.250000", "142648.710000", "142649.170000", "142649.630000", "142650.090000", "142650.550000", "142651.010000", "142651.470000", "142651.930000", "142652.390000", "142652.850000", "142653.310000", "142653.770000", "142654.230000", "142654.690000", "142655.150000", "142655.610000", "142656.070000", "142656.530000", "142656.990000", "142657.450000", "142657.910000", "142658.370000", "142658.830000", "142659.290000", "142659.750000", "142700.210000", "142700.670000", "142701.130000", "142701.590000", "142702.050000", "142702.510000", "142702.970000", "142703.430000", "142703.890000", "142704.350000", "142704.810000", "142705.270000", "142705.730000", "142706.190000", "142706.650000", "142707.110000", "142707.570000", "142708.030000", "142708.490000", "142708.950000", "142709.410000", "142709.870000", "142710.330000", "142710.790000", "142711.250000", "142711.710000", "142712.170000", "142712.630000", "142713.090000", "142713.550000", "142714.010000", "142714.470000", "142714.930000", "142715.390000", "142715.850000", "142716.310000", "142716.770000", "142717.230000", "142717.690000", "142718.150000", "142718.610000", "142719.070000", "142719.530000", "142719.990000", "142720.450000", "142720.910000", "142721.370000", "142721.830000", "142722.290000", "142722.750000", "142723.210000", "142723.670000", "142724.130000", "142724.590000", "142725.050000", "142725.510000", "142725.970000", "142726.430000", "142726.890000", "142727.350000", "142727.810000", "142728.270000", "142728.730000", "142729.190000", "142729.650000", "142730.110000", "142730.570000", "142731.030000", "142731.490000", "142731.950000", "142732.410000", "142732.870000", "142733.330000", "142733.790000", "142734.250000", "142734.710000", "142735.170000", "142735.630000", "142736.090000", "142736.550000", "142737.010000", "142737.470000", "142737.930000", "142738.390000", "142738.850000", "142739.310000", "142739.770000", "142740.230000", "142740.690000", "142741.150000", "142741.610000", "142742.070000", "142742.530000", "142742.990000", "142743.450000", "142743.910000", "142744.370000", "142744.830000", "142745.290000", "142745.750000", "142746.210000", "142746.670000", "142747.130000", "142747.590000", "142748.050000", "142748.510000", "142748.970000", "142749.430000", "142749.890000", "142750.350000", "142750.810000", "142751.270000", "142751.730000", "142752.190000", "142752.650000", "142753.110000", "142753.570000", "142754.030000", "142754.490000", "142754.950000", "142755.410000", "142755.870000", "142756.330000", "142756.790000", "142757.250000", "142757.710000", "142758.170000", "142758.630000", "142759.090000", "142759.550000", "142800.010000", "142800.470000", "142800.930000", "142801.390000", "142801.850000", "142802.310000", "142802.770000", "142803.230000", "142803.690000", "142804.150000", "142804.610000", "142805.070000", "142805.530000", "142805.990000", "142806.450000", "142806.910000", "142807.370000", "142807.830000", "142808.290000", "142808.750000", "142809.210000", "142809.670000", "142810.130000", "142810.590000", "142811.050000", "142811.510000", "142811.970000", "142812.430000", "142812.890000", "142813.350000", "142813.810000", "142814.270000", "142814.730000", "142815.190000", "142815.650000", "142816.110000", "142816.570000", "142817.030000", "142817.490000", "142817.950000", "142818.410000", "142818.870000", "142819.330000", "142819.790000", "142820.250000", "142820.710000", "142821.170000", "142821.630000", "142822.090000", "142822.550000", "142823.010000", "142823.470000", "142823.930000", "142824.390000", "142824.850000", "142825.310000", "142825.770000", "142826.230000", "142826.690000", "142827.150000", "142827.610000", "142828.070000", "142828.530000", "142828.990000", "142829.450000", "142829.910000", "142830.370000", "142830.830000", "142831.290000", "142831.750000", "142832.210000", "142832.670000", "142833.130000", "142833.590000", "142834.050000", "142834.510000", "142834.970000", "142835.430000", "142835.890000", "142836.350000", "142836.810000", "142837.270000", "142837.730000", "142838.190000", "142838.650000", "142839.110000", "142839.570000", "142840.030000", "142840.490000", "142840.950000", "142841.410000", "142841.870000", "142842.330000", "142842.790000", "142843.250000", "142843.710000", "142844.170000", "142844.630000", "142845.090000", "142845.550000", "142846.010000", "142846.470000", "142846.930000", "142847.390000", "142847.850000", "142848.310000", "142848.770000", "142849.230000", "142849.690000", "142850.150000", "142850.610000", "142851.070000", "142851.530000", "142851.990000", "142852.450000", "142852.910000", "142853.370000", "142853.830000", "142854.290000", "142854.750000", "142855.210000", "142855.670000", "142856.130000", "142856.590000", "142857.050000", "142857.510000", "142857.970000", "142858.430000", "142858.890000", "142859.350000", "142859.810000", "142900.270000", "142900.730000", "142901.190000", "142901.650000", "142902.110000", "142902.570000", "142903.030000", "142903.490000", "142903.950000", "142904.410000", "142904.870000", "142905.330000", "142905.790000", "142906.250000", "142906.710000", "142907.170000", "142907.630000", "142908.090000", "142908.550000", "142909.010000", "142909.470000", "142909.930000", "142910.390000", "142910.850000", "142911.310000", "142911.770000", "142912.230000", "142912.690000", "142913.150000", "142913.610000", "142914.070000", "142914.530000", "142914.990000", "142915.450000", "142915.910000", "142916.370000", "142916.830000", "142917.290000", "142917.750000", "142918.210000", "142918.670000", "142919.130000", "142919.590000", "142920.050000", "142920.510000", "142920.970000", "142921.430000", "142921.890000", "142922.350000", "142922.810000", "142923.270000", "142923.730000", "142924.190000", "142924.650000", "142925.110000", "142925.570000", "142926.030000", "142926.490000", "142926.950000", "142927.410000", "142927.870000", "142928.330000", "142928.790000", "142929.250000", "142929.710000", "142930.170000", "142930.630000", "142931.090000", "142931.550000", "142932.010000", "142932.470000", "142932.930000", "142933.390000", "142933.850000", "142934.310000", "142934.770000", "142935.230000", "142935.690000", "142936.150000", "142936.610000", "142937.070000", "142937.530000", "142937.990000", "142938.450000", "142938.910000", "142939.370000", "142939.830000", "142940.290000", "142940.750000", "142941.210000", "142941.670000", "142942.130000", "142942.590000", "142943.050000", "142943.510000", "142943.970000", "142944.430000", "142944.890000", "142945.350000", "142945.810000", "142946.270000", "142946.730000", "142947.190000", "142947.650000", "142948.110000", "142948.570000", "142949.030000", "142949.490000", "142949.950000", "142950.410000", "142950.870000", "142951.330000", "142951.790000", "142952.250000", "142952.710000", "142953.170000", "142953.630000", "142954.090000", "142954.550000", "142955.010000", "142955.470000", "142955.930000", "142956.390000", "142956.850000", "142957.310000", "142957.770000", "142958.230000", "142958.690000", "142959.150000", "142959.610000", "143000.070000", "143000.530000", "143000.990000", "143001.450000", "143001.910000", "143002.370000", "143002.830000", "143003.290000", "143003.750000", "143004.210000", "143004.670000", "143005.130000", "143005.590000", "143006.050000", "143006.510000", "143006.970000", "143007.430000", "143007.890000", "143008.350000", "143008.810000", "143009.270000", "143009.730000", "143010.190000", "143010.650000", "143011.110000", "143011.570000", "143012.030000", "143012.490000", "143012.950000", "143013.410000", "143013.870000", "143014.330000", "143014.790000", "143015.250000", "143015.710000", "143016.170000", "143016.630000", "143017.090000", "143017.550000", "143018.010000", "143018.470000", "143018.930000", "143019.390000", "143019.850000", "143020.310000", "143020.770000", "143021.230000", "143021.690000", "143022.150000", "143022.610000", "143023.070000", "143023.530000", "143023.990000", "143024.450000", "143024.910000", "143025.370000", "143025.830000", "143026.290000", "143026.750000", "143027.210000", "143027.670000", "143028.130000", "143028.590000", "143029.050000", "143029.510000", "143029.970000", "143030.430000", "143030.890000", "143031.350000", "143031.810000", "143032.270000", "143032.730000", "143033.190000", "143033.650000", "143034.110000", "143034.570000", "143035.030000", "143035.490000", "143035.950000", "143036.410000", "143036.870000", "143037.330000", "143037.790000", "143038.250000", "143038.710000", "143039.170000", "143039.630000", "143040.090000", "143040.550000", "143041.010000", "143041.470000", "143041.930000", "143042.390000", "143042.850000", "143043.310000", "143043.770000", "143044.230000", "143044.690000", "143045.150000", "143045.610000", "143046.070000", "143046.530000", "143046.990000", "143047.450000", "143047.910000", "143048.370000", "143048.830000", "143049.290000", "143049.750000", "143050.210000", "143050.670000", "143051.130000", "143051.590000", "143052.050000", "143052.510000", "143052.970000", "143053.430000", "143053.890000", "143054.350000", "143054.810000", "143055.270000", "143055.730000", "143056.190000", "143056.650000", "143057.110000", "143057.570000", "143058.030000", "143058.490000", "143058.950000", "143059.410000", "143059.870000", "143100.330000", "143100.790000", "143101.250000", "143101.710000", "143102.170000", "143102.630000", "143103.090000", "143103.550000", "143104.010000", "143104.470000", "143104.930000", "143105.390000", "143105.850000", "143106.310000", "143106.770000", "143107.230000", "143107.690000", "143108.150000", "143108.610000", "143109.070000", "143109.530000", "143109.990000", "143110.450000", "143110.910000", "143111.370000", "143111.830000", "143112.290000", "143112.750000", "143113.210000", "143113.670000"],
