{
  "AcquisitionMatrixPE": 82,
  "AcquisitionNumber": 1,
  "AcquisitionTime": "14:31:33.212500",
  "BandwidthPerPixelPhaseEncode": 24.888,
  "BaseResolution": 82,
  "BodyPartExamined": "BRAIN",
  "ConsistencyInfo": "N4_VE11C_LATEST_20160120",
  "ConversionSoftware": "dcm2niix",
  "ConversionSoftwareVersion": "v1.0.20201102",
  "DerivedVendorReportedEchoSpacing": 0.00049,
  "DeviceSerialNumber": "66112",
  "DwellTime": 2e-06,
  "EchoTime": 0.0272,
  "EchoTrainLength": 82,
  "EffectiveEchoSpacing": 0.00049,
  "FlipAngle": 44,
  "ImageComments": "Unaliased MB8/PE3",
  "ImageOrientationPatientDICOM": [0.998402, 0.0161273, 0.0541662, -0.00975851, 0.993219, -0.115848],
  "ImageType": [
    "ORIGINAL",
    "PRIMARY",
    "M",
    "MB",
    "ND",
    "NORM",
    "MOSAIC"
],
  "ImagingFrequency": 123.252,
  "InPlanePhaseEncodingDirectionDICOM": "COL",
  "InstitutionAddress": "Maynard 3,Hanover,NH,US,03755",
  "InstitutionName": "Dartmouth College - PBS",
  "InstitutionalDepartmentName": "Department",
  "MRAcquisitionType": "2D",
  "MagneticFieldStrength": 3,
  "Manufacturer": "Siemens",
  "ManufacturersModelName": "Prisma",
  "Modality": "MR",
  "MultibandAccelerationFactor": 8,
  "PartialFourier": 1,
  "PatientPosition": "HFS",
  "PercentPhaseFOV": 100,
  "PercentSampling": 100,
  "PhaseEncodingDirection": "j-",
  "PhaseEncodingSteps": 82,
  "PhaseResolution": 1,
  "PixelBandwidth": 3050,
  "ProcedureStepDescription": "Wager_Wager^1076_spacetop",
  "ProtocolName": "func_run-04_task-social_acq-ap-mb8",
  "PulseSequenceDetails": "%CustomerSeq%\\cmrr_mbep2d_bold",
  "ReceiveCoilActiveElements": "HEA;HEP",
  "ReceiveCoilName": "Head_32",
  "ReconMatrixPE": 82,
  "RepetitionTime": 0.46,
  "SAR": 0.0715621,
  "ScanOptions": "FS",
  "ScanningSequence": "EP",
  "SequenceName": "epfid2d1_82",
  "SequenceVariant": "SK\\SS",
  "SeriesDescription": "func_run-04_task-social_acq-ap-mb8",
  "SeriesNumber": 20,
  "ShimSetting": [4163, -7717, -7286, 657, -62, -18, 9, 91],
  "SliceThickness": 2.7,
  "SliceTiming": [0, 0.2525, 0.065, 0.315, 0.1275, 0.3775, 0.19, 0, 0.2525, 0.065, 0.315, 0.1275, 0.3775, 0.19, 0, 0.2525, 0.065, 0.315, 0.1275, 0.3775, 0.19, 0, 0.2525, 0.065, 0.315, 0.1275, 0.3775, 0.19, 0, 0.2525, 0.065, 0.315, 0.1275, 0.3775, 0.19, 0, 0.2525, 0.065, 0.315, 0.1275, 0.3775, 0.19, 0, 0.2525, 0.065, 0.315, 0.1275, 0.3775, 0.19, 0, 0.2525, 0.065, 0.315, 0.1275, 0.3775, 0.19],
  "SoftwareVersions": "syngo MR E11",
  "SpacingBetweenSlices": 2.7,
  "StationName": "AWP66112",
  "TaskName": "social",
  "TotalReadoutTime": 0.03969,
  "TxRefAmp": 227.296,
  "WipMemBlock": "65ffba61-f7d4-42fc-b349-81cdc9222756||Sequence: R016 ve11c/master r/e634e98; Dec 19 2017 11:00:25 by eja",
  "dcmmeta_affine": [
    [-2.6786386966705322, -0.026181375607848167, 0.15030157566070557, 112.2219467163086],
    [-0.04326846823096275, 2.66473388671875, -0.3108631372451782, -70.58336639404297],
    [0.14532403647899628, 0.3108123540878296, 2.6778299808502197, -74.68352508544922],
    [0.0, 0.0, 0.0, 1.0]
],
  "dcmmeta_reorient_transform": [
    [0.0, -1.0, 0.0, 81.0],
    [1.0, 0.0, 0.0, 0.0],
    [0.0, 0.0, 1.0, 0.0],
    [0.0, 0.0, 0.0, 1.0]
],
  "dcmmeta_shape": [82, 82, 56, 872],
  "dcmmeta_slice_dim": 2,
  "dcmmeta_version": 0.6,
  "global": {
    "const": {
      "AccessionNumber": "A003469",
      "AcquisitionMatrix": [82, 0, 0, 82],
      "AngioFlag": "N",
      "BitsAllocated": 16,
      "BitsStored": 16,
      "BodyPartExamined": "BRAIN",
      "Columns": 656,
      "EchoNumbers": 1,
      "EchoTime": 27.2,
      "EchoTrainLength": 82,
      "FlipAngle": 44.0,
      "HighBit": 15,
      "ImageOrientationPatient": [0.9984016870034, 0.01612733722496, 0.05416622917284, -0.0097585124326, 0.99321898739125, -0.1158482391778],
      "ImagePositionPatient": [-871.3565169751, -922.45677002401, -2.0125735843221],
      "ImageType": [
        "ORIGINAL",
        "PRIMARY",
        "M",
        "MB",
        "ND",
        "NORM",
        "MOSAIC"
],
      "ImagedNucleus": "1H",
      "ImagingFrequency": 123.252137,
      "InPlanePhaseEncodingDirection": "COL",
      "MRAcquisitionType": "2D",
      "MagneticFieldStrength": 3.0,
      "Manufacturer": "SIEMENS",
      "ManufacturerModelName": "Prisma",
      "Modality": "MR",
      "NumberOfAverages": 1.0,
      "NumberOfPhaseEncodingSteps": 82,
      "PercentPhaseFieldOfView": 100.0,
      "PercentSampling": 100.0,
      "PerformedProcedureStepStartTime": "131750.328000",
      "PhotometricInterpretation": "MONOCHROME2",
      "PixelBandwidth": 3050.0,
      "PixelRepresentation": 0,
      "PixelSpacing": [2.6829268932343, 2.6829268932343],
      "ProtocolName": "func_run-04_task-social_acq-ap-mb8",
      "RepetitionTime": 460.0,
      "Rows": 656,
      "SAR": 0.0715620945632,
      "SamplesPerPixel": 1,
      "ScanOptions": "FS",
      "ScanningSequence": "EP",
      "SequenceName": "epfid2d1_82",
      "SequenceVariant": [
        "SK",
        "SS"
],
      "SeriesDescription": "func_run-04_task-social_acq-ap-mb8",
      "SeriesNumber": 20,
      "SeriesTime": "143152.879000",
      "SliceLocation": -59.696621200948,
      "SliceThickness": 2.7000000476837,
      "SmallestImagePixelValue": 0,
      "SoftwareVersions": "syngo MR E11",
      "SpacingBetweenSlices": 2.700000014031,
      "SpecificCharacterSet": "ISO_IR 100",
      "StudyID": "1",
      "StudyTime": "131750.202000",
      "TransmitCoilName": "Body",
      "VariableFlipAngleFlag": "N",
      "WindowCenterWidthExplanation": "Algo1",
      "dBdt": 0.0},
    "slices": {}
  },
  "time": {
    "samples": {
      "AcquisitionNumber": [1, 2, 3, 4, 5, 6, 7, 8, 9, 10, 11, 12, 13, 14, 15, 16, 17, 18, 19, 20, 21, 22, 23, 24, 25, 26, 27, 28, 29, 30, 31, 32, 33, 34, 35, 36, 37, 38, 39, 40, 41, 42, 43, 44, 45, 46, 47, 48, 49, 50, 51, 52, 53, 54, 55, 56, 57, 58, 59, 60, 61, 62, 63, 64, 65, 66, 67, 68, 69, 70, 71, 72, 73, 74, 75, 76, 77, 78, 79, 80, 81, 82, 83, 84, 85, 86, 87, 88, 89, 90, 91, 92, 93, 94, 95, 96, 97, 98, 99, 100, 101, 102, 103, 104, 105, 106, 107, 108, 109, 110, 111, 112, 113, 114, 115, 116, 117, 118, 119, 120, 121, 122, 123, 124, 125, 126, 127, 128, 129, 130, 131, 132, 133, 134, 135, 136, 137, 138, 139, 140, 141, 142, 143, 144, 145, 146, 147, 148, 149, 150, 151, 152, 153, 154, 155, 156, 157, 158, 159, 160, 161, 162, 163, 164, 165, 166, 167, 168, 169, 170, 171, 172, 173, 174, 175, 176, 177, 178, 179, 180, 181, 182, 183, 184, 185, 186, 187, 188, 189, 190, 191, 192, 193, 194, 195, 196, 197, 198, 199, 200, 201, 202, 203, 204, 205, 206, 207, 208, 209, 210, 211, 212, 213, 214, 215, 216, 217, 218, 219, 220, 221, 222, 223, 224, 225, 226, 227, 228, 229, 230, 231, 232, 233, 234, 235, 236, 237, 238, 239, 240, 241, 242, 243, 244, 245, 246, 247, 248, 249, 250, 251, 252, 253, 254, 255, 256, 257, 258, 259, 260, 261, 262, 263, 264, 265, 266, 267, 268, 269, 270, 271, 272, 273, 274, 275, 276, 277, 278, 279, 280, 281, 282, 283, 284, 285, 286, 287, 288, 289, 290, 291, 292, 293, 294, 295, 296, 297, 298, 299, 300, 301, 302, 303, 304, 305, 306, 307, 308, 309, 310, 311, 312, 313, 314, 315, 316, 317, 318, 319, 320, 321, 322, 323, 324, 325, 326, 327, 328, 329, 330, 331, 332, 333, 334, 335, 336, 337, 338, 339, 340, 341, 342, 343, 344, 345, 346, 347, 348, 349, 350, 351, 352, 353, 354, 355, 356, 357, 358, 359, 360, 361, 362, 363, 364, 365, 366, 367, 368, 369, 370, 371, 372, 373, 374, 375, 376, 377, 378, 379, 380, 381, 382, 383, 384, 385, 386, 387, 388, 389, 390, 391, 392, 393, 394, 395, 396, 397, 398, 399, 400, 401, 402, 403, 404, 405, 406, 407, 408, 409, 410, 411, 412, 413, 414, 415, 416, 417, 418, 419, 420, 421, 422, 423, 424, 425, 426, 427, 428, 429, 430, 431, 432, 433, 434, 435, 436, 437, 438, 439, 440, 441, 442, 443, 444, 445, 446, 447, 448, 449, 450, 451, 452, 453, 454, 455, 456, 457, 458, 459, 460, 461, 462, 463, 464, 465, 466, 467, 468, 469, 470, 471, 472, 473, 474, 475, 476, 477, 478, 479, 480, 481, 482, 483, 484, 485, 486, 487, 488, 489, 490, 491, 492, 493, 494, 495, 496, 497, 498, 499, 500, 501, 502, 503, 504, 505, 506, 507, 508, 509, 510, 511, 512, 513, 514, 515, 516, 517, 518, 519, 520, 521, 522, 523, 524, 525, 526, 527, 528, 529, 530, 531, 532, 533, 534, 535, 536, 537, 538, 539, 540, 541, 542, 543, 544, 545, 546, 547, 548, 549, 550, 551, 552, 553, 554, 555, 556, 557, 558, 559, 560, 561, 562, 563, 564, 565, 566, 567, 568, 569, 570, 571, 572, 573, 574, 575, 576, 577, 578, 579, 580, 581, 582, 583, 584, 585, 586, 587, 588, 589, 590, 591, 592, 593, 594, 595, 596, 597, 598, 599, 600, 601, 602, 603, 604, 605, 606, 607, 608, 609, 610, 611, 612, 613, 614, 615, 616, 617, 618, 619, 620, 621, 622, 623, 624, 625, 626, 627, 628, 629, 630, 631, 632, 633, 634, 635, 636, 637, 638, 639, 640, 641, 642, 643, 644, 645, 646, 647, 648, 649, 650, 651, 652, 653, 654, 655, 656, 657, 658, 659, 660, 661, 662, 663, 664, 665, 666, 667, 668, 669, 670, 671, 672, 673, 674, 675, 676, 677, 678, 679, 680, 681, 682, 683, 684, 685, 686, 687, 688, 689, 690, 691, 692, 693, 694, 695, 696, 697, 698, 699, 700, 701, 702, 703, 704, 705, 706, 707, 708, 709, 710, 711, 712, 713, 714, 715, 716, 717, 718, 719, 720, 721, 722, 723, 724, 725, 726, 727, 728, 729, 730, 731, 732, 733, 734, 735, 736, 737, 738, 739, 740, 741, 742, 743, 744, 745, 746, 747, 748, 749, 750, 751, 752, 753, 754, 755, 756, 757, 758, 759, 760, 761, 762, 763, 764, 765, 766, 767, 768, 769, 770, 771, 772, 773, 774, 775, 776, 777, 778, 779, 780, 781, 782, 783, 784, 785, 786, 787, 788, 789, 790, 791, 792, 793, 794, 795, 796, 797, 798, 799, 800, 801, 802, 803, 804, 805, 806, 807, 808, 809, 810, 811, 812, 813, 814, 815, 816, 817, 818, 819, 820, 821, 822, 823, 824, 825, 826, 827, 828, 829, 830, 831, 832, 833, 834, 835, 836, 837, 838, 839, 840, 841, 842, 843, 844, 845, 846, 847, 848, 849, 850, 851, 852, 853, 854, 855, 856, 857, 858, 859, 860, 861, 862, 863, 864, 865, 866, 867, 868, 869, 870, 871, 872],
      "AcquisitionTime": ["143133.212500", "143133.672500", "143134.132500", "143134.592500", "143135.052500", "143135.512500", "143135.972500", "143136.432500", "143136.892500", "143137.352500", "143137.812500", "143138.272500", "143138.732500", "143139.192500", "143139.652500", "143140.112500", "143140.572500", "143141.032500", "143141.492500", "143141.952500", "143142.412500", "143142.872500", "143143.332500", "143143.792500", "143144.252500", "143144.712500", "143145.172500", "143145.632500", "143146.092500", "143146.552500", "143147.012500", "143147.472500", "143147.932500", "143148.392500", "143148.852500", "143149.312500", "143149.772500", "143150.232500", "143150.692500", "143151.152500", "143151.612500", "143152.072500", "143152.532500", "143152.992500", "143153.452500", "143153.912500", "143154.372500", "143154.832500", "143155.292500", "143155.752500", "143156.212500", "143156.672500", "143157.132500", "143157.592500", "143158.052500", "143158.512500", "143158.972500", "143159.432500", "143159.892500", "143200.352500", "143200.812500", "143201.272500", "143201.732500", "143202.192500", "143202.652500", "143203.112500", "143203.572500", "143204.032500", "143204.492500", "143204.952500", "143205.412500", "143205.872500", "143206.332500", "143206.792500", "143207.252500", "143207.712500", "143208.172500", "143208.632500", "143209.092500", "143209.552500", "143210.012500", "143210.472500", "143210.932500", "143211.392500", "143211.852500", "143212.312500", "143212.772500", "143213.232500", "143213.692500", "143214.152500", "143214.612500", "143215.072500", "143215.532500", "143215.992500", "143216.452500", "143216.912500", "143217.372500", "143217.832500", "143218.292500", "143218.752500", "143219.212500", "143219.672500", "143220.132500", "143220.592500", "143221.052500", "143221.512500", "143221.972500", "143222.432500", "143222.892500", "143223.352500", "143223.812500", "143224.272500", "143224.732500", "143225.192500", "143225.652500", "143226.112500", "143226.572500", "143227.032500", "143227.492500", "143227.952500", "143228.412500", "143228.872500", "143229.332500", "143229.792500", "143230.252500", "143230.712500", "143231.172500", "143231.632500", "143232.092500", "143232.552500", "143233.012500", "143233.472500", "143233.932500", "143234.392500", "143234.852500", "143235.312500", "143235.772500", "143236.232500", "143236.692500", "143237.152500", "143237.612500", "143238.072500", "143238.532500", "143238.992500", "143239.452500", "143239.912500", "143240.372500", "143240.832500", "143241.292500", "143241.752500", "143242.212500", "143242.672500", "143243.132500", "143243.592500", "143244.052500", "143244.512500", "143244.972500", "143245.432500", "143245.892500", "143246.352500", "143246.812500", "143247.272500", "143247.732500", "143248.192500", "143248.652500", "143249.112500", "143249.572500", "143250.032500", "143250.492500", "143250.952500", "143251.412500", "143251.872500", "143252.332500", "143252.792500", "143253.252500", "143253.712500", "143254.172500", "143254.632500", "143255.092500", "143255.552500", "143256.012500", "143256.472500", "143256.932500", "143257.392500", "143257.852500", "143258.312500", "143258.772500", "143259.232500", "143259.692500", "143300.152500", "143300.612500", "143301.072500", "143301.532500", "143301.992500", "143302.452500", "143302.912500", "143303.372500", "143303.832500", "143304.292500", "143304.752500", "143305.212500", "143305.672500", "143306.132500", "143306.592500", "143307.052500", "143307.512500", "143307.972500", "143308.432500", "143308.892500", "143309.352500", "143309.812500", "143310.272500", "143310.732500", "143311.192500", "143311.652500", "143312.112500", "143312.572500", "143313.032500", "143313.492500", "143313.952500", "143314.412500", "143314.872500", "143315.332500", "143315.792500", "143316.252500", "143316.712500", "143317.172500", "143317.632500", "143318.092500", "143318.552500", "143319.012500", "143319.472500", "143319.932500", "143320.392500", "143320.852500", "143321.312500", "143321.772500", "143322.232500", "143322.692500", "143323.152500", "143323.612500", "143324.072500", "143324.532500", "143324.992500", "143325.452500", "143325.912500", "143326.372500", "143326.832500", "143327.292500", "143327.752500", "143328.212500", "143328.672500", "143329.132500", "143329.592500", "143330.052500", "143330.512500", "143330.972500", "143331.432500", "143331.892500", "143332.352500", "143332.812500", "143333.272500", "143333.732500", "143334.192500", "143334.652500", "143335.112500", "143335.572500", "143336.032500", "143336.492500", "143336.952500", "143337.412500", "143337.872500", "143338.332500", "143338.792500", "143339.252500", "143339.712500", "143340.172500", "143340.632500", "143341.092500", "143341.552500", "143342.012500", "143342.472500", "143342.932500", "143343.392500", "143343.852500", "143344.312500", "143344.772500", "143345.232500", "143345.692500", "143346.152500", "143346.612500", "143347.072500", "143347.532500", "143347.992500", "143348.452500", "143348.912500", "143349.372500", "143349.832500", "143350.292500", "143350.752500", "143351.212500", "143351.672500", "143352.132500", "143352.592500", "143353.052500", "143353.512500", "143353.972500", "143354.432500", "143354.892500", "143355.352500", "143355.812500", "143356.272500", "143356.732500", "143357.192500", "143357.652500", "143358.112500", "143358.572500", "143359.032500", "143359.492500", "143359.952500", "143400.412500", "143400.872500", "143401.332500", "143401.792500", "143402.252500", "143402.712500", "143403.172500", "143403.632500", "143404.092500", "143404.552500", "143405.012500", "143405.472500", "143405.932500", "143406.392500", "143406.852500", "143407.312500", "143407.772500", "143408.232500", "143408.692500", "143409.152500", "143409.612500", "143410.072500", "143410.532500", "143410.992500", "143411.452500", "143411.912500", "143412.372500", "143412.832500", "143413.292500", "143413.752500", "143414.212500", "143414.672500", "143415.132500", "143415.592500", "143416.052500", "143416.512500", "143416.972500", "143417.432500", "143417.892500", "143418.352500", "143418.812500", "143419.272500", "143419.732500", "143420.192500", "143420.652500", "143421.112500", "143421.572500", "143422.032500", "143422.492500", "143422.952500", "143423.412500", "143423.872500", "143424.332500", "143424.792500", "143425.252500", "143425.712500", "143426.172500", "143426.632500", "143427.092500", "143427.552500", "143428.012500", "143428.472500", "143428.932500", "143429.392500", "143429.852500", "143430.312500", "143430.772500", "143431.232500", "143431.692500", "143432.152500", "143432.612500", "143433.072500", "143433.532500", "143433.992500", "143434.452500", "143434.912500", "143435.372500", "143435.832500", "143436.292500", "143436.752500", "143437.212500", "143437.672500", "143438.132500", "143438.592500", "143439.052500", "143439.512500", "143439.972500", "143440.432500", "143440.892500", "143441.352500", "143441.812500", "143442.272500", "143442.732500", "143443.192500", "143443.652500", "143444.112500", "143444.572500", "143445.032500", "143445.492500", "143445.952500", "143446.412500", "143446.872500", "143447.332500", "143447.792500", "143448.252500", "143448.712500", "143449.172500", "143449.632500", "143450.092500", "143450.552500", "143451.012500", "143451.472500", "143451.932500", "143452.392500", "143452.852500", "143453.312500", "143453.772500", "143454.232500", "143454.692500", "143455.152500", "143455.612500", "143456.072500", "143456.532500", "143456.992500", "143457.452500", "143457.912500", "143458.372500", "143458.832500", "143459.292500", "143459.752500", "143500.212500", "143500.672500", "143501.132500", "143501.592500", "143502.052500", "143502.512500", "143502.972500", "143503.432500", "143503.892500", "143504.352500", "143504.812500", "143505.272500", "143505.732500", "143506.192500", "143506.652500", "143507.112500", "143507.572500", "143508.032500", "143508.492500", "143508.952500", "143509.412500", "143509.872500", "143510.332500", "143510.792500", "143511.252500", "143511.712500", "143512.172500", "143512.632500", "143513.092500", "143513.552500", "143514.012500", "143514.472500", "143514.932500", "143515.392500", "143515.852500", "143516.312500", "143516.772500", "143517.232500", "143517.692500", "143518.152500", "143518.612500", "143519.072500", "143519.532500", "143519.992500", "143520.452500", "143520.912500", "143521.372500", "143521.832500", "143522.292500", "143522.752500", "143523.212500", "143523.672500", "143524.132500", "143524.592500", "143525.052500", "143525.512500", "143525.972500", "143526.432500", "143526.892500", "143527.352500", "143527.812500", "143528.272500", "143528.732500", "143529.192500", "143529.652500", "143530.112500", "143530.572500", "143531.032500", "143531.492500", "143531.952500", "143532.412500", "143532.872500", "143533.332500", "143533.792500", "143534.252500", "143534.712500", "143535.172500", "143535.632500", "143536.092500", "143536.552500", "143537.012500", "143537.472500", "143537.932500", "143538.392500", "143538.852500", "143539.312500", "143539.772500", "143540.232500", "143540.692500", "143541.152500", "143541.612500", "143542.072500", "143542.532500", "143542.992500", "143543.452500", "143543.912500", "143544.372500", "143544.832500", "143545.292500", "143545.752500", "143546.212500", "143546.672500", "143547.132500", "143547.592500", "143548.052500", "143548.512500", "143548.972500", "143549.432500", "143549.892500", "143550.352500", "143550.812500", "143551.272500", "143551.732500", "143552.192500", "143552.652500", "143553.112500", "143553.572500", "143554.032500", "143554.492500", "143554.952500", "143555.412500", "143555.872500", "143556.332500", "143556.792500", "143557.252500", "143557.712500", "143558.172500", "143558.632500", "143559.092500", "143559.552500", "143600.012500", "143600.472500", "143600.932500", "143601.392500", "143601.852500", "143602.312500", "143602.772500", "143603.232500", "143603.692500", "143604.152500", "143604.612500", "143605.072500", "143605.532500", "143605.992500", "143606.452500", "143606.912500", "143607.372500", "143607.832500", "143608.292500", "143608.752500", "143609.212500", "143609.672500", "143610.132500", "143610.592500", "143611.052500", "143611.512500", "143611.972500", "143612.432500", "143612.892500", "143613.352500", "143613.812500", "143614.272500", "143614.732500", "143615.192500", "143615.652500", "143616.112500", "143616.572500", "143617.032500", "143617.492500", "143617.952500", "143618.412500", "143618.872500", "143619.332500", "143619.792500", "143620.252500", "143620.712500", "143621.172500", "143621.632500", "143622.092500", "143622.552500", "143623.012500", "143623.472500", "143623.932500", "143624.392500", "143624.852500", "143625.312500", "143625.772500", "143626.232500", "143626.692500", "143627.152500", "143627.612500", "143628.072500", "143628.532500", "143628.992500", "143629.452500", "143629.912500", "143630.372500", "143630.832500", "143631.292500", "143631.752500", "143632.212500", "143632.672500", "143633.132500", "143633.592500", "143634.052500", "143634.512500", "143634.972500", "143635.432500", "143635.892500", "143636.352500", "143636.812500", "143637.272500", "143637.732500", "143638.192500", "143638.652500", "143639.112500", "143639.572500", "143640.032500", "143640.492500", "143640.952500", "143641.412500", "143641.872500", "143642.332500", "143642.792500", "143643.252500", "143643.712500", "143644.172500", "143644.632500", "143645.092500", "143645.552500", "143646.012500", "143646.472500", "143646.932500", "143647.392500", "143647.852500", "143648.312500", "143648.772500", "143649.232500", "143649.692500", "143650.152500", "143650.612500", "143651.072500", "143651.532500", "143651.992500", "143652.452500", "143652.912500", "143653.372500", "143653.832500", "143654.292500", "143654.752500", "143655.212500", "143655.672500", "143656.132500", "143656.592500", "143657.052500", "143657.512500", "143657.972500", "143658.432500", "143658.892500", "143659.352500", "143659.812500", "143700.272500", "143700.732500", "143701.192500", "143701.652500", "143702.112500", "143702.572500", "143703.032500", "143703.492500", "143703.952500", "143704.412500", "143704.872500", "143705.332500", "143705.792500", "143706.252500", "143706.712500", "143707.172500", "143707.632500", "143708.092500", "143708.552500", "143709.012500", "143709.472500", "143709.932500", "143710.392500", "143710.852500", "143711.312500", "143711.772500", "143712.232500", "143712.692500", "143713.152500", "143713.612500", "143714.072500", "143714.532500", "143714.992500", "143715.452500", "143715.912500", "143716.372500", "143716.832500", "143717.292500", "143717.752500", "143718.212500", "143718.672500", "143719.132500", "143719.592500", "143720.052500", "143720.512500", "143720.972500", "143721.432500", "143721.892500", "143722.352500", "143722.812500", "143723.272500", "143723.732500", "143724.192500", "143724.652500", "143725.112500", "143725.572500", "143726.032500", "143726.492500", "143726.952500", "143727.412500", "143727.872500", "143728.332500", "143728.792500", "143729.252500", "143729.712500", "143730.172500", "143730.632500", "143731.092500", "143731.552500", "143732.012500", "143732.472500", "143732.932500", "143733.392500", "143733.852500", "143734.312500", "143734.772500", "143735.232500", "143735.692500", "143736.152500", "143736.612500", "143737.072500", "143737.532500", "143737.992500", "143738.452500", "143738.912500", "143739.372500", "143739.832500", "143740.292500", "143740.752500", "143741.212500", "143741.672500", "143742.132500", "143742.592500", "143743.052500", "143743.512500", "143743.972500", "143744.432500", "143744.892500", "143745.352500", "143745.812500", "143746.272500", "143746.732500", "143747.192500", "143747.652500", "143748.112500", "143748.572500", "143749.032500", "143749.492500", "143749.952500", "143750.412500", "143750.872500", "143751.332500", "143751.792500", "143752.252500", "143752.712500", "143753.172500", "143753.632500", "143754.092500", "143754.552500", "143755.012500", "143755.472500", "143755.932500", "143756.392500", "143756.852500", "143757.312500", "143757.772500", "143758.232500", "143758.692500", "143759.152500", "143759.612500", "143800.072500", "143800.532500", "143800.992500", "143801.452500", "143801.912500", "143802.372500", "143802.832500", "143803.292500", "143803.752500", "143804.212500", "143804.672500", "143805.132500", "143805.592500", "143806.052500", "143806.512500", "143806.972500", "143807.432500", "143807.892500", "143808.352500", "143808.812500", "143809.272500", "143809.732500", "143810.192500", "143810.652500", "143811.112500", "143811.572500", "143812.032500", "143812.492500", "143812.952500", "143813.412500", "143813.872500"],
