{
  "AcquisitionMatrixPE": 82,
  "AcquisitionNumber": 1,
  "AcquisitionTime": "10:01:21.505000",
  "BandwidthPerPixelPhaseEncode": 24.888,
  "BaseResolution": 82,
  "BodyPartExamined": "BRAIN",
  "ConsistencyInfo": "N4_VE11E_LATEST_20181129",
  "ConversionSoftware": "dcm2niix",
  "ConversionSoftwareVersion": "v1.0.20201102",
  "DerivedVendorReportedEchoSpacing": 0.00049,
  "DeviceSerialNumber": "66112",
  "DwellTime": 2e-06,
  "EchoTime": 0.0272,
  "EchoTrainLength": 82,
  "EffectiveEchoSpacing": 0.00049,
  "FlipAngle": 44,
  "ImageComments": "Unaliased MB8/PE3",
  "ImageOrientationPatientDICOM": [0.998025, 0.0150488, 0.0609948, -0.021777, 0.99356, 0.111191],
  "ImageType": [
    "ORIGINAL",
    "PRIMARY",
    "M",
    "MB",
    "ND",
    "NORM",
    "MOSAIC"
],
  "ImagingFrequency": 123.259,
  "InPlanePhaseEncodingDirectionDICOM": "COL",
  "InstitutionAddress": "Maynard 3,Hanover,NH,US,03755",
  "InstitutionName": "Dartmouth College - PBS",
  "InstitutionalDepartmentName": "Department",
  "MRAcquisitionType": "2D",
  "MagneticFieldStrength": 3,
  "Manufacturer": "Siemens",
  "ManufacturersModelName": "Prisma",
  "Modality": "MR",
  "MultibandAccelerationFactor": 8,
  "PartialFourier": 1,
  "PatientPosition": "HFS",
  "PercentPhaseFOV": 100,
  "PercentSampling": 100,
  "PhaseEncodingDirection": "j-",
  "PhaseEncodingSteps": 82,
  "PhaseResolution": 1,
  "PixelBandwidth": 3050,
  "ProcedureStepDescription": "Wager_Wager^1076_spacetop",
  "ProtocolName": "func_run-01_task-alignvideo_acq-ap-mb8",
  "PulseSequenceDetails": "%CustomerSeq%\\cmrr_mbep2d_bold",
  "ReceiveCoilActiveElements": "HEA;HEP",
  "ReceiveCoilName": "Head_32",
  "ReconMatrixPE": 82,
  "RepetitionTime": 0.46,
  "SAR": 0.083202,
  "ScanOptions": "FS",
  "ScanningSequence": "EP",
  "SequenceName": "epfid2d1_82",
  "SequenceVariant": "SK\\SS",
  "SeriesDescription": "func_run-01_task-alignvideo_acq-ap-mb8",
  "SeriesNumber": 30,
  "ShimSetting": [4236, -7769, -7262, 257, -118, -150, -79, 122],
  "SliceThickness": 2.7,
  "SliceTiming": [0, 0.2525, 0.0625, 0.315, 0.125, 0.3775, 0.19, 0, 0.2525, 0.0625, 0.315, 0.125, 0.3775, 0.19, 0, 0.2525, 0.0625, 0.315, 0.125, 0.3775, 0.19, 0, 0.2525, 0.0625, 0.315, 0.125, 0.3775, 0.19, 0, 0.2525, 0.0625, 0.315, 0.125, 0.3775, 0.19, 0, 0.2525, 0.0625, 0.315, 0.125, 0.3775, 0.19, 0, 0.2525, 0.0625, 0.315, 0.125, 0.3775, 0.19, 0, 0.2525, 0.0625, 0.315, 0.125, 0.3775, 0.19],
  "SoftwareVersions": "syngo MR E11",
  "SpacingBetweenSlices": 2.7,
  "StationName": "AWP66112",
  "TaskName": "alignvideo",
  "TotalReadoutTime": 0.03969,
  "TxRefAmp": 232.71,
  "WipMemBlock": "5814e648-6ebc-4f20-9ca3-45b24134e9f5||Sequence: R016 ve11e/master r/434b28f1; Aug  7 2019 18:53:46 by eja",
  "dcmmeta_affine": [
    [-2.6776270866394043, -0.05842605233192444, 0.15910765528678894, 111.91158294677734],
    [-0.040374841541051865, 2.6656501293182373, 0.30320873856544495, -105.07744598388672],
    [0.16364465653896332, -0.298317015171051, 2.678199052810669, -76.02548217773438],
    [0.0, 0.0, 0.0, 1.0]
],
  "dcmmeta_reorient_transform": [
    [0.0, -1.0, 0.0, 81.0],
    [1.0, 0.0, 0.0, 0.0],
    [0.0, 0.0, 1.0, 0.0],
    [0.0, 0.0, 0.0, 1.0]
],
  "dcmmeta_shape": [82, 82, 56, 1073],
  "dcmmeta_slice_dim": 2,
  "dcmmeta_version": 0.6,
  "global": {
    "const": {
      "AccessionNumber": "A004316",
      "AcquisitionMatrix": [82, 0, 0, 82],
      "AngioFlag": "N",
      "BitsAllocated": 16,
      "BitsStored": 16,
      "BodyPartExamined": "BRAIN",
      "Columns": 656,
      "EchoNumbers": 1,
      "EchoTime": 27.2,
      "EchoTrainLength": 82,
      "FlipAngle": 44.0,
      "HighBit": 15,
      "ImageOrientationPatient": [0.99802463125079, 0.01504880391473, 0.06099482697291, -0.021776982604, 0.99356044112786, 0.11119088476345],
      "ImagePositionPatient": [-858.88978117575, -887.46933984404, -232.7721634611],
      "ImageType": [
        "ORIGINAL",
        "PRIMARY",
        "M",
        "MB",
        "ND",
        "NORM",
        "MOSAIC"
],
      "ImagedNucleus": "1H",
      "ImagingFrequency": 123.259109,
      "InPlanePhaseEncodingDirection": "COL",
      "MRAcquisitionType": "2D",
      "MagneticFieldStrength": 3.0,
      "Manufacturer": "SIEMENS",
      "ManufacturerModelName": "Prisma",
      "Modality": "MR",
      "NumberOfAverages": 1.0,
      "NumberOfPhaseEncodingSteps": 82,
      "PercentPhaseFieldOfView": 100.0,
      "PercentSampling": 100.0,
      "PerformedProcedureStepStartTime": "083015.280000",
      "PhotometricInterpretation": "MONOCHROME2",
      "PixelBandwidth": 3050.0,
      "PixelRepresentation": 0,
      "PixelSpacing": [2.6829268932343, 2.6829268932343],
      "ProtocolName": "func_run-01_task-alignvideo_acq-ap-mb8",
      "RepetitionTime": 460.0,
      "Rows": 656,
      "SAR": 0.08320195912283,
      "SamplesPerPixel": 1,
      "ScanOptions": "FS",
      "ScanningSequence": "EP",
      "SequenceName": "epfid2d1_82",
      "SequenceVariant": [
        "SK",
        "SS"
],
      "SeriesDescription": "func_run-01_task-alignvideo_acq-ap-mb8",
      "SeriesNumber": 30,
      "SeriesTime": "100138.842000",
      "SliceLocation": -80.616954168116,
      "SliceThickness": 2.7000000476837,
      "SmallestImagePixelValue": 0,
      "SoftwareVersions": "syngo MR E11",
      "SpacingBetweenSlices": 2.7000000563069,
      "SpecificCharacterSet": "ISO_IR 100",
      "StudyID": "1",
      "StudyTime": "083015.171000",
      "TransmitCoilName": "Body",
      "VariableFlipAngleFlag": "N",
      "WindowCenterWidthExplanation": "Algo1"
    },
    "slices": {}
  },
  "time": {
    "samples": {
      "AcquisitionNumber": [1, 2, 3, 4, 5, 6, 7, 8, 9, 10, 11, 12, 13, 14, 15, 16, 17, 18, 19, 20, 21, 22, 23, 24, 25, 26, 27, 28, 29, 30, 31, 32, 33, 34, 35, 36, 37, 38, 39, 40, 41, 42, 43, 44, 45, 46, 47, 48, 49, 50, 51, 52, 53, 54, 55, 56, 57, 58, 59, 60, 61, 62, 63, 64, 65, 66, 67, 68, 69, 70, 71, 72, 73, 74, 75, 76, 77, 78, 79, 80, 81, 82, 83, 84, 85, 86, 87, 88, 89, 90, 91, 92, 93, 94, 95, 96, 97, 98, 99, 100, 101, 102, 103, 104, 105, 106, 107, 108, 109, 110, 111, 112, 113, 114, 115, 116, 117, 118, 119, 120, 121, 122, 123, 124, 125, 126, 127, 128, 129, 130, 131, 132, 133, 134, 135, 136, 137, 138, 139, 140, 141, 142, 143, 144, 145, 146, 147, 148, 149, 150, 151, 152, 153, 154, 155, 156, 157, 158, 159, 160, 161, 162, 163, 164, 165, 166, 167, 168, 169, 170, 171, 172, 173, 174, 175, 176, 177, 178, 179, 180, 181, 182, 183, 184, 185, 186, 187, 188, 189, 190, 191, 192, 193, 194, 195, 196, 197, 198, 199, 200, 201, 202, 203, 204, 205, 206, 207, 208, 209, 210, 211, 212, 213, 214, 215, 216, 217, 218, 219, 220, 221, 222, 223, 224, 225, 226, 227, 228, 229, 230, 231, 232, 233, 234, 235, 236, 237, 238, 239, 240, 241, 242, 243, 244, 245, 246, 247, 248, 249, 250, 251, 252, 253, 254, 255, 256, 257, 258, 259, 260, 261, 262, 263, 264, 265, 266, 267, 268, 269, 270, 271, 272, 273, 274, 275, 276, 277, 278, 279, 280, 281, 282, 283, 284, 285, 286, 287, 288, 289, 290, 291, 292, 293, 294, 295, 296, 297, 298, 299, 300, 301, 302, 303, 304, 305, 306, 307, 308, 309, 310, 311, 312, 313, 314, 315, 316, 317, 318, 319, 320, 321, 322, 323, 324, 325, 326, 327, 328, 329, 330, 331, 332, 333, 334, 335, 336, 337, 338, 339, 340, 341, 342, 343, 344, 345, 346, 347, 348, 349, 350, 351, 352, 353, 354, 355, 356, 357, 358, 359, 360, 361, 362, 363, 364, 365, 366, 367, 368, 369, 370, 371, 372, 373, 374, 375, 376, 377, 378, 379, 380, 381, 382, 383, 384, 385, 386, 387, 388, 389, 390, 391, 392, 393, 394, 395, 396, 397, 398, 399, 400, 401, 402, 403, 404, 405, 406, 407, 408, 409, 410, 411, 412, 413, 414, 415, 416, 417, 418, 419, 420, 421, 422, 423, 424, 425, 426, 427, 428, 429, 430, 431, 432, 433, 434, 435, 436, 437, 438, 439, 440, 441, 442, 443, 444, 445, 446, 447, 448, 449, 450, 451, 452, 453, 454, 455, 456, 457, 458, 459, 460, 461, 462, 463, 464, 465, 466, 467, 468, 469, 470, 471, 472, 473, 474, 475, 476, 477, 478, 479, 480, 481, 482, 483, 484, 485, 486, 487, 488, 489, 490, 491, 492, 493, 494, 495, 496, 497, 498, 499, 500, 501, 502, 503, 504, 505, 506, 507, 508, 509, 510, 511, 512, 513, 514, 515, 516, 517, 518, 519, 520, 521, 522, 523, 524, 525, 526, 527, 528, 529, 530, 531, 532, 533, 534, 535, 536, 537, 538, 539, 540, 541, 542, 543, 544, 545, 546, 547, 548, 549, 550, 551, 552, 553, 554, 555, 556, 557, 558, 559, 560, 561, 562, 563, 564, 565, 566, 567, 568, 569, 570, 571, 572, 573, 574, 575, 576, 577, 578, 579, 580, 581, 582, 583, 584, 585, 586, 587, 588, 589, 590, 591, 592, 593, 594, 595, 596, 597, 598, 599, 600, 601, 602, 603, 604, 605, 606, 607, 608, 609, 610, 611, 612, 613, 614, 615, 616, 617, 618, 619, 620, 621, 622, 623, 624, 625, 626, 627, 628, 629, 630, 631, 632, 633, 634, 635, 636, 637, 638, 639, 640, 641, 642, 643, 644, 645, 646, 647, 648, 649, 650, 651, 652, 653, 654, 655, 656, 657, 658, 659, 660, 661, 662, 663, 664, 665, 666, 667, 668, 669, 670, 671, 672, 673, 674, 675, 676, 677, 678, 679, 680, 681, 682, 683, 684, 685, 686, 687, 688, 689, 690, 691, 692, 693, 694, 695, 696, 697, 698, 699, 700, 701, 702, 703, 704, 705, 706, 707, 708, 709, 710, 711, 712, 713, 714, 715, 716, 717, 718, 719, 720, 721, 722, 723, 724, 725, 726, 727, 728, 729, 730, 731, 732, 733, 734, 735, 736, 737, 738, 739, 740, 741, 742, 743, 744, 745, 746, 747, 748, 749, 750, 751, 752, 753, 754, 755, 756, 757, 758, 759, 760, 761, 762, 763, 764, 765, 766, 767, 768, 769, 770, 771, 772, 773, 774, 775, 776, 777, 778, 779, 780, 781, 782, 783, 784, 785, 786, 787, 788, 789, 790, 791, 792, 793, 794, 795, 796, 797, 798, 799, 800, 801, 802, 803, 804, 805, 806, 807, 808, 809, 810, 811, 812, 813, 814, 815, 816, 817, 818, 819, 820, 821, 822, 823, 824, 825, 826, 827, 828, 829, 830, 831, 832, 833, 834, 835, 836, 837, 838, 839, 840, 841, 842, 843, 844, 845, 846, 847, 848, 849, 850, 851, 852, 853, 854, 855, 856, 857, 858, 859, 860, 861, 862, 863, 864, 865, 866, 867, 868, 869, 870, 871, 872, 873, 874, 875, 876, 877, 878, 879, 880, 881, 882, 883, 884, 885, 886, 887, 888, 889, 890, 891, 892, 893, 894, 895, 896, 897, 898, 899, 900, 901, 902, 903, 904, 905, 906, 907, 908, 909, 910, 911, 912, 913, 914, 915, 916, 917, 918, 919, 920, 921, 922, 923, 924, 925, 926, 927, 928, 929, 930, 931, 932, 933, 934, 935, 936, 937, 938, 939, 940, 941, 942, 943, 944, 945, 946, 947, 948, 949, 950, 951, 952, 953, 954, 955, 956, 957, 958, 959, 960, 961, 962, 963, 964, 965, 966, 967, 968, 969, 970, 971, 972, 973, 974, 975, 976, 977, 978, 979, 980, 981, 982, 983, 984, 985, 986, 987, 988, 989, 990, 991, 992, 993, 994, 995, 996, 997, 998, 999, 1000, 1001, 1002, 1003, 1004, 1005, 1006, 1007, 1008, 1009, 1010, 1011, 1012, 1013, 1014, 1015, 1016, 1017, 1018, 1019, 1020, 1021, 1022, 1023, 1024, 1025, 1026, 1027, 1028, 1029, 1030, 1031, 1032, 1033, 1034, 1035, 1036, 1037, 1038, 1039, 1040, 1041, 1042, 1043, 1044, 1045, 1046, 1047, 1048, 1049, 1050, 1051, 1052, 1053, 1054, 1055, 1056, 1057, 1058, 1059, 1060, 1061, 1062, 1063, 1064, 1065, 1066, 1067, 1068, 1069, 1070, 1071, 1072, 1073],
      "AcquisitionTime": ["100121.505000", "100121.965000", "100122.425000", "100122.885000", "100123.345000", "100123.805000", "100124.265000", "100124.725000", "100125.185000", "100125.645000", "100126.105000", "100126.565000", "100127.025000", "100127.485000", "100127.945000", "100128.405000", "100128.865000", "100129.325000", "100129.785000", "100130.245000", "100130.705000", "100131.165000", "100131.625000", "100132.085000", "100132.545000", "100133.005000", "100133.465000", "100133.925000", "100134.385000", "100134.845000", "100135.305000", "100135.765000", "100136.225000", "100136.685000", "100137.145000", "100137.605000", "100138.065000", "100138.525000", "100138.985000", "100139.445000", "100139.905000", "100140.365000", "100140.825000", "100141.285000", "100141.745000", "100142.205000", "100142.665000", "100143.125000", "100143.585000", "100144.045000", "100144.505000", "100144.965000", "100145.425000", "100145.885000", "100146.345000", "100146.805000", "100147.265000", "100147.725000", "100148.185000", "100148.645000", "100149.105000", "100149.565000", "100150.025000", "100150.485000", "100150.945000", "100151.405000", "100151.865000", "100152.325000", "100152.785000", "100153.245000", "100153.705000", "100154.165000", "100154.625000", "100155.085000", "100155.545000", "100156.005000", "100156.465000", "100156.925000", "100157.385000", "100157.845000", "100158.305000", "100158.765000", "100159.225000", "100159.685000", "100200.145000", "100200.605000", "100201.065000", "100201.525000", "100201.985000", "100202.445000", "100202.905000", "100203.365000", "100203.825000", "100204.285000", "100204.745000", "100205.205000", "100205.665000", "100206.125000", "100206.585000", "100207.045000", "100207.505000", "100207.965000", "100208.425000", "100208.885000", "100209.345000", "100209.805000", "100210.265000", "100210.725000", "100211.185000", "100211.645000", "100212.105000", "100212.565000", "100213.025000", "100213.485000", "100213.945000", "100214.405000", "100214.865000", "100215.325000", "100215.785000", "100216.245000", "100216.705000", "100217.165000", "100217.625000", "100218.085000", "100218.545000", "100219.005000", "100219.465000", "100219.925000", "100220.385000", "100220.845000", "100221.305000", "100221.765000", "100222.225000", "100222.685000", "100223.145000", "100223.605000", "100224.065000", "100224.525000", "100224.985000", "100225.445000", "100225.905000", "100226.365000", "100226.825000", "100227.285000", "100227.745000", "100228.205000", "100228.665000", "100229.125000", "100229.585000", "100230.045000", "100230.505000", "100230.965000", "100231.425000", "100231.885000", "100232.345000", "100232.805000", "100233.265000", "100233.725000", "100234.185000", "100234.645000", "100235.105000", "100235.565000", "100236.025000", "100236.485000", "100236.945000", "100237.405000", "100237.865000", "100238.325000", "100238.785000", "100239.245000", "100239.705000", "100240.165000", "100240.625000", "100241.085000", "100241.545000", "100242.005000", "100242.465000", "100242.925000", "100243.385000", "100243.845000", "100244.305000", "100244.765000", "100245.225000", "100245.685000", "100246.145000", "100246.605000", "100247.065000", "100247.525000", "100247.985000", "100248.445000", "100248.905000", "100249.365000", "100249.825000", "100250.285000", "100250.745000", "100251.205000", "100251.665000", "100252.125000", "100252.585000", "100253.045000", "100253.505000", "100253.965000", "100254.425000", "100254.885000", "100255.345000", "100255.805000", "100256.265000", "100256.725000", "100257.185000", "100257.645000", "100258.105000", "100258.565000", "100259.025000", "100259.485000", "100259.945000", "100300.405000", "100300.865000", "100301.325000", "100301.785000", "100302.245000", "100302.705000", "100303.165000", "100303.625000", "100304.085000", "100304.545000", "100305.005000", "100305.465000", "100305.925000", "100306.385000", "100306.845000", "100307.305000", "100307.765000", "100308.225000", "100308.685000", "100309.145000", "100309.605000", "100310.065000", "100310.525000", "100310.985000", "100311.445000", "100311.905000", "100312.365000", "100312.825000", "100313.285000", "100313.745000", "100314.205000", "100314.665000", "100315.125000", "100315.585000", "100316.045000", "100316.505000", "100316.965000", "100317.425000", "100317.885000", "100318.345000", "100318.805000", "100319.265000", "100319.725000", "100320.185000", "100320.645000", "100321.105000", "100321.565000", "100322.025000", "100322.485000", "100322.945000", "100323.405000", "100323.865000", "100324.325000", "100324.785000", "100325.245000", "100325.705000", "100326.165000", "100326.625000", "100327.085000", "100327.545000", "100328.005000", "100328.465000", "100328.925000", "100329.385000", "100329.845000", "100330.305000", "100330.765000", "100331.225000", "100331.685000", "100332.145000", "100332.605000", "100333.065000", "100333.525000", "100333.985000", "100334.445000", "100334.905000", "100335.365000", "100335.825000", "100336.285000", "100336.745000", "100337.205000", "100337.665000", "100338.125000", "100338.585000", "100339.045000", "100339.505000", "100339.965000", "100340.425000", "100340.885000", "100341.345000", "100341.805000", "100342.265000", "100342.725000", "100343.185000", "100343.645000", "100344.105000", "100344.565000", "100345.025000", "100345.485000", "100345.945000", "100346.405000", "100346.865000", "100347.325000", "100347.785000", "100348.245000", "100348.705000", "100349.165000", "100349.625000", "100350.085000", "100350.545000", "100351.005000", "100351.465000", "100351.925000", "100352.385000", "100352.845000", "100353.305000", "100353.765000", "100354.225000", "100354.685000", "100355.145000", "100355.605000", "100356.065000", "100356.525000", "100356.985000", "100357.445000", "100357.905000", "100358.365000", "100358.825000", "100359.285000", "100359.745000", "100400.205000", "100400.665000", "100401.125000", "100401.585000", "100402.045000", "100402.505000", "100402.965000", "100403.425000", "100403.885000", "100404.345000", "100404.805000", "100405.265000", "100405.725000", "100406.185000", "100406.645000", "100407.105000", "100407.565000", "100408.025000", "100408.485000", "100408.945000", "100409.405000", "100409.865000", "100410.325000", "100410.785000", "100411.245000", "100411.705000", "100412.165000", "100412.625000", "100413.085000", "100413.545000", "100414.005000", "100414.465000", "100414.925000", "100415.385000", "100415.845000", "100416.305000", "100416.765000", "100417.225000", "100417.685000", "100418.145000", "100418.605000", "100419.065000", "100419.525000", "100419.985000", "100420.445000", "100420.905000", "100421.365000", "100421.825000", "100422.285000", "100422.745000", "100423.205000", "100423.665000", "100424.125000", "100424.585000", "100425.045000", "100425.505000", "100425.965000", "100426.425000", "100426.885000", "100427.345000", "100427.805000", "100428.265000", "100428.725000", "100429.185000", "100429.645000", "100430.105000", "100430.565000", "100431.025000", "100431.485000", "100431.945000", "100432.405000", "100432.865000", "100433.325000", "100433.785000", "100434.245000", "100434.705000", "100435.165000", "100435.625000", "100436.085000", "100436.545000", "100437.005000", "100437.465000", "100437.925000", "100438.385000", "100438.845000", "100439.305000", "100439.765000", "100440.225000", "100440.685000", "100441.145000", "100441.605000", "100442.065000", "100442.525000", "100442.985000", "100443.445000", "100443.905000", "100444.365000", "100444.825000", "100445.285000", "100445.745000", "100446.205000", "100446.665000", "100447.125000", "100447.585000", "100448.045000", "100448.505000", "100448.965000", "100449.425000", "100449.885000", "100450.345000", "100450.805000", "100451.265000", "100451.725000", "100452.185000", "100452.645000", "100453.105000", "100453.565000", "100454.025000", "100454.485000", "100454.945000", "100455.405000", "100455.865000", "100456.325000", "100456.785000", "100457.245000", "100457.705000", "100458.165000", "100458.625000", "100459.085000", "100459.545000", "100500.005000", "100500.465000", "100500.925000", "100501.385000", "100501.845000", "100502.305000", "100502.765000", "100503.225000", "100503.685000", "100504.145000", "100504.605000", "100505.065000", "100505.525000", "100505.985000", "100506.445000", "100506.905000", "100507.365000", "100507.825000", "100508.285000", "100508.745000", "100509.205000", "100509.665000", "100510.125000", "100510.585000", "100511.045000", "100511.505000", "100511.965000", "100512.425000", "100512.885000", "100513.345000", "100513.805000", "100514.265000", "100514.725000", "100515.185000", "100515.645000", "100516.105000", "100516.565000", "100517.025000", "100517.485000", "100517.945000", "100518.405000", "100518.865000", "100519.325000", "100519.785000", "100520.245000", "100520.705000", "100521.165000", "100521.625000", "100522.085000", "100522.545000", "100523.005000", "100523.465000", "100523.925000", "100524.385000", "100524.845000", "100525.305000", "100525.765000", "100526.225000", "100526.685000", "100527.145000", "100527.605000", "100528.065000", "100528.525000", "100528.985000", "100529.445000", "100529.905000", "100530.365000", "100530.825000", "100531.285000", "100531.745000", "100532.205000", "100532.665000", "100533.125000", "100533.585000", "100534.045000", "100534.505000", "100534.965000", "100535.425000", "100535.885000", "100536.345000", "100536.805000", "100537.265000", "100537.725000", "100538.185000", "100538.645000", "100539.105000", "100539.565000", "100540.025000", "100540.485000", "100540.945000", "100541.405000", "100541.865000", "100542.325000", "100542.785000", "100543.245000", "100543.705000", "100544.165000", "100544.625000", "100545.085000", "100545.545000", "100546.005000", "100546.465000", "100546.925000", "100547.385000", "100547.845000", "100548.305000", "100548.765000", "100549.225000", "100549.685000", "100550.145000", "100550.605000", "100551.065000", "100551.525000", "100551.985000", "100552.445000", "100552.905000", "100553.365000", "100553.825000", "100554.285000", "100554.745000", "100555.205000", "100555.665000", "100556.125000", "100556.585000", "100557.045000", "100557.505000", "100557.965000", "100558.425000", "100558.885000", "100559.345000", "100559.805000", "100600.265000", "100600.725000", "100601.185000", "100601.645000", "100602.105000", "100602.565000", "100603.025000", "100603.485000", "100603.945000", "100604.405000", "100604.865000", "100605.325000", "100605.785000", "100606.245000", "100606.705000", "100607.165000", "100607.625000", "100608.085000", "100608.545000", "100609.005000", "100609.465000", "100609.925000", "100610.385000", "100610.845000", "100611.305000", "100611.765000", "100612.225000", "100612.685000", "100613.145000", "100613.605000", "100614.065000", "100614.525000", "100614.985000", "100615.445000", "100615.905000", "100616.365000", "100616.825000", "100617.285000", "100617.745000", "100618.205000", "100618.665000", "100619.125000", "100619.585000", "100620.045000", "100620.505000", "100620.965000", "100621.425000", "100621.885000", "100622.345000", "100622.805000", "100623.265000", "100623.725000", "100624.185000", "100624.645000", "100625.105000", "100625.565000", "100626.025000", "100626.485000", "100626.945000", "100627.405000", "100627.865000", "100628.325000", "100628.785000", "100629.245000", "100629.705000", "100630.165000", "100630.625000", "100631.085000", "100631.545000", "100632.005000", "100632.465000", "100632.925000", "100633.385000", "100633.845000", "100634.305000", "100634.765000", "100635.225000", "100635.685000", "100636.145000", "100636.605000", "100637.065000", "100637.525000", "100637.985000", "100638.445000", "100638.905000", "100639.365000", "100639.825000", "100640.285000", "100640.745000", "100641.205000", "100641.665000", "100642.125000", "100642.585000", "100643.045000", "100643.505000", "100643.965000", "100644.425000", "100644.885000", "100645.345000", "100645.805000", "100646.265000", "100646.725000", "100647.185000", "100647.645000", "100648.105000", "100648.565000", "100649.025000", "100649.485000", "100649.945000", "100650.405000", "100650.865000", "100651.325000", "100651.785000", "100652.245000", "100652.705000", "100653.165000", "100653.625000", "100654.085000", "100654.545000", "100655.005000", "100655.465000", "100655.925000", "100656.385000", "100656.845000", "100657.305000", "100657.765000", "100658.225000", "100658.685000", "100659.145000", "100659.605000", "100700.065000", "100700.525000", "100700.985000", "100701.445000", "100701.905000", "100702.365000", "100702.825000", "100703.285000", "100703.745000", "100704.205000", "100704.665000", "100705.125000", "100705.585000", "100706.045000", "100706.505000", "100706.965000", "100707.425000", "100707.885000", "100708.345000", "100708.805000", "100709.265000", "100709.725000", "100710.185000", "100710.645000", "100711.105000", "100711.565000", "100712.025000", "100712.485000", "100712.945000", "100713.405000", "100713.865000", "100714.325000", "100714.785000", "100715.245000", "100715.705000", "100716.165000", "100716.625000", "100717.085000", "100717.545000", "100718.005000", "100718.465000", "100718.925000", "100719.385000", "100719.845000", "100720.305000", "100720.765000", "100721.225000", "100721.685000", "100722.145000", "100722.605000", "100723.065000", "100723.525000", "100723.985000", "100724.445000", "100724.905000", "100725.365000", "100725.825000", "100726.285000", "100726.745000", "100727.205000", "100727.665000", "100728.125000", "100728.585000", "100729.045000", "100729.505000", "100729.965000", "100730.425000", "100730.885000", "100731.345000", "100731.805000", "100732.265000", "100732.725000", "100733.185000", "100733.645000", "100734.105000", "100734.565000", "100735.025000", "100735.485000", "100735.945000", "100736.405000", "100736.865000", "100737.325000", "100737.785000", "100738.245000", "100738.705000", "100739.165000", "100739.625000", "100740.085000", "100740.545000", "100741.005000", "100741.465000", "100741.925000", "100742.385000", "100742.845000", "100743.305000", "100743.765000", "100744.225000", "100744.685000", "100745.145000", "100745.605000", "100746.065000", "100746.525000", "100746.985000", "100747.445000", "100747.905000", "100748.365000", "100748.825000", "100749.285000", "100749.745000", "100750.205000", "100750.665000", "100751.125000", "100751.585000", "100752.045000", "100752.505000", "100752.965000", "100753.425000", "100753.885000", "100754.345000", "100754.805000", "100755.265000", "100755.725000", "100756.185000", "100756.645000", "100757.105000", "100757.565000", "100758.025000", "100758.485000", "100758.945000", "100759.405000", "100759.865000", "100800.325000", "100800.785000", "100801.245000", "100801.705000", "100802.165000", "100802.625000", "100803.085000", "100803.545000", "100804.005000", "100804.465000", "100804.925000", "100805.385000", "100805.845000", "100806.305000", "100806.765000", "100807.225000", "100807.685000", "100808.145000", "100808.605000", "100809.065000", "100809.525000", "100809.985000", "100810.445000", "100810.905000", "100811.365000", "100811.825000", "100812.285000", "100812.745000", "100813.205000", "100813.665000", "100814.125000", "100814.585000", "100815.045000", "100815.505000", "100815.965000", "100816.425000", "100816.885000", "100817.345000", "100817.805000", "100818.265000", "100818.725000", "100819.185000", "100819.645000", "100820.105000", "100820.565000", "100821.025000", "100821.485000", "100821.945000", "100822.405000", "100822.865000", "100823.325000", "100823.785000", "100824.245000", "100824.705000", "100825.165000", "100825.625000", "100826.085000", "100826.545000", "100827.005000", "100827.465000", "100827.925000", "100828.385000", "100828.845000", "100829.305000", "100829.765000", "100830.225000", "100830.685000", "100831.145000", "100831.605000", "100832.065000", "100832.525000", "100832.985000", "100833.445000", "100833.905000", "100834.365000", "100834.825000", "100835.285000", "100835.745000", "100836.205000", "100836.665000", "100837.125000", "100837.585000", "100838.045000", "100838.505000", "100838.965000", "100839.425000", "100839.885000", "100840.345000", "100840.805000", "100841.265000", "100841.725000", "100842.185000", "100842.645000", "100843.105000", "100843.565000", "100844.025000", "100844.485000", "100844.945000", "100845.405000", "100845.865000", "100846.325000", "100846.785000", "100847.245000", "100847.705000", "100848.165000", "100848.625000", "100849.085000", "100849.545000", "100850.005000", "100850.465000", "100850.925000", "100851.385000", "100851.845000", "100852.305000", "100852.765000", "100853.225000", "100853.685000", "100854.145000", "100854.605000", "100855.065000", "100855.525000", "100855.985000", "100856.445000", "100856.905000", "100857.365000", "100857.825000", "100858.285000", "100858.745000", "100859.205000", "100859.665000", "100900.125000", "100900.585000", "100901.045000", "100901.505000", "100901.965000", "100902.425000", "100902.885000", "100903.345000", "100903.805000", "100904.265000", "100904.725000", "100905.185000", "100905.645000", "100906.105000", "100906.565000", "100907.025000", "100907.485000", "100907.945000", "100908.405000", "100908.865000", "100909.325000", "100909.785000", "100910.245000", "100910.705000", "100911.165000", "100911.625000", "100912.085000", "100912.545000", "100913.005000", "100913.465000", "100913.925000", "100914.385000", "100914.845000", "100915.305000", "100915.765000", "100916.225000", "100916.685000", "100917.145000", "100917.605000", "100918.065000", "100918.525000", "100918.985000", "100919.445000", "100919.905000", "100920.365000", "100920.825000", "100921.285000", "100921.745000", "100922.205000", "100922.665000", "100923.125000", "100923.585000", "100924.045000", "100924.505000", "100924.965000", "100925.425000", "100925.885000", "100926.345000", "100926.805000", "100927.265000", "100927.725000", "100928.185000", "100928.645000", "100929.105000", "100929.565000", "100930.025000", "100930.485000", "100930.945000", "100931.405000", "100931.865000", "100932.325000", "100932.785000", "100933.245000", "100933.705000", "100934.165000", "100934.625000"],
