{
  "AcquisitionMatrixPE": 82,
  "AcquisitionNumber": 1,
  "AcquisitionTime": "10:20:52.152500",
  "BandwidthPerPixelPhaseEncode": 24.888,
  "BaseResolution": 82,
  "BodyPartExamined": "BRAIN",
  "ConsistencyInfo": "N4_VE11E_LATEST_20181129",
  "ConversionSoftware": "dcm2niix",
  "ConversionSoftwareVersion": "v1.0.20201102",
  "DerivedVendorReportedEchoSpacing": 0.00049,
  "DeviceSerialNumber": "66112",
  "DwellTime": 2e-06,
  "EchoTime": 0.0272,
  "EchoTrainLength": 82,
  "EffectiveEchoSpacing": 0.00049,
  "FlipAngle": 44,
  "ImageComments": "Unaliased MB8/PE3",
  "ImageOrientationPatientDICOM": [0.998025, 0.0150488, 0.0609948, -0.021777, 0.99356, 0.111191],
  "ImageType": [
    "ORIGINAL",
    "PRIMARY",
    "M",
    "MB",
    "ND",
    "NORM",
    "MOSAIC"
],
  "ImagingFrequency": 123.259,
  "InPlanePhaseEncodingDirectionDICOM": "COL",
  "InstitutionAddress": "Maynard 3,Hanover,NH,US,03755",
  "InstitutionName": "Dartmouth College - PBS",
  "InstitutionalDepartmentName": "Department",
  "MRAcquisitionType": "2D",
  "MagneticFieldStrength": 3,
  "Manufacturer": "Siemens",
  "ManufacturersModelName": "Prisma",
  "Modality": "MR",
  "MultibandAccelerationFactor": 8,
  "PartialFourier": 1,
  "PatientPosition": "HFS",
  "PercentPhaseFOV": 100,
  "PercentSampling": 100,
  "PhaseEncodingDirection": "j-",
  "PhaseEncodingSteps": 82,
  "PhaseResolution": 1,
  "PixelBandwidth": 3050,
  "ProcedureStepDescription": "Wager_Wager^1076_spacetop",
  "ProtocolName": "func_run-03_task-alignvideo_acq-ap-mb8",
  "PulseSequenceDetails": "%CustomerSeq%\\cmrr_mbep2d_bold",
  "ReceiveCoilActiveElements": "HEA;HEP",
  "ReceiveCoilName": "Head_32",
  "ReconMatrixPE": 82,
  "RepetitionTime": 0.46,
  "SAR": 0.0831783,
  "ScanOptions": "FS",
  "ScanningSequence": "EP",
  "SequenceName": "epfid2d1_82",
  "SequenceVariant": "SK\\SS",
  "SeriesDescription": "func_run-03_task-alignvideo_acq-ap-mb8",
  "SeriesNumber": 34,
  "ShimSetting": [4236, -7769, -7262, 257, -118, -150, -79, 122],
  "SliceThickness": 2.7,
  "SliceTiming": [0, 0.2525, 0.0625, 0.315, 0.125, 0.3775, 0.1875, 0, 0.2525, 0.0625, 0.315, 0.125, 0.3775, 0.1875, 0, 0.2525, 0.0625, 0.315, 0.125, 0.3775, 0.1875, 0, 0.2525, 0.0625, 0.315, 0.125, 0.3775, 0.1875, 0, 0.2525, 0.0625, 0.315, 0.125, 0.3775, 0.1875, 0, 0.2525, 0.0625, 0.315, 0.125, 0.3775, 0.1875, 0, 0.2525, 0.0625, 0.315, 0.125, 0.3775, 0.1875, 0, 0.2525, 0.0625, 0.315, 0.125, 0.3775, 0.1875],
  "SoftwareVersions": "syngo MR E11",
  "SpacingBetweenSlices": 2.7,
  "StationName": "AWP66112",
  "TaskName": "alignvideo",
  "TotalReadoutTime": 0.03969,
  "TxRefAmp": 232.71,
  "WipMemBlock": "61091c50-7020-4bf5-913f-6b92c2eab403||Sequence: R016 ve11e/master r/434b28f1; Aug  7 2019 18:53:46 by eja",
  "dcmmeta_affine": [
    [-2.6776270866394043, -0.05842605233192444, 0.15910765528678894, 111.91158294677734],
    [-0.040374841541051865, 2.6656501293182373, 0.30320873856544495, -105.07744598388672],
    [0.16364465653896332, -0.298317015171051, 2.678199052810669, -76.02548217773438],
    [0.0, 0.0, 0.0, 1.0]
],
  "dcmmeta_reorient_transform": [
    [0.0, -1.0, 0.0, 81.0],
    [1.0, 0.0, 0.0, 0.0],
    [0.0, 0.0, 1.0, 0.0],
    [0.0, 0.0, 0.0, 1.0]
],
  "dcmmeta_shape": [82, 82, 56, 1016],
  "dcmmeta_slice_dim": 2,
  "dcmmeta_version": 0.6,
  "global": {
    "const": {
      "AccessionNumber": "A004316",
      "AcquisitionMatrix": [82, 0, 0, 82],
      "AngioFlag": "N",
      "BitsAllocated": 16,
      "BitsStored": 16,
      "BodyPartExamined": "BRAIN",
      "Columns": 656,
      "EchoNumbers": 1,
      "EchoTime": 27.2,
      "EchoTrainLength": 82,
      "FlipAngle": 44.0,
      "HighBit": 15,
      "ImageOrientationPatient": [0.99802463125079, 0.01504880391473, 0.06099482697291, -0.021776982604, 0.99356044112786, 0.11119088476345],
      "ImagePositionPatient": [-858.88978117575, -887.46933984404, -232.7721634611],
      "ImageType": [
        "ORIGINAL",
        "PRIMARY",
        "M",
        "MB",
        "ND",
        "NORM",
        "MOSAIC"
],
      "ImagedNucleus": "1H",
      "ImagingFrequency": 123.259119,
      "InPlanePhaseEncodingDirection": "COL",
      "MRAcquisitionType": "2D",
      "MagneticFieldStrength": 3.0,
      "Manufacturer": "SIEMENS",
      "ManufacturerModelName": "Prisma",
      "Modality": "MR",
      "NumberOfAverages": 1.0,
      "NumberOfPhaseEncodingSteps": 82,
      "PercentPhaseFieldOfView": 100.0,
      "PercentSampling": 100.0,
      "PerformedProcedureStepStartTime": "083015.280000",
      "PhotometricInterpretation": "MONOCHROME2",
      "PixelBandwidth": 3050.0,
      "PixelRepresentation": 0,
      "PixelSpacing": [2.6829268932343, 2.6829268932343],
      "ProtocolName": "func_run-03_task-alignvideo_acq-ap-mb8",
      "RepetitionTime": 460.0,
      "Rows": 656,
      "SAR": 0.08317831490986,
      "SamplesPerPixel": 1,
      "ScanOptions": "FS",
      "ScanningSequence": "EP",
      "SequenceName": "epfid2d1_82",
      "SequenceVariant": [
        "SK",
        "SS"
],
      "SeriesDescription": "func_run-03_task-alignvideo_acq-ap-mb8",
      "SeriesNumber": 34,
      "SeriesTime": "102118.772000",
      "SliceLocation": -80.616954168116,
      "SliceThickness": 2.7000000476837,
      "SmallestImagePixelValue": 0,
      "SoftwareVersions": "syngo MR E11",
      "SpacingBetweenSlices": 2.7000000563069,
      "SpecificCharacterSet": "ISO_IR 100",
      "StudyID": "1",
      "StudyTime": "083015.171000",
      "TransmitCoilName": "Body",
      "VariableFlipAngleFlag": "N",
      "WindowCenterWidthExplanation": "Algo1"
    },
    "slices": {}
  },
  "time": {
    "samples": {
      "AcquisitionNumber": [1, 2, 3, 4, 5, 6, 7, 8, 9, 10, 11, 12, 13, 14, 15, 16, 17, 18, 19, 20, 21, 22, 23, 24, 25, 26, 27, 28, 29, 30, 31, 32, 33, 34, 35, 36, 37, 38, 39, 40, 41, 42, 43, 44, 45, 46, 47, 48, 49, 50, 51, 52, 53, 54, 55, 56, 57, 58, 59, 60, 61, 62, 63, 64, 65, 66, 67, 68, 69, 70, 71, 72, 73, 74, 75, 76, 77, 78, 79, 80, 81, 82, 83, 84, 85, 86, 87, 88, 89, 90, 91, 92, 93, 94, 95, 96, 97, 98, 99, 100, 101, 102, 103, 104, 105, 106, 107, 108, 109, 110, 111, 112, 113, 114, 115, 116, 117, 118, 119, 120, 121, 122, 123, 124, 125, 126, 127, 128, 129, 130, 131, 132, 133, 134, 135, 136, 137, 138, 139, 140, 141, 142, 143, 144, 145, 146, 147, 148, 149, 150, 151, 152, 153, 154, 155, 156, 157, 158, 159, 160, 161, 162, 163, 164, 165, 166, 167, 168, 169, 170, 171, 172, 173, 174, 175, 176, 177, 178, 179, 180, 181, 182, 183, 184, 185, 186, 187, 188, 189, 190, 191, 192, 193, 194, 195, 196, 197, 198, 199, 200, 201, 202, 203, 204, 205, 206, 207, 208, 209, 210, 211, 212, 213, 214, 215, 216, 217, 218, 219, 220, 221, 222, 223, 224, 225, 226, 227, 228, 229, 230, 231, 232, 233, 234, 235, 236, 237, 238, 239, 240, 241, 242, 243, 244, 245, 246, 247, 248, 249, 250, 251, 252, 253, 254, 255, 256, 257, 258, 259, 260, 261, 262, 263, 264, 265, 266, 267, 268, 269, 270, 271, 272, 273, 274, 275, 276, 277, 278, 279, 280, 281, 282, 283, 284, 285, 286, 287, 288, 289, 290, 291, 292, 293, 294, 295, 296, 297, 298, 299, 300, 301, 302, 303, 304, 305, 306, 307, 308, 309, 310, 311, 312, 313, 314, 315, 316, 317, 318, 319, 320, 321, 322, 323, 324, 325, 326, 327, 328, 329, 330, 331, 332, 333, 334, 335, 336, 337, 338, 339, 340, 341, 342, 343, 344, 345, 346, 347, 348, 349, 350, 351, 352, 353, 354, 355, 356, 357, 358, 359, 360, 361, 362, 363, 364, 365, 366, 367, 368, 369, 370, 371, 372, 373, 374, 375, 376, 377, 378, 379, 380, 381, 382, 383, 384, 385, 386, 387, 388, 389, 390, 391, 392, 393, 394, 395, 396, 397, 398, 399, 400, 401, 402, 403, 404, 405, 406, 407, 408, 409, 410, 411, 412, 413, 414, 415, 416, 417, 418, 419, 420, 421, 422, 423, 424, 425, 426, 427, 428, 429, 430, 431, 432, 433, 434, 435, 436, 437, 438, 439, 440, 441, 442, 443, 444, 445, 446, 447, 448, 449, 450, 451, 452, 453, 454, 455, 456, 457, 458, 459, 460, 461, 462, 463, 464, 465, 466, 467, 468, 469, 470, 471, 472, 473, 474, 475, 476, 477, 478, 479, 480, 481, 482, 483, 484, 485, 486, 487, 488, 489, 490, 491, 492, 493, 494, 495, 496, 497, 498, 499, 500, 501, 502, 503, 504, 505, 506, 507, 508, 509, 510, 511, 512, 513, 514, 515, 516, 517, 518, 519, 520, 521, 522, 523, 524, 525, 526, 527, 528, 529, 530, 531, 532, 533, 534, 535, 536, 537, 538, 539, 540, 541, 542, 543, 544, 545, 546, 547, 548, 549, 550, 551, 552, 553, 554, 555, 556, 557, 558, 559, 560, 561, 562, 563, 564, 565, 566, 567, 568, 569, 570, 571, 572, 573, 574, 575, 576, 577, 578, 579, 580, 581, 582, 583, 584, 585, 586, 587, 588, 589, 590, 591, 592, 593, 594, 595, 596, 597, 598, 599, 600, 601, 602, 603, 604, 605, 606, 607, 608, 609, 610, 611, 612, 613, 614, 615, 616, 617, 618, 619, 620, 621, 622, 623, 624, 625, 626, 627, 628, 629, 630, 631, 632, 633, 634, 635, 636, 637, 638, 639, 640, 641, 642, 643, 644, 645, 646, 647, 648, 649, 650, 651, 652, 653, 654, 655, 656, 657, 658, 659, 660, 661, 662, 663, 664, 665, 666, 667, 668, 669, 670, 671, 672, 673, 674, 675, 676, 677, 678, 679, 680, 681, 682, 683, 684, 685, 686, 687, 688, 689, 690, 691, 692, 693, 694, 695, 696, 697, 698, 699, 700, 701, 702, 703, 704, 705, 706, 707, 708, 709, 710, 711, 712, 713, 714, 715, 716, 717, 718, 719, 720, 721, 722, 723, 724, 725, 726, 727, 728, 729, 730, 731, 732, 733, 734, 735, 736, 737, 738, 739, 740, 741, 742, 743, 744, 745, 746, 747, 748, 749, 750, 751, 752, 753, 754, 755, 756, 757, 758, 759, 760, 761, 762, 763, 764, 765, 766, 767, 768, 769, 770, 771, 772, 773, 774, 775, 776, 777, 778, 779, 780, 781, 782, 783, 784, 785, 786, 787, 788, 789, 790, 791, 792, 793, 794, 795, 796, 797, 798, 799, 800, 801, 802, 803, 804, 805, 806, 807, 808, 809, 810, 811, 812, 813, 814, 815, 816, 817, 818, 819, 820, 821, 822, 823, 824, 825, 826, 827, 828, 829, 830, 831, 832, 833, 834, 835, 836, 837, 838, 839, 840, 841, 842, 843, 844, 845, 846, 847, 848, 849, 850, 851, 852, 853, 854, 855, 856, 857, 858, 859, 860, 861, 862, 863, 864, 865, 866, 867, 868, 869, 870, 871, 872, 873, 874, 875, 876, 877, 878, 879, 880, 881, 882, 883, 884, 885, 886, 887, 888, 889, 890, 891, 892, 893, 894, 895, 896, 897, 898, 899, 900, 901, 902, 903, 904, 905, 906, 907, 908, 909, 910, 911, 912, 913, 914, 915, 916, 917, 918, 919, 920, 921, 922, 923, 924, 925, 926, 927, 928, 929, 930, 931, 932, 933, 934, 935, 936, 937, 938, 939, 940, 941, 942, 943, 944, 945, 946, 947, 948, 949, 950, 951, 952, 953, 954, 955, 956, 957, 958, 959, 960, 961, 962, 963, 964, 965, 966, 967, 968, 969, 970, 971, 972, 973, 974, 975, 976, 977, 978, 979, 980, 981, 982, 983, 984, 985, 986, 987, 988, 989, 990, 991, 992, 993, 994, 995, 996, 997, 998, 999, 1000, 1001, 1002, 1003, 1004, 1005, 1006, 1007, 1008, 1009, 1010, 1011, 1012, 1013, 1014, 1015, 1016],
      "AcquisitionTime": ["102052.152500", "102052.612500", "102053.072500", "102053.532500", "102053.992500", "102054.452500", "102054.912500", "102055.372500", "102055.832500", "102056.292500", "102056.752500", "102057.212500", "102057.672500", "102058.132500", "102058.592500", "102059.052500", "102059.512500", "102059.972500", "102100.432500", "102100.892500", "102101.352500", "102101.812500", "102102.272500", "102102.732500", "102103.192500", "102103.652500", "102104.112500", "102104.572500", "102105.032500", "102105.492500", "102105.952500", "102106.412500", "102106.872500", "102107.332500", "102107.792500", "102108.252500", "102108.712500", "102109.172500", "102109.632500", "102110.092500", "102110.552500", "102111.012500", "102111.472500", "102111.932500", "102112.392500", "102112.852500", "102113.312500", "102113.772500", "102114.232500", "102114.692500", "102115.152500", "102115.612500", "102116.072500", "102116.532500", "102116.992500", "102117.452500", "102117.912500", "102118.372500", "102118.832500", "102119.292500", "102119.752500", "102120.212500", "102120.672500", "102121.132500", "102121.592500", "102122.052500", "102122.512500", "102122.972500", "102123.432500", "102123.892500", "102124.352500", "102124.812500", "102125.272500", "102125.732500", "102126.192500", "102126.652500", "102127.112500", "102127.572500", "102128.032500", "102128.492500", "102128.952500", "102129.412500", "102129.872500", "102130.332500", "102130.792500", "102131.252500", "102131.712500", "102132.172500", "102132.632500", "102133.092500", "102133.552500", "102134.012500", "102134.472500", "102134.932500", "102135.392500", "102135.852500", "102136.312500", "102136.772500", "102137.232500", "102137.692500", "102138.152500", "102138.612500", "102139.072500", "102139.532500", "102139.992500", "102140.452500", "102140.912500", "102141.372500", "102141.832500", "102142.292500", "102142.752500", "102143.212500", "102143.672500", "102144.132500", "102144.592500", "102145.052500", "102145.512500", "102145.972500", "102146.432500", "102146.892500", "102147.352500", "102147.812500", "102148.272500", "102148.732500", "102149.192500", "102149.652500", "102150.112500", "102150.572500", "102151.032500", "102151.492500", "102151.952500", "102152.412500", "102152.872500", "102153.332500", "102153.792500", "102154.252500", "102154.712500", "102155.172500", "102155.632500", "102156.092500", "102156.552500", "102157.012500", "102157.472500", "102157.932500", "102158.392500", "102158.852500", "102159.312500", "102159.772500", "102200.232500", "102200.692500", "102201.152500", "102201.612500", "102202.072500", "102202.532500", "102202.992500", "102203.452500", "102203.912500", "102204.372500", "102204.832500", "102205.292500", "102205.752500", "102206.212500", "102206.672500", "102207.132500", "102207.592500", "102208.052500", "102208.512500", "102208.972500", "102209.432500", "102209.892500", "102210.352500", "102210.812500", "102211.272500", "102211.732500", "102212.192500", "102212.652500", "102213.112500", "102213.572500", "102214.032500", "102214.492500", "102214.952500", "102215.412500", "102215.872500", "102216.332500", "102216.792500", "102217.252500", "102217.712500", "102218.172500", "102218.632500", "102219.092500", "102219.552500", "102220.012500", "102220.472500", "102220.932500", "102221.392500", "102221.852500", "102222.312500", "102222.772500", "102223.232500", "102223.692500", "102224.152500", "102224.612500", "102225.072500", "102225.532500", "102225.992500", "102226.452500", "102226.912500", "102227.372500", "102227.832500", "102228.292500", "102228.752500", "102229.212500", "102229.672500", "102230.132500", "102230.592500", "102231.052500", "102231.512500", "102231.972500", "102232.432500", "102232.892500", "102233.352500", "102233.812500", "102234.272500", "102234.732500", "102235.192500", "102235.652500", "102236.112500", "102236.572500", "102237.032500", "102237.492500", "102237.952500", "102238.412500", "102238.872500", "102239.332500", "102239.792500", "102240.252500", "102240.712500", "102241.172500", "102241.632500", "102242.092500", "102242.552500", "102243.012500", "102243.472500", "102243.932500", "102244.392500", "102244.852500", "102245.312500", "102245.772500", "102246.232500", "102246.692500", "102247.152500", "102247.612500", "102248.072500", "102248.532500", "102248.992500", "102249.452500", "102249.912500", "102250.372500", "102250.832500", "102251.292500", "102251.752500", "102252.212500", "102252.672500", "102253.132500", "102253.592500", "102254.052500", "102254.512500", "102254.972500", "102255.432500", "102255.892500", "102256.352500", "102256.812500", "102257.272500", "102257.732500", "102258.192500", "102258.652500", "102259.112500", "102259.572500", "102300.032500", "102300.492500", "102300.952500", "102301.412500", "102301.872500", "102302.332500", "102302.792500", "102303.252500", "102303.712500", "102304.172500", "102304.632500", "102305.092500", "102305.552500", "102306.012500", "102306.472500", "102306.932500", "102307.392500", "102307.852500", "102308.312500", "102308.772500", "102309.232500", "102309.692500", "102310.152500", "102310.612500", "102311.072500", "102311.532500", "102311.992500", "102312.452500", "102312.912500", "102313.372500", "102313.832500", "102314.292500", "102314.752500", "102315.212500", "102315.672500", "102316.132500", "102316.592500", "102317.052500", "102317.512500", "102317.972500", "102318.432500", "102318.892500", "102319.352500", "102319.812500", "102320.272500", "102320.732500", "102321.192500", "102321.652500", "102322.112500", "102322.572500", "102323.032500", "102323.492500", "102323.952500", "102324.412500", "102324.872500", "102325.332500", "102325.792500", "102326.252500", "102326.712500", "102327.172500", "102327.632500", "102328.092500", "102328.552500", "102329.012500", "102329.472500", "102329.932500", "102330.392500", "102330.852500", "102331.312500", "102331.772500", "102332.232500", "102332.692500", "102333.152500", "102333.612500", "102334.072500", "102334.532500", "102334.992500", "102335.452500", "102335.912500", "102336.372500", "102336.832500", "102337.292500", "102337.752500", "102338.212500", "102338.672500", "102339.132500", "102339.592500", "102340.052500", "102340.512500", "102340.972500", "102341.432500", "102341.892500", "102342.352500", "102342.812500", "102343.272500", "102343.732500", "102344.192500", "102344.652500", "102345.112500", "102345.572500", "102346.032500", "102346.492500", "102346.952500", "102347.412500", "102347.872500", "102348.332500", "102348.792500", "102349.252500", "102349.712500", "102350.172500", "102350.632500", "102351.092500", "102351.552500", "102352.012500", "102352.472500", "102352.932500", "102353.392500", "102353.852500", "102354.312500", "102354.772500", "102355.232500", "102355.692500", "102356.152500", "102356.612500", "102357.072500", "102357.532500", "102357.992500", "102358.452500", "102358.912500", "102359.372500", "102359.832500", "102400.292500", "102400.752500", "102401.212500", "102401.672500", "102402.132500", "102402.592500", "102403.052500", "102403.512500", "102403.972500", "102404.432500", "102404.892500", "102405.352500", "102405.812500", "102406.272500", "102406.732500", "102407.192500", "102407.652500", "102408.112500", "102408.572500", "102409.032500", "102409.492500", "102409.952500", "102410.412500", "102410.872500", "102411.332500", "102411.792500", "102412.252500", "102412.712500", "102413.172500", "102413.632500", "102414.092500", "102414.552500", "102415.012500", "102415.472500", "102415.932500", "102416.392500", "102416.852500", "102417.312500", "102417.772500", "102418.232500", "102418.692500", "102419.152500", "102419.612500", "102420.072500", "102420.532500", "102420.992500", "102421.452500", "102421.912500", "102422.372500", "102422.832500", "102423.292500", "102423.752500", "102424.212500", "102424.672500", "102425.132500", "102425.592500", "102426.052500", "102426.512500", "102426.972500", "102427.432500", "102427.892500", "102428.352500", "102428.812500", "102429.272500", "102429.732500", "102430.192500", "102430.652500", "102431.112500", "102431.572500", "102432.032500", "102432.492500", "102432.952500", "102433.412500", "102433.872500", "102434.332500", "102434.792500", "102435.252500", "102435.712500", "102436.172500", "102436.632500", "102437.092500", "102437.552500", "102438.012500", "102438.472500", "102438.932500", "102439.392500", "102439.852500", "102440.312500", "102440.772500", "102441.232500", "102441.692500", "102442.152500", "102442.612500", "102443.072500", "102443.532500", "102443.992500", "102444.452500", "102444.912500", "102445.372500", "102445.832500", "102446.292500", "102446.752500", "102447.212500", "102447.672500", "102448.132500", "102448.592500", "102449.052500", "102449.512500", "102449.972500", "102450.432500", "102450.892500", "102451.352500", "102451.812500", "102452.272500", "102452.732500", "102453.192500", "102453.652500", "102454.112500", "102454.572500", "102455.032500", "102455.492500", "102455.952500", "102456.412500", "102456.872500", "102457.332500", "102457.792500", "102458.252500", "102458.712500", "102459.172500", "102459.632500", "102500.092500", "102500.552500", "102501.012500", "102501.472500", "102501.932500", "102502.392500", "102502.852500", "102503.312500", "102503.772500", "102504.232500", "102504.692500", "102505.152500", "102505.612500", "102506.072500", "102506.532500", "102506.992500", "102507.452500", "102507.912500", "102508.372500", "102508.832500", "102509.292500", "102509.752500", "102510.212500", "102510.672500", "102511.132500", "102511.592500", "102512.052500", "102512.512500", "102512.972500", "102513.432500", "102513.892500", "102514.352500", "102514.812500", "102515.272500", "102515.732500", "102516.192500", "102516.652500", "102517.112500", "102517.572500", "102518.032500", "102518.492500", "102518.952500", "102519.412500", "102519.872500", "102520.332500", "102520.792500", "102521.252500", "102521.712500", "102522.172500", "102522.632500", "102523.092500", "102523.552500", "102524.012500", "102524.472500", "102524.932500", "102525.392500", "102525.852500", "102526.312500", "102526.772500", "102527.232500", "102527.692500", "102528.152500", "102528.612500", "102529.072500", "102529.532500", "102529.992500", "102530.452500", "102530.912500", "102531.372500", "102531.832500", "102532.292500", "102532.752500", "102533.212500", "102533.672500", "102534.132500", "102534.592500", "102535.052500", "102535.512500", "102535.972500", "102536.432500", "102536.892500", "102537.352500", "102537.812500", "102538.272500", "102538.732500", "102539.192500", "102539.652500", "102540.112500", "102540.572500", "102541.032500", "102541.492500", "102541.952500", "102542.412500", "102542.872500", "102543.332500", "102543.792500", "102544.252500", "102544.712500", "102545.172500", "102545.632500", "102546.092500", "102546.552500", "102547.012500", "102547.472500", "102547.932500", "102548.392500", "102548.852500", "102549.312500", "102549.772500", "102550.232500", "102550.692500", "102551.152500", "102551.612500", "102552.072500", "102552.532500", "102552.992500", "102553.452500", "102553.912500", "102554.372500", "102554.832500", "102555.292500", "102555.752500", "102556.212500", "102556.672500", "102557.132500", "102557.592500", "102558.052500", "102558.512500", "102558.972500", "102559.432500", "102559.892500", "102600.352500", "102600.812500", "102601.272500", "102601.732500", "102602.192500", "102602.652500", "102603.112500", "102603.572500", "102604.032500", "102604.492500", "102604.952500", "102605.412500", "102605.872500", "102606.332500", "102606.792500", "102607.252500", "102607.712500", "102608.172500", "102608.632500", "102609.092500", "102609.552500", "102610.012500", "102610.472500", "102610.932500", "102611.392500", "102611.852500", "102612.312500", "102612.772500", "102613.232500", "102613.692500", "102614.152500", "102614.612500", "102615.072500", "102615.532500", "102615.992500", "102616.452500", "102616.912500", "102617.372500", "102617.832500", "102618.292500", "102618.752500", "102619.212500", "102619.672500", "102620.132500", "102620.592500", "102621.052500", "102621.512500", "102621.972500", "102622.432500", "102622.892500", "102623.352500", "102623.812500", "102624.272500", "102624.732500", "102625.192500", "102625.652500", "102626.112500", "102626.572500", "102627.032500", "102627.492500", "102627.952500", "102628.412500", "102628.872500", "102629.332500", "102629.792500", "102630.252500", "102630.712500", "102631.172500", "102631.632500", "102632.092500", "102632.552500", "102633.012500", "102633.472500", "102633.932500", "102634.392500", "102634.852500", "102635.312500", "102635.772500", "102636.232500", "102636.692500", "102637.152500", "102637.612500", "102638.072500", "102638.532500", "102638.992500", "102639.452500", "102639.912500", "102640.372500", "102640.832500", "102641.292500", "102641.752500", "102642.212500", "102642.672500", "102643.132500", "102643.592500", "102644.052500", "102644.512500", "102644.972500", "102645.432500", "102645.892500", "102646.352500", "102646.812500", "102647.272500", "102647.732500", "102648.192500", "102648.652500", "102649.112500", "102649.572500", "102650.032500", "102650.492500", "102650.952500", "102651.412500", "102651.872500", "102652.332500", "102652.792500", "102653.252500", "102653.712500", "102654.172500", "102654.632500", "102655.092500", "102655.552500", "102656.012500", "102656.472500", "102656.932500", "102657.392500", "102657.852500", "102658.312500", "102658.772500", "102659.232500", "102659.692500", "102700.152500", "102700.612500", "102701.072500", "102701.532500", "102701.992500", "102702.452500", "102702.912500", "102703.372500", "102703.832500", "102704.292500", "102704.752500", "102705.212500", "102705.672500", "102706.132500", "102706.592500", "102707.052500", "102707.512500", "102707.972500", "102708.432500", "102708.892500", "102709.352500", "102709.812500", "102710.272500", "102710.732500", "102711.192500", "102711.652500", "102712.112500", "102712.572500", "102713.032500", "102713.492500", "102713.952500", "102714.412500", "102714.872500", "102715.332500", "102715.792500", "102716.252500", "102716.712500", "102717.172500", "102717.632500", "102718.092500", "102718.552500", "102719.012500", "102719.472500", "102719.932500", "102720.392500", "102720.852500", "102721.312500", "102721.772500", "102722.232500", "102722.692500", "102723.152500", "102723.612500", "102724.072500", "102724.532500", "102724.992500", "102725.452500", "102725.912500", "102726.372500", "102726.832500", "102727.292500", "102727.752500", "102728.212500", "102728.672500", "102729.132500", "102729.592500", "102730.052500", "102730.512500", "102730.972500", "102731.432500", "102731.892500", "102732.352500", "102732.812500", "102733.272500", "102733.732500", "102734.192500", "102734.652500", "102735.112500", "102735.572500", "102736.032500", "102736.492500", "102736.952500", "102737.412500", "102737.872500", "102738.332500", "102738.792500", "102739.252500", "102739.712500", "102740.172500", "102740.632500", "102741.092500", "102741.552500", "102742.012500", "102742.472500", "102742.932500", "102743.392500", "102743.852500", "102744.312500", "102744.772500", "102745.232500", "102745.692500", "102746.152500", "102746.612500", "102747.072500", "102747.532500", "102747.992500", "102748.452500", "102748.912500", "102749.372500", "102749.832500", "102750.292500", "102750.752500", "102751.212500", "102751.672500", "102752.132500", "102752.592500", "102753.052500", "102753.512500", "102753.972500", "102754.432500", "102754.892500", "102755.352500", "102755.812500", "102756.272500", "102756.732500", "102757.192500", "102757.652500", "102758.112500", "102758.572500", "102759.032500", "102759.492500", "102759.952500", "102800.412500", "102800.872500", "102801.332500", "102801.792500", "102802.252500", "102802.712500", "102803.172500", "102803.632500", "102804.092500", "102804.552500", "102805.012500", "102805.472500", "102805.932500", "102806.392500", "102806.852500", "102807.312500", "102807.772500", "102808.232500", "102808.692500", "102809.152500", "102809.612500", "102810.072500", "102810.532500", "102810.992500", "102811.452500", "102811.912500", "102812.372500", "102812.832500", "102813.292500", "102813.752500", "102814.212500", "102814.672500", "102815.132500", "102815.592500", "102816.052500", "102816.512500", "102816.972500", "102817.432500", "102817.892500", "102818.352500", "102818.812500", "102819.272500", "102819.732500", "102820.192500", "102820.652500", "102821.112500", "102821.572500", "102822.032500", "102822.492500", "102822.952500", "102823.412500", "102823.872500", "102824.332500", "102824.792500", "102825.252500", "102825.712500", "102826.172500", "102826.632500", "102827.092500", "102827.552500", "102828.012500", "102828.472500", "102828.932500", "102829.392500", "102829.852500", "102830.312500", "102830.772500", "102831.232500", "102831.692500", "102832.152500", "102832.612500", "102833.072500", "102833.532500", "102833.992500", "102834.452500", "102834.912500", "102835.372500", "102835.832500", "102836.292500", "102836.752500", "102837.212500", "102837.672500", "102838.132500", "102838.592500", "102839.052500"],
