{
  "AcquisitionMatrixPE": 82,
  "AcquisitionNumber": 1,
  "AcquisitionTime": "09:35:47.797500",
  "BandwidthPerPixelPhaseEncode": 24.888,
  "BaseResolution": 82,
  "BodyPartExamined": "BRAIN",
  "ConsistencyInfo": "N4_VE11E_LATEST_20181129",
  "ConversionSoftware": "dcm2niix",
  "ConversionSoftwareVersion": "v1.0.20201102",
  "DerivedVendorReportedEchoSpacing": 0.00049,
  "DeviceSerialNumber": "66112",
  "DwellTime": 2e-06,
  "EchoTime": 0.0272,
  "EchoTrainLength": 82,
  "EffectiveEchoSpacing": 0.00049,
  "FlipAngle": 44,
  "ImageComments": "Unaliased MB8/PE3",
  "ImageOrientationPatientDICOM": [0.999658, -0.00315409, 0.0259541, 0.0017447, 0.998531, 0.0541473],
  "ImageType": [
    "ORIGINAL",
    "PRIMARY",
    "M",
    "MB",
    "ND",
    "NORM",
    "MOSAIC"
],
  "ImagingFrequency": 123.259,
  "InPlanePhaseEncodingDirectionDICOM": "COL",
  "InstitutionAddress": "Maynard 3,Hanover,NH,US,03755",
  "InstitutionName": "Dartmouth College - PBS",
  "InstitutionalDepartmentName": "Department",
  "MRAcquisitionType": "2D",
  "MagneticFieldStrength": 3,
  "Manufacturer": "Siemens",
  "ManufacturersModelName": "Prisma",
  "Modality": "MR",
  "MultibandAccelerationFactor": 8,
  "PartialFourier": 1,
  "PatientPosition": "HFS",
  "PercentPhaseFOV": 100,
  "PercentSampling": 100,
  "PhaseEncodingDirection": "j-",
  "PhaseEncodingSteps": 82,
  "PhaseResolution": 1,
  "PixelBandwidth": 3050,
  "ProcedureStepDescription": "Wager_Wager^1076_spacetop",
  "ProtocolName": "func_run-04_task-social_acq-ap-mb8",
  "PulseSequenceDetails": "%CustomerSeq%\\cmrr_mbep2d_bold",
  "ReceiveCoilActiveElements": "HEA;HEP",
  "ReceiveCoilName": "Head_32",
  "ReconMatrixPE": 82,
  "RepetitionTime": 0.46,
  "SAR": 0.083105,
  "ScanOptions": "FS",
  "ScanningSequence": "EP",
  "SequenceName": "epfid2d1_82",
  "SequenceVariant": "SK\\SS",
  "SeriesDescription": "func_run-04_task-social_acq-ap-mb8",
  "SeriesNumber": 18,
  "ShimSetting": [4237, -7769, -7261, 265, -115, -163, -82, 118],
  "SliceThickness": 2.7,
  "SliceTiming": [0, 0.2525, 0.0625, 0.315, 0.125, 0.3775, 0.19, 0, 0.2525, 0.0625, 0.315, 0.125, 0.3775, 0.19, 0, 0.2525, 0.0625, 0.315, 0.125, 0.3775, 0.19, 0, 0.2525, 0.0625, 0.315, 0.125, 0.3775, 0.19, 0, 0.2525, 0.0625, 0.315, 0.125, 0.3775, 0.19, 0, 0.2525, 0.0625, 0.315, 0.125, 0.3775, 0.19, 0, 0.2525, 0.0625, 0.315, 0.125, 0.3775, 0.19, 0, 0.2525, 0.0625, 0.315, 0.125, 0.3775, 0.19],
  "SoftwareVersions": "syngo MR E11",
  "SpacingBetweenSlices": 2.7,
  "StationName": "AWP66112",
  "TaskName": "social",
  "TotalReadoutTime": 0.03969,
  "TxRefAmp": 232.71,
  "WipMemBlock": "81fab4a1-d477-4757-ab4e-66ddaf361779||Sequence: R016 ve11e/master r/434b28f1; Aug  7 2019 18:53:46 by eja",
  "dcmmeta_affine": [
    [-2.682009696960449, 0.004680910613387823, 0.07043439894914627, 112.77593994140625],
    [0.008462182246148586, 2.6789867877960205, 0.14602553844451904, -103.451416015625],
    [0.06963307410478592, -0.1452733278274536, 2.6951279640197754, -80.25406646728516],
    [0.0, 0.0, 0.0, 1.0]
],
  "dcmmeta_reorient_transform": [
    [0.0, -1.0, 0.0, 81.0],
    [1.0, 0.0, 0.0, 0.0],
    [0.0, 0.0, 1.0, 0.0],
    [0.0, 0.0, 0.0, 1.0]
],
  "dcmmeta_shape": [82, 82, 56, 872],
  "dcmmeta_slice_dim": 2,
  "dcmmeta_version": 0.6,
  "global": {
    "const": {
      "AccessionNumber": "A004316",
      "AcquisitionMatrix": [82, 0, 0, 82],
      "AngioFlag": "N",
      "BitsAllocated": 16,
      "BitsStored": 16,
      "BodyPartExamined": "BRAIN",
      "Columns": 656,
      "EchoNumbers": 1,
      "EchoTime": 27.2,
      "EchoTrainLength": 82,
      "FlipAngle": 44.0,
      "HighBit": 15,
      "ImageOrientationPatient": [0.99965815860205, -0.0031540861684, 0.02595414573428, 0.00174470295802, 0.99853143311025, 0.05414732774927],
      "ImagePositionPatient": [-884.2353190503, -879.98709221993, -153.69934320696],
      "ImageType": [
        "ORIGINAL",
        "PRIMARY",
        "M",
        "MB",
        "ND",
        "NORM",
        "MOSAIC"
],
      "ImagedNucleus": "1H",
      "ImagingFrequency": 123.25911,
      "InPlanePhaseEncodingDirection": "COL",
      "MRAcquisitionType": "2D",
      "MagneticFieldStrength": 3.0,
      "Manufacturer": "SIEMENS",
      "ManufacturerModelName": "Prisma",
      "Modality": "MR",
      "NumberOfAverages": 1.0,
      "NumberOfPhaseEncodingSteps": 82,
      "PercentPhaseFieldOfView": 100.0,
      "PercentSampling": 100.0,
      "PerformedProcedureStepStartTime": "083015.280000",
      "PhotometricInterpretation": "MONOCHROME2",
      "PixelBandwidth": 3050.0,
      "PixelRepresentation": 0,
      "PixelSpacing": [2.6829268932343, 2.6829268932343],
      "ProtocolName": "func_run-04_task-social_acq-ap-mb8",
      "RepetitionTime": 460.0,
      "Rows": 656,
      "SAR": 0.08310504243649,
      "SamplesPerPixel": 1,
      "ScanOptions": "FS",
      "ScanningSequence": "EP",
      "SequenceName": "epfid2d1_82",
      "SequenceVariant": [
        "SK",
        "SS"
],
      "SeriesDescription": "func_run-04_task-social_acq-ap-mb8",
      "SeriesNumber": 18,
      "SeriesTime": "093558.839000",
      "SliceLocation": -82.76231052462,
      "SliceThickness": 2.7000000476837,
      "SmallestImagePixelValue": 0,
      "SoftwareVersions": "syngo MR E11",
      "SpacingBetweenSlices": 2.6999998961942,
      "SpecificCharacterSet": "ISO_IR 100",
      "StudyID": "1",
      "StudyTime": "083015.171000",
      "TransmitCoilName": "Body",
      "VariableFlipAngleFlag": "N",
      "WindowCenterWidthExplanation": "Algo1"
    },
    "slices": {}
  },
  "time": {
    "samples": {
      "AcquisitionNumber": [1, 2, 3, 4, 5, 6, 7, 8, 9, 10, 11, 12, 13, 14, 15, 16, 17, 18, 19, 20, 21, 22, 23, 24, 25, 26, 27, 28, 29, 30, 31, 32, 33, 34, 35, 36, 37, 38, 39, 40, 41, 42, 43, 44, 45, 46, 47, 48, 49, 50, 51, 52, 53, 54, 55, 56, 57, 58, 59, 60, 61, 62, 63, 64, 65, 66, 67, 68, 69, 70, 71, 72, 73, 74, 75, 76, 77, 78, 79, 80, 81, 82, 83, 84, 85, 86, 87, 88, 89, 90, 91, 92, 93, 94, 95, 96, 97, 98, 99, 100, 101, 102, 103, 104, 105, 106, 107, 108, 109, 110, 111, 112, 113, 114, 115, 116, 117, 118, 119, 120, 121, 122, 123, 124, 125, 126, 127, 128, 129, 130, 131, 132, 133, 134, 135, 136, 137, 138, 139, 140, 141, 142, 143, 144, 145, 146, 147, 148, 149, 150, 151, 152, 153, 154, 155, 156, 157, 158, 159, 160, 161, 162, 163, 164, 165, 166, 167, 168, 169, 170, 171, 172, 173, 174, 175, 176, 177, 178, 179, 180, 181, 182, 183, 184, 185, 186, 187, 188, 189, 190, 191, 192, 193, 194, 195, 196, 197, 198, 199, 200, 201, 202, 203, 204, 205, 206, 207, 208, 209, 210, 211, 212, 213, 214, 215, 216, 217, 218, 219, 220, 221, 222, 223, 224, 225, 226, 227, 228, 229, 230, 231, 232, 233, 234, 235, 236, 237, 238, 239, 240, 241, 242, 243, 244, 245, 246, 247, 248, 249, 250, 251, 252, 253, 254, 255, 256, 257, 258, 259, 260, 261, 262, 263, 264, 265, 266, 267, 268, 269, 270, 271, 272, 273, 274, 275, 276, 277, 278, 279, 280, 281, 282, 283, 284, 285, 286, 287, 288, 289, 290, 291, 292, 293, 294, 295, 296, 297, 298, 299, 300, 301, 302, 303, 304, 305, 306, 307, 308, 309, 310, 311, 312, 313, 314, 315, 316, 317, 318, 319, 320, 321, 322, 323, 324, 325, 326, 327, 328, 329, 330, 331, 332, 333, 334, 335, 336, 337, 338, 339, 340, 341, 342, 343, 344, 345, 346, 347, 348, 349, 350, 351, 352, 353, 354, 355, 356, 357, 358, 359, 360, 361, 362, 363, 364, 365, 366, 367, 368, 369, 370, 371, 372, 373, 374, 375, 376, 377, 378, 379, 380, 381, 382, 383, 384, 385, 386, 387, 388, 389, 390, 391, 392, 393, 394, 395, 396, 397, 398, 399, 400, 401, 402, 403, 404, 405, 406, 407, 408, 409, 410, 411, 412, 413, 414, 415, 416, 417, 418, 419, 420, 421, 422, 423, 424, 425, 426, 427, 428, 429, 430, 431, 432, 433, 434, 435, 436, 437, 438, 439, 440, 441, 442, 443, 444, 445, 446, 447, 448, 449, 450, 451, 452, 453, 454, 455, 456, 457, 458, 459, 460, 461, 462, 463, 464, 465, 466, 467, 468, 469, 470, 471, 472, 473, 474, 475, 476, 477, 478, 479, 480, 481, 482, 483, 484, 485, 486, 487, 488, 489, 490, 491, 492, 493, 494, 495, 496, 497, 498, 499, 500, 501, 502, 503, 504, 505, 506, 507, 508, 509, 510, 511, 512, 513, 514, 515, 516, 517, 518, 519, 520, 521, 522, 523, 524, 525, 526, 527, 528, 529, 530, 531, 532, 533, 534, 535, 536, 537, 538, 539, 540, 541, 542, 543, 544, 545, 546, 547, 548, 549, 550, 551, 552, 553, 554, 555, 556, 557, 558, 559, 560, 561, 562, 563, 564, 565, 566, 567, 568, 569, 570, 571, 572, 573, 574, 575, 576, 577, 578, 579, 580, 581, 582, 583, 584, 585, 586, 587, 588, 589, 590, 591, 592, 593, 594, 595, 596, 597, 598, 599, 600, 601, 602, 603, 604, 605, 606, 607, 608, 609, 610, 611, 612, 613, 614, 615, 616, 617, 618, 619, 620, 621, 622, 623, 624, 625, 626, 627, 628, 629, 630, 631, 632, 633, 634, 635, 636, 637, 638, 639, 640, 641, 642, 643, 644, 645, 646, 647, 648, 649, 650, 651, 652, 653, 654, 655, 656, 657, 658, 659, 660, 661, 662, 663, 664, 665, 666, 667, 668, 669, 670, 671, 672, 673, 674, 675, 676, 677, 678, 679, 680, 681, 682, 683, 684, 685, 686, 687, 688, 689, 690, 691, 692, 693, 694, 695, 696, 697, 698, 699, 700, 701, 702, 703, 704, 705, 706, 707, 708, 709, 710, 711, 712, 713, 714, 715, 716, 717, 718, 719, 720, 721, 722, 723, 724, 725, 726, 727, 728, 729, 730, 731, 732, 733, 734, 735, 736, 737, 738, 739, 740, 741, 742, 743, 744, 745, 746, 747, 748, 749, 750, 751, 752, 753, 754, 755, 756, 757, 758, 759, 760, 761, 762, 763, 764, 765, 766, 767, 768, 769, 770, 771, 772, 773, 774, 775, 776, 777, 778, 779, 780, 781, 782, 783, 784, 785, 786, 787, 788, 789, 790, 791, 792, 793, 794, 795, 796, 797, 798, 799, 800, 801, 802, 803, 804, 805, 806, 807, 808, 809, 810, 811, 812, 813, 814, 815, 816, 817, 818, 819, 820, 821, 822, 823, 824, 825, 826, 827, 828, 829, 830, 831, 832, 833, 834, 835, 836, 837, 838, 839, 840, 841, 842, 843, 844, 845, 846, 847, 848, 849, 850, 851, 852, 853, 854, 855, 856, 857, 858, 859, 860, 861, 862, 863, 864, 865, 866, 867, 868, 869, 870, 871, 872],
      "AcquisitionTime": ["093547.797500", "093548.257500", "093548.717500", "093549.177500", "093549.637500", "093550.097500", "093550.557500", "093551.017500", "093551.477500", "093551.937500", "093552.397500", "093552.857500", "093553.317500", "093553.777500", "093554.237500", "093554.697500", "093555.157500", "093555.617500", "093556.077500", "093556.537500", "093556.997500", "093557.457500", "093557.917500", "093558.377500", "093558.837500", "093559.297500", "093559.757500", "093600.217500", "093600.677500", "093601.137500", "093601.597500", "093602.057500", "093602.517500", "093602.977500", "093603.437500", "093603.897500", "093604.357500", "093604.817500", "093605.277500", "093605.737500", "093606.197500", "093606.657500", "093607.117500", "093607.577500", "093608.037500", "093608.497500", "093608.957500", "093609.417500", "093609.877500", "093610.337500", "093610.797500", "093611.257500", "093611.717500", "093612.177500", "093612.637500", "093613.097500", "093613.557500", "093614.017500", "093614.477500", "093614.937500", "093615.397500", "093615.857500", "093616.317500", "093616.777500", "093617.237500", "093617.697500", "093618.157500", "093618.617500", "093619.077500", "093619.537500", "093619.997500", "093620.457500", "093620.917500", "093621.377500", "093621.837500", "093622.297500", "093622.757500", "093623.217500", "093623.677500", "093624.137500", "093624.597500", "093625.057500", "093625.517500", "093625.977500", "093626.437500", "093626.897500", "093627.357500", "093627.817500", "093628.277500", "093628.737500", "093629.197500", "093629.657500", "093630.117500", "093630.577500", "093631.037500", "093631.497500", "093631.957500", "093632.417500", "093632.877500", "093633.337500", "093633.797500", "093634.257500", "093634.717500", "093635.177500", "093635.637500", "093636.097500", "093636.557500", "093637.017500", "093637.477500", "093637.937500", "093638.397500", "093638.857500", "093639.317500", "093639.777500", "093640.237500", "093640.697500", "093641.157500", "093641.617500", "093642.077500", "093642.537500", "093642.997500", "093643.457500", "093643.917500", "093644.377500", "093644.837500", "093645.297500", "093645.757500", "093646.217500", "093646.677500", "093647.137500", "093647.597500", "093648.057500", "093648.517500", "093648.977500", "093649.437500", "093649.897500", "093650.357500", "093650.817500", "093651.277500", "093651.737500", "093652.197500", "093652.657500", "093653.117500", "093653.577500", "093654.037500", "093654.497500", "093654.957500", "093655.417500", "093655.877500", "093656.337500", "093656.797500", "093657.257500", "093657.717500", "093658.177500", "093658.637500", "093659.097500", "093659.557500", "093700.017500", "093700.477500", "093700.937500", "093701.397500", "093701.857500", "093702.317500", "093702.777500", "093703.237500", "093703.697500", "093704.157500", "093704.617500", "093705.077500", "093705.537500", "093705.997500", "093706.457500", "093706.917500", "093707.377500", "093707.837500", "093708.297500", "093708.757500", "093709.217500", "093709.677500", "093710.137500", "093710.597500", "093711.057500", "093711.517500", "093711.977500", "093712.437500", "093712.897500", "093713.357500", "093713.817500", "093714.277500", "093714.737500", "093715.197500", "093715.657500", "093716.117500", "093716.577500", "093717.037500", "093717.497500", "093717.957500", "093718.417500", "093718.877500", "093719.337500", "093719.797500", "093720.257500", "093720.717500", "093721.177500", "093721.637500", "093722.097500", "093722.557500", "093723.017500", "093723.477500", "093723.937500", "093724.397500", "093724.857500", "093725.317500", "093725.777500", "093726.237500", "093726.697500", "093727.157500", "093727.617500", "093728.077500", "093728.537500", "093728.997500", "093729.457500", "093729.917500", "093730.377500", "093730.837500", "093731.297500", "093731.757500", "093732.217500", "093732.677500", "093733.137500", "093733.597500", "093734.057500", "093734.517500", "093734.977500", "093735.437500", "093735.897500", "093736.357500", "093736.817500", "093737.277500", "093737.737500", "093738.197500", "093738.657500", "093739.117500", "093739.577500", "093740.037500", "093740.497500", "093740.957500", "093741.417500", "093741.877500", "093742.337500", "093742.797500", "093743.257500", "093743.717500", "093744.177500", "093744.637500", "093745.097500", "093745.557500", "093746.017500", "093746.477500", "093746.937500", "093747.397500", "093747.857500", "093748.317500", "093748.777500", "093749.237500", "093749.697500", "093750.157500", "093750.617500", "093751.077500", "093751.537500", "093751.997500", "093752.457500", "093752.917500", "093753.377500", "093753.837500", "093754.297500", "093754.757500", "093755.217500", "093755.677500", "093756.137500", "093756.597500", "093757.057500", "093757.517500", "093757.977500", "093758.437500", "093758.897500", "093759.357500", "093759.817500", "093800.277500", "093800.737500", "093801.197500", "093801.657500", "093802.117500", "093802.577500", "093803.037500", "093803.497500", "093803.957500", "093804.417500", "093804.877500", "093805.337500", "093805.797500", "093806.257500", "093806.717500", "093807.177500", "093807.637500", "093808.097500", "093808.557500", "093809.017500", "093809.477500", "093809.937500", "093810.397500", "093810.857500", "093811.317500", "093811.777500", "093812.237500", "093812.697500", "093813.157500", "093813.617500", "093814.077500", "093814.537500", "093814.997500", "093815.457500", "093815.917500", "093816.377500", "093816.837500", "093817.297500", "093817.757500", "093818.217500", "093818.677500", "093819.137500", "093819.597500", "093820.057500", "093820.517500", "093820.977500", "093821.437500", "093821.897500", "093822.357500", "093822.817500", "093823.277500", "093823.737500", "093824.197500", "093824.657500", "093825.117500", "093825.577500", "093826.037500", "093826.497500", "093826.957500", "093827.417500", "093827.877500", "093828.337500", "093828.797500", "093829.257500", "093829.717500", "093830.177500", "093830.637500", "093831.097500", "093831.557500", "093832.017500", "093832.477500", "093832.937500", "093833.397500", "093833.857500", "093834.317500", "093834.777500", "093835.237500", "093835.697500", "093836.157500", "093836.617500", "093837.077500", "093837.537500", "093837.997500", "093838.457500", "093838.917500", "093839.377500", "093839.837500", "093840.297500", "093840.757500", "093841.217500", "093841.677500", "093842.137500", "093842.597500", "093843.057500", "093843.517500", "093843.977500", "093844.437500", "093844.897500", "093845.357500", "093845.817500", "093846.277500", "093846.737500", "093847.197500", "093847.657500", "093848.117500", "093848.577500", "093849.037500", "093849.497500", "093849.957500", "093850.417500", "093850.877500", "093851.337500", "093851.797500", "093852.257500", "093852.717500", "093853.177500", "093853.637500", "093854.097500", "093854.557500", "093855.017500", "093855.477500", "093855.937500", "093856.397500", "093856.857500", "093857.317500", "093857.777500", "093858.237500", "093858.697500", "093859.157500", "093859.617500", "093900.077500", "093900.537500", "093900.997500", "093901.457500", "093901.917500", "093902.377500", "093902.837500", "093903.297500", "093903.757500", "093904.217500", "093904.677500", "093905.137500", "093905.597500", "093906.057500", "093906.517500", "093906.977500", "093907.437500", "093907.897500", "093908.357500", "093908.817500", "093909.277500", "093909.737500", "093910.197500", "093910.657500", "093911.117500", "093911.577500", "093912.037500", "093912.497500", "093912.957500", "093913.417500", "093913.877500", "093914.337500", "093914.797500", "093915.257500", "093915.717500", "093916.177500", "093916.637500", "093917.097500", "093917.557500", "093918.017500", "093918.477500", "093918.937500", "093919.397500", "093919.857500", "093920.317500", "093920.777500", "093921.237500", "093921.697500", "093922.157500", "093922.617500", "093923.077500", "093923.537500", "093923.997500", "093924.457500", "093924.917500", "093925.377500", "093925.837500", "093926.297500", "093926.757500", "093927.217500", "093927.677500", "093928.137500", "093928.597500", "093929.057500", "093929.517500", "093929.977500", "093930.437500", "093930.897500", "093931.357500", "093931.817500", "093932.277500", "093932.737500", "093933.197500", "093933.657500", "093934.117500", "093934.577500", "093935.037500", "093935.497500", "093935.957500", "093936.417500", "093936.877500", "093937.337500", "093937.797500", "093938.257500", "093938.717500", "093939.177500", "093939.637500", "093940.097500", "093940.557500", "093941.017500", "093941.477500", "093941.937500", "093942.397500", "093942.857500", "093943.317500", "093943.777500", "093944.237500", "093944.697500", "093945.157500", "093945.617500", "093946.077500", "093946.537500", "093946.997500", "093947.457500", "093947.917500", "093948.377500", "093948.837500", "093949.297500", "093949.757500", "093950.217500", "093950.677500", "093951.137500", "093951.597500", "093952.057500", "093952.517500", "093952.977500", "093953.437500", "093953.897500", "093954.357500", "093954.817500", "093955.277500", "093955.737500", "093956.197500", "093956.657500", "093957.117500", "093957.577500", "093958.037500", "093958.497500", "093958.957500", "093959.417500", "093959.877500", "094000.337500", "094000.797500", "094001.257500", "094001.717500", "094002.177500", "094002.637500", "094003.097500", "094003.557500", "094004.017500", "094004.477500", "094004.937500", "094005.397500", "094005.857500", "094006.317500", "094006.777500", "094007.237500", "094007.697500", "094008.157500", "094008.617500", "094009.077500", "094009.537500", "094009.997500", "094010.457500", "094010.917500", "094011.377500", "094011.837500", "094012.297500", "094012.757500", "094013.217500", "094013.677500", "094014.137500", "094014.597500", "094015.057500", "094015.517500", "094015.977500", "094016.437500", "094016.897500", "094017.357500", "094017.817500", "094018.277500", "094018.737500", "094019.197500", "094019.657500", "094020.117500", "094020.577500", "094021.037500", "094021.497500", "094021.957500", "094022.417500", "094022.877500", "094023.337500", "094023.797500", "094024.257500", "094024.717500", "094025.177500", "094025.637500", "094026.097500", "094026.557500", "094027.017500", "094027.477500", "094027.937500", "094028.397500", "094028.857500", "094029.317500", "094029.777500", "094030.237500", "094030.697500", "094031.157500", "094031.617500", "094032.077500", "094032.537500", "094032.997500", "094033.457500", "094033.917500", "094034.377500", "094034.837500", "094035.297500", "094035.757500", "094036.217500", "094036.677500", "094037.137500", "094037.597500", "094038.057500", "094038.517500", "094038.977500", "094039.437500", "094039.897500", "094040.357500", "094040.817500", "094041.277500", "094041.737500", "094042.197500", "094042.657500", "094043.117500", "094043.577500", "094044.037500", "094044.497500", "094044.957500", "094045.417500", "094045.877500", "094046.337500", "094046.797500", "094047.257500", "094047.717500", "094048.177500", "094048.637500", "094049.097500", "094049.557500", "094050.017500", "094050.477500", "094050.937500", "094051.397500", "094051.857500", "094052.317500", "094052.777500", "094053.237500", "094053.697500", "094054.157500", "094054.617500", "094055.077500", "094055.537500", "094055.997500", "094056.457500", "094056.917500", "094057.377500", "094057.837500", "094058.297500", "094058.757500", "094059.217500", "094059.677500", "094100.137500", "094100.597500", "094101.057500", "094101.517500", "094101.977500", "094102.437500", "094102.897500", "094103.357500", "094103.817500", "094104.277500", "094104.737500", "094105.197500", "094105.657500", "094106.117500", "094106.577500", "094107.037500", "094107.497500", "094107.957500", "094108.417500", "094108.877500", "094109.337500", "094109.797500", "094110.257500", "094110.717500", "094111.177500", "094111.637500", "094112.097500", "094112.557500", "094113.017500", "094113.477500", "094113.937500", "094114.397500", "094114.857500", "094115.317500", "094115.777500", "094116.237500", "094116.697500", "094117.157500", "094117.617500", "094118.077500", "094118.537500", "094118.997500", "094119.457500", "094119.917500", "094120.377500", "094120.837500", "094121.297500", "094121.757500", "094122.217500", "094122.677500", "094123.137500", "094123.597500", "094124.057500", "094124.517500", "094124.977500", "094125.437500", "094125.897500", "094126.357500", "094126.817500", "094127.277500", "094127.737500", "094128.197500", "094128.657500", "094129.117500", "094129.577500", "094130.037500", "094130.497500", "094130.957500", "094131.417500", "094131.877500", "094132.337500", "094132.797500", "094133.257500", "094133.717500", "094134.177500", "094134.637500", "094135.097500", "094135.557500", "094136.017500", "094136.477500", "094136.937500", "094137.397500", "094137.857500", "094138.317500", "094138.777500", "094139.237500", "094139.697500", "094140.157500", "094140.617500", "094141.077500", "094141.537500", "094141.997500", "094142.457500", "094142.917500", "094143.377500", "094143.837500", "094144.297500", "094144.757500", "094145.217500", "094145.677500", "094146.137500", "094146.597500", "094147.057500", "094147.517500", "094147.977500", "094148.437500", "094148.897500", "094149.357500", "094149.817500", "094150.277500", "094150.737500", "094151.197500", "094151.657500", "094152.117500", "094152.577500", "094153.037500", "094153.497500", "094153.957500", "094154.417500", "094154.877500", "094155.337500", "094155.797500", "094156.257500", "094156.717500", "094157.177500", "094157.637500", "094158.097500", "094158.557500", "094159.017500", "094159.477500", "094159.937500", "094200.397500", "094200.857500", "094201.317500", "094201.777500", "094202.237500", "094202.697500", "094203.157500", "094203.617500", "094204.077500", "094204.537500", "094204.997500", "094205.457500", "094205.917500", "094206.377500", "094206.837500", "094207.297500", "094207.757500", "094208.217500", "094208.677500", "094209.137500", "094209.597500", "094210.057500", "094210.517500", "094210.977500", "094211.437500", "094211.897500", "094212.357500", "094212.817500", "094213.277500", "094213.737500", "094214.197500", "094214.657500", "094215.117500", "094215.577500", "094216.037500", "094216.497500", "094216.957500", "094217.417500", "094217.877500", "094218.337500", "094218.797500", "094219.257500", "094219.717500", "094220.177500", "094220.637500", "094221.097500", "094221.557500", "094222.017500", "094222.477500", "094222.937500", "094223.397500", "094223.857500", "094224.317500", "094224.777500", "094225.237500", "094225.697500", "094226.157500", "094226.617500", "094227.077500", "094227.537500", "094227.997500", "094228.457500"],
