{
  "AcquisitionMatrixPE": 82,
  "AcquisitionNumber": 1,
  "AcquisitionTime": "09:17:55.467500",
  "BandwidthPerPixelPhaseEncode": 24.888,
  "BaseResolution": 82,
  "BodyPartExamined": "BRAIN",
  "ConsistencyInfo": "N4_VE11E_LATEST_20181129",
  "ConversionSoftware": "dcm2niix",
  "ConversionSoftwareVersion": "v1.0.20201102",
  "DerivedVendorReportedEchoSpacing": 0.00049,
  "DeviceSerialNumber": "66112",
  "DwellTime": 2e-06,
  "EchoTime": 0.0272,
  "EchoTrainLength": 82,
  "EffectiveEchoSpacing": 0.00049,
  "FlipAngle": 44,
  "ImageComments": "Unaliased MB8/PE3",
  "ImageOrientationPatientDICOM": [0.999658, -0.00315409, 0.0259541, 0.0017447, 0.998531, 0.0541473],
  "ImageType": [
    "ORIGINAL",
    "PRIMARY",
    "M",
    "MB",
    "ND",
    "NORM",
    "MOSAIC"
],
  "ImagingFrequency": 123.259,
  "InPlanePhaseEncodingDirectionDICOM": "COL",
  "InstitutionAddress": "Maynard 3,Hanover,NH,US,03755",
  "InstitutionName": "Dartmouth College - PBS",
  "InstitutionalDepartmentName": "Department",
  "MRAcquisitionType": "2D",
  "MagneticFieldStrength": 3,
  "Manufacturer": "Siemens",
  "ManufacturersModelName": "Prisma",
  "Modality": "MR",
  "MultibandAccelerationFactor": 8,
  "PartialFourier": 1,
  "PatientPosition": "HFS",
  "PercentPhaseFOV": 100,
  "PercentSampling": 100,
  "PhaseEncodingDirection": "j-",
  "PhaseEncodingSteps": 82,
  "PhaseResolution": 1,
  "PixelBandwidth": 3050,
  "ProcedureStepDescription": "Wager_Wager^1076_spacetop",
  "ProtocolName": "func_run-02_task-social_acq-ap-mb8",
  "PulseSequenceDetails": "%CustomerSeq%\\cmrr_mbep2d_bold",
  "ReceiveCoilActiveElements": "HEA;HEP",
  "ReceiveCoilName": "Head_32",
  "ReconMatrixPE": 82,
  "RepetitionTime": 0.46,
  "SAR": 0.083105,
  "ScanOptions": "FS",
  "ScanningSequence": "EP",
  "SequenceName": "epfid2d1_82",
  "SequenceVariant": "SK\\SS",
  "SeriesDescription": "func_run-02_task-social_acq-ap-mb8",
  "SeriesNumber": 14,
  "ShimSetting": [4237, -7769, -7261, 265, -115, -163, -82, 118],
  "SliceThickness": 2.7,
  "SliceTiming": [0, 0.25, 0.0625, 0.3125, 0.125, 0.375, 0.1875, 0, 0.25, 0.0625, 0.3125, 0.125, 0.375, 0.1875, 0, 0.25, 0.0625, 0.3125, 0.125, 0.375, 0.1875, 0, 0.25, 0.0625, 0.3125, 0.125, 0.375, 0.1875, 0, 0.25, 0.0625, 0.3125, 0.125, 0.375, 0.1875, 0, 0.25, 0.0625, 0.3125, 0.125, 0.375, 0.1875, 0, 0.25, 0.0625, 0.3125, 0.125, 0.375, 0.1875, 0, 0.25, 0.0625, 0.3125, 0.125, 0.375, 0.1875],
  "SoftwareVersions": "syngo MR E11",
  "SpacingBetweenSlices": 2.7,
  "StationName": "AWP66112",
  "TaskName": "social",
  "TotalReadoutTime": 0.03969,
  "TxRefAmp": 232.71,
  "WipMemBlock": "be887a4f-08d8-4a4a-a674-77377eff4a54||Sequence: R016 ve11e/master r/434b28f1; Aug  7 2019 18:53:46 by eja",
  "dcmmeta_affine": [
    [-2.682009696960449, 0.004680910613387823, 0.07043439894914627, 112.77593994140625],
    [0.008462182246148586, 2.6789867877960205, 0.14602553844451904, -103.451416015625],
    [0.06963307410478592, -0.1452733278274536, 2.6951279640197754, -80.25406646728516],
    [0.0, 0.0, 0.0, 1.0]
],
  "dcmmeta_reorient_transform": [
    [0.0, -1.0, 0.0, 81.0],
    [1.0, 0.0, 0.0, 0.0],
    [0.0, 0.0, 1.0, 0.0],
    [0.0, 0.0, 0.0, 1.0]
],
  "dcmmeta_shape": [82, 82, 56, 872],
  "dcmmeta_slice_dim": 2,
  "dcmmeta_version": 0.6,
  "global": {
    "const": {
      "AccessionNumber": "A004316",
      "AcquisitionMatrix": [82, 0, 0, 82],
      "AngioFlag": "N",
      "BitsAllocated": 16,
      "BitsStored": 16,
      "BodyPartExamined": "BRAIN",
      "Columns": 656,
      "EchoNumbers": 1,
      "EchoTime": 27.2,
      "EchoTrainLength": 82,
      "FlipAngle": 44.0,
      "HighBit": 15,
      "ImageOrientationPatient": [0.99965815860205, -0.0031540861684, 0.02595414573428, 0.00174470295802, 0.99853143311025, 0.05414732774927],
      "ImagePositionPatient": [-884.2353190503, -879.98709221993, -153.69934320696],
      "ImageType": [
        "ORIGINAL",
        "PRIMARY",
        "M",
        "MB",
        "ND",
        "NORM",
        "MOSAIC"
],
      "ImagedNucleus": "1H",
      "ImagingFrequency": 123.259108,
      "InPlanePhaseEncodingDirection": "COL",
      "MRAcquisitionType": "2D",
      "MagneticFieldStrength": 3.0,
      "Manufacturer": "SIEMENS",
      "ManufacturerModelName": "Prisma",
      "Modality": "MR",
      "NumberOfAverages": 1.0,
      "NumberOfPhaseEncodingSteps": 82,
      "PercentPhaseFieldOfView": 100.0,
      "PercentSampling": 100.0,
      "PerformedProcedureStepStartTime": "083015.280000",
      "PhotometricInterpretation": "MONOCHROME2",
      "PixelBandwidth": 3050.0,
      "PixelRepresentation": 0,
      "PixelSpacing": [2.6829268932343, 2.6829268932343],
      "ProtocolName": "func_run-02_task-social_acq-ap-mb8",
      "RepetitionTime": 460.0,
      "Rows": 656,
      "SAR": 0.08310504243649,
      "SamplesPerPixel": 1,
      "ScanOptions": "FS",
      "ScanningSequence": "EP",
      "SequenceName": "epfid2d1_82",
      "SequenceVariant": [
        "SK",
        "SS"
],
      "SeriesDescription": "func_run-02_task-social_acq-ap-mb8",
      "SeriesNumber": 14,
      "SeriesTime": "091818.695000",
      "SliceLocation": -82.76231052462,
      "SliceThickness": 2.7000000476837,
      "SmallestImagePixelValue": 0,
      "SoftwareVersions": "syngo MR E11",
      "SpacingBetweenSlices": 2.6999998961942,
      "SpecificCharacterSet": "ISO_IR 100",
      "StudyID": "1",
      "StudyTime": "083015.171000",
      "TransmitCoilName": "Body",
      "VariableFlipAngleFlag": "N",
      "WindowCenterWidthExplanation": "Algo1"
    },
    "slices": {}
  },
  "time": {
    "samples": {
      "AcquisitionNumber": [1, 2, 3, 4, 5, 6, 7, 8, 9, 10, 11, 12, 13, 14, 15, 16, 17, 18, 19, 20, 21, 22, 23, 24, 25, 26, 27, 28, 29, 30, 31, 32, 33, 34, 35, 36, 37, 38, 39, 40, 41, 42, 43, 44, 45, 46, 47, 48, 49, 50, 51, 52, 53, 54, 55, 56, 57, 58, 59, 60, 61, 62, 63, 64, 65, 66, 67, 68, 69, 70, 71, 72, 73, 74, 75, 76, 77, 78, 79, 80, 81, 82, 83, 84, 85, 86, 87, 88, 89, 90, 91, 92, 93, 94, 95, 96, 97, 98, 99, 100, 101, 102, 103, 104, 105, 106, 107, 108, 109, 110, 111, 112, 113, 114, 115, 116, 117, 118, 119, 120, 121, 122, 123, 124, 125, 126, 127, 128, 129, 130, 131, 132, 133, 134, 135, 136, 137, 138, 139, 140, 141, 142, 143, 144, 145, 146, 147, 148, 149, 150, 151, 152, 153, 154, 155, 156, 157, 158, 159, 160, 161, 162, 163, 164, 165, 166, 167, 168, 169, 170, 171, 172, 173, 174, 175, 176, 177, 178, 179, 180, 181, 182, 183, 184, 185, 186, 187, 188, 189, 190, 191, 192, 193, 194, 195, 196, 197, 198, 199, 200, 201, 202, 203, 204, 205, 206, 207, 208, 209, 210, 211, 212, 213, 214, 215, 216, 217, 218, 219, 220, 221, 222, 223, 224, 225, 226, 227, 228, 229, 230, 231, 232, 233, 234, 235, 236, 237, 238, 239, 240, 241, 242, 243, 244, 245, 246, 247, 248, 249, 250, 251, 252, 253, 254, 255, 256, 257, 258, 259, 260, 261, 262, 263, 264, 265, 266, 267, 268, 269, 270, 271, 272, 273, 274, 275, 276, 277, 278, 279, 280, 281, 282, 283, 284, 285, 286, 287, 288, 289, 290, 291, 292, 293, 294, 295, 296, 297, 298, 299, 300, 301, 302, 303, 304, 305, 306, 307, 308, 309, 310, 311, 312, 313, 314, 315, 316, 317, 318, 319, 320, 321, 322, 323, 324, 325, 326, 327, 328, 329, 330, 331, 332, 333, 334, 335, 336, 337, 338, 339, 340, 341, 342, 343, 344, 345, 346, 347, 348, 349, 350, 351, 352, 353, 354, 355, 356, 357, 358, 359, 360, 361, 362, 363, 364, 365, 366, 367, 368, 369, 370, 371, 372, 373, 374, 375, 376, 377, 378, 379, 380, 381, 382, 383, 384, 385, 386, 387, 388, 389, 390, 391, 392, 393, 394, 395, 396, 397, 398, 399, 400, 401, 402, 403, 404, 405, 406, 407, 408, 409, 410, 411, 412, 413, 414, 415, 416, 417, 418, 419, 420, 421, 422, 423, 424, 425, 426, 427, 428, 429, 430, 431, 432, 433, 434, 435, 436, 437, 438, 439, 440, 441, 442, 443, 444, 445, 446, 447, 448, 449, 450, 451, 452, 453, 454, 455, 456, 457, 458, 459, 460, 461, 462, 463, 464, 465, 466, 467, 468, 469, 470, 471, 472, 473, 474, 475, 476, 477, 478, 479, 480, 481, 482, 483, 484, 485, 486, 487, 488, 489, 490, 491, 492, 493, 494, 495, 496, 497, 498, 499, 500, 501, 502, 503, 504, 505, 506, 507, 508, 509, 510, 511, 512, 513, 514, 515, 516, 517, 518, 519, 520, 521, 522, 523, 524, 525, 526, 527, 528, 529, 530, 531, 532, 533, 534, 535, 536, 537, 538, 539, 540, 541, 542, 543, 544, 545, 546, 547, 548, 549, 550, 551, 552, 553, 554, 555, 556, 557, 558, 559, 560, 561, 562, 563, 564, 565, 566, 567, 568, 569, 570, 571, 572, 573, 574, 575, 576, 577, 578, 579, 580, 581, 582, 583, 584, 585, 586, 587, 588, 589, 590, 591, 592, 593, 594, 595, 596, 597, 598, 599, 600, 601, 602, 603, 604, 605, 606, 607, 608, 609, 610, 611, 612, 613, 614, 615, 616, 617, 618, 619, 620, 621, 622, 623, 624, 625, 626, 627, 628, 629, 630, 631, 632, 633, 634, 635, 636, 637, 638, 639, 640, 641, 642, 643, 644, 645, 646, 647, 648, 649, 650, 651, 652, 653, 654, 655, 656, 657, 658, 659, 660, 661, 662, 663, 664, 665, 666, 667, 668, 669, 670, 671, 672, 673, 674, 675, 676, 677, 678, 679, 680, 681, 682, 683, 684, 685, 686, 687, 688, 689, 690, 691, 692, 693, 694, 695, 696, 697, 698, 699, 700, 701, 702, 703, 704, 705, 706, 707, 708, 709, 710, 711, 712, 713, 714, 715, 716, 717, 718, 719, 720, 721, 722, 723, 724, 725, 726, 727, 728, 729, 730, 731, 732, 733, 734, 735, 736, 737, 738, 739, 740, 741, 742, 743, 744, 745, 746, 747, 748, 749, 750, 751, 752, 753, 754, 755, 756, 757, 758, 759, 760, 761, 762, 763, 764, 765, 766, 767, 768, 769, 770, 771, 772, 773, 774, 775, 776, 777, 778, 779, 780, 781, 782, 783, 784, 785, 786, 787, 788, 789, 790, 791, 792, 793, 794, 795, 796, 797, 798, 799, 800, 801, 802, 803, 804, 805, 806, 807, 808, 809, 810, 811, 812, 813, 814, 815, 816, 817, 818, 819, 820, 821, 822, 823, 824, 825, 826, 827, 828, 829, 830, 831, 832, 833, 834, 835, 836, 837, 838, 839, 840, 841, 842, 843, 844, 845, 846, 847, 848, 849, 850, 851, 852, 853, 854, 855, 856, 857, 858, 859, 860, 861, 862, 863, 864, 865, 866, 867, 868, 869, 870, 871, 872],
      "AcquisitionTime": ["091755.467500", "091755.927500", "091756.387500", "091756.847500", "091757.307500", "091757.767500", "091758.227500", "091758.687500", "091759.147500", "091759.607500", "091800.067500", "091800.527500", "091800.987500", "091801.447500", "091801.907500", "091802.367500", "091802.827500", "091803.287500", "091803.747500", "091804.207500", "091804.667500", "091805.127500", "091805.587500", "091806.047500", "091806.507500", "091806.967500", "091807.427500", "091807.887500", "091808.347500", "091808.807500", "091809.267500", "091809.727500", "091810.187500", "091810.647500", "091811.107500", "091811.567500", "091812.027500", "091812.487500", "091812.947500", "091813.407500", "091813.867500", "091814.327500", "091814.787500", "091815.247500", "091815.707500", "091816.167500", "091816.627500", "091817.087500", "091817.547500", "091818.007500", "091818.467500", "091818.927500", "091819.387500", "091819.847500", "091820.307500", "091820.767500", "091821.227500", "091821.687500", "091822.147500", "091822.607500", "091823.067500", "091823.527500", "091823.987500", "091824.447500", "091824.907500", "091825.367500", "091825.827500", "091826.287500", "091826.747500", "091827.207500", "091827.667500", "091828.127500", "091828.587500", "091829.047500", "091829.507500", "091829.967500", "091830.427500", "091830.887500", "091831.347500", "091831.807500", "091832.267500", "091832.727500", "091833.187500", "091833.647500", "091834.107500", "091834.567500", "091835.027500", "091835.487500", "091835.947500", "091836.407500", "091836.867500", "091837.327500", "091837.787500", "091838.247500", "091838.707500", "091839.167500", "091839.627500", "091840.087500", "091840.547500", "091841.007500", "091841.467500", "091841.927500", "091842.387500", "091842.847500", "091843.307500", "091843.767500", "091844.227500", "091844.687500", "091845.147500", "091845.607500", "091846.067500", "091846.527500", "091846.987500", "091847.447500", "091847.907500", "091848.367500", "091848.827500", "091849.287500", "091849.747500", "091850.207500", "091850.667500", "091851.127500", "091851.587500", "091852.047500", "091852.507500", "091852.967500", "091853.427500", "091853.887500", "091854.347500", "091854.807500", "091855.267500", "091855.727500", "091856.187500", "091856.647500", "091857.107500", "091857.567500", "091858.027500", "091858.487500", "091858.947500", "091859.407500", "091859.867500", "091900.327500", "091900.787500", "091901.247500", "091901.707500", "091902.167500", "091902.627500", "091903.087500", "091903.547500", "091904.007500", "091904.467500", "091904.927500", "091905.387500", "091905.847500", "091906.307500", "091906.767500", "091907.227500", "091907.687500", "091908.147500", "091908.607500", "091909.067500", "091909.527500", "091909.987500", "091910.447500", "091910.907500", "091911.367500", "091911.827500", "091912.287500", "091912.747500", "091913.207500", "091913.667500", "091914.127500", "091914.587500", "091915.047500", "091915.507500", "091915.967500", "091916.427500", "091916.887500", "091917.347500", "091917.807500", "091918.267500", "091918.727500", "091919.187500", "091919.647500", "091920.107500", "091920.567500", "091921.027500", "091921.487500", "091921.947500", "091922.407500", "091922.867500", "091923.327500", "091923.787500", "091924.247500", "091924.707500", "091925.167500", "091925.627500", "091926.087500", "091926.547500", "091927.007500", "091927.467500", "091927.927500", "091928.387500", "091928.847500", "091929.307500", "091929.767500", "091930.227500", "091930.687500", "091931.147500", "091931.607500", "091932.067500", "091932.527500", "091932.987500", "091933.447500", "091933.907500", "091934.367500", "091934.827500", "091935.287500", "091935.747500", "091936.207500", "091936.667500", "091937.127500", "091937.587500", "091938.047500", "091938.507500", "091938.967500", "091939.427500", "091939.887500", "091940.347500", "091940.807500", "091941.267500", "091941.727500", "091942.187500", "091942.647500", "091943.107500", "091943.567500", "091944.027500", "091944.487500", "091944.947500", "091945.407500", "091945.867500", "091946.327500", "091946.787500", "091947.247500", "091947.707500", "091948.167500", "091948.627500", "091949.087500", "091949.547500", "091950.007500", "091950.467500", "091950.927500", "091951.387500", "091951.847500", "091952.307500", "091952.767500", "091953.227500", "091953.687500", "091954.147500", "091954.607500", "091955.067500", "091955.527500", "091955.987500", "091956.447500", "091956.907500", "091957.367500", "091957.827500", "091958.287500", "091958.747500", "091959.207500", "091959.667500", "092000.127500", "092000.587500", "092001.047500", "092001.507500", "092001.967500", "092002.427500", "092002.887500", "092003.347500", "092003.807500", "092004.267500", "092004.727500", "092005.187500", "092005.647500", "092006.107500", "092006.567500", "092007.027500", "092007.487500", "092007.947500", "092008.407500", "092008.867500", "092009.327500", "092009.787500", "092010.247500", "092010.707500", "092011.167500", "092011.627500", "092012.087500", "092012.547500", "092013.007500", "092013.467500", "092013.927500", "092014.387500", "092014.847500", "092015.307500", "092015.767500", "092016.227500", "092016.687500", "092017.147500", "092017.607500", "092018.067500", "092018.527500", "092018.987500", "092019.447500", "092019.907500", "092020.367500", "092020.827500", "092021.287500", "092021.747500", "092022.207500", "092022.667500", "092023.127500", "092023.587500", "092024.047500", "092024.507500", "092024.967500", "092025.427500", "092025.887500", "092026.347500", "092026.807500", "092027.267500", "092027.727500", "092028.187500", "092028.647500", "092029.107500", "092029.567500", "092030.027500", "092030.487500", "092030.947500", "092031.407500", "092031.867500", "092032.327500", "092032.787500", "092033.247500", "092033.707500", "092034.167500", "092034.627500", "092035.087500", "092035.547500", "092036.007500", "092036.467500", "092036.927500", "092037.387500", "092037.847500", "092038.307500", "092038.767500", "092039.227500", "092039.687500", "092040.147500", "092040.607500", "092041.067500", "092041.527500", "092041.987500", "092042.447500", "092042.907500", "092043.367500", "092043.827500", "092044.287500", "092044.747500", "092045.207500", "092045.667500", "092046.127500", "092046.587500", "092047.047500", "092047.507500", "092047.967500", "092048.427500", "092048.887500", "092049.347500", "092049.807500", "092050.267500", "092050.727500", "092051.187500", "092051.647500", "092052.107500", "092052.567500", "092053.027500", "092053.487500", "092053.947500", "092054.407500", "092054.867500", "092055.327500", "092055.787500", "092056.247500", "092056.707500", "092057.167500", "092057.627500", "092058.087500", "092058.547500", "092059.007500", "092059.467500", "092059.927500", "092100.387500", "092100.847500", "092101.307500", "092101.767500", "092102.227500", "092102.687500", "092103.147500", "092103.607500", "092104.067500", "092104.527500", "092104.987500", "092105.447500", "092105.907500", "092106.367500", "092106.827500", "092107.287500", "092107.747500", "092108.207500", "092108.667500", "092109.127500", "092109.587500", "092110.047500", "092110.507500", "092110.967500", "092111.427500", "092111.887500", "092112.347500", "092112.807500", "092113.267500", "092113.727500", "092114.187500", "092114.647500", "092115.107500", "092115.567500", "092116.027500", "092116.487500", "092116.947500", "092117.407500", "092117.867500", "092118.327500", "092118.787500", "092119.247500", "092119.707500", "092120.167500", "092120.627500", "092121.087500", "092121.547500", "092122.007500", "092122.467500", "092122.927500", "092123.387500", "092123.847500", "092124.307500", "092124.767500", "092125.227500", "092125.687500", "092126.147500", "092126.607500", "092127.067500", "092127.527500", "092127.987500", "092128.447500", "092128.907500", "092129.367500", "092129.827500", "092130.287500", "092130.747500", "092131.207500", "092131.667500", "092132.127500", "092132.587500", "092133.047500", "092133.507500", "092133.967500", "092134.427500", "092134.887500", "092135.347500", "092135.807500", "092136.267500", "092136.727500", "092137.187500", "092137.647500", "092138.107500", "092138.567500", "092139.027500", "092139.487500", "092139.947500", "092140.407500", "092140.867500", "092141.327500", "092141.787500", "092142.247500", "092142.707500", "092143.167500", "092143.627500", "092144.087500", "092144.547500", "092145.007500", "092145.467500", "092145.927500", "092146.387500", "092146.847500", "092147.307500", "092147.767500", "092148.227500", "092148.687500", "092149.147500", "092149.607500", "092150.067500", "092150.527500", "092150.987500", "092151.447500", "092151.907500", "092152.367500", "092152.827500", "092153.287500", "092153.747500", "092154.207500", "092154.667500", "092155.127500", "092155.587500", "092156.047500", "092156.507500", "092156.967500", "092157.427500", "092157.887500", "092158.347500", "092158.807500", "092159.267500", "092159.727500", "092200.187500", "092200.647500", "092201.107500", "092201.567500", "092202.027500", "092202.487500", "092202.947500", "092203.407500", "092203.867500", "092204.327500", "092204.787500", "092205.247500", "092205.707500", "092206.167500", "092206.627500", "092207.087500", "092207.547500", "092208.007500", "092208.467500", "092208.927500", "092209.387500", "092209.847500", "092210.307500", "092210.767500", "092211.227500", "092211.687500", "092212.147500", "092212.607500", "092213.067500", "092213.527500", "092213.987500", "092214.447500", "092214.907500", "092215.367500", "092215.827500", "092216.287500", "092216.747500", "092217.207500", "092217.667500", "092218.127500", "092218.587500", "092219.047500", "092219.507500", "092219.967500", "092220.427500", "092220.887500", "092221.347500", "092221.807500", "092222.267500", "092222.727500", "092223.187500", "092223.647500", "092224.107500", "092224.567500", "092225.027500", "092225.487500", "092225.947500", "092226.407500", "092226.867500", "092227.327500", "092227.787500", "092228.247500", "092228.707500", "092229.167500", "092229.627500", "092230.087500", "092230.547500", "092231.007500", "092231.467500", "092231.927500", "092232.387500", "092232.847500", "092233.307500", "092233.767500", "092234.227500", "092234.687500", "092235.147500", "092235.607500", "092236.067500", "092236.527500", "092236.987500", "092237.447500", "092237.907500", "092238.367500", "092238.827500", "092239.287500", "092239.747500", "092240.207500", "092240.667500", "092241.127500", "092241.587500", "092242.047500", "092242.507500", "092242.967500", "092243.427500", "092243.887500", "092244.347500", "092244.807500", "092245.267500", "092245.727500", "092246.187500", "092246.647500", "092247.107500", "092247.567500", "092248.027500", "092248.487500", "092248.947500", "092249.407500", "092249.867500", "092250.327500", "092250.787500", "092251.247500", "092251.707500", "092252.167500", "092252.627500", "092253.087500", "092253.547500", "092254.007500", "092254.467500", "092254.927500", "092255.387500", "092255.847500", "092256.307500", "092256.767500", "092257.227500", "092257.687500", "092258.147500", "092258.607500", "092259.067500", "092259.527500", "092259.987500", "092300.447500", "092300.907500", "092301.367500", "092301.827500", "092302.287500", "092302.747500", "092303.207500", "092303.667500", "092304.127500", "092304.587500", "092305.047500", "092305.507500", "092305.967500", "092306.427500", "092306.887500", "092307.347500", "092307.807500", "092308.267500", "092308.727500", "092309.187500", "092309.647500", "092310.107500", "092310.567500", "092311.027500", "092311.487500", "092311.947500", "092312.407500", "092312.867500", "092313.327500", "092313.787500", "092314.247500", "092314.707500", "092315.167500", "092315.627500", "092316.087500", "092316.547500", "092317.007500", "092317.467500", "092317.927500", "092318.387500", "092318.847500", "092319.307500", "092319.767500", "092320.227500", "092320.687500", "092321.147500", "092321.607500", "092322.067500", "092322.527500", "092322.987500", "092323.447500", "092323.907500", "092324.367500", "092324.827500", "092325.287500", "092325.747500", "092326.207500", "092326.667500", "092327.127500", "092327.587500", "092328.047500", "092328.507500", "092328.967500", "092329.427500", "092329.887500", "092330.347500", "092330.807500", "092331.267500", "092331.727500", "092332.187500", "092332.647500", "092333.107500", "092333.567500", "092334.027500", "092334.487500", "092334.947500", "092335.407500", "092335.867500", "092336.327500", "092336.787500", "092337.247500", "092337.707500", "092338.167500", "092338.627500", "092339.087500", "092339.547500", "092340.007500", "092340.467500", "092340.927500", "092341.387500", "092341.847500", "092342.307500", "092342.767500", "092343.227500", "092343.687500", "092344.147500", "092344.607500", "092345.067500", "092345.527500", "092345.987500", "092346.447500", "092346.907500", "092347.367500", "092347.827500", "092348.287500", "092348.747500", "092349.207500", "092349.667500", "092350.127500", "092350.587500", "092351.047500", "092351.507500", "092351.967500", "092352.427500", "092352.887500", "092353.347500", "092353.807500", "092354.267500", "092354.727500", "092355.187500", "092355.647500", "092356.107500", "092356.567500", "092357.027500", "092357.487500", "092357.947500", "092358.407500", "092358.867500", "092359.327500", "092359.787500", "092400.247500", "092400.707500", "092401.167500", "092401.627500", "092402.087500", "092402.547500", "092403.007500", "092403.467500", "092403.927500", "092404.387500", "092404.847500", "092405.307500", "092405.767500", "092406.227500", "092406.687500", "092407.147500", "092407.607500", "092408.067500", "092408.527500", "092408.987500", "092409.447500", "092409.907500", "092410.367500", "092410.827500", "092411.287500", "092411.747500", "092412.207500", "092412.667500", "092413.127500", "092413.587500", "092414.047500", "092414.507500", "092414.967500", "092415.427500", "092415.887500", "092416.347500", "092416.807500", "092417.267500", "092417.727500", "092418.187500", "092418.647500", "092419.107500", "092419.567500", "092420.027500", "092420.487500", "092420.947500", "092421.407500", "092421.867500", "092422.327500", "092422.787500", "092423.247500", "092423.707500", "092424.167500", "092424.627500", "092425.087500", "092425.547500", "092426.007500", "092426.467500", "092426.927500", "092427.387500", "092427.847500", "092428.307500", "092428.767500", "092429.227500", "092429.687500", "092430.147500", "092430.607500", "092431.067500", "092431.527500", "092431.987500", "092432.447500", "092432.907500", "092433.367500", "092433.827500", "092434.287500", "092434.747500", "092435.207500", "092435.667500", "092436.127500"],
