{
  "AcquisitionMatrixPE": 82,
  "AcquisitionNumber": 1,
  "AcquisitionTime": "09:10:54.610000",
  "BandwidthPerPixelPhaseEncode": 24.888,
  "BaseResolution": 82,
  "BodyPartExamined": "BRAIN",
  "ConsistencyInfo": "N4_VE11E_LATEST_20181129",
  "ConversionSoftware": "dcm2niix",
  "ConversionSoftwareVersion": "v1.0.20201102",
  "DerivedVendorReportedEchoSpacing": 0.00049,
  "DeviceSerialNumber": "66112",
  "DwellTime": 2e-06,
  "EchoTime": 0.0272,
  "EchoTrainLength": 82,
  "EffectiveEchoSpacing": 0.00049,
  "FlipAngle": 44,
  "ImageComments": "Unaliased MB8/PE3",
  "ImageOrientationPatientDICOM": [0.999658, -0.00315409, 0.0259541, 0.0017447, 0.998531, 0.0541473],
  "ImageType": [
    "ORIGINAL",
    "PRIMARY",
    "M",
    "MB",
    "ND",
    "NORM",
    "MOSAIC"
],
  "ImagingFrequency": 123.259,
  "InPlanePhaseEncodingDirectionDICOM": "COL",
  "InstitutionAddress": "Maynard 3,Hanover,NH,US,03755",
  "InstitutionName": "Dartmouth College - PBS",
  "InstitutionalDepartmentName": "Department",
  "MRAcquisitionType": "2D",
  "MagneticFieldStrength": 3,
  "Manufacturer": "Siemens",
  "ManufacturersModelName": "Prisma",
  "Modality": "MR",
  "MultibandAccelerationFactor": 8,
  "PartialFourier": 1,
  "PatientPosition": "HFS",
  "PercentPhaseFOV": 100,
  "PercentSampling": 100,
  "PhaseEncodingDirection": "j-",
  "PhaseEncodingSteps": 82,
  "PhaseResolution": 1,
  "PixelBandwidth": 3050,
  "ProcedureStepDescription": "Wager_Wager^1076_spacetop",
  "ProtocolName": "func_run-01_task-social_acq-ap-mb8",
  "PulseSequenceDetails": "%CustomerSeq%\\cmrr_mbep2d_bold",
  "ReceiveCoilActiveElements": "HEA;HEP",
  "ReceiveCoilName": "Head_32",
  "ReconMatrixPE": 82,
  "RepetitionTime": 0.46,
  "SAR": 0.083105,
  "ScanOptions": "FS",
  "ScanningSequence": "EP",
  "SequenceName": "epfid2d1_82",
  "SequenceVariant": "SK\\SS",
  "SeriesDescription": "func_run-01_task-social_acq-ap-mb8",
  "SeriesNumber": 12,
  "ShimSetting": [4237, -7769, -7261, 265, -115, -163, -82, 118],
  "SliceThickness": 2.7,
  "SliceTiming": [0, 0.2525, 0.0625, 0.315, 0.125, 0.3775, 0.19, 0, 0.2525, 0.0625, 0.315, 0.125, 0.3775, 0.19, 0, 0.2525, 0.0625, 0.315, 0.125, 0.3775, 0.19, 0, 0.2525, 0.0625, 0.315, 0.125, 0.3775, 0.19, 0, 0.2525, 0.0625, 0.315, 0.125, 0.3775, 0.19, 0, 0.2525, 0.0625, 0.315, 0.125, 0.3775, 0.19, 0, 0.2525, 0.0625, 0.315, 0.125, 0.3775, 0.19, 0, 0.2525, 0.0625, 0.315, 0.125, 0.3775, 0.19],
  "SoftwareVersions": "syngo MR E11",
  "SpacingBetweenSlices": 2.7,
  "StationName": "AWP66112",
  "TaskName": "social",
  "TotalReadoutTime": 0.03969,
  "TxRefAmp": 232.71,
  "WipMemBlock": "aca56920-e09d-4b2a-963e-4056d683e3cc||Sequence: R016 ve11e/master r/434b28f1; Aug  7 2019 18:53:46 by eja",
  "dcmmeta_affine": [
    [-2.682009696960449, 0.004680910613387823, 0.07043439894914627, 112.77593994140625],
    [0.008462182246148586, 2.6789867877960205, 0.14602553844451904, -103.451416015625],
    [0.06963307410478592, -0.1452733278274536, 2.6951279640197754, -80.25406646728516],
    [0.0, 0.0, 0.0, 1.0]
],
  "dcmmeta_reorient_transform": [
    [0.0, -1.0, 0.0, 81.0],
    [1.0, 0.0, 0.0, 0.0],
    [0.0, 0.0, 1.0, 0.0],
    [0.0, 0.0, 0.0, 1.0]
],
  "dcmmeta_shape": [82, 82, 56, 872],
  "dcmmeta_slice_dim": 2,
  "dcmmeta_version": 0.6,
  "global": {
    "const": {
      "AccessionNumber": "A004316",
      "AcquisitionMatrix": [82, 0, 0, 82],
      "AngioFlag": "N",
      "BitsAllocated": 16,
      "BitsStored": 16,
      "BodyPartExamined": "BRAIN",
      "Columns": 656,
      "EchoNumbers": 1,
      "EchoTime": 27.2,
      "EchoTrainLength": 82,
      "FlipAngle": 44.0,
      "HighBit": 15,
      "ImageOrientationPatient": [0.99965815860205, -0.0031540861684, 0.02595414573428, 0.00174470295802, 0.99853143311025, 0.05414732774927],
      "ImagePositionPatient": [-884.2353190503, -879.98709221993, -153.69934320696],
      "ImageType": [
        "ORIGINAL",
        "PRIMARY",
        "M",
        "MB",
        "ND",
        "NORM",
        "MOSAIC"
],
      "ImagedNucleus": "1H",
      "ImagingFrequency": 123.259102,
      "InPlanePhaseEncodingDirection": "COL",
      "MRAcquisitionType": "2D",
      "MagneticFieldStrength": 3.0,
      "Manufacturer": "SIEMENS",
      "ManufacturerModelName": "Prisma",
      "Modality": "MR",
      "NumberOfAverages": 1.0,
      "NumberOfPhaseEncodingSteps": 82,
      "PercentPhaseFieldOfView": 100.0,
      "PercentSampling": 100.0,
      "PerformedProcedureStepStartTime": "083015.280000",
      "PhotometricInterpretation": "MONOCHROME2",
      "PixelBandwidth": 3050.0,
      "PixelRepresentation": 0,
      "PixelSpacing": [2.6829268932343, 2.6829268932343],
      "ProtocolName": "func_run-01_task-social_acq-ap-mb8",
      "RepetitionTime": 460.0,
      "Rows": 656,
      "SAR": 0.08310504243649,
      "SamplesPerPixel": 1,
      "ScanOptions": "FS",
      "ScanningSequence": "EP",
      "SequenceName": "epfid2d1_82",
      "SequenceVariant": [
        "SK",
        "SS"
],
      "SeriesDescription": "func_run-01_task-social_acq-ap-mb8",
      "SeriesNumber": 12,
      "SeriesTime": "091118.853000",
      "SliceLocation": -82.76231052462,
      "SliceThickness": 2.7000000476837,
      "SmallestImagePixelValue": 0,
      "SoftwareVersions": "syngo MR E11",
      "SpacingBetweenSlices": 2.6999998961942,
      "SpecificCharacterSet": "ISO_IR 100",
      "StudyID": "1",
      "StudyTime": "083015.171000",
      "TransmitCoilName": "Body",
      "VariableFlipAngleFlag": "N",
      "WindowCenterWidthExplanation": "Algo1"
    },
    "slices": {}
  },
  "time": {
    "samples": {
      "AcquisitionNumber": [1, 2, 3, 4, 5, 6, 7, 8, 9, 10, 11, 12, 13, 14, 15, 16, 17, 18, 19, 20, 21, 22, 23, 24, 25, 26, 27, 28, 29, 30, 31, 32, 33, 34, 35, 36, 37, 38, 39, 40, 41, 42, 43, 44, 45, 46, 47, 48, 49, 50, 51, 52, 53, 54, 55, 56, 57, 58, 59, 60, 61, 62, 63, 64, 65, 66, 67, 68, 69, 70, 71, 72, 73, 74, 75, 76, 77, 78, 79, 80, 81, 82, 83, 84, 85, 86, 87, 88, 89, 90, 91, 92, 93, 94, 95, 96, 97, 98, 99, 100, 101, 102, 103, 104, 105, 106, 107, 108, 109, 110, 111, 112, 113, 114, 115, 116, 117, 118, 119, 120, 121, 122, 123, 124, 125, 126, 127, 128, 129, 130, 131, 132, 133, 134, 135, 136, 137, 138, 139, 140, 141, 142, 143, 144, 145, 146, 147, 148, 149, 150, 151, 152, 153, 154, 155, 156, 157, 158, 159, 160, 161, 162, 163, 164, 165, 166, 167, 168, 169, 170, 171, 172, 173, 174, 175, 176, 177, 178, 179, 180, 181, 182, 183, 184, 185, 186, 187, 188, 189, 190, 191, 192, 193, 194, 195, 196, 197, 198, 199, 200, 201, 202, 203, 204, 205, 206, 207, 208, 209, 210, 211, 212, 213, 214, 215, 216, 217, 218, 219, 220, 221, 222, 223, 224, 225, 226, 227, 228, 229, 230, 231, 232, 233, 234, 235, 236, 237, 238, 239, 240, 241, 242, 243, 244, 245, 246, 247, 248, 249, 250, 251, 252, 253, 254, 255, 256, 257, 258, 259, 260, 261, 262, 263, 264, 265, 266, 267, 268, 269, 270, 271, 272, 273, 274, 275, 276, 277, 278, 279, 280, 281, 282, 283, 284, 285, 286, 287, 288, 289, 290, 291, 292, 293, 294, 295, 296, 297, 298, 299, 300, 301, 302, 303, 304, 305, 306, 307, 308, 309, 310, 311, 312, 313, 314, 315, 316, 317, 318, 319, 320, 321, 322, 323, 324, 325, 326, 327, 328, 329, 330, 331, 332, 333, 334, 335, 336, 337, 338, 339, 340, 341, 342, 343, 344, 345, 346, 347, 348, 349, 350, 351, 352, 353, 354, 355, 356, 357, 358, 359, 360, 361, 362, 363, 364, 365, 366, 367, 368, 369, 370, 371, 372, 373, 374, 375, 376, 377, 378, 379, 380, 381, 382, 383, 384, 385, 386, 387, 388, 389, 390, 391, 392, 393, 394, 395, 396, 397, 398, 399, 400, 401, 402, 403, 404, 405, 406, 407, 408, 409, 410, 411, 412, 413, 414, 415, 416, 417, 418, 419, 420, 421, 422, 423, 424, 425, 426, 427, 428, 429, 430, 431, 432, 433, 434, 435, 436, 437, 438, 439, 440, 441, 442, 443, 444, 445, 446, 447, 448, 449, 450, 451, 452, 453, 454, 455, 456, 457, 458, 459, 460, 461, 462, 463, 464, 465, 466, 467, 468, 469, 470, 471, 472, 473, 474, 475, 476, 477, 478, 479, 480, 481, 482, 483, 484, 485, 486, 487, 488, 489, 490, 491, 492, 493, 494, 495, 496, 497, 498, 499, 500, 501, 502, 503, 504, 505, 506, 507, 508, 509, 510, 511, 512, 513, 514, 515, 516, 517, 518, 519, 520, 521, 522, 523, 524, 525, 526, 527, 528, 529, 530, 531, 532, 533, 534, 535, 536, 537, 538, 539, 540, 541, 542, 543, 544, 545, 546, 547, 548, 549, 550, 551, 552, 553, 554, 555, 556, 557, 558, 559, 560, 561, 562, 563, 564, 565, 566, 567, 568, 569, 570, 571, 572, 573, 574, 575, 576, 577, 578, 579, 580, 581, 582, 583, 584, 585, 586, 587, 588, 589, 590, 591, 592, 593, 594, 595, 596, 597, 598, 599, 600, 601, 602, 603, 604, 605, 606, 607, 608, 609, 610, 611, 612, 613, 614, 615, 616, 617, 618, 619, 620, 621, 622, 623, 624, 625, 626, 627, 628, 629, 630, 631, 632, 633, 634, 635, 636, 637, 638, 639, 640, 641, 642, 643, 644, 645, 646, 647, 648, 649, 650, 651, 652, 653, 654, 655, 656, 657, 658, 659, 660, 661, 662, 663, 664, 665, 666, 667, 668, 669, 670, 671, 672, 673, 674, 675, 676, 677, 678, 679, 680, 681, 682, 683, 684, 685, 686, 687, 688, 689, 690, 691, 692, 693, 694, 695, 696, 697, 698, 699, 700, 701, 702, 703, 704, 705, 706, 707, 708, 709, 710, 711, 712, 713, 714, 715, 716, 717, 718, 719, 720, 721, 722, 723, 724, 725, 726, 727, 728, 729, 730, 731, 732, 733, 734, 735, 736, 737, 738, 739, 740, 741, 742, 743, 744, 745, 746, 747, 748, 749, 750, 751, 752, 753, 754, 755, 756, 757, 758, 759, 760, 761, 762, 763, 764, 765, 766, 767, 768, 769, 770, 771, 772, 773, 774, 775, 776, 777, 778, 779, 780, 781, 782, 783, 784, 785, 786, 787, 788, 789, 790, 791, 792, 793, 794, 795, 796, 797, 798, 799, 800, 801, 802, 803, 804, 805, 806, 807, 808, 809, 810, 811, 812, 813, 814, 815, 816, 817, 818, 819, 820, 821, 822, 823, 824, 825, 826, 827, 828, 829, 830, 831, 832, 833, 834, 835, 836, 837, 838, 839, 840, 841, 842, 843, 844, 845, 846, 847, 848, 849, 850, 851, 852, 853, 854, 855, 856, 857, 858, 859, 860, 861, 862, 863, 864, 865, 866, 867, 868, 869, 870, 871, 872],
      "AcquisitionTime": ["091054.610000", "091055.070000", "091055.530000", "091055.990000", "091056.450000", "091056.910000", "091057.370000", "091057.830000", "091058.290000", "091058.750000", "091059.210000", "091059.670000", "091100.130000", "091100.590000", "091101.050000", "091101.510000", "091101.970000", "091102.430000", "091102.890000", "091103.350000", "091103.810000", "091104.270000", "091104.730000", "091105.190000", "091105.650000", "091106.110000", "091106.570000", "091107.030000", "091107.490000", "091107.950000", "091108.410000", "091108.870000", "091109.330000", "091109.790000", "091110.250000", "091110.710000", "091111.170000", "091111.630000", "091112.090000", "091112.550000", "091113.010000", "091113.470000", "091113.930000", "091114.390000", "091114.850000", "091115.310000", "091115.770000", "091116.230000", "091116.690000", "091117.150000", "091117.610000", "091118.070000", "091118.530000", "091118.990000", "091119.450000", "091119.910000", "091120.370000", "091120.830000", "091121.290000", "091121.750000", "091122.210000", "091122.670000", "091123.130000", "091123.590000", "091124.050000", "091124.510000", "091124.970000", "091125.430000", "091125.890000", "091126.350000", "091126.810000", "091127.270000", "091127.730000", "091128.190000", "091128.650000", "091129.110000", "091129.570000", "091130.030000", "091130.490000", "091130.950000", "091131.410000", "091131.870000", "091132.330000", "091132.790000", "091133.250000", "091133.710000", "091134.170000", "091134.630000", "091135.090000", "091135.550000", "091136.010000", "091136.470000", "091136.930000", "091137.390000", "091137.850000", "091138.310000", "091138.770000", "091139.230000", "091139.690000", "091140.150000", "091140.610000", "091141.070000", "091141.530000", "091141.990000", "091142.450000", "091142.910000", "091143.370000", "091143.830000", "091144.290000", "091144.750000", "091145.210000", "091145.670000", "091146.130000", "091146.590000", "091147.050000", "091147.510000", "091147.970000", "091148.430000", "091148.890000", "091149.350000", "091149.810000", "091150.270000", "091150.730000", "091151.190000", "091151.650000", "091152.110000", "091152.570000", "091153.030000", "091153.490000", "091153.950000", "091154.410000", "091154.870000", "091155.330000", "091155.790000", "091156.250000", "091156.710000", "091157.170000", "091157.630000", "091158.090000", "091158.550000", "091159.010000", "091159.470000", "091159.930000", "091200.390000", "091200.850000", "091201.310000", "091201.770000", "091202.230000", "091202.690000", "091203.150000", "091203.610000", "091204.070000", "091204.530000", "091204.990000", "091205.450000", "091205.910000", "091206.370000", "091206.830000", "091207.290000", "091207.750000", "091208.210000", "091208.670000", "091209.130000", "091209.590000", "091210.050000", "091210.510000", "091210.970000", "091211.430000", "091211.890000", "091212.350000", "091212.810000", "091213.270000", "091213.730000", "091214.190000", "091214.650000", "091215.110000", "091215.570000", "091216.030000", "091216.490000", "091216.950000", "091217.410000", "091217.870000", "091218.330000", "091218.790000", "091219.250000", "091219.710000", "091220.170000", "091220.630000", "091221.090000", "091221.550000", "091222.010000", "091222.470000", "091222.930000", "091223.390000", "091223.850000", "091224.310000", "091224.770000", "091225.230000", "091225.690000", "091226.150000", "091226.610000", "091227.070000", "091227.530000", "091227.990000", "091228.450000", "091228.910000", "091229.370000", "091229.830000", "091230.290000", "091230.750000", "091231.210000", "091231.670000", "091232.130000", "091232.590000", "091233.050000", "091233.510000", "091233.970000", "091234.430000", "091234.890000", "091235.350000", "091235.810000", "091236.270000", "091236.730000", "091237.190000", "091237.650000", "091238.110000", "091238.570000", "091239.030000", "091239.490000", "091239.950000", "091240.410000", "091240.870000", "091241.330000", "091241.790000", "091242.250000", "091242.710000", "091243.170000", "091243.630000", "091244.090000", "091244.550000", "091245.010000", "091245.470000", "091245.930000", "091246.390000", "091246.850000", "091247.310000", "091247.770000", "091248.230000", "091248.690000", "091249.150000", "091249.610000", "091250.070000", "091250.530000", "091250.990000", "091251.450000", "091251.910000", "091252.370000", "091252.830000", "091253.290000", "091253.750000", "091254.210000", "091254.670000", "091255.130000", "091255.590000", "091256.050000", "091256.510000", "091256.970000", "091257.430000", "091257.890000", "091258.350000", "091258.810000", "091259.270000", "091259.730000", "091300.190000", "091300.650000", "091301.110000", "091301.570000", "091302.030000", "091302.490000", "091302.950000", "091303.410000", "091303.870000", "091304.330000", "091304.790000", "091305.250000", "091305.710000", "091306.170000", "091306.630000", "091307.090000", "091307.550000", "091308.010000", "091308.470000", "091308.930000", "091309.390000", "091309.850000", "091310.310000", "091310.770000", "091311.230000", "091311.690000", "091312.150000", "091312.610000", "091313.070000", "091313.530000", "091313.990000", "091314.450000", "091314.910000", "091315.370000", "091315.830000", "091316.290000", "091316.750000", "091317.210000", "091317.670000", "091318.130000", "091318.590000", "091319.050000", "091319.510000", "091319.970000", "091320.430000", "091320.890000", "091321.350000", "091321.810000", "091322.270000", "091322.730000", "091323.190000", "091323.650000", "091324.110000", "091324.570000", "091325.030000", "091325.490000", "091325.950000", "091326.410000", "091326.870000", "091327.330000", "091327.790000", "091328.250000", "091328.710000", "091329.170000", "091329.630000", "091330.090000", "091330.550000", "091331.010000", "091331.470000", "091331.930000", "091332.390000", "091332.850000", "091333.310000", "091333.770000", "091334.230000", "091334.690000", "091335.150000", "091335.610000", "091336.070000", "091336.530000", "091336.990000", "091337.450000", "091337.910000", "091338.370000", "091338.830000", "091339.290000", "091339.750000", "091340.210000", "091340.670000", "091341.130000", "091341.590000", "091342.050000", "091342.510000", "091342.970000", "091343.430000", "091343.890000", "091344.350000", "091344.810000", "091345.270000", "091345.730000", "091346.190000", "091346.650000", "091347.110000", "091347.570000", "091348.030000", "091348.490000", "091348.950000", "091349.410000", "091349.870000", "091350.330000", "091350.790000", "091351.250000", "091351.710000", "091352.170000", "091352.630000", "091353.090000", "091353.550000", "091354.010000", "091354.470000", "091354.930000", "091355.390000", "091355.850000", "091356.310000", "091356.770000", "091357.230000", "091357.690000", "091358.150000", "091358.610000", "091359.070000", "091359.530000", "091359.990000", "091400.450000", "091400.910000", "091401.370000", "091401.830000", "091402.290000", "091402.750000", "091403.210000", "091403.670000", "091404.130000", "091404.590000", "091405.050000", "091405.510000", "091405.970000", "091406.430000", "091406.890000", "091407.350000", "091407.810000", "091408.270000", "091408.730000", "091409.190000", "091409.650000", "091410.110000", "091410.570000", "091411.030000", "091411.490000", "091411.950000", "091412.410000", "091412.870000", "091413.330000", "091413.790000", "091414.250000", "091414.710000", "091415.170000", "091415.630000", "091416.090000", "091416.550000", "091417.010000", "091417.470000", "091417.930000", "091418.390000", "091418.850000", "091419.310000", "091419.770000", "091420.230000", "091420.690000", "091421.150000", "091421.610000", "091422.070000", "091422.530000", "091422.990000", "091423.450000", "091423.910000", "091424.370000", "091424.830000", "091425.290000", "091425.750000", "091426.210000", "091426.670000", "091427.130000", "091427.590000", "091428.050000", "091428.510000", "091428.970000", "091429.430000", "091429.890000", "091430.350000", "091430.810000", "091431.270000", "091431.730000", "091432.190000", "091432.650000", "091433.110000", "091433.570000", "091434.030000", "091434.490000", "091434.950000", "091435.410000", "091435.870000", "091436.330000", "091436.790000", "091437.250000", "091437.710000", "091438.170000", "091438.630000", "091439.090000", "091439.550000", "091440.010000", "091440.470000", "091440.930000", "091441.390000", "091441.850000", "091442.310000", "091442.770000", "091443.230000", "091443.690000", "091444.150000", "091444.610000", "091445.070000", "091445.530000", "091445.990000", "091446.450000", "091446.910000", "091447.370000", "091447.830000", "091448.290000", "091448.750000", "091449.210000", "091449.670000", "091450.130000", "091450.590000", "091451.050000", "091451.510000", "091451.970000", "091452.430000", "091452.890000", "091453.350000", "091453.810000", "091454.270000", "091454.730000", "091455.190000", "091455.650000", "091456.110000", "091456.570000", "091457.030000", "091457.490000", "091457.950000", "091458.410000", "091458.870000", "091459.330000", "091459.790000", "091500.250000", "091500.710000", "091501.170000", "091501.630000", "091502.090000", "091502.550000", "091503.010000", "091503.470000", "091503.930000", "091504.390000", "091504.850000", "091505.310000", "091505.770000", "091506.230000", "091506.690000", "091507.150000", "091507.610000", "091508.070000", "091508.530000", "091508.990000", "091509.450000", "091509.910000", "091510.370000", "091510.830000", "091511.290000", "091511.750000", "091512.210000", "091512.670000", "091513.130000", "091513.590000", "091514.050000", "091514.510000", "091514.970000", "091515.430000", "091515.890000", "091516.350000", "091516.810000", "091517.270000", "091517.730000", "091518.190000", "091518.650000", "091519.110000", "091519.570000", "091520.030000", "091520.490000", "091520.950000", "091521.410000", "091521.870000", "091522.330000", "091522.790000", "091523.250000", "091523.710000", "091524.170000", "091524.630000", "091525.090000", "091525.550000", "091526.010000", "091526.470000", "091526.930000", "091527.390000", "091527.850000", "091528.310000", "091528.770000", "091529.230000", "091529.690000", "091530.150000", "091530.610000", "091531.070000", "091531.530000", "091531.990000", "091532.450000", "091532.910000", "091533.370000", "091533.830000", "091534.290000", "091534.750000", "091535.210000", "091535.670000", "091536.130000", "091536.590000", "091537.050000", "091537.510000", "091537.970000", "091538.430000", "091538.890000", "091539.350000", "091539.810000", "091540.270000", "091540.730000", "091541.190000", "091541.650000", "091542.110000", "091542.570000", "091543.030000", "091543.490000", "091543.950000", "091544.410000", "091544.870000", "091545.330000", "091545.790000", "091546.250000", "091546.710000", "091547.170000", "091547.630000", "091548.090000", "091548.550000", "091549.010000", "091549.470000", "091549.930000", "091550.390000", "091550.850000", "091551.310000", "091551.770000", "091552.230000", "091552.690000", "091553.150000", "091553.610000", "091554.070000", "091554.530000", "091554.990000", "091555.450000", "091555.910000", "091556.370000", "091556.830000", "091557.290000", "091557.750000", "091558.210000", "091558.670000", "091559.130000", "091559.590000", "091600.050000", "091600.510000", "091600.970000", "091601.430000", "091601.890000", "091602.350000", "091602.810000", "091603.270000", "091603.730000", "091604.190000", "091604.650000", "091605.110000", "091605.570000", "091606.030000", "091606.490000", "091606.950000", "091607.410000", "091607.870000", "091608.330000", "091608.790000", "091609.250000", "091609.710000", "091610.170000", "091610.630000", "091611.090000", "091611.550000", "091612.010000", "091612.470000", "091612.930000", "091613.390000", "091613.850000", "091614.310000", "091614.770000", "091615.230000", "091615.690000", "091616.150000", "091616.610000", "091617.070000", "091617.530000", "091617.990000", "091618.450000", "091618.910000", "091619.370000", "091619.830000", "091620.290000", "091620.750000", "091621.210000", "091621.670000", "091622.130000", "091622.590000", "091623.050000", "091623.510000", "091623.970000", "091624.430000", "091624.890000", "091625.350000", "091625.810000", "091626.270000", "091626.730000", "091627.190000", "091627.650000", "091628.110000", "091628.570000", "091629.030000", "091629.490000", "091629.950000", "091630.410000", "091630.870000", "091631.330000", "091631.790000", "091632.250000", "091632.710000", "091633.170000", "091633.630000", "091634.090000", "091634.550000", "091635.010000", "091635.470000", "091635.930000", "091636.390000", "091636.850000", "091637.310000", "091637.770000", "091638.230000", "091638.690000", "091639.150000", "091639.610000", "091640.070000", "091640.530000", "091640.990000", "091641.450000", "091641.910000", "091642.370000", "091642.830000", "091643.290000", "091643.750000", "091644.210000", "091644.670000", "091645.130000", "091645.590000", "091646.050000", "091646.510000", "091646.970000", "091647.430000", "091647.890000", "091648.350000", "091648.810000", "091649.270000", "091649.730000", "091650.190000", "091650.650000", "091651.110000", "091651.570000", "091652.030000", "091652.490000", "091652.950000", "091653.410000", "091653.870000", "091654.330000", "091654.790000", "091655.250000", "091655.710000", "091656.170000", "091656.630000", "091657.090000", "091657.550000", "091658.010000", "091658.470000", "091658.930000", "091659.390000", "091659.850000", "091700.310000", "091700.770000", "091701.230000", "091701.690000", "091702.150000", "091702.610000", "091703.070000", "091703.530000", "091703.990000", "091704.450000", "091704.910000", "091705.370000", "091705.830000", "091706.290000", "091706.750000", "091707.210000", "091707.670000", "091708.130000", "091708.590000", "091709.050000", "091709.510000", "091709.970000", "091710.430000", "091710.890000", "091711.350000", "091711.810000", "091712.270000", "091712.730000", "091713.190000", "091713.650000", "091714.110000", "091714.570000", "091715.030000", "091715.490000", "091715.950000", "091716.410000", "091716.870000", "091717.330000", "091717.790000", "091718.250000", "091718.710000", "091719.170000", "091719.630000", "091720.090000", "091720.550000", "091721.010000", "091721.470000", "091721.930000", "091722.390000", "091722.850000", "091723.310000", "091723.770000", "091724.230000", "091724.690000", "091725.150000", "091725.610000", "091726.070000", "091726.530000", "091726.990000", "091727.450000", "091727.910000", "091728.370000", "091728.830000", "091729.290000", "091729.750000", "091730.210000", "091730.670000", "091731.130000", "091731.590000", "091732.050000", "091732.510000", "091732.970000", "091733.430000", "091733.890000", "091734.350000", "091734.810000", "091735.270000"],
