{
  "AcquisitionMatrixPE": 82,
  "AcquisitionNumber": 1,
  "AcquisitionTime": "12:55:4.890000",
  "BandwidthPerPixelPhaseEncode": 24.888,
  "BaseResolution": 82,
  "BodyPartExamined": "BRAIN",
  "ConsistencyInfo": "N4_VE11C_LATEST_20160120",
  "ConversionSoftware": "dcm2niix",
  "ConversionSoftwareVersion": "v1.0.20201102",
  "DerivedVendorReportedEchoSpacing": 0.00049,
  "DeviceSerialNumber": "66112",
  "DwellTime": 2e-06,
  "EchoTime": 0.0272,
  "EchoTrainLength": 82,
  "EffectiveEchoSpacing": 0.00049,
  "FlipAngle": 44,
  "ImageComments": "Unaliased MB8/PE3",
  "ImageOrientationPatientDICOM": [0.999801, 0.019733, 0.00300109, -0.0193717, 0.995539, -0.0923379],
  "ImageType": [
    "ORIGINAL",
    "PRIMARY",
    "M",
    "MB",
    "ND",
    "NORM",
    "MOSAIC"
],
  "ImagingFrequency": 123.252,
  "InPlanePhaseEncodingDirectionDICOM": "COL",
  "InstitutionAddress": "Maynard 3,Hanover,NH,US,03755",
  "InstitutionName": "Dartmouth College - PBS",
  "InstitutionalDepartmentName": "Department",
  "MRAcquisitionType": "2D",
  "MagneticFieldStrength": 3,
  "Manufacturer": "Siemens",
  "ManufacturersModelName": "Prisma",
  "Modality": "MR",
  "MultibandAccelerationFactor": 8,
  "PartialFourier": 1,
  "PatientPosition": "HFS",
  "PercentPhaseFOV": 100,
  "PercentSampling": 100,
  "PhaseEncodingDirection": "j-",
  "PhaseEncodingSteps": 82,
  "PhaseResolution": 1,
  "PixelBandwidth": 3050,
  "ProcedureStepDescription": "Wager_Wager^1076_spacetop",
  "ProtocolName": "func_run-03_task-social_acq-ap-mb8",
  "PulseSequenceDetails": "%CustomerSeq%\\cmrr_mbep2d_bold",
  "ReceiveCoilActiveElements": "HEA;HEP",
  "ReceiveCoilName": "Head_32",
  "ReconMatrixPE": 82,
  "RepetitionTime": 0.46,
  "SAR": 0.0857559,
  "ScanOptions": "FS",
  "ScanningSequence": "EP",
  "SequenceName": "epfid2d1_82",
  "SequenceVariant": "SK\\SS",
  "SeriesDescription": "func_run-03_task-social_acq-ap-mb8",
  "SeriesNumber": 12,
  "ShimSetting": [4177, -7765, -7267, 598, -89, -152, -43, 83],
  "SliceThickness": 2.7,
  "SliceTiming": [0, 0.25, 0.0625, 0.3125, 0.125, 0.375, 0.1875, 0, 0.25, 0.0625, 0.3125, 0.125, 0.375, 0.1875, 0, 0.25, 0.0625, 0.3125, 0.125, 0.375, 0.1875, 0, 0.25, 0.0625, 0.3125, 0.125, 0.375, 0.1875, 0, 0.25, 0.0625, 0.3125, 0.125, 0.375, 0.1875, 0, 0.25, 0.0625, 0.3125, 0.125, 0.375, 0.1875, 0, 0.25, 0.0625, 0.3125, 0.125, 0.375, 0.1875, 0, 0.25, 0.0625, 0.3125, 0.125, 0.375, 0.1875],
  "SoftwareVersions": "syngo MR E11",
  "SpacingBetweenSlices": 2.7,
  "StationName": "AWP66112",
  "TaskName": "social",
  "TotalReadoutTime": 0.03969,
  "TxRefAmp": 231.495,
  "WipMemBlock": "039b9d1f-a21d-45b2-9c6a-ebd6a10f6087||Sequence: R016 ve11c/master r/e634e98; Dec 19 2017 11:00:25 by eja",
  "dcmmeta_affine": [
    [-2.6823923587799072, -0.051972970366477966, 0.012986474670469761, 112.72062683105469],
    [-0.05294225364923477, 2.670958995819092, -0.24910582602024078, -75.48970031738281],
    [0.008051693439483643, 0.24773596227169037, 2.68845272064209, -85.81053924560547],
    [0.0, 0.0, 0.0, 1.0]
],
  "dcmmeta_reorient_transform": [
    [0.0, -1.0, 0.0, 81.0],
    [1.0, 0.0, 0.0, 0.0],
    [0.0, 0.0, 1.0, 0.0],
    [0.0, 0.0, 0.0, 1.0]
],
  "dcmmeta_shape": [82, 82, 56, 872],
  "dcmmeta_slice_dim": 2,
  "dcmmeta_version": 0.6,
  "global": {
    "const": {
      "AccessionNumber": "A003526",
      "AcquisitionMatrix": [82, 0, 0, 82],
      "AngioFlag": "N",
      "BitsAllocated": 16,
      "BitsStored": 16,
      "BodyPartExamined": "BRAIN",
      "Columns": 656,
      "EchoNumbers": 1,
      "EchoTime": 27.2,
      "EchoTrainLength": 82,
      "FlipAngle": 44.0,
      "HighBit": 15,
      "ImageOrientationPatient": [0.99980078083028, 0.0197330214563, 0.00300108569888, -0.0193717429203, 0.99553927059277, -0.0923379460668],
      "ImagePositionPatient": [-863.44119321083, -922.61767022583, 3.0454551114181],
      "ImageType": [
        "ORIGINAL",
        "PRIMARY",
        "M",
        "MB",
        "ND",
        "NORM",
        "MOSAIC"
],
      "ImagedNucleus": "1H",
      "ImagingFrequency": 123.252164,
      "InPlanePhaseEncodingDirection": "COL",
      "MRAcquisitionType": "2D",
      "MagneticFieldStrength": 3.0,
      "Manufacturer": "SIEMENS",
      "ManufacturerModelName": "Prisma",
      "Modality": "MR",
      "NumberOfAverages": 1.0,
      "NumberOfPhaseEncodingSteps": 82,
      "PercentPhaseFieldOfView": 100.0,
      "PercentSampling": 100.0,
      "PerformedProcedureStepStartTime": "120221.380000",
      "PhotometricInterpretation": "MONOCHROME2",
      "PixelBandwidth": 3050.0,
      "PixelRepresentation": 0,
      "PixelSpacing": [2.6829268932343, 2.6829268932343],
      "ProtocolName": "func_run-03_task-social_acq-ap-mb8",
      "RepetitionTime": 460.0,
      "Rows": 656,
      "SAR": 0.08575592994857,
      "SamplesPerPixel": 1,
      "ScanOptions": "FS",
      "ScanningSequence": "EP",
      "SequenceName": "epfid2d1_82",
      "SequenceVariant": [
        "SK",
        "SS"
],
      "SeriesDescription": "func_run-03_task-social_acq-ap-mb8",
      "SeriesNumber": 12,
      "SeriesTime": "125523.524000",
      "SliceLocation": -77.936596749951,
      "SliceThickness": 2.7000000476837,
      "SmallestImagePixelValue": 0,
      "SoftwareVersions": "syngo MR E11",
      "SpacingBetweenSlices": 2.7000000561649,
      "SpecificCharacterSet": "ISO_IR 100",
      "StudyID": "3",
      "StudyTime": "120221.290000",
      "TransmitCoilName": "Body",
      "VariableFlipAngleFlag": "N",
      "WindowCenterWidthExplanation": "Algo1",
      "dBdt": 0.0},
    "slices": {}
  },
  "time": {
    "samples": {
      "AcquisitionNumber": [1, 2, 3, 4, 5, 6, 7, 8, 9, 10, 11, 12, 13, 14, 15, 16, 17, 18, 19, 20, 21, 22, 23, 24, 25, 26, 27, 28, 29, 30, 31, 32, 33, 34, 35, 36, 37, 38, 39, 40, 41, 42, 43, 44, 45, 46, 47, 48, 49, 50, 51, 52, 53, 54, 55, 56, 57, 58, 59, 60, 61, 62, 63, 64, 65, 66, 67, 68, 69, 70, 71, 72, 73, 74, 75, 76, 77, 78, 79, 80, 81, 82, 83, 84, 85, 86, 87, 88, 89, 90, 91, 92, 93, 94, 95, 96, 97, 98, 99, 100, 101, 102, 103, 104, 105, 106, 107, 108, 109, 110, 111, 112, 113, 114, 115, 116, 117, 118, 119, 120, 121, 122, 123, 124, 125, 126, 127, 128, 129, 130, 131, 132, 133, 134, 135, 136, 137, 138, 139, 140, 141, 142, 143, 144, 145, 146, 147, 148, 149, 150, 151, 152, 153, 154, 155, 156, 157, 158, 159, 160, 161, 162, 163, 164, 165, 166, 167, 168, 169, 170, 171, 172, 173, 174, 175, 176, 177, 178, 179, 180, 181, 182, 183, 184, 185, 186, 187, 188, 189, 190, 191, 192, 193, 194, 195, 196, 197, 198, 199, 200, 201, 202, 203, 204, 205, 206, 207, 208, 209, 210, 211, 212, 213, 214, 215, 216, 217, 218, 219, 220, 221, 222, 223, 224, 225, 226, 227, 228, 229, 230, 231, 232, 233, 234, 235, 236, 237, 238, 239, 240, 241, 242, 243, 244, 245, 246, 247, 248, 249, 250, 251, 252, 253, 254, 255, 256, 257, 258, 259, 260, 261, 262, 263, 264, 265, 266, 267, 268, 269, 270, 271, 272, 273, 274, 275, 276, 277, 278, 279, 280, 281, 282, 283, 284, 285, 286, 287, 288, 289, 290, 291, 292, 293, 294, 295, 296, 297, 298, 299, 300, 301, 302, 303, 304, 305, 306, 307, 308, 309, 310, 311, 312, 313, 314, 315, 316, 317, 318, 319, 320, 321, 322, 323, 324, 325, 326, 327, 328, 329, 330, 331, 332, 333, 334, 335, 336, 337, 338, 339, 340, 341, 342, 343, 344, 345, 346, 347, 348, 349, 350, 351, 352, 353, 354, 355, 356, 357, 358, 359, 360, 361, 362, 363, 364, 365, 366, 367, 368, 369, 370, 371, 372, 373, 374, 375, 376, 377, 378, 379, 380, 381, 382, 383, 384, 385, 386, 387, 388, 389, 390, 391, 392, 393, 394, 395, 396, 397, 398, 399, 400, 401, 402, 403, 404, 405, 406, 407, 408, 409, 410, 411, 412, 413, 414, 415, 416, 417, 418, 419, 420, 421, 422, 423, 424, 425, 426, 427, 428, 429, 430, 431, 432, 433, 434, 435, 436, 437, 438, 439, 440, 441, 442, 443, 444, 445, 446, 447, 448, 449, 450, 451, 452, 453, 454, 455, 456, 457, 458, 459, 460, 461, 462, 463, 464, 465, 466, 467, 468, 469, 470, 471, 472, 473, 474, 475, 476, 477, 478, 479, 480, 481, 482, 483, 484, 485, 486, 487, 488, 489, 490, 491, 492, 493, 494, 495, 496, 497, 498, 499, 500, 501, 502, 503, 504, 505, 506, 507, 508, 509, 510, 511, 512, 513, 514, 515, 516, 517, 518, 519, 520, 521, 522, 523, 524, 525, 526, 527, 528, 529, 530, 531, 532, 533, 534, 535, 536, 537, 538, 539, 540, 541, 542, 543, 544, 545, 546, 547, 548, 549, 550, 551, 552, 553, 554, 555, 556, 557, 558, 559, 560, 561, 562, 563, 564, 565, 566, 567, 568, 569, 570, 571, 572, 573, 574, 575, 576, 577, 578, 579, 580, 581, 582, 583, 584, 585, 586, 587, 588, 589, 590, 591, 592, 593, 594, 595, 596, 597, 598, 599, 600, 601, 602, 603, 604, 605, 606, 607, 608, 609, 610, 611, 612, 613, 614, 615, 616, 617, 618, 619, 620, 621, 622, 623, 624, 625, 626, 627, 628, 629, 630, 631, 632, 633, 634, 635, 636, 637, 638, 639, 640, 641, 642, 643, 644, 645, 646, 647, 648, 649, 650, 651, 652, 653, 654, 655, 656, 657, 658, 659, 660, 661, 662, 663, 664, 665, 666, 667, 668, 669, 670, 671, 672, 673, 674, 675, 676, 677, 678, 679, 680, 681, 682, 683, 684, 685, 686, 687, 688, 689, 690, 691, 692, 693, 694, 695, 696, 697, 698, 699, 700, 701, 702, 703, 704, 705, 706, 707, 708, 709, 710, 711, 712, 713, 714, 715, 716, 717, 718, 719, 720, 721, 722, 723, 724, 725, 726, 727, 728, 729, 730, 731, 732, 733, 734, 735, 736, 737, 738, 739, 740, 741, 742, 743, 744, 745, 746, 747, 748, 749, 750, 751, 752, 753, 754, 755, 756, 757, 758, 759, 760, 761, 762, 763, 764, 765, 766, 767, 768, 769, 770, 771, 772, 773, 774, 775, 776, 777, 778, 779, 780, 781, 782, 783, 784, 785, 786, 787, 788, 789, 790, 791, 792, 793, 794, 795, 796, 797, 798, 799, 800, 801, 802, 803, 804, 805, 806, 807, 808, 809, 810, 811, 812, 813, 814, 815, 816, 817, 818, 819, 820, 821, 822, 823, 824, 825, 826, 827, 828, 829, 830, 831, 832, 833, 834, 835, 836, 837, 838, 839, 840, 841, 842, 843, 844, 845, 846, 847, 848, 849, 850, 851, 852, 853, 854, 855, 856, 857, 858, 859, 860, 861, 862, 863, 864, 865, 866, 867, 868, 869, 870, 871, 872],
      "AcquisitionTime": ["125504.890000", "125505.350000", "125505.810000", "125506.270000", "125506.730000", "125507.190000", "125507.650000", "125508.110000", "125508.570000", "125509.030000", "125509.490000", "125509.950000", "125510.410000", "125510.870000", "125511.330000", "125511.790000", "125512.250000", "125512.710000", "125513.170000", "125513.630000", "125514.090000", "125514.550000", "125515.010000", "125515.470000", "125515.930000", "125516.390000", "125516.850000", "125517.310000", "125517.770000", "125518.230000", "125518.690000", "125519.150000", "125519.610000", "125520.070000", "125520.530000", "125520.990000", "125521.450000", "125521.910000", "125522.370000", "125522.830000", "125523.290000", "125523.750000", "125524.210000", "125524.670000", "125525.130000", "125525.590000", "125526.050000", "125526.510000", "125526.970000", "125527.430000", "125527.890000", "125528.350000", "125528.810000", "125529.270000", "125529.730000", "125530.190000", "125530.650000", "125531.110000", "125531.570000", "125532.030000", "125532.490000", "125532.950000", "125533.410000", "125533.870000", "125534.330000", "125534.790000", "125535.250000", "125535.710000", "125536.170000", "125536.630000", "125537.090000", "125537.550000", "125538.010000", "125538.470000", "125538.930000", "125539.390000", "125539.850000", "125540.310000", "125540.770000", "125541.230000", "125541.690000", "125542.150000", "125542.610000", "125543.070000", "125543.530000", "125543.990000", "125544.450000", "125544.910000", "125545.370000", "125545.830000", "125546.290000", "125546.750000", "125547.210000", "125547.670000", "125548.130000", "125548.590000", "125549.050000", "125549.510000", "125549.970000", "125550.430000", "125550.890000", "125551.350000", "125551.810000", "125552.270000", "125552.730000", "125553.190000", "125553.650000", "125554.110000", "125554.570000", "125555.030000", "125555.490000", "125555.950000", "125556.410000", "125556.870000", "125557.330000", "125557.790000", "125558.250000", "125558.710000", "125559.170000", "125559.630000", "125600.090000", "125600.550000", "125601.010000", "125601.470000", "125601.930000", "125602.390000", "125602.850000", "125603.310000", "125603.770000", "125604.230000", "125604.690000", "125605.150000", "125605.610000", "125606.070000", "125606.530000", "125606.990000", "125607.450000", "125607.910000", "125608.370000", "125608.830000", "125609.290000", "125609.750000", "125610.210000", "125610.670000", "125611.130000", "125611.590000", "125612.050000", "125612.510000", "125612.970000", "125613.430000", "125613.890000", "125614.350000", "125614.810000", "125615.270000", "125615.730000", "125616.190000", "125616.650000", "125617.110000", "125617.570000", "125618.030000", "125618.490000", "125618.950000", "125619.410000", "125619.870000", "125620.330000", "125620.790000", "125621.250000", "125621.710000", "125622.170000", "125622.630000", "125623.090000", "125623.550000", "125624.010000", "125624.470000", "125624.930000", "125625.390000", "125625.850000", "125626.310000", "125626.770000", "125627.230000", "125627.690000", "125628.150000", "125628.610000", "125629.070000", "125629.530000", "125629.990000", "125630.450000", "125630.910000", "125631.370000", "125631.830000", "125632.290000", "125632.750000", "125633.210000", "125633.670000", "125634.130000", "125634.590000", "125635.050000", "125635.510000", "125635.970000", "125636.430000", "125636.890000", "125637.350000", "125637.810000", "125638.270000", "125638.730000", "125639.190000", "125639.650000", "125640.110000", "125640.570000", "125641.030000", "125641.490000", "125641.950000", "125642.410000", "125642.870000", "125643.330000", "125643.790000", "125644.250000", "125644.710000", "125645.170000", "125645.630000", "125646.090000", "125646.550000", "125647.010000", "125647.470000", "125647.930000", "125648.390000", "125648.850000", "125649.310000", "125649.770000", "125650.230000", "125650.690000", "125651.150000", "125651.610000", "125652.070000", "125652.530000", "125652.990000", "125653.450000", "125653.910000", "125654.370000", "125654.830000", "125655.290000", "125655.750000", "125656.210000", "125656.670000", "125657.130000", "125657.590000", "125658.050000", "125658.510000", "125658.970000", "125659.430000", "125659.890000", "125700.350000", "125700.810000", "125701.270000", "125701.730000", "125702.190000", "125702.650000", "125703.110000", "125703.570000", "125704.030000", "125704.490000", "125704.950000", "125705.410000", "125705.870000", "125706.330000", "125706.790000", "125707.250000", "125707.710000", "125708.170000", "125708.630000", "125709.090000", "125709.550000", "125710.010000", "125710.470000", "125710.930000", "125711.390000", "125711.850000", "125712.310000", "125712.770000", "125713.230000", "125713.690000", "125714.150000", "125714.610000", "125715.070000", "125715.530000", "125715.990000", "125716.450000", "125716.910000", "125717.370000", "125717.830000", "125718.290000", "125718.750000", "125719.210000", "125719.670000", "125720.130000", "125720.590000", "125721.050000", "125721.510000", "125721.970000", "125722.430000", "125722.890000", "125723.350000", "125723.810000", "125724.270000", "125724.730000", "125725.190000", "125725.650000", "125726.110000", "125726.570000", "125727.030000", "125727.490000", "125727.950000", "125728.410000", "125728.870000", "125729.330000", "125729.790000", "125730.250000", "125730.710000", "125731.170000", "125731.630000", "125732.090000", "125732.550000", "125733.010000", "125733.470000", "125733.930000", "125734.390000", "125734.850000", "125735.310000", "125735.770000", "125736.230000", "125736.690000", "125737.150000", "125737.610000", "125738.070000", "125738.530000", "125738.990000", "125739.450000", "125739.910000", "125740.370000", "125740.830000", "125741.290000", "125741.750000", "125742.210000", "125742.670000", "125743.130000", "125743.590000", "125744.050000", "125744.510000", "125744.970000", "125745.430000", "125745.890000", "125746.350000", "125746.810000", "125747.270000", "125747.730000", "125748.190000", "125748.650000", "125749.110000", "125749.570000", "125750.030000", "125750.490000", "125750.950000", "125751.410000", "125751.870000", "125752.330000", "125752.790000", "125753.250000", "125753.710000", "125754.170000", "125754.630000", "125755.090000", "125755.550000", "125756.010000", "125756.470000", "125756.930000", "125757.390000", "125757.850000", "125758.310000", "125758.770000", "125759.230000", "125759.690000", "125800.150000", "125800.610000", "125801.070000", "125801.530000", "125801.990000", "125802.450000", "125802.910000", "125803.370000", "125803.830000", "125804.290000", "125804.750000", "125805.210000", "125805.670000", "125806.130000", "125806.590000", "125807.050000", "125807.510000", "125807.970000", "125808.430000", "125808.890000", "125809.350000", "125809.810000", "125810.270000", "125810.730000", "125811.190000", "125811.650000", "125812.110000", "125812.570000", "125813.030000", "125813.490000", "125813.950000", "125814.410000", "125814.870000", "125815.330000", "125815.790000", "125816.250000", "125816.710000", "125817.170000", "125817.630000", "125818.090000", "125818.550000", "125819.010000", "125819.470000", "125819.930000", "125820.390000", "125820.850000", "125821.310000", "125821.770000", "125822.230000", "125822.690000", "125823.150000", "125823.610000", "125824.070000", "125824.530000", "125824.990000", "125825.450000", "125825.910000", "125826.370000", "125826.830000", "125827.290000", "125827.750000", "125828.210000", "125828.670000", "125829.130000", "125829.590000", "125830.050000", "125830.510000", "125830.970000", "125831.430000", "125831.890000", "125832.350000", "125832.810000", "125833.270000", "125833.730000", "125834.190000", "125834.650000", "125835.110000", "125835.570000", "125836.030000", "125836.490000", "125836.950000", "125837.410000", "125837.870000", "125838.330000", "125838.790000", "125839.250000", "125839.710000", "125840.170000", "125840.630000", "125841.090000", "125841.550000", "125842.010000", "125842.470000", "125842.930000", "125843.390000", "125843.850000", "125844.310000", "125844.770000", "125845.230000", "125845.690000", "125846.150000", "125846.610000", "125847.070000", "125847.530000", "125847.990000", "125848.450000", "125848.910000", "125849.370000", "125849.830000", "125850.290000", "125850.750000", "125851.210000", "125851.670000", "125852.130000", "125852.590000", "125853.050000", "125853.510000", "125853.970000", "125854.430000", "125854.890000", "125855.350000", "125855.810000", "125856.270000", "125856.730000", "125857.190000", "125857.650000", "125858.110000", "125858.570000", "125859.030000", "125859.490000", "125859.950000", "125900.410000", "125900.870000", "125901.330000", "125901.790000", "125902.250000", "125902.710000", "125903.170000", "125903.630000", "125904.090000", "125904.550000", "125905.010000", "125905.470000", "125905.930000", "125906.390000", "125906.850000", "125907.310000", "125907.770000", "125908.230000", "125908.690000", "125909.150000", "125909.610000", "125910.070000", "125910.530000", "125910.990000", "125911.450000", "125911.910000", "125912.370000", "125912.830000", "125913.290000", "125913.750000", "125914.210000", "125914.670000", "125915.130000", "125915.590000", "125916.050000", "125916.510000", "125916.970000", "125917.430000", "125917.890000", "125918.350000", "125918.810000", "125919.270000", "125919.730000", "125920.190000", "125920.650000", "125921.110000", "125921.570000", "125922.030000", "125922.490000", "125922.950000", "125923.410000", "125923.870000", "125924.330000", "125924.790000", "125925.250000", "125925.710000", "125926.170000", "125926.630000", "125927.090000", "125927.550000", "125928.010000", "125928.470000", "125928.930000", "125929.390000", "125929.850000", "125930.310000", "125930.770000", "125931.230000", "125931.690000", "125932.150000", "125932.610000", "125933.070000", "125933.530000", "125933.990000", "125934.450000", "125934.910000", "125935.370000", "125935.830000", "125936.290000", "125936.750000", "125937.210000", "125937.670000", "125938.130000", "125938.590000", "125939.050000", "125939.510000", "125939.970000", "125940.430000", "125940.890000", "125941.350000", "125941.810000", "125942.270000", "125942.730000", "125943.190000", "125943.650000", "125944.110000", "125944.570000", "125945.030000", "125945.490000", "125945.950000", "125946.410000", "125946.870000", "125947.330000", "125947.790000", "125948.250000", "125948.710000", "125949.170000", "125949.630000", "125950.090000", "125950.550000", "125951.010000", "125951.470000", "125951.930000", "125952.390000", "125952.850000", "125953.310000", "125953.770000", "125954.230000", "125954.690000", "125955.150000", "125955.610000", "125956.070000", "125956.530000", "125956.990000", "125957.450000", "125957.910000", "125958.370000", "125958.830000", "125959.290000", "125959.750000", "130000.210000", "130000.670000", "130001.130000", "130001.590000", "130002.050000", "130002.510000", "130002.970000", "130003.430000", "130003.890000", "130004.350000", "130004.810000", "130005.270000", "130005.730000", "130006.190000", "130006.650000", "130007.110000", "130007.570000", "130008.030000", "130008.490000", "130008.950000", "130009.410000", "130009.870000", "130010.330000", "130010.790000", "130011.250000", "130011.710000", "130012.170000", "130012.630000", "130013.090000", "130013.550000", "130014.010000", "130014.470000", "130014.930000", "130015.390000", "130015.850000", "130016.310000", "130016.770000", "130017.230000", "130017.690000", "130018.150000", "130018.610000", "130019.070000", "130019.530000", "130019.990000", "130020.450000", "130020.910000", "130021.370000", "130021.830000", "130022.290000", "130022.750000", "130023.210000", "130023.670000", "130024.130000", "130024.590000", "130025.050000", "130025.510000", "130025.970000", "130026.430000", "130026.890000", "130027.350000", "130027.810000", "130028.270000", "130028.730000", "130029.190000", "130029.650000", "130030.110000", "130030.570000", "130031.030000", "130031.490000", "130031.950000", "130032.410000", "130032.870000", "130033.330000", "130033.790000", "130034.250000", "130034.710000", "130035.170000", "130035.630000", "130036.090000", "130036.550000", "130037.010000", "130037.470000", "130037.930000", "130038.390000", "130038.850000", "130039.310000", "130039.770000", "130040.230000", "130040.690000", "130041.150000", "130041.610000", "130042.070000", "130042.530000", "130042.990000", "130043.450000", "130043.910000", "130044.370000", "130044.830000", "130045.290000", "130045.750000", "130046.210000", "130046.670000", "130047.130000", "130047.590000", "130048.050000", "130048.510000", "130048.970000", "130049.430000", "130049.890000", "130050.350000", "130050.810000", "130051.270000", "130051.730000", "130052.190000", "130052.650000", "130053.110000", "130053.570000", "130054.030000", "130054.490000", "130054.950000", "130055.410000", "130055.870000", "130056.330000", "130056.790000", "130057.250000", "130057.710000", "130058.170000", "130058.630000", "130059.090000", "130059.550000", "130100.010000", "130100.470000", "130100.930000", "130101.390000", "130101.850000", "130102.310000", "130102.770000", "130103.230000", "130103.690000", "130104.150000", "130104.610000", "130105.070000", "130105.530000", "130105.990000", "130106.450000", "130106.910000", "130107.370000", "130107.830000", "130108.290000", "130108.750000", "130109.210000", "130109.670000", "130110.130000", "130110.590000", "130111.050000", "130111.510000", "130111.970000", "130112.430000", "130112.890000", "130113.350000", "130113.810000", "130114.270000", "130114.730000", "130115.190000", "130115.650000", "130116.110000", "130116.570000", "130117.030000", "130117.490000", "130117.950000", "130118.410000", "130118.870000", "130119.330000", "130119.790000", "130120.250000", "130120.710000", "130121.170000", "130121.630000", "130122.090000", "130122.550000", "130123.010000", "130123.470000", "130123.930000", "130124.390000", "130124.850000", "130125.310000", "130125.770000", "130126.230000", "130126.690000", "130127.150000", "130127.610000", "130128.070000", "130128.530000", "130128.990000", "130129.450000", "130129.910000", "130130.370000", "130130.830000", "130131.290000", "130131.750000", "130132.210000", "130132.670000", "130133.130000", "130133.590000", "130134.050000", "130134.510000", "130134.970000", "130135.430000", "130135.890000", "130136.350000", "130136.810000", "130137.270000", "130137.730000", "130138.190000", "130138.650000", "130139.110000", "130139.570000", "130140.030000", "130140.490000", "130140.950000", "130141.410000", "130141.870000", "130142.330000", "130142.790000", "130143.250000", "130143.710000", "130144.170000", "130144.630000", "130145.090000", "130145.550000"],
