{
  "AcquisitionMatrixPE": 82,
  "AcquisitionNumber": 1,
  "AcquisitionTime": "12:13:0.972500",
  "BandwidthPerPixelPhaseEncode": 24.888,
  "BaseResolution": 82,
  "BodyPartExamined": "BRAIN",
  "ConsistencyInfo": "N4_VE11C_LATEST_20160120",
  "ConversionSoftware": "dcm2niix",
  "ConversionSoftwareVersion": "v1.0.20201102",
  "DerivedVendorReportedEchoSpacing": 0.00049,
  "DeviceSerialNumber": "66112",
  "DwellTime": 2e-06,
  "EchoTime": 0.0272,
  "EchoTrainLength": 82,
  "EffectiveEchoSpacing": 0.00049,
  "FlipAngle": 44,
  "ImageComments": "Unaliased MB8/PE3",
  "ImageOrientationPatientDICOM": [0.998184, -0.0434243, 0.0417386, 0.0397423, 0.99556, 0.0853257],
  "ImageType": [
    "ORIGINAL",
    "PRIMARY",
    "M",
    "MB",
    "ND",
    "NORM",
    "MOSAIC"
],
  "ImagingFrequency": 123.252,
  "InPlanePhaseEncodingDirectionDICOM": "COL",
  "InstitutionAddress": "Maynard 3,Hanover,NH,US,03755",
  "InstitutionName": "Dartmouth College - PBS",
  "InstitutionalDepartmentName": "Department",
  "MRAcquisitionType": "2D",
  "MagneticFieldStrength": 3,
  "Manufacturer": "Siemens",
  "ManufacturersModelName": "Prisma",
  "Modality": "MR",
  "MultibandAccelerationFactor": 8,
  "PartialFourier": 1,
  "PatientPosition": "HFS",
  "PercentPhaseFOV": 100,
  "PercentSampling": 100,
  "PhaseEncodingDirection": "j-",
  "PhaseEncodingSteps": 82,
  "PhaseResolution": 1,
  "PixelBandwidth": 3050,
  "ProcedureStepDescription": "Wager_Wager^1076_spacetop",
  "ProtocolName": "func_run-01_task-narratives_acq-ap-mb8",
  "PulseSequenceDetails": "%CustomerSeq%\\cmrr_mbep2d_bold",
  "ReceiveCoilActiveElements": "HEA;HEP",
  "ReceiveCoilName": "Head_32",
  "ReconMatrixPE": 82,
  "RepetitionTime": 0.46,
  "SAR": 0.107367,
  "ScanOptions": "FS",
  "ScanningSequence": "EP",
  "SequenceName": "epfid2d1_82",
  "SequenceVariant": "SK\\SS",
  "SeriesDescription": "func_run-01_task-narratives_acq-ap-mb8",
  "SeriesNumber": 8,
  "ShimSetting": [4179, -7741, -7255, 634, 27, -133, 117, 45],
  "SliceThickness": 2.7,
  "SliceTiming": [0, 0.25, 0.0625, 0.3125, 0.125, 0.3775, 0.1875, 0, 0.25, 0.0625, 0.3125, 0.125, 0.3775, 0.1875, 0, 0.25, 0.0625, 0.3125, 0.125, 0.3775, 0.1875, 0, 0.25, 0.0625, 0.3125, 0.125, 0.3775, 0.1875, 0, 0.25, 0.0625, 0.3125, 0.125, 0.3775, 0.1875, 0, 0.25, 0.0625, 0.3125, 0.125, 0.3775, 0.1875, 0, 0.25, 0.0625, 0.3125, 0.125, 0.3775, 0.1875, 0, 0.25, 0.0625, 0.3125, 0.125, 0.3775, 0.1875],
  "SoftwareVersions": "syngo MR E11",
  "SpacingBetweenSlices": 2.7,
  "StationName": "AWP66112",
  "TaskName": "narratives",
  "TotalReadoutTime": 0.03969,
  "TxRefAmp": 270.888,
  "WipMemBlock": "44f69db1-538d-4490-a359-1ded56ee2399||Sequence: R016 ve11c/master r/e634e98; Dec 19 2017 11:00:25 by eja",
  "dcmmeta_affine": [
    [-2.678056001663208, 0.10662558674812317, 0.12219785898923874, 104.92606353759766],
    [0.11650416254997253, 2.6710152626037598, 0.22548235952854156, -88.12508392333984],
    [0.11198154091835022, -0.22892256081104279, 2.6877918243408203, -53.51728439331055],
    [0.0, 0.0, 0.0, 1.0]
],
  "dcmmeta_reorient_transform": [
    [0.0, -1.0, 0.0, 81.0],
    [1.0, 0.0, 0.0, 0.0],
    [0.0, 0.0, 1.0, 0.0],
    [0.0, 0.0, 0.0, 1.0]
],
  "dcmmeta_shape": [82, 82, 56, 967],
  "dcmmeta_slice_dim": 2,
  "dcmmeta_version": 0.6,
  "global": {
    "const": {
      "AccessionNumber": "A003516",
      "AcquisitionMatrix": [82, 0, 0, 82],
      "AngioFlag": "N",
      "BitsAllocated": 16,
      "BitsStored": 16,
      "BodyPartExamined": "BRAIN",
      "Columns": 656,
      "EchoNumbers": 1,
      "EchoTime": 27.2,
      "EchoTrainLength": 82,
      "FlipAngle": 44.0,
      "HighBit": 15,
      "ImageOrientationPatient": [0.99818446371903, -0.0434242780845, 0.04173857284081, 0.03974226373446, 0.99556018446776, 0.08532567946275],
      "ImagePositionPatient": [-912.76633829899, -861.37181463059, -169.8994876557],
      "ImageType": [
        "ORIGINAL",
        "PRIMARY",
        "M",
        "MB",
        "ND",
        "NORM",
        "MOSAIC"
],
      "ImagedNucleus": "1H",
      "ImagingFrequency": 123.252421,
      "InPlanePhaseEncodingDirection": "COL",
      "MRAcquisitionType": "2D",
      "MagneticFieldStrength": 3.0,
      "Manufacturer": "SIEMENS",
      "ManufacturerModelName": "Prisma",
      "Modality": "MR",
      "NumberOfAverages": 1.0,
      "NumberOfPhaseEncodingSteps": 82,
      "PercentPhaseFieldOfView": 100.0,
      "PercentSampling": 100.0,
      "PerformedProcedureStepStartTime": "113628.296000",
      "PhotometricInterpretation": "MONOCHROME2",
      "PixelBandwidth": 3050.0,
      "PixelRepresentation": 0,
      "PixelSpacing": [2.6829268932343, 2.6829268932343],
      "ProtocolName": "func_run-01_task-narratives_acq-ap-mb8",
      "RepetitionTime": 460.0,
      "Rows": 656,
      "SAR": 0.10736656575645,
      "SamplesPerPixel": 1,
      "ScanOptions": "FS",
      "ScanningSequence": "EP",
      "SequenceName": "epfid2d1_82",
      "SequenceVariant": [
        "SK",
        "SS"
],
      "SeriesDescription": "func_run-01_task-narratives_acq-ap-mb8",
      "SeriesNumber": 8,
      "SeriesTime": "121310.888000",
      "SliceLocation": -55.886011917342,
      "SliceThickness": 2.7000000476837,
      "SmallestImagePixelValue": 0,
      "SoftwareVersions": "syngo MR E11",
      "SpacingBetweenSlices": 2.7000000102805,
      "SpecificCharacterSet": "ISO_IR 100",
      "StudyID": "1",
      "StudyTime": "113628.173000",
      "TransmitCoilName": "Body",
      "VariableFlipAngleFlag": "N",
      "WindowCenterWidthExplanation": "Algo1",
      "dBdt": 0.0},
    "slices": {}
  },
  "time": {
    "samples": {
      "AcquisitionNumber": [1, 2, 3, 4, 5, 6, 7, 8, 9, 10, 11, 12, 13, 14, 15, 16, 17, 18, 19, 20, 21, 22, 23, 24, 25, 26, 27, 28, 29, 30, 31, 32, 33, 34, 35, 36, 37, 38, 39, 40, 41, 42, 43, 44, 45, 46, 47, 48, 49, 50, 51, 52, 53, 54, 55, 56, 57, 58, 59, 60, 61, 62, 63, 64, 65, 66, 67, 68, 69, 70, 71, 72, 73, 74, 75, 76, 77, 78, 79, 80, 81, 82, 83, 84, 85, 86, 87, 88, 89, 90, 91, 92, 93, 94, 95, 96, 97, 98, 99, 100, 101, 102, 103, 104, 105, 106, 107, 108, 109, 110, 111, 112, 113, 114, 115, 116, 117, 118, 119, 120, 121, 122, 123, 124, 125, 126, 127, 128, 129, 130, 131, 132, 133, 134, 135, 136, 137, 138, 139, 140, 141, 142, 143, 144, 145, 146, 147, 148, 149, 150, 151, 152, 153, 154, 155, 156, 157, 158, 159, 160, 161, 162, 163, 164, 165, 166, 167, 168, 169, 170, 171, 172, 173, 174, 175, 176, 177, 178, 179, 180, 181, 182, 183, 184, 185, 186, 187, 188, 189, 190, 191, 192, 193, 194, 195, 196, 197, 198, 199, 200, 201, 202, 203, 204, 205, 206, 207, 208, 209, 210, 211, 212, 213, 214, 215, 216, 217, 218, 219, 220, 221, 222, 223, 224, 225, 226, 227, 228, 229, 230, 231, 232, 233, 234, 235, 236, 237, 238, 239, 240, 241, 242, 243, 244, 245, 246, 247, 248, 249, 250, 251, 252, 253, 254, 255, 256, 257, 258, 259, 260, 261, 262, 263, 264, 265, 266, 267, 268, 269, 270, 271, 272, 273, 274, 275, 276, 277, 278, 279, 280, 281, 282, 283, 284, 285, 286, 287, 288, 289, 290, 291, 292, 293, 294, 295, 296, 297, 298, 299, 300, 301, 302, 303, 304, 305, 306, 307, 308, 309, 310, 311, 312, 313, 314, 315, 316, 317, 318, 319, 320, 321, 322, 323, 324, 325, 326, 327, 328, 329, 330, 331, 332, 333, 334, 335, 336, 337, 338, 339, 340, 341, 342, 343, 344, 345, 346, 347, 348, 349, 350, 351, 352, 353, 354, 355, 356, 357, 358, 359, 360, 361, 362, 363, 364, 365, 366, 367, 368, 369, 370, 371, 372, 373, 374, 375, 376, 377, 378, 379, 380, 381, 382, 383, 384, 385, 386, 387, 388, 389, 390, 391, 392, 393, 394, 395, 396, 397, 398, 399, 400, 401, 402, 403, 404, 405, 406, 407, 408, 409, 410, 411, 412, 413, 414, 415, 416, 417, 418, 419, 420, 421, 422, 423, 424, 425, 426, 427, 428, 429, 430, 431, 432, 433, 434, 435, 436, 437, 438, 439, 440, 441, 442, 443, 444, 445, 446, 447, 448, 449, 450, 451, 452, 453, 454, 455, 456, 457, 458, 459, 460, 461, 462, 463, 464, 465, 466, 467, 468, 469, 470, 471, 472, 473, 474, 475, 476, 477, 478, 479, 480, 481, 482, 483, 484, 485, 486, 487, 488, 489, 490, 491, 492, 493, 494, 495, 496, 497, 498, 499, 500, 501, 502, 503, 504, 505, 506, 507, 508, 509, 510, 511, 512, 513, 514, 515, 516, 517, 518, 519, 520, 521, 522, 523, 524, 525, 526, 527, 528, 529, 530, 531, 532, 533, 534, 535, 536, 537, 538, 539, 540, 541, 542, 543, 544, 545, 546, 547, 548, 549, 550, 551, 552, 553, 554, 555, 556, 557, 558, 559, 560, 561, 562, 563, 564, 565, 566, 567, 568, 569, 570, 571, 572, 573, 574, 575, 576, 577, 578, 579, 580, 581, 582, 583, 584, 585, 586, 587, 588, 589, 590, 591, 592, 593, 594, 595, 596, 597, 598, 599, 600, 601, 602, 603, 604, 605, 606, 607, 608, 609, 610, 611, 612, 613, 614, 615, 616, 617, 618, 619, 620, 621, 622, 623, 624, 625, 626, 627, 628, 629, 630, 631, 632, 633, 634, 635, 636, 637, 638, 639, 640, 641, 642, 643, 644, 645, 646, 647, 648, 649, 650, 651, 652, 653, 654, 655, 656, 657, 658, 659, 660, 661, 662, 663, 664, 665, 666, 667, 668, 669, 670, 671, 672, 673, 674, 675, 676, 677, 678, 679, 680, 681, 682, 683, 684, 685, 686, 687, 688, 689, 690, 691, 692, 693, 694, 695, 696, 697, 698, 699, 700, 701, 702, 703, 704, 705, 706, 707, 708, 709, 710, 711, 712, 713, 714, 715, 716, 717, 718, 719, 720, 721, 722, 723, 724, 725, 726, 727, 728, 729, 730, 731, 732, 733, 734, 735, 736, 737, 738, 739, 740, 741, 742, 743, 744, 745, 746, 747, 748, 749, 750, 751, 752, 753, 754, 755, 756, 757, 758, 759, 760, 761, 762, 763, 764, 765, 766, 767, 768, 769, 770, 771, 772, 773, 774, 775, 776, 777, 778, 779, 780, 781, 782, 783, 784, 785, 786, 787, 788, 789, 790, 791, 792, 793, 794, 795, 796, 797, 798, 799, 800, 801, 802, 803, 804, 805, 806, 807, 808, 809, 810, 811, 812, 813, 814, 815, 816, 817, 818, 819, 820, 821, 822, 823, 824, 825, 826, 827, 828, 829, 830, 831, 832, 833, 834, 835, 836, 837, 838, 839, 840, 841, 842, 843, 844, 845, 846, 847, 848, 849, 850, 851, 852, 853, 854, 855, 856, 857, 858, 859, 860, 861, 862, 863, 864, 865, 866, 867, 868, 869, 870, 871, 872, 873, 874, 875, 876, 877, 878, 879, 880, 881, 882, 883, 884, 885, 886, 887, 888, 889, 890, 891, 892, 893, 894, 895, 896, 897, 898, 899, 900, 901, 902, 903, 904, 905, 906, 907, 908, 909, 910, 911, 912, 913, 914, 915, 916, 917, 918, 919, 920, 921, 922, 923, 924, 925, 926, 927, 928, 929, 930, 931, 932, 933, 934, 935, 936, 937, 938, 939, 940, 941, 942, 943, 944, 945, 946, 947, 948, 949, 950, 951, 952, 953, 954, 955, 956, 957, 958, 959, 960, 961, 962, 963, 964, 965, 966, 967],
      "AcquisitionTime": ["121300.972500", "121301.432500", "121301.892500", "121302.352500", "121302.812500", "121303.272500", "121303.732500", "121304.192500", "121304.652500", "121305.112500", "121305.572500", "121306.032500", "121306.492500", "121306.952500", "121307.412500", "121307.872500", "121308.332500", "121308.792500", "121309.252500", "121309.712500", "121310.172500", "121310.632500", "121311.092500", "121311.552500", "121312.012500", "121312.472500", "121312.932500", "121313.392500", "121313.852500", "121314.312500", "121314.772500", "121315.232500", "121315.692500", "121316.152500", "121316.612500", "121317.072500", "121317.532500", "121317.992500", "121318.452500", "121318.912500", "121319.372500", "121319.832500", "121320.292500", "121320.752500", "121321.212500", "121321.672500", "121322.132500", "121322.592500", "121323.052500", "121323.512500", "121323.972500", "121324.432500", "121324.892500", "121325.352500", "121325.812500", "121326.272500", "121326.732500", "121327.192500", "121327.652500", "121328.112500", "121328.572500", "121329.032500", "121329.492500", "121329.952500", "121330.412500", "121330.872500", "121331.332500", "121331.792500", "121332.252500", "121332.712500", "121333.172500", "121333.632500", "121334.092500", "121334.552500", "121335.012500", "121335.472500", "121335.932500", "121336.392500", "121336.852500", "121337.312500", "121337.772500", "121338.232500", "121338.692500", "121339.152500", "121339.612500", "121340.072500", "121340.532500", "121340.992500", "121341.452500", "121341.912500", "121342.372500", "121342.832500", "121343.292500", "121343.752500", "121344.212500", "121344.672500", "121345.132500", "121345.592500", "121346.052500", "121346.512500", "121346.972500", "121347.432500", "121347.892500", "121348.352500", "121348.812500", "121349.272500", "121349.732500", "121350.192500", "121350.652500", "121351.112500", "121351.572500", "121352.032500", "121352.492500", "121352.952500", "121353.412500", "121353.872500", "121354.332500", "121354.792500", "121355.252500", "121355.712500", "121356.172500", "121356.632500", "121357.092500", "121357.552500", "121358.012500", "121358.472500", "121358.932500", "121359.392500", "121359.852500", "121400.312500", "121400.772500", "121401.232500", "121401.692500", "121402.152500", "121402.612500", "121403.072500", "121403.532500", "121403.992500", "121404.452500", "121404.912500", "121405.372500", "121405.832500", "121406.292500", "121406.752500", "121407.212500", "121407.672500", "121408.132500", "121408.592500", "121409.052500", "121409.512500", "121409.972500", "121410.432500", "121410.892500", "121411.352500", "121411.812500", "121412.272500", "121412.732500", "121413.192500", "121413.652500", "121414.112500", "121414.572500", "121415.032500", "121415.492500", "121415.952500", "121416.412500", "121416.872500", "121417.332500", "121417.792500", "121418.252500", "121418.712500", "121419.172500", "121419.632500", "121420.092500", "121420.552500", "121421.012500", "121421.472500", "121421.932500", "121422.392500", "121422.852500", "121423.312500", "121423.772500", "121424.232500", "121424.692500", "121425.152500", "121425.612500", "121426.072500", "121426.532500", "121426.992500", "121427.452500", "121427.912500", "121428.372500", "121428.832500", "121429.292500", "121429.752500", "121430.212500", "121430.672500", "121431.132500", "121431.592500", "121432.052500", "121432.512500", "121432.972500", "121433.432500", "121433.892500", "121434.352500", "121434.812500", "121435.272500", "121435.732500", "121436.192500", "121436.652500", "121437.112500", "121437.572500", "121438.032500", "121438.492500", "121438.952500", "121439.412500", "121439.872500", "121440.332500", "121440.792500", "121441.252500", "121441.712500", "121442.172500", "121442.632500", "121443.092500", "121443.552500", "121444.012500", "121444.472500", "121444.932500", "121445.392500", "121445.852500", "121446.312500", "121446.772500", "121447.232500", "121447.692500", "121448.152500", "121448.612500", "121449.072500", "121449.532500", "121449.992500", "121450.452500", "121450.912500", "121451.372500", "121451.832500", "121452.292500", "121452.752500", "121453.212500", "121453.672500", "121454.132500", "121454.592500", "121455.052500", "121455.512500", "121455.972500", "121456.432500", "121456.892500", "121457.352500", "121457.812500", "121458.272500", "121458.732500", "121459.192500", "121459.652500", "121500.112500", "121500.572500", "121501.032500", "121501.492500", "121501.952500", "121502.412500", "121502.872500", "121503.332500", "121503.792500", "121504.252500", "121504.712500", "121505.172500", "121505.632500", "121506.092500", "121506.552500", "121507.012500", "121507.472500", "121507.932500", "121508.392500", "121508.852500", "121509.312500", "121509.772500", "121510.232500", "121510.692500", "121511.152500", "121511.612500", "121512.072500", "121512.532500", "121512.992500", "121513.452500", "121513.912500", "121514.372500", "121514.832500", "121515.292500", "121515.752500", "121516.212500", "121516.672500", "121517.132500", "121517.592500", "121518.052500", "121518.512500", "121518.972500", "121519.432500", "121519.892500", "121520.352500", "121520.812500", "121521.272500", "121521.732500", "121522.192500", "121522.652500", "121523.112500", "121523.572500", "121524.032500", "121524.492500", "121524.952500", "121525.412500", "121525.872500", "121526.332500", "121526.792500", "121527.252500", "121527.712500", "121528.172500", "121528.632500", "121529.092500", "121529.552500", "121530.012500", "121530.472500", "121530.932500", "121531.392500", "121531.852500", "121532.312500", "121532.772500", "121533.232500", "121533.692500", "121534.152500", "121534.612500", "121535.072500", "121535.532500", "121535.992500", "121536.452500", "121536.912500", "121537.372500", "121537.832500", "121538.292500", "121538.752500", "121539.212500", "121539.672500", "121540.132500", "121540.592500", "121541.052500", "121541.512500", "121541.972500", "121542.432500", "121542.892500", "121543.352500", "121543.812500", "121544.272500", "121544.732500", "121545.192500", "121545.652500", "121546.112500", "121546.572500", "121547.032500", "121547.492500", "121547.952500", "121548.412500", "121548.872500", "121549.332500", "121549.792500", "121550.252500", "121550.712500", "121551.172500", "121551.632500", "121552.092500", "121552.552500", "121553.012500", "121553.472500", "121553.932500", "121554.392500", "121554.852500", "121555.312500", "121555.772500", "121556.232500", "121556.692500", "121557.152500", "121557.612500", "121558.072500", "121558.532500", "121558.992500", "121559.452500", "121559.912500", "121600.372500", "121600.832500", "121601.292500", "121601.752500", "121602.212500", "121602.672500", "121603.132500", "121603.592500", "121604.052500", "121604.512500", "121604.972500", "121605.432500", "121605.892500", "121606.352500", "121606.812500", "121607.272500", "121607.732500", "121608.192500", "121608.652500", "121609.112500", "121609.572500", "121610.032500", "121610.492500", "121610.952500", "121611.412500", "121611.872500", "121612.332500", "121612.792500", "121613.252500", "121613.712500", "121614.172500", "121614.632500", "121615.092500", "121615.552500", "121616.012500", "121616.472500", "121616.932500", "121617.392500", "121617.852500", "121618.312500", "121618.772500", "121619.232500", "121619.692500", "121620.152500", "121620.612500", "121621.072500", "121621.532500", "121621.992500", "121622.452500", "121622.912500", "121623.372500", "121623.832500", "121624.292500", "121624.752500", "121625.212500", "121625.672500", "121626.132500", "121626.592500", "121627.052500", "121627.512500", "121627.972500", "121628.432500", "121628.892500", "121629.352500", "121629.812500", "121630.272500", "121630.732500", "121631.192500", "121631.652500", "121632.112500", "121632.572500", "121633.032500", "121633.492500", "121633.952500", "121634.412500", "121634.872500", "121635.332500", "121635.792500", "121636.252500", "121636.712500", "121637.172500", "121637.632500", "121638.092500", "121638.552500", "121639.012500", "121639.472500", "121639.932500", "121640.392500", "121640.852500", "121641.312500", "121641.772500", "121642.232500", "121642.692500", "121643.152500", "121643.612500", "121644.072500", "121644.532500", "121644.992500", "121645.452500", "121645.912500", "121646.372500", "121646.832500", "121647.292500", "121647.752500", "121648.212500", "121648.672500", "121649.132500", "121649.592500", "121650.052500", "121650.512500", "121650.972500", "121651.432500", "121651.892500", "121652.352500", "121652.812500", "121653.272500", "121653.732500", "121654.192500", "121654.652500", "121655.112500", "121655.572500", "121656.032500", "121656.492500", "121656.952500", "121657.412500", "121657.872500", "121658.332500", "121658.792500", "121659.252500", "121659.712500", "121700.172500", "121700.632500", "121701.092500", "121701.552500", "121702.012500", "121702.472500", "121702.932500", "121703.392500", "121703.852500", "121704.312500", "121704.772500", "121705.232500", "121705.692500", "121706.152500", "121706.612500", "121707.072500", "121707.532500", "121707.992500", "121708.452500", "121708.912500", "121709.372500", "121709.832500", "121710.292500", "121710.752500", "121711.212500", "121711.672500", "121712.132500", "121712.592500", "121713.052500", "121713.512500", "121713.972500", "121714.432500", "121714.892500", "121715.352500", "121715.812500", "121716.272500", "121716.732500", "121717.192500", "121717.652500", "121718.112500", "121718.572500", "121719.032500", "121719.492500", "121719.952500", "121720.412500", "121720.872500", "121721.332500", "121721.792500", "121722.252500", "121722.712500", "121723.172500", "121723.632500", "121724.092500", "121724.552500", "121725.012500", "121725.472500", "121725.932500", "121726.392500", "121726.852500", "121727.312500", "121727.772500", "121728.232500", "121728.692500", "121729.152500", "121729.612500", "121730.072500", "121730.532500", "121730.992500", "121731.452500", "121731.912500", "121732.372500", "121732.832500", "121733.292500", "121733.752500", "121734.212500", "121734.672500", "121735.132500", "121735.592500", "121736.052500", "121736.512500", "121736.972500", "121737.432500", "121737.892500", "121738.352500", "121738.812500", "121739.272500", "121739.732500", "121740.192500", "121740.652500", "121741.112500", "121741.572500", "121742.032500", "121742.492500", "121742.952500", "121743.412500", "121743.872500", "121744.332500", "121744.792500", "121745.252500", "121745.712500", "121746.172500", "121746.632500", "121747.092500", "121747.552500", "121748.012500", "121748.472500", "121748.932500", "121749.392500", "121749.852500", "121750.312500", "121750.772500", "121751.232500", "121751.692500", "121752.152500", "121752.612500", "121753.072500", "121753.532500", "121753.992500", "121754.452500", "121754.912500", "121755.372500", "121755.832500", "121756.292500", "121756.752500", "121757.212500", "121757.672500", "121758.132500", "121758.592500", "121759.052500", "121759.512500", "121759.972500", "121800.432500", "121800.892500", "121801.352500", "121801.812500", "121802.272500", "121802.732500", "121803.192500", "121803.652500", "121804.112500", "121804.572500", "121805.032500", "121805.492500", "121805.952500", "121806.412500", "121806.872500", "121807.332500", "121807.792500", "121808.252500", "121808.712500", "121809.172500", "121809.632500", "121810.092500", "121810.552500", "121811.012500", "121811.472500", "121811.932500", "121812.392500", "121812.852500", "121813.312500", "121813.772500", "121814.232500", "121814.692500", "121815.152500", "121815.612500", "121816.072500", "121816.532500", "121816.992500", "121817.452500", "121817.912500", "121818.372500", "121818.832500", "121819.292500", "121819.752500", "121820.212500", "121820.672500", "121821.132500", "121821.592500", "121822.052500", "121822.512500", "121822.972500", "121823.432500", "121823.892500", "121824.352500", "121824.812500", "121825.272500", "121825.732500", "121826.192500", "121826.652500", "121827.112500", "121827.572500", "121828.032500", "121828.492500", "121828.952500", "121829.412500", "121829.872500", "121830.332500", "121830.792500", "121831.252500", "121831.712500", "121832.172500", "121832.632500", "121833.092500", "121833.552500", "121834.012500", "121834.472500", "121834.932500", "121835.392500", "121835.852500", "121836.312500", "121836.772500", "121837.232500", "121837.692500", "121838.152500", "121838.612500", "121839.072500", "121839.532500", "121839.992500", "121840.452500", "121840.912500", "121841.372500", "121841.832500", "121842.292500", "121842.752500", "121843.212500", "121843.672500", "121844.132500", "121844.592500", "121845.052500", "121845.512500", "121845.972500", "121846.432500", "121846.892500", "121847.352500", "121847.812500", "121848.272500", "121848.732500", "121849.192500", "121849.652500", "121850.112500", "121850.572500", "121851.032500", "121851.492500", "121851.952500", "121852.412500", "121852.872500", "121853.332500", "121853.792500", "121854.252500", "121854.712500", "121855.172500", "121855.632500", "121856.092500", "121856.552500", "121857.012500", "121857.472500", "121857.932500", "121858.392500", "121858.852500", "121859.312500", "121859.772500", "121900.232500", "121900.692500", "121901.152500", "121901.612500", "121902.072500", "121902.532500", "121902.992500", "121903.452500", "121903.912500", "121904.372500", "121904.832500", "121905.292500", "121905.752500", "121906.212500", "121906.672500", "121907.132500", "121907.592500", "121908.052500", "121908.512500", "121908.972500", "121909.432500", "121909.892500", "121910.352500", "121910.812500", "121911.272500", "121911.732500", "121912.192500", "121912.652500", "121913.112500", "121913.572500", "121914.032500", "121914.492500", "121914.952500", "121915.412500", "121915.872500", "121916.332500", "121916.792500", "121917.252500", "121917.712500", "121918.172500", "121918.632500", "121919.092500", "121919.552500", "121920.012500", "121920.472500", "121920.932500", "121921.392500", "121921.852500", "121922.312500", "121922.772500", "121923.232500", "121923.692500", "121924.152500", "121924.612500", "121925.072500", "121925.532500", "121925.992500", "121926.452500", "121926.912500", "121927.372500", "121927.832500", "121928.292500", "121928.752500", "121929.212500", "121929.672500", "121930.132500", "121930.592500", "121931.052500", "121931.512500", "121931.972500", "121932.432500", "121932.892500", "121933.352500", "121933.812500", "121934.272500", "121934.732500", "121935.192500", "121935.652500", "121936.112500", "121936.572500", "121937.032500", "121937.492500", "121937.952500", "121938.412500", "121938.872500", "121939.332500", "121939.792500", "121940.252500", "121940.712500", "121941.172500", "121941.632500", "121942.092500", "121942.552500", "121943.012500", "121943.472500", "121943.932500", "121944.392500", "121944.852500", "121945.312500", "121945.772500", "121946.232500", "121946.692500", "121947.152500", "121947.612500", "121948.072500", "121948.532500", "121948.992500", "121949.452500", "121949.912500", "121950.372500", "121950.832500", "121951.292500", "121951.752500", "121952.212500", "121952.672500", "121953.132500", "121953.592500", "121954.052500", "121954.512500", "121954.972500", "121955.432500", "121955.892500", "121956.352500", "121956.812500", "121957.272500", "121957.732500", "121958.192500", "121958.652500", "121959.112500", "121959.572500", "122000.032500", "122000.492500", "122000.952500", "122001.412500", "122001.872500", "122002.332500", "122002.792500", "122003.252500", "122003.712500", "122004.172500", "122004.632500", "122005.092500", "122005.552500", "122006.012500", "122006.472500", "122006.932500", "122007.392500", "122007.852500", "122008.312500", "122008.772500", "122009.232500", "122009.692500", "122010.152500", "122010.612500", "122011.072500", "122011.532500", "122011.992500", "122012.452500", "122012.912500", "122013.372500", "122013.832500", "122014.292500", "122014.752500", "122015.212500", "122015.672500", "122016.132500", "122016.592500", "122017.052500", "122017.512500", "122017.972500", "122018.432500", "122018.892500", "122019.352500", "122019.812500", "122020.272500", "122020.732500", "122021.192500", "122021.652500", "122022.112500", "122022.572500", "122023.032500", "122023.492500", "122023.952500", "122024.412500", "122024.872500", "122025.332500"],
