{
  "AcquisitionMatrixPE": 82,
  "AcquisitionNumber": 1,
  "AcquisitionTime": "14:22:31.255000",
  "BandwidthPerPixelPhaseEncode": 24.888,
  "BaseResolution": 82,
  "BodyPartExamined": "BRAIN",
  "ConsistencyInfo": "N4_VE11C_LATEST_20160120",
  "ConversionSoftware": "dcm2niix",
  "ConversionSoftwareVersion": "v1.0.20201102",
  "DerivedVendorReportedEchoSpacing": 0.00049,
  "DeviceSerialNumber": "66112",
  "DwellTime": 2e-06,
  "EchoTime": 0.0272,
  "EchoTrainLength": 82,
  "EffectiveEchoSpacing": 0.00049,
  "FlipAngle": 44,
  "ImageComments": "Unaliased MB8/PE3",
  "ImageOrientationPatientDICOM": [0.996063, -0.000243207, 0.0886483, 0.00243381, 0.999694, -0.024604],
  "ImageType": [
    "ORIGINAL",
    "PRIMARY",
    "M",
    "MB",
    "ND",
    "NORM",
    "MOSAIC"
],
  "ImagingFrequency": 123.252,
  "InPlanePhaseEncodingDirectionDICOM": "COL",
  "InstitutionAddress": "Maynard 3,Hanover,NH,US,03755",
  "InstitutionName": "Dartmouth College - PBS",
  "InstitutionalDepartmentName": "Department",
  "MRAcquisitionType": "2D",
  "MagneticFieldStrength": 3,
  "Manufacturer": "Siemens",
  "ManufacturersModelName": "Prisma",
  "Modality": "MR",
  "MultibandAccelerationFactor": 8,
  "PartialFourier": 1,
  "PatientPosition": "HFS",
  "PercentPhaseFOV": 100,
  "PercentSampling": 100,
  "PhaseEncodingDirection": "j-",
  "PhaseEncodingSteps": 82,
  "PhaseResolution": 1,
  "PixelBandwidth": 3050,
  "ProcedureStepDescription": "Wager_Wager^1076_spacetop",
  "ProtocolName": "func_run-04_task-alignvideo_acq-ap-mb8",
  "PulseSequenceDetails": "%CustomerSeq%\\cmrr_mbep2d_bold",
  "ReceiveCoilActiveElements": "HEA;HEP",
  "ReceiveCoilName": "Head_32",
  "ReconMatrixPE": 82,
  "RepetitionTime": 0.46,
  "SAR": 0.104114,
  "ScanOptions": "FS",
  "ScanningSequence": "EP",
  "SequenceName": "epfid2d1_82",
  "SequenceVariant": "SK\\SS",
  "SeriesDescription": "func_run-04_task-alignvideo_acq-ap-mb8",
  "SeriesNumber": 12,
  "ShimSetting": [4157, -7748, -7254, 558, -96, -204, 70, 50],
  "SliceThickness": 2.7,
  "SliceTiming": [0, 0.25, 0.0625, 0.315, 0.125, 0.3775, 0.1875, 0, 0.25, 0.0625, 0.315, 0.125, 0.3775, 0.1875, 0, 0.25, 0.0625, 0.315, 0.125, 0.3775, 0.1875, 0, 0.25, 0.0625, 0.315, 0.125, 0.3775, 0.1875, 0, 0.25, 0.0625, 0.315, 0.125, 0.3775, 0.1875, 0, 0.25, 0.0625, 0.315, 0.125, 0.3775, 0.1875, 0, 0.25, 0.0625, 0.315, 0.125, 0.3775, 0.1875, 0, 0.25, 0.0625, 0.315, 0.125, 0.3775, 0.1875],
  "SoftwareVersions": "syngo MR E11",
  "SpacingBetweenSlices": 2.7,
  "StationName": "AWP66112",
  "TaskName": "alignvideo",
  "TotalReadoutTime": 0.03969,
  "TxRefAmp": 265.954,
  "WipMemBlock": "138aebc1-da87-4281-be95-98ae3162d68d||Sequence: R016 ve11c/master r/e634e98; Dec 19 2017 11:00:25 by eja",
  "dcmmeta_affine": [
    [-2.6723639965057373, 0.006529747508466244, 0.23926110565662384, 110.2110824584961],
    [0.0006525065400637686, 2.6821067333221436, -0.06675171107053757, -82.55455017089844],
    [0.23783692717552185, 0.06601064652204514, 2.688549518585205, -73.13838195800781],
    [0.0, 0.0, 0.0, 1.0]
],
  "dcmmeta_reorient_transform": [
    [0.0, -1.0, 0.0, 81.0],
    [1.0, 0.0, 0.0, 0.0],
    [0.0, 0.0, 1.0, 0.0],
    [0.0, 0.0, 0.0, 1.0]
],
  "dcmmeta_shape": [82, 82, 56, 914],
  "dcmmeta_slice_dim": 2,
  "dcmmeta_version": 0.6,
  "global": {
    "const": {
      "AccessionNumber": "A003516",
      "AcquisitionMatrix": [82, 0, 0, 82],
      "AngioFlag": "N",
      "BitsAllocated": 16,
      "BitsStored": 16,
      "BodyPartExamined": "BRAIN",
      "Columns": 656,
      "EchoNumbers": 1,
      "EchoTime": 27.2,
      "EchoTrainLength": 82,
      "FlipAngle": 44.0,
      "HighBit": 15,
      "ImageOrientationPatient": [0.99606295898847, -0.0002432069766, 0.0886483083962, 0.00243381485239, 0.9996943139164, -0.0246039685516],
      "ImagePositionPatient": [-879.58252623667, -904.27346861764, -117.10565965867],
      "ImageType": [
        "ORIGINAL",
        "PRIMARY",
        "M",
        "MB",
        "ND",
        "NORM",
        "MOSAIC"
],
      "ImagedNucleus": "1H",
      "ImagingFrequency": 123.252456,
      "InPlanePhaseEncodingDirection": "COL",
      "MRAcquisitionType": "2D",
      "MagneticFieldStrength": 3.0,
      "Manufacturer": "SIEMENS",
      "ManufacturerModelName": "Prisma",
      "Modality": "MR",
      "NumberOfAverages": 1.0,
      "NumberOfPhaseEncodingSteps": 82,
      "PercentPhaseFieldOfView": 100.0,
      "PercentSampling": 100.0,
      "PerformedProcedureStepStartTime": "135233.014000",
      "PhotometricInterpretation": "MONOCHROME2",
      "PixelBandwidth": 3050.0,
      "PixelRepresentation": 0,
      "PixelSpacing": [2.6829268932343, 2.6829268932343],
      "ProtocolName": "func_run-04_task-alignvideo_acq-ap-mb8",
      "RepetitionTime": 460.0,
      "Rows": 656,
      "SAR": 0.10411385172017,
      "SamplesPerPixel": 1,
      "ScanOptions": "FS",
      "ScanningSequence": "EP",
      "SequenceName": "epfid2d1_82",
      "SequenceVariant": [
        "SK",
        "SS"
],
      "SeriesDescription": "func_run-04_task-alignvideo_acq-ap-mb8",
      "SeriesNumber": 12,
      "SeriesTime": "142248.975000",
      "SliceLocation": -61.020840327516,
      "SliceThickness": 2.7000000476837,
      "SmallestImagePixelValue": 0,
      "SoftwareVersions": "syngo MR E11",
      "SpacingBetweenSlices": 2.6999999731106,
      "SpecificCharacterSet": "ISO_IR 100",
      "StudyID": "2",
      "StudyTime": "135232.888000",
      "TransmitCoilName": "Body",
      "VariableFlipAngleFlag": "N",
      "WindowCenterWidthExplanation": "Algo1",
      "dBdt": 0.0},
    "slices": {}
  },
  "time": {
    "samples": {
      "AcquisitionNumber": [1, 2, 3, 4, 5, 6, 7, 8, 9, 10, 11, 12, 13, 14, 15, 16, 17, 18, 19, 20, 21, 22, 23, 24, 25, 26, 27, 28, 29, 30, 31, 32, 33, 34, 35, 36, 37, 38, 39, 40, 41, 42, 43, 44, 45, 46, 47, 48, 49, 50, 51, 52, 53, 54, 55, 56, 57, 58, 59, 60, 61, 62, 63, 64, 65, 66, 67, 68, 69, 70, 71, 72, 73, 74, 75, 76, 77, 78, 79, 80, 81, 82, 83, 84, 85, 86, 87, 88, 89, 90, 91, 92, 93, 94, 95, 96, 97, 98, 99, 100, 101, 102, 103, 104, 105, 106, 107, 108, 109, 110, 111, 112, 113, 114, 115, 116, 117, 118, 119, 120, 121, 122, 123, 124, 125, 126, 127, 128, 129, 130, 131, 132, 133, 134, 135, 136, 137, 138, 139, 140, 141, 142, 143, 144, 145, 146, 147, 148, 149, 150, 151, 152, 153, 154, 155, 156, 157, 158, 159, 160, 161, 162, 163, 164, 165, 166, 167, 168, 169, 170, 171, 172, 173, 174, 175, 176, 177, 178, 179, 180, 181, 182, 183, 184, 185, 186, 187, 188, 189, 190, 191, 192, 193, 194, 195, 196, 197, 198, 199, 200, 201, 202, 203, 204, 205, 206, 207, 208, 209, 210, 211, 212, 213, 214, 215, 216, 217, 218, 219, 220, 221, 222, 223, 224, 225, 226, 227, 228, 229, 230, 231, 232, 233, 234, 235, 236, 237, 238, 239, 240, 241, 242, 243, 244, 245, 246, 247, 248, 249, 250, 251, 252, 253, 254, 255, 256, 257, 258, 259, 260, 261, 262, 263, 264, 265, 266, 267, 268, 269, 270, 271, 272, 273, 274, 275, 276, 277, 278, 279, 280, 281, 282, 283, 284, 285, 286, 287, 288, 289, 290, 291, 292, 293, 294, 295, 296, 297, 298, 299, 300, 301, 302, 303, 304, 305, 306, 307, 308, 309, 310, 311, 312, 313, 314, 315, 316, 317, 318, 319, 320, 321, 322, 323, 324, 325, 326, 327, 328, 329, 330, 331, 332, 333, 334, 335, 336, 337, 338, 339, 340, 341, 342, 343, 344, 345, 346, 347, 348, 349, 350, 351, 352, 353, 354, 355, 356, 357, 358, 359, 360, 361, 362, 363, 364, 365, 366, 367, 368, 369, 370, 371, 372, 373, 374, 375, 376, 377, 378, 379, 380, 381, 382, 383, 384, 385, 386, 387, 388, 389, 390, 391, 392, 393, 394, 395, 396, 397, 398, 399, 400, 401, 402, 403, 404, 405, 406, 407, 408, 409, 410, 411, 412, 413, 414, 415, 416, 417, 418, 419, 420, 421, 422, 423, 424, 425, 426, 427, 428, 429, 430, 431, 432, 433, 434, 435, 436, 437, 438, 439, 440, 441, 442, 443, 444, 445, 446, 447, 448, 449, 450, 451, 452, 453, 454, 455, 456, 457, 458, 459, 460, 461, 462, 463, 464, 465, 466, 467, 468, 469, 470, 471, 472, 473, 474, 475, 476, 477, 478, 479, 480, 481, 482, 483, 484, 485, 486, 487, 488, 489, 490, 491, 492, 493, 494, 495, 496, 497, 498, 499, 500, 501, 502, 503, 504, 505, 506, 507, 508, 509, 510, 511, 512, 513, 514, 515, 516, 517, 518, 519, 520, 521, 522, 523, 524, 525, 526, 527, 528, 529, 530, 531, 532, 533, 534, 535, 536, 537, 538, 539, 540, 541, 542, 543, 544, 545, 546, 547, 548, 549, 550, 551, 552, 553, 554, 555, 556, 557, 558, 559, 560, 561, 562, 563, 564, 565, 566, 567, 568, 569, 570, 571, 572, 573, 574, 575, 576, 577, 578, 579, 580, 581, 582, 583, 584, 585, 586, 587, 588, 589, 590, 591, 592, 593, 594, 595, 596, 597, 598, 599, 600, 601, 602, 603, 604, 605, 606, 607, 608, 609, 610, 611, 612, 613, 614, 615, 616, 617, 618, 619, 620, 621, 622, 623, 624, 625, 626, 627, 628, 629, 630, 631, 632, 633, 634, 635, 636, 637, 638, 639, 640, 641, 642, 643, 644, 645, 646, 647, 648, 649, 650, 651, 652, 653, 654, 655, 656, 657, 658, 659, 660, 661, 662, 663, 664, 665, 666, 667, 668, 669, 670, 671, 672, 673, 674, 675, 676, 677, 678, 679, 680, 681, 682, 683, 684, 685, 686, 687, 688, 689, 690, 691, 692, 693, 694, 695, 696, 697, 698, 699, 700, 701, 702, 703, 704, 705, 706, 707, 708, 709, 710, 711, 712, 713, 714, 715, 716, 717, 718, 719, 720, 721, 722, 723, 724, 725, 726, 727, 728, 729, 730, 731, 732, 733, 734, 735, 736, 737, 738, 739, 740, 741, 742, 743, 744, 745, 746, 747, 748, 749, 750, 751, 752, 753, 754, 755, 756, 757, 758, 759, 760, 761, 762, 763, 764, 765, 766, 767, 768, 769, 770, 771, 772, 773, 774, 775, 776, 777, 778, 779, 780, 781, 782, 783, 784, 785, 786, 787, 788, 789, 790, 791, 792, 793, 794, 795, 796, 797, 798, 799, 800, 801, 802, 803, 804, 805, 806, 807, 808, 809, 810, 811, 812, 813, 814, 815, 816, 817, 818, 819, 820, 821, 822, 823, 824, 825, 826, 827, 828, 829, 830, 831, 832, 833, 834, 835, 836, 837, 838, 839, 840, 841, 842, 843, 844, 845, 846, 847, 848, 849, 850, 851, 852, 853, 854, 855, 856, 857, 858, 859, 860, 861, 862, 863, 864, 865, 866, 867, 868, 869, 870, 871, 872, 873, 874, 875, 876, 877, 878, 879, 880, 881, 882, 883, 884, 885, 886, 887, 888, 889, 890, 891, 892, 893, 894, 895, 896, 897, 898, 899, 900, 901, 902, 903, 904, 905, 906, 907, 908, 909, 910, 911, 912, 913, 914],
      "AcquisitionTime": ["142231.255000", "142231.715000", "142232.175000", "142232.635000", "142233.095000", "142233.555000", "142234.015000", "142234.475000", "142234.935000", "142235.395000", "142235.855000", "142236.315000", "142236.775000", "142237.235000", "142237.695000", "142238.155000", "142238.615000", "142239.075000", "142239.535000", "142239.995000", "142240.455000", "142240.915000", "142241.375000", "142241.835000", "142242.295000", "142242.755000", "142243.215000", "142243.675000", "142244.135000", "142244.595000", "142245.055000", "142245.515000", "142245.975000", "142246.435000", "142246.895000", "142247.355000", "142247.815000", "142248.275000", "142248.735000", "142249.195000", "142249.655000", "142250.115000", "142250.575000", "142251.035000", "142251.495000", "142251.955000", "142252.415000", "142252.875000", "142253.335000", "142253.795000", "142254.255000", "142254.715000", "142255.175000", "142255.635000", "142256.095000", "142256.555000", "142257.015000", "142257.475000", "142257.935000", "142258.395000", "142258.855000", "142259.315000", "142259.775000", "142300.235000", "142300.695000", "142301.155000", "142301.615000", "142302.075000", "142302.535000", "142302.995000", "142303.455000", "142303.915000", "142304.375000", "142304.835000", "142305.295000", "142305.755000", "142306.215000", "142306.675000", "142307.135000", "142307.595000", "142308.055000", "142308.515000", "142308.975000", "142309.435000", "142309.895000", "142310.355000", "142310.815000", "142311.275000", "142311.735000", "142312.195000", "142312.655000", "142313.115000", "142313.575000", "142314.035000", "142314.495000", "142314.955000", "142315.415000", "142315.875000", "142316.335000", "142316.795000", "142317.255000", "142317.715000", "142318.175000", "142318.635000", "142319.095000", "142319.555000", "142320.015000", "142320.475000", "142320.935000", "142321.395000", "142321.855000", "142322.315000", "142322.775000", "142323.235000", "142323.695000", "142324.155000", "142324.615000", "142325.075000", "142325.535000", "142325.995000", "142326.455000", "142326.915000", "142327.375000", "142327.835000", "142328.295000", "142328.755000", "142329.215000", "142329.675000", "142330.135000", "142330.595000", "142331.055000", "142331.515000", "142331.975000", "142332.435000", "142332.895000", "142333.355000", "142333.815000", "142334.275000", "142334.735000", "142335.195000", "142335.655000", "142336.115000", "142336.575000", "142337.035000", "142337.495000", "142337.955000", "142338.415000", "142338.875000", "142339.335000", "142339.795000", "142340.255000", "142340.715000", "142341.175000", "142341.635000", "142342.095000", "142342.555000", "142343.015000", "142343.475000", "142343.935000", "142344.395000", "142344.855000", "142345.315000", "142345.775000", "142346.235000", "142346.695000", "142347.155000", "142347.615000", "142348.075000", "142348.535000", "142348.995000", "142349.455000", "142349.915000", "142350.375000", "142350.835000", "142351.295000", "142351.755000", "142352.215000", "142352.675000", "142353.135000", "142353.595000", "142354.055000", "142354.515000", "142354.975000", "142355.435000", "142355.895000", "142356.355000", "142356.815000", "142357.275000", "142357.735000", "142358.195000", "142358.655000", "142359.115000", "142359.575000", "142400.035000", "142400.495000", "142400.955000", "142401.415000", "142401.875000", "142402.335000", "142402.795000", "142403.255000", "142403.715000", "142404.175000", "142404.635000", "142405.095000", "142405.555000", "142406.015000", "142406.475000", "142406.935000", "142407.395000", "142407.855000", "142408.315000", "142408.775000", "142409.235000", "142409.695000", "142410.155000", "142410.615000", "142411.075000", "142411.535000", "142411.995000", "142412.455000", "142412.915000", "142413.375000", "142413.835000", "142414.295000", "142414.755000", "142415.215000", "142415.675000", "142416.135000", "142416.595000", "142417.055000", "142417.515000", "142417.975000", "142418.435000", "142418.895000", "142419.355000", "142419.815000", "142420.275000", "142420.735000", "142421.195000", "142421.655000", "142422.115000", "142422.575000", "142423.035000", "142423.495000", "142423.955000", "142424.415000", "142424.875000", "142425.335000", "142425.795000", "142426.255000", "142426.715000", "142427.175000", "142427.635000", "142428.095000", "142428.555000", "142429.015000", "142429.475000", "142429.935000", "142430.395000", "142430.855000", "142431.315000", "142431.775000", "142432.235000", "142432.695000", "142433.155000", "142433.615000", "142434.075000", "142434.535000", "142434.995000", "142435.455000", "142435.915000", "142436.375000", "142436.835000", "142437.295000", "142437.755000", "142438.215000", "142438.675000", "142439.135000", "142439.595000", "142440.055000", "142440.515000", "142440.975000", "142441.435000", "142441.895000", "142442.355000", "142442.815000", "142443.275000", "142443.735000", "142444.195000", "142444.655000", "142445.115000", "142445.575000", "142446.035000", "142446.495000", "142446.955000", "142447.415000", "142447.875000", "142448.335000", "142448.795000", "142449.255000", "142449.715000", "142450.175000", "142450.635000", "142451.095000", "142451.555000", "142452.015000", "142452.475000", "142452.935000", "142453.395000", "142453.855000", "142454.315000", "142454.775000", "142455.235000", "142455.695000", "142456.155000", "142456.615000", "142457.075000", "142457.535000", "142457.995000", "142458.455000", "142458.915000", "142459.375000", "142459.835000", "142500.295000", "142500.755000", "142501.215000", "142501.675000", "142502.135000", "142502.595000", "142503.055000", "142503.515000", "142503.975000", "142504.435000", "142504.895000", "142505.355000", "142505.815000", "142506.275000", "142506.735000", "142507.195000", "142507.655000", "142508.115000", "142508.575000", "142509.035000", "142509.495000", "142509.955000", "142510.415000", "142510.875000", "142511.335000", "142511.795000", "142512.255000", "142512.715000", "142513.175000", "142513.635000", "142514.095000", "142514.555000", "142515.015000", "142515.475000", "142515.935000", "142516.395000", "142516.855000", "142517.315000", "142517.775000", "142518.235000", "142518.695000", "142519.155000", "142519.615000", "142520.075000", "142520.535000", "142520.995000", "142521.455000", "142521.915000", "142522.375000", "142522.835000", "142523.295000", "142523.755000", "142524.215000", "142524.675000", "142525.135000", "142525.595000", "142526.055000", "142526.515000", "142526.975000", "142527.435000", "142527.895000", "142528.355000", "142528.815000", "142529.275000", "142529.735000", "142530.195000", "142530.655000", "142531.115000", "142531.575000", "142532.035000", "142532.495000", "142532.955000", "142533.415000", "142533.875000", "142534.335000", "142534.795000", "142535.255000", "142535.715000", "142536.175000", "142536.635000", "142537.095000", "142537.555000", "142538.015000", "142538.475000", "142538.935000", "142539.395000", "142539.855000", "142540.315000", "142540.775000", "142541.235000", "142541.695000", "142542.155000", "142542.615000", "142543.075000", "142543.535000", "142543.995000", "142544.455000", "142544.915000", "142545.375000", "142545.835000", "142546.295000", "142546.755000", "142547.215000", "142547.675000", "142548.135000", "142548.595000", "142549.055000", "142549.515000", "142549.975000", "142550.435000", "142550.895000", "142551.355000", "142551.815000", "142552.275000", "142552.735000", "142553.195000", "142553.655000", "142554.115000", "142554.575000", "142555.035000", "142555.495000", "142555.955000", "142556.415000", "142556.875000", "142557.335000", "142557.795000", "142558.255000", "142558.715000", "142559.175000", "142559.635000", "142600.095000", "142600.555000", "142601.015000", "142601.475000", "142601.935000", "142602.395000", "142602.855000", "142603.315000", "142603.775000", "142604.235000", "142604.695000", "142605.155000", "142605.615000", "142606.075000", "142606.535000", "142606.995000", "142607.455000", "142607.915000", "142608.375000", "142608.835000", "142609.295000", "142609.755000", "142610.215000", "142610.675000", "142611.135000", "142611.595000", "142612.055000", "142612.515000", "142612.975000", "142613.435000", "142613.895000", "142614.355000", "142614.815000", "142615.275000", "142615.735000", "142616.195000", "142616.655000", "142617.115000", "142617.575000", "142618.035000", "142618.495000", "142618.955000", "142619.415000", "142619.875000", "142620.335000", "142620.795000", "142621.255000", "142621.715000", "142622.175000", "142622.635000", "142623.095000", "142623.555000", "142624.015000", "142624.475000", "142624.935000", "142625.395000", "142625.855000", "142626.315000", "142626.775000", "142627.235000", "142627.695000", "142628.155000", "142628.615000", "142629.075000", "142629.535000", "142629.995000", "142630.455000", "142630.915000", "142631.375000", "142631.835000", "142632.295000", "142632.755000", "142633.215000", "142633.675000", "142634.135000", "142634.595000", "142635.055000", "142635.515000", "142635.975000", "142636.435000", "142636.895000", "142637.355000", "142637.815000", "142638.275000", "142638.735000", "142639.195000", "142639.655000", "142640.115000", "142640.575000", "142641.035000", "142641.495000", "142641.955000", "142642.415000", "142642.875000", "142643.335000", "142643.795000", "142644.255000", "142644.715000", "142645.175000", "142645.635000", "142646.095000", "142646.555000", "142647.015000", "142647.475000", "142647.935000", "142648.395000", "142648.855000", "142649.315000", "142649.775000", "142650.235000", "142650.695000", "142651.155000", "142651.615000", "142652.075000", "142652.535000", "142652.995000", "142653.455000", "142653.915000", "142654.375000", "142654.835000", "142655.295000", "142655.755000", "142656.215000", "142656.675000", "142657.135000", "142657.595000", "142658.055000", "142658.515000", "142658.975000", "142659.435000", "142659.895000", "142700.355000", "142700.815000", "142701.275000", "142701.735000", "142702.195000", "142702.655000", "142703.115000", "142703.575000", "142704.035000", "142704.495000", "142704.955000", "142705.415000", "142705.875000", "142706.335000", "142706.795000", "142707.255000", "142707.715000", "142708.175000", "142708.635000", "142709.095000", "142709.555000", "142710.015000", "142710.475000", "142710.935000", "142711.395000", "142711.855000", "142712.315000", "142712.775000", "142713.235000", "142713.695000", "142714.155000", "142714.615000", "142715.075000", "142715.535000", "142715.995000", "142716.455000", "142716.915000", "142717.375000", "142717.835000", "142718.295000", "142718.755000", "142719.215000", "142719.675000", "142720.135000", "142720.595000", "142721.055000", "142721.515000", "142721.975000", "142722.435000", "142722.895000", "142723.355000", "142723.815000", "142724.275000", "142724.735000", "142725.195000", "142725.655000", "142726.115000", "142726.575000", "142727.035000", "142727.495000", "142727.955000", "142728.415000", "142728.875000", "142729.335000", "142729.795000", "142730.255000", "142730.715000", "142731.175000", "142731.635000", "142732.095000", "142732.555000", "142733.015000", "142733.475000", "142733.935000", "142734.395000", "142734.855000", "142735.315000", "142735.775000", "142736.235000", "142736.695000", "142737.155000", "142737.615000", "142738.075000", "142738.535000", "142738.995000", "142739.455000", "142739.915000", "142740.375000", "142740.835000", "142741.295000", "142741.755000", "142742.215000", "142742.675000", "142743.135000", "142743.595000", "142744.055000", "142744.515000", "142744.975000", "142745.435000", "142745.895000", "142746.355000", "142746.815000", "142747.275000", "142747.735000", "142748.195000", "142748.655000", "142749.115000", "142749.575000", "142750.035000", "142750.495000", "142750.955000", "142751.415000", "142751.875000", "142752.335000", "142752.795000", "142753.255000", "142753.715000", "142754.175000", "142754.635000", "142755.095000", "142755.555000", "142756.015000", "142756.475000", "142756.935000", "142757.395000", "142757.855000", "142758.315000", "142758.775000", "142759.235000", "142759.695000", "142800.155000", "142800.615000", "142801.075000", "142801.535000", "142801.995000", "142802.455000", "142802.915000", "142803.375000", "142803.835000", "142804.295000", "142804.755000", "142805.215000", "142805.675000", "142806.135000", "142806.595000", "142807.055000", "142807.515000", "142807.975000", "142808.435000", "142808.895000", "142809.355000", "142809.815000", "142810.275000", "142810.735000", "142811.195000", "142811.655000", "142812.115000", "142812.575000", "142813.035000", "142813.495000", "142813.955000", "142814.415000", "142814.875000", "142815.335000", "142815.795000", "142816.255000", "142816.715000", "142817.175000", "142817.635000", "142818.095000", "142818.555000", "142819.015000", "142819.475000", "142819.935000", "142820.395000", "142820.855000", "142821.315000", "142821.775000", "142822.235000", "142822.695000", "142823.155000", "142823.615000", "142824.075000", "142824.535000", "142824.995000", "142825.455000", "142825.915000", "142826.375000", "142826.835000", "142827.295000", "142827.755000", "142828.215000", "142828.675000", "142829.135000", "142829.595000", "142830.055000", "142830.515000", "142830.975000", "142831.435000", "142831.895000", "142832.355000", "142832.815000", "142833.275000", "142833.735000", "142834.195000", "142834.655000", "142835.115000", "142835.575000", "142836.035000", "142836.495000", "142836.955000", "142837.415000", "142837.875000", "142838.335000", "142838.795000", "142839.255000", "142839.715000", "142840.175000", "142840.635000", "142841.095000", "142841.555000", "142842.015000", "142842.475000", "142842.935000", "142843.395000", "142843.855000", "142844.315000", "142844.775000", "142845.235000", "142845.695000", "142846.155000", "142846.615000", "142847.075000", "142847.535000", "142847.995000", "142848.455000", "142848.915000", "142849.375000", "142849.835000", "142850.295000", "142850.755000", "142851.215000", "142851.675000", "142852.135000", "142852.595000", "142853.055000", "142853.515000", "142853.975000", "142854.435000", "142854.895000", "142855.355000", "142855.815000", "142856.275000", "142856.735000", "142857.195000", "142857.655000", "142858.115000", "142858.575000", "142859.035000", "142859.495000", "142859.955000", "142900.415000", "142900.875000", "142901.335000", "142901.795000", "142902.255000", "142902.715000", "142903.175000", "142903.635000", "142904.095000", "142904.555000", "142905.015000", "142905.475000", "142905.935000", "142906.395000", "142906.855000", "142907.315000", "142907.775000", "142908.235000", "142908.695000", "142909.155000", "142909.615000", "142910.075000", "142910.535000", "142910.995000", "142911.455000", "142911.915000", "142912.375000", "142912.835000", "142913.295000", "142913.755000", "142914.215000", "142914.675000", "142915.135000", "142915.595000", "142916.055000", "142916.515000", "142916.975000", "142917.435000", "142917.895000", "142918.355000", "142918.815000", "142919.275000", "142919.735000", "142920.195000", "142920.655000", "142921.115000", "142921.575000", "142922.035000", "142922.495000", "142922.955000", "142923.415000", "142923.875000", "142924.335000", "142924.795000", "142925.255000", "142925.715000", "142926.175000", "142926.635000", "142927.095000", "142927.555000", "142928.015000", "142928.475000", "142928.935000", "142929.395000", "142929.855000", "142930.315000", "142930.775000", "142931.235000"],
