{
  "AcquisitionMatrixPE": 82,
  "AcquisitionNumber": 1,
  "AcquisitionTime": "12:21:8.312500",
  "BandwidthPerPixelPhaseEncode": 24.888,
  "BaseResolution": 82,
  "BodyPartExamined": "BRAIN",
  "ConsistencyInfo": "N4_VE11C_LATEST_20160120",
  "ConversionSoftware": "dcm2niix",
  "ConversionSoftwareVersion": "v1.0.20201102",
  "DerivedVendorReportedEchoSpacing": 0.00049,
  "DeviceSerialNumber": "66112",
  "DwellTime": 2e-06,
  "EchoTime": 0.0272,
  "EchoTrainLength": 82,
  "EffectiveEchoSpacing": 0.00049,
  "FlipAngle": 44,
  "ImageComments": "Unaliased MB8/PE3",
  "ImageOrientationPatientDICOM": [0.998184, -0.0434243, 0.0417386, 0.0397423, 0.99556, 0.0853257],
  "ImageType": [
    "ORIGINAL",
    "PRIMARY",
    "M",
    "MB",
    "ND",
    "NORM",
    "MOSAIC"
],
  "ImagingFrequency": 123.252,
  "InPlanePhaseEncodingDirectionDICOM": "COL",
  "InstitutionAddress": "Maynard 3,Hanover,NH,US,03755",
  "InstitutionName": "Dartmouth College - PBS",
  "InstitutionalDepartmentName": "Department",
  "MRAcquisitionType": "2D",
  "MagneticFieldStrength": 3,
  "Manufacturer": "Siemens",
  "ManufacturersModelName": "Prisma",
  "Modality": "MR",
  "MultibandAccelerationFactor": 8,
  "PartialFourier": 1,
  "PatientPosition": "HFS",
  "PercentPhaseFOV": 100,
  "PercentSampling": 100,
  "PhaseEncodingDirection": "j-",
  "PhaseEncodingSteps": 82,
  "PhaseResolution": 1,
  "PixelBandwidth": 3050,
  "ProcedureStepDescription": "Wager_Wager^1076_spacetop",
  "ProtocolName": "func_run-02_task-narratives_acq-ap-mb8",
  "PulseSequenceDetails": "%CustomerSeq%\\cmrr_mbep2d_bold",
  "ReceiveCoilActiveElements": "HEA;HEP",
  "ReceiveCoilName": "Head_32",
  "ReconMatrixPE": 82,
  "RepetitionTime": 0.46,
  "SAR": 0.107439,
  "ScanOptions": "FS",
  "ScanningSequence": "EP",
  "SequenceName": "epfid2d1_82",
  "SequenceVariant": "SK\\SS",
  "SeriesDescription": "func_run-02_task-narratives_acq-ap-mb8",
  "SeriesNumber": 10,
  "ShimSetting": [4179, -7741, -7255, 634, 27, -133, 117, 45],
  "SliceThickness": 2.7,
  "SliceTiming": [0, 0.2525, 0.0625, 0.315, 0.125, 0.3775, 0.19, 0, 0.2525, 0.0625, 0.315, 0.125, 0.3775, 0.19, 0, 0.2525, 0.0625, 0.315, 0.125, 0.3775, 0.19, 0, 0.2525, 0.0625, 0.315, 0.125, 0.3775, 0.19, 0, 0.2525, 0.0625, 0.315, 0.125, 0.3775, 0.19, 0, 0.2525, 0.0625, 0.315, 0.125, 0.3775, 0.19, 0, 0.2525, 0.0625, 0.315, 0.125, 0.3775, 0.19, 0, 0.2525, 0.0625, 0.315, 0.125, 0.3775, 0.19],
  "SoftwareVersions": "syngo MR E11",
  "SpacingBetweenSlices": 2.7,
  "StationName": "AWP66112",
  "TaskName": "narratives",
  "TotalReadoutTime": 0.03969,
  "TxRefAmp": 270.888,
  "WipMemBlock": "6b0bddf3-e461-40bc-97c0-5564ed32c616||Sequence: R016 ve11c/master r/e634e98; Dec 19 2017 11:00:25 by eja",
  "dcmmeta_affine": [
    [-2.678056001663208, 0.10662558674812317, 0.12219785898923874, 104.92606353759766],
    [0.11650416254997253, 2.6710152626037598, 0.22548235952854156, -88.12508392333984],
    [0.11198154091835022, -0.22892256081104279, 2.6877918243408203, -53.51728439331055],
    [0.0, 0.0, 0.0, 1.0]
],
  "dcmmeta_reorient_transform": [
    [0.0, -1.0, 0.0, 81.0],
    [1.0, 0.0, 0.0, 0.0],
    [0.0, 0.0, 1.0, 0.0],
    [0.0, 0.0, 0.0, 1.0]
],
  "dcmmeta_shape": [82, 82, 56, 1098],
  "dcmmeta_slice_dim": 2,
  "dcmmeta_version": 0.6,
  "global": {
    "const": {
      "AccessionNumber": "A003516",
      "AcquisitionMatrix": [82, 0, 0, 82],
      "AngioFlag": "N",
      "BitsAllocated": 16,
      "BitsStored": 16,
      "BodyPartExamined": "BRAIN",
      "Columns": 656,
      "EchoNumbers": 1,
      "EchoTime": 27.2,
      "EchoTrainLength": 82,
      "FlipAngle": 44.0,
      "HighBit": 15,
      "ImageOrientationPatient": [0.99818446371903, -0.0434242780845, 0.04173857284081, 0.03974226373446, 0.99556018446776, 0.08532567946275],
      "ImagePositionPatient": [-912.76633829899, -861.37181463059, -169.8994876557],
      "ImageType": [
        "ORIGINAL",
        "PRIMARY",
        "M",
        "MB",
        "ND",
        "NORM",
        "MOSAIC"
],
      "ImagedNucleus": "1H",
      "ImagingFrequency": 123.252433,
      "InPlanePhaseEncodingDirection": "COL",
      "MRAcquisitionType": "2D",
      "MagneticFieldStrength": 3.0,
      "Manufacturer": "SIEMENS",
      "ManufacturerModelName": "Prisma",
      "Modality": "MR",
      "NumberOfAverages": 1.0,
      "NumberOfPhaseEncodingSteps": 82,
      "PercentPhaseFieldOfView": 100.0,
      "PercentSampling": 100.0,
      "PerformedProcedureStepStartTime": "113628.296000",
      "PhotometricInterpretation": "MONOCHROME2",
      "PixelBandwidth": 3050.0,
      "PixelRepresentation": 0,
      "PixelSpacing": [2.6829268932343, 2.6829268932343],
      "ProtocolName": "func_run-02_task-narratives_acq-ap-mb8",
      "RepetitionTime": 460.0,
      "Rows": 656,
      "SAR": 0.1074385843431,
      "SamplesPerPixel": 1,
      "ScanOptions": "FS",
      "ScanningSequence": "EP",
      "SequenceName": "epfid2d1_82",
      "SequenceVariant": [
        "SK",
        "SS"
],
      "SeriesDescription": "func_run-02_task-narratives_acq-ap-mb8",
      "SeriesNumber": 10,
      "SeriesTime": "122130.939000",
      "SliceLocation": -55.886011917342,
      "SliceThickness": 2.7000000476837,
      "SmallestImagePixelValue": 0,
      "SoftwareVersions": "syngo MR E11",
      "SpacingBetweenSlices": 2.7000000102805,
      "SpecificCharacterSet": "ISO_IR 100",
      "StudyID": "1",
      "StudyTime": "113628.173000",
      "TransmitCoilName": "Body",
      "VariableFlipAngleFlag": "N",
      "WindowCenterWidthExplanation": "Algo1",
      "dBdt": 0.0},
    "slices": {}
  },
  "time": {
    "samples": {
      "AcquisitionNumber": [1, 2, 3, 4, 5, 6, 7, 8, 9, 10, 11, 12, 13, 14, 15, 16, 17, 18, 19, 20, 21, 22, 23, 24, 25, 26, 27, 28, 29, 30, 31, 32, 33, 34, 35, 36, 37, 38, 39, 40, 41, 42, 43, 44, 45, 46, 47, 48, 49, 50, 51, 52, 53, 54, 55, 56, 57, 58, 59, 60, 61, 62, 63, 64, 65, 66, 67, 68, 69, 70, 71, 72, 73, 74, 75, 76, 77, 78, 79, 80, 81, 82, 83, 84, 85, 86, 87, 88, 89, 90, 91, 92, 93, 94, 95, 96, 97, 98, 99, 100, 101, 102, 103, 104, 105, 106, 107, 108, 109, 110, 111, 112, 113, 114, 115, 116, 117, 118, 119, 120, 121, 122, 123, 124, 125, 126, 127, 128, 129, 130, 131, 132, 133, 134, 135, 136, 137, 138, 139, 140, 141, 142, 143, 144, 145, 146, 147, 148, 149, 150, 151, 152, 153, 154, 155, 156, 157, 158, 159, 160, 161, 162, 163, 164, 165, 166, 167, 168, 169, 170, 171, 172, 173, 174, 175, 176, 177, 178, 179, 180, 181, 182, 183, 184, 185, 186, 187, 188, 189, 190, 191, 192, 193, 194, 195, 196, 197, 198, 199, 200, 201, 202, 203, 204, 205, 206, 207, 208, 209, 210, 211, 212, 213, 214, 215, 216, 217, 218, 219, 220, 221, 222, 223, 224, 225, 226, 227, 228, 229, 230, 231, 232, 233, 234, 235, 236, 237, 238, 239, 240, 241, 242, 243, 244, 245, 246, 247, 248, 249, 250, 251, 252, 253, 254, 255, 256, 257, 258, 259, 260, 261, 262, 263, 264, 265, 266, 267, 268, 269, 270, 271, 272, 273, 274, 275, 276, 277, 278, 279, 280, 281, 282, 283, 284, 285, 286, 287, 288, 289, 290, 291, 292, 293, 294, 295, 296, 297, 298, 299, 300, 301, 302, 303, 304, 305, 306, 307, 308, 309, 310, 311, 312, 313, 314, 315, 316, 317, 318, 319, 320, 321, 322, 323, 324, 325, 326, 327, 328, 329, 330, 331, 332, 333, 334, 335, 336, 337, 338, 339, 340, 341, 342, 343, 344, 345, 346, 347, 348, 349, 350, 351, 352, 353, 354, 355, 356, 357, 358, 359, 360, 361, 362, 363, 364, 365, 366, 367, 368, 369, 370, 371, 372, 373, 374, 375, 376, 377, 378, 379, 380, 381, 382, 383, 384, 385, 386, 387, 388, 389, 390, 391, 392, 393, 394, 395, 396, 397, 398, 399, 400, 401, 402, 403, 404, 405, 406, 407, 408, 409, 410, 411, 412, 413, 414, 415, 416, 417, 418, 419, 420, 421, 422, 423, 424, 425, 426, 427, 428, 429, 430, 431, 432, 433, 434, 435, 436, 437, 438, 439, 440, 441, 442, 443, 444, 445, 446, 447, 448, 449, 450, 451, 452, 453, 454, 455, 456, 457, 458, 459, 460, 461, 462, 463, 464, 465, 466, 467, 468, 469, 470, 471, 472, 473, 474, 475, 476, 477, 478, 479, 480, 481, 482, 483, 484, 485, 486, 487, 488, 489, 490, 491, 492, 493, 494, 495, 496, 497, 498, 499, 500, 501, 502, 503, 504, 505, 506, 507, 508, 509, 510, 511, 512, 513, 514, 515, 516, 517, 518, 519, 520, 521, 522, 523, 524, 525, 526, 527, 528, 529, 530, 531, 532, 533, 534, 535, 536, 537, 538, 539, 540, 541, 542, 543, 544, 545, 546, 547, 548, 549, 550, 551, 552, 553, 554, 555, 556, 557, 558, 559, 560, 561, 562, 563, 564, 565, 566, 567, 568, 569, 570, 571, 572, 573, 574, 575, 576, 577, 578, 579, 580, 581, 582, 583, 584, 585, 586, 587, 588, 589, 590, 591, 592, 593, 594, 595, 596, 597, 598, 599, 600, 601, 602, 603, 604, 605, 606, 607, 608, 609, 610, 611, 612, 613, 614, 615, 616, 617, 618, 619, 620, 621, 622, 623, 624, 625, 626, 627, 628, 629, 630, 631, 632, 633, 634, 635, 636, 637, 638, 639, 640, 641, 642, 643, 644, 645, 646, 647, 648, 649, 650, 651, 652, 653, 654, 655, 656, 657, 658, 659, 660, 661, 662, 663, 664, 665, 666, 667, 668, 669, 670, 671, 672, 673, 674, 675, 676, 677, 678, 679, 680, 681, 682, 683, 684, 685, 686, 687, 688, 689, 690, 691, 692, 693, 694, 695, 696, 697, 698, 699, 700, 701, 702, 703, 704, 705, 706, 707, 708, 709, 710, 711, 712, 713, 714, 715, 716, 717, 718, 719, 720, 721, 722, 723, 724, 725, 726, 727, 728, 729, 730, 731, 732, 733, 734, 735, 736, 737, 738, 739, 740, 741, 742, 743, 744, 745, 746, 747, 748, 749, 750, 751, 752, 753, 754, 755, 756, 757, 758, 759, 760, 761, 762, 763, 764, 765, 766, 767, 768, 769, 770, 771, 772, 773, 774, 775, 776, 777, 778, 779, 780, 781, 782, 783, 784, 785, 786, 787, 788, 789, 790, 791, 792, 793, 794, 795, 796, 797, 798, 799, 800, 801, 802, 803, 804, 805, 806, 807, 808, 809, 810, 811, 812, 813, 814, 815, 816, 817, 818, 819, 820, 821, 822, 823, 824, 825, 826, 827, 828, 829, 830, 831, 832, 833, 834, 835, 836, 837, 838, 839, 840, 841, 842, 843, 844, 845, 846, 847, 848, 849, 850, 851, 852, 853, 854, 855, 856, 857, 858, 859, 860, 861, 862, 863, 864, 865, 866, 867, 868, 869, 870, 871, 872, 873, 874, 875, 876, 877, 878, 879, 880, 881, 882, 883, 884, 885, 886, 887, 888, 889, 890, 891, 892, 893, 894, 895, 896, 897, 898, 899, 900, 901, 902, 903, 904, 905, 906, 907, 908, 909, 910, 911, 912, 913, 914, 915, 916, 917, 918, 919, 920, 921, 922, 923, 924, 925, 926, 927, 928, 929, 930, 931, 932, 933, 934, 935, 936, 937, 938, 939, 940, 941, 942, 943, 944, 945, 946, 947, 948, 949, 950, 951, 952, 953, 954, 955, 956, 957, 958, 959, 960, 961, 962, 963, 964, 965, 966, 967, 968, 969, 970, 971, 972, 973, 974, 975, 976, 977, 978, 979, 980, 981, 982, 983, 984, 985, 986, 987, 988, 989, 990, 991, 992, 993, 994, 995, 996, 997, 998, 999, 1000, 1001, 1002, 1003, 1004, 1005, 1006, 1007, 1008, 1009, 1010, 1011, 1012, 1013, 1014, 1015, 1016, 1017, 1018, 1019, 1020, 1021, 1022, 1023, 1024, 1025, 1026, 1027, 1028, 1029, 1030, 1031, 1032, 1033, 1034, 1035, 1036, 1037, 1038, 1039, 1040, 1041, 1042, 1043, 1044, 1045, 1046, 1047, 1048, 1049, 1050, 1051, 1052, 1053, 1054, 1055, 1056, 1057, 1058, 1059, 1060, 1061, 1062, 1063, 1064, 1065, 1066, 1067, 1068, 1069, 1070, 1071, 1072, 1073, 1074, 1075, 1076, 1077, 1078, 1079, 1080, 1081, 1082, 1083, 1084, 1085, 1086, 1087, 1088, 1089, 1090, 1091, 1092, 1093, 1094, 1095, 1096, 1097, 1098],
      "AcquisitionTime": ["122108.312500", "122108.772500", "122109.232500", "122109.692500", "122110.152500", "122110.612500", "122111.072500", "122111.532500", "122111.992500", "122112.452500", "122112.912500", "122113.372500", "122113.832500", "122114.292500", "122114.752500", "122115.212500", "122115.672500", "122116.132500", "122116.592500", "122117.052500", "122117.512500", "122117.972500", "122118.432500", "122118.892500", "122119.352500", "122119.812500", "122120.272500", "122120.732500", "122121.192500", "122121.652500", "122122.112500", "122122.572500", "122123.032500", "122123.492500", "122123.952500", "122124.412500", "122124.872500", "122125.332500", "122125.792500", "122126.252500", "122126.712500", "122127.172500", "122127.632500", "122128.092500", "122128.552500", "122129.012500", "122129.472500", "122129.932500", "122130.392500", "122130.852500", "122131.312500", "122131.772500", "122132.232500", "122132.692500", "122133.152500", "122133.612500", "122134.072500", "122134.532500", "122134.992500", "122135.452500", "122135.912500", "122136.372500", "122136.832500", "122137.292500", "122137.752500", "122138.212500", "122138.672500", "122139.132500", "122139.592500", "122140.052500", "122140.512500", "122140.972500", "122141.432500", "122141.892500", "122142.352500", "122142.812500", "122143.272500", "122143.732500", "122144.192500", "122144.652500", "122145.112500", "122145.572500", "122146.032500", "122146.492500", "122146.952500", "122147.412500", "122147.872500", "122148.332500", "122148.792500", "122149.252500", "122149.712500", "122150.172500", "122150.632500", "122151.092500", "122151.552500", "122152.012500", "122152.472500", "122152.932500", "122153.392500", "122153.852500", "122154.312500", "122154.772500", "122155.232500", "122155.692500", "122156.152500", "122156.612500", "122157.072500", "122157.532500", "122157.992500", "122158.452500", "122158.912500", "122159.372500", "122159.832500", "122200.292500", "122200.752500", "122201.212500", "122201.672500", "122202.132500", "122202.592500", "122203.052500", "122203.512500", "122203.972500", "122204.432500", "122204.892500", "122205.352500", "122205.812500", "122206.272500", "122206.732500", "122207.192500", "122207.652500", "122208.112500", "122208.572500", "122209.032500", "122209.492500", "122209.952500", "122210.412500", "122210.872500", "122211.332500", "122211.792500", "122212.252500", "122212.712500", "122213.172500", "122213.632500", "122214.092500", "122214.552500", "122215.012500", "122215.472500", "122215.932500", "122216.392500", "122216.852500", "122217.312500", "122217.772500", "122218.232500", "122218.692500", "122219.152500", "122219.612500", "122220.072500", "122220.532500", "122220.992500", "122221.452500", "122221.912500", "122222.372500", "122222.832500", "122223.292500", "122223.752500", "122224.212500", "122224.672500", "122225.132500", "122225.592500", "122226.052500", "122226.512500", "122226.972500", "122227.432500", "122227.892500", "122228.352500", "122228.812500", "122229.272500", "122229.732500", "122230.192500", "122230.652500", "122231.112500", "122231.572500", "122232.032500", "122232.492500", "122232.952500", "122233.412500", "122233.872500", "122234.332500", "122234.792500", "122235.252500", "122235.712500", "122236.172500", "122236.632500", "122237.092500", "122237.552500", "122238.012500", "122238.472500", "122238.932500", "122239.392500", "122239.852500", "122240.312500", "122240.772500", "122241.232500", "122241.692500", "122242.152500", "122242.612500", "122243.072500", "122243.532500", "122243.992500", "122244.452500", "122244.912500", "122245.372500", "122245.832500", "122246.292500", "122246.752500", "122247.212500", "122247.672500", "122248.132500", "122248.592500", "122249.052500", "122249.512500", "122249.972500", "122250.432500", "122250.892500", "122251.352500", "122251.812500", "122252.272500", "122252.732500", "122253.192500", "122253.652500", "122254.112500", "122254.572500", "122255.032500", "122255.492500", "122255.952500", "122256.412500", "122256.872500", "122257.332500", "122257.792500", "122258.252500", "122258.712500", "122259.172500", "122259.632500", "122300.092500", "122300.552500", "122301.012500", "122301.472500", "122301.932500", "122302.392500", "122302.852500", "122303.312500", "122303.772500", "122304.232500", "122304.692500", "122305.152500", "122305.612500", "122306.072500", "122306.532500", "122306.992500", "122307.452500", "122307.912500", "122308.372500", "122308.832500", "122309.292500", "122309.752500", "122310.212500", "122310.672500", "122311.132500", "122311.592500", "122312.052500", "122312.512500", "122312.972500", "122313.432500", "122313.892500", "122314.352500", "122314.812500", "122315.272500", "122315.732500", "122316.192500", "122316.652500", "122317.112500", "122317.572500", "122318.032500", "122318.492500", "122318.952500", "122319.412500", "122319.872500", "122320.332500", "122320.792500", "122321.252500", "122321.712500", "122322.172500", "122322.632500", "122323.092500", "122323.552500", "122324.012500", "122324.472500", "122324.932500", "122325.392500", "122325.852500", "122326.312500", "122326.772500", "122327.232500", "122327.692500", "122328.152500", "122328.612500", "122329.072500", "122329.532500", "122329.992500", "122330.452500", "122330.912500", "122331.372500", "122331.832500", "122332.292500", "122332.752500", "122333.212500", "122333.672500", "122334.132500", "122334.592500", "122335.052500", "122335.512500", "122335.972500", "122336.432500", "122336.892500", "122337.352500", "122337.812500", "122338.272500", "122338.732500", "122339.192500", "122339.652500", "122340.112500", "122340.572500", "122341.032500", "122341.492500", "122341.952500", "122342.412500", "122342.872500", "122343.332500", "122343.792500", "122344.252500", "122344.712500", "122345.172500", "122345.632500", "122346.092500", "122346.552500", "122347.012500", "122347.472500", "122347.932500", "122348.392500", "122348.852500", "122349.312500", "122349.772500", "122350.232500", "122350.692500", "122351.152500", "122351.612500", "122352.072500", "122352.532500", "122352.992500", "122353.452500", "122353.912500", "122354.372500", "122354.832500", "122355.292500", "122355.752500", "122356.212500", "122356.672500", "122357.132500", "122357.592500", "122358.052500", "122358.512500", "122358.972500", "122359.432500", "122359.892500", "122400.352500", "122400.812500", "122401.272500", "122401.732500", "122402.192500", "122402.652500", "122403.112500", "122403.572500", "122404.032500", "122404.492500", "122404.952500", "122405.412500", "122405.872500", "122406.332500", "122406.792500", "122407.252500", "122407.712500", "122408.172500", "122408.632500", "122409.092500", "122409.552500", "122410.012500", "122410.472500", "122410.932500", "122411.392500", "122411.852500", "122412.312500", "122412.772500", "122413.232500", "122413.692500", "122414.152500", "122414.612500", "122415.072500", "122415.532500", "122415.992500", "122416.452500", "122416.912500", "122417.372500", "122417.832500", "122418.292500", "122418.752500", "122419.212500", "122419.672500", "122420.132500", "122420.592500", "122421.052500", "122421.512500", "122421.972500", "122422.432500", "122422.892500", "122423.352500", "122423.812500", "122424.272500", "122424.732500", "122425.192500", "122425.652500", "122426.112500", "122426.572500", "122427.032500", "122427.492500", "122427.952500", "122428.412500", "122428.872500", "122429.332500", "122429.792500", "122430.252500", "122430.712500", "122431.172500", "122431.632500", "122432.092500", "122432.552500", "122433.012500", "122433.472500", "122433.932500", "122434.392500", "122434.852500", "122435.312500", "122435.772500", "122436.232500", "122436.692500", "122437.152500", "122437.612500", "122438.072500", "122438.532500", "122438.992500", "122439.452500", "122439.912500", "122440.372500", "122440.832500", "122441.292500", "122441.752500", "122442.212500", "122442.672500", "122443.132500", "122443.592500", "122444.052500", "122444.512500", "122444.972500", "122445.432500", "122445.892500", "122446.352500", "122446.812500", "122447.272500", "122447.732500", "122448.192500", "122448.652500", "122449.112500", "122449.572500", "122450.032500", "122450.492500", "122450.952500", "122451.412500", "122451.872500", "122452.332500", "122452.792500", "122453.252500", "122453.712500", "122454.172500", "122454.632500", "122455.092500", "122455.552500", "122456.012500", "122456.472500", "122456.932500", "122457.392500", "122457.852500", "122458.312500", "122458.772500", "122459.232500", "122459.692500", "122500.152500", "122500.612500", "122501.072500", "122501.532500", "122501.992500", "122502.452500", "122502.912500", "122503.372500", "122503.832500", "122504.292500", "122504.752500", "122505.212500", "122505.672500", "122506.132500", "122506.592500", "122507.052500", "122507.512500", "122507.972500", "122508.432500", "122508.892500", "122509.352500", "122509.812500", "122510.272500", "122510.732500", "122511.192500", "122511.652500", "122512.112500", "122512.572500", "122513.032500", "122513.492500", "122513.952500", "122514.412500", "122514.872500", "122515.332500", "122515.792500", "122516.252500", "122516.712500", "122517.172500", "122517.632500", "122518.092500", "122518.552500", "122519.012500", "122519.472500", "122519.932500", "122520.392500", "122520.852500", "122521.312500", "122521.772500", "122522.232500", "122522.692500", "122523.152500", "122523.612500", "122524.072500", "122524.532500", "122524.992500", "122525.452500", "122525.912500", "122526.372500", "122526.832500", "122527.292500", "122527.752500", "122528.212500", "122528.672500", "122529.132500", "122529.592500", "122530.052500", "122530.512500", "122530.972500", "122531.432500", "122531.892500", "122532.352500", "122532.812500", "122533.272500", "122533.732500", "122534.192500", "122534.652500", "122535.112500", "122535.572500", "122536.032500", "122536.492500", "122536.952500", "122537.412500", "122537.872500", "122538.332500", "122538.792500", "122539.252500", "122539.712500", "122540.172500", "122540.632500", "122541.092500", "122541.552500", "122542.012500", "122542.472500", "122542.932500", "122543.392500", "122543.852500", "122544.312500", "122544.772500", "122545.232500", "122545.692500", "122546.152500", "122546.612500", "122547.072500", "122547.532500", "122547.992500", "122548.452500", "122548.912500", "122549.372500", "122549.832500", "122550.292500", "122550.752500", "122551.212500", "122551.672500", "122552.132500", "122552.592500", "122553.052500", "122553.512500", "122553.972500", "122554.432500", "122554.892500", "122555.352500", "122555.812500", "122556.272500", "122556.732500", "122557.192500", "122557.652500", "122558.112500", "122558.572500", "122559.032500", "122559.492500", "122559.952500", "122600.412500", "122600.872500", "122601.332500", "122601.792500", "122602.252500", "122602.712500", "122603.172500", "122603.632500", "122604.092500", "122604.552500", "122605.012500", "122605.472500", "122605.932500", "122606.392500", "122606.852500", "122607.312500", "122607.772500", "122608.232500", "122608.692500", "122609.152500", "122609.612500", "122610.072500", "122610.532500", "122610.992500", "122611.452500", "122611.912500", "122612.372500", "122612.832500", "122613.292500", "122613.752500", "122614.212500", "122614.672500", "122615.132500", "122615.592500", "122616.052500", "122616.512500", "122616.972500", "122617.432500", "122617.892500", "122618.352500", "122618.812500", "122619.272500", "122619.732500", "122620.192500", "122620.652500", "122621.112500", "122621.572500", "122622.032500", "122622.492500", "122622.952500", "122623.412500", "122623.872500", "122624.332500", "122624.792500", "122625.252500", "122625.712500", "122626.172500", "122626.632500", "122627.092500", "122627.552500", "122628.012500", "122628.472500", "122628.932500", "122629.392500", "122629.852500", "122630.312500", "122630.772500", "122631.232500", "122631.692500", "122632.152500", "122632.612500", "122633.072500", "122633.532500", "122633.992500", "122634.452500", "122634.912500", "122635.372500", "122635.832500", "122636.292500", "122636.752500", "122637.212500", "122637.672500", "122638.132500", "122638.592500", "122639.052500", "122639.512500", "122639.972500", "122640.432500", "122640.892500", "122641.352500", "122641.812500", "122642.272500", "122642.732500", "122643.192500", "122643.652500", "122644.112500", "122644.572500", "122645.032500", "122645.492500", "122645.952500", "122646.412500", "122646.872500", "122647.332500", "122647.792500", "122648.252500", "122648.712500", "122649.172500", "122649.632500", "122650.092500", "122650.552500", "122651.012500", "122651.472500", "122651.932500", "122652.392500", "122652.852500", "122653.312500", "122653.772500", "122654.232500", "122654.692500", "122655.152500", "122655.612500", "122656.072500", "122656.532500", "122656.992500", "122657.452500", "122657.912500", "122658.372500", "122658.832500", "122659.292500", "122659.752500", "122700.212500", "122700.672500", "122701.132500", "122701.592500", "122702.052500", "122702.512500", "122702.972500", "122703.432500", "122703.892500", "122704.352500", "122704.812500", "122705.272500", "122705.732500", "122706.192500", "122706.652500", "122707.112500", "122707.572500", "122708.032500", "122708.492500", "122708.952500", "122709.412500", "122709.872500", "122710.332500", "122710.792500", "122711.252500", "122711.712500", "122712.172500", "122712.632500", "122713.092500", "122713.552500", "122714.012500", "122714.472500", "122714.932500", "122715.392500", "122715.852500", "122716.312500", "122716.772500", "122717.232500", "122717.692500", "122718.152500", "122718.612500", "122719.072500", "122719.532500", "122719.992500", "122720.452500", "122720.912500", "122721.372500", "122721.832500", "122722.292500", "122722.752500", "122723.212500", "122723.672500", "122724.132500", "122724.592500", "122725.052500", "122725.512500", "122725.972500", "122726.432500", "122726.892500", "122727.352500", "122727.812500", "122728.272500", "122728.732500", "122729.192500", "122729.652500", "122730.112500", "122730.572500", "122731.032500", "122731.492500", "122731.952500", "122732.412500", "122732.872500", "122733.332500", "122733.792500", "122734.252500", "122734.712500", "122735.172500", "122735.632500", "122736.092500", "122736.552500", "122737.012500", "122737.472500", "122737.932500", "122738.392500", "122738.852500", "122739.312500", "122739.772500", "122740.232500", "122740.692500", "122741.152500", "122741.612500", "122742.072500", "122742.532500", "122742.992500", "122743.452500", "122743.912500", "122744.372500", "122744.832500", "122745.292500", "122745.752500", "122746.212500", "122746.672500", "122747.132500", "122747.592500", "122748.052500", "122748.512500", "122748.972500", "122749.432500", "122749.892500", "122750.352500", "122750.812500", "122751.272500", "122751.732500", "122752.192500", "122752.652500", "122753.112500", "122753.572500", "122754.032500", "122754.492500", "122754.952500", "122755.412500", "122755.872500", "122756.332500", "122756.792500", "122757.252500", "122757.712500", "122758.172500", "122758.632500", "122759.092500", "122759.552500", "122800.012500", "122800.472500", "122800.932500", "122801.392500", "122801.852500", "122802.312500", "122802.772500", "122803.232500", "122803.692500", "122804.152500", "122804.612500", "122805.072500", "122805.532500", "122805.992500", "122806.452500", "122806.912500", "122807.372500", "122807.832500", "122808.292500", "122808.752500", "122809.212500", "122809.672500", "122810.132500", "122810.592500", "122811.052500", "122811.512500", "122811.972500", "122812.432500", "122812.892500", "122813.352500", "122813.812500", "122814.272500", "122814.732500", "122815.192500", "122815.652500", "122816.112500", "122816.572500", "122817.032500", "122817.492500", "122817.952500", "122818.412500", "122818.872500", "122819.332500", "122819.792500", "122820.252500", "122820.712500", "122821.172500", "122821.632500", "122822.092500", "122822.552500", "122823.012500", "122823.472500", "122823.932500", "122824.392500", "122824.852500", "122825.312500", "122825.772500", "122826.232500", "122826.692500", "122827.152500", "122827.612500", "122828.072500", "122828.532500", "122828.992500", "122829.452500", "122829.912500", "122830.372500", "122830.832500", "122831.292500", "122831.752500", "122832.212500", "122832.672500", "122833.132500", "122833.592500", "122834.052500", "122834.512500", "122834.972500", "122835.432500", "122835.892500", "122836.352500", "122836.812500", "122837.272500", "122837.732500", "122838.192500", "122838.652500", "122839.112500", "122839.572500", "122840.032500", "122840.492500", "122840.952500", "122841.412500", "122841.872500", "122842.332500", "122842.792500", "122843.252500", "122843.712500", "122844.172500", "122844.632500", "122845.092500", "122845.552500", "122846.012500", "122846.472500", "122846.932500", "122847.392500", "122847.852500", "122848.312500", "122848.772500", "122849.232500", "122849.692500", "122850.152500", "122850.612500", "122851.072500", "122851.532500", "122851.992500", "122852.452500", "122852.912500", "122853.372500", "122853.832500", "122854.292500", "122854.752500", "122855.212500", "122855.672500", "122856.132500", "122856.592500", "122857.052500", "122857.512500", "122857.972500", "122858.432500", "122858.892500", "122859.352500", "122859.812500", "122900.272500", "122900.732500", "122901.192500", "122901.652500", "122902.112500", "122902.572500", "122903.032500", "122903.492500", "122903.952500", "122904.412500", "122904.872500", "122905.332500", "122905.792500", "122906.252500", "122906.712500", "122907.172500", "122907.632500", "122908.092500", "122908.552500", "122909.012500", "122909.472500", "122909.932500", "122910.392500", "122910.852500", "122911.312500", "122911.772500", "122912.232500", "122912.692500", "122913.152500", "122913.612500", "122914.072500", "122914.532500", "122914.992500", "122915.452500", "122915.912500", "122916.372500", "122916.832500", "122917.292500", "122917.752500", "122918.212500", "122918.672500", "122919.132500", "122919.592500", "122920.052500", "122920.512500", "122920.972500", "122921.432500", "122921.892500", "122922.352500", "122922.812500", "122923.272500", "122923.732500", "122924.192500", "122924.652500", "122925.112500", "122925.572500", "122926.032500", "122926.492500", "122926.952500", "122927.412500", "122927.872500", "122928.332500", "122928.792500", "122929.252500", "122929.712500", "122930.172500", "122930.632500", "122931.092500", "122931.552500", "122932.012500", "122932.472500", "122932.932500"],
