{
  "AcquisitionMatrixPE": 82,
  "AcquisitionNumber": 1,
  "AcquisitionTime": "13:08:36.362500",
  "BandwidthPerPixelPhaseEncode": 24.888,
  "BaseResolution": 82,
  "BodyPartExamined": "BRAIN",
  "ConsistencyInfo": "N4_VE11C_LATEST_20160120",
  "ConversionSoftware": "dcm2niix",
  "ConversionSoftwareVersion": "v1.0.20201102",
  "DerivedVendorReportedEchoSpacing": 0.00049,
  "DeviceSerialNumber": "66112",
  "DwellTime": 2e-06,
  "EchoTime": 0.0272,
  "EchoTrainLength": 82,
  "EffectiveEchoSpacing": 0.00049,
  "FlipAngle": 44,
  "ImageComments": "Unaliased MB8/PE3",
  "ImageOrientationPatientDICOM": [0.998184, -0.0434243, 0.0417386, 0.0397423, 0.99556, 0.0853257],
  "ImageType": [
    "ORIGINAL",
    "PRIMARY",
    "M",
    "MB",
    "ND",
    "NORM",
    "MOSAIC"
],
  "ImagingFrequency": 123.252,
  "InPlanePhaseEncodingDirectionDICOM": "COL",
  "InstitutionAddress": "Maynard 3,Hanover,NH,US,03755",
  "InstitutionName": "Dartmouth College - PBS",
  "InstitutionalDepartmentName": "Department",
  "MRAcquisitionType": "2D",
  "MagneticFieldStrength": 3,
  "Manufacturer": "Siemens",
  "ManufacturersModelName": "Prisma",
  "Modality": "MR",
  "MultibandAccelerationFactor": 8,
  "PartialFourier": 1,
  "PatientPosition": "HFS",
  "PercentPhaseFOV": 100,
  "PercentSampling": 100,
  "PhaseEncodingDirection": "j-",
  "PhaseEncodingSteps": 82,
  "PhaseResolution": 1,
  "PixelBandwidth": 3050,
  "ProcedureStepDescription": "Wager_Wager^1076_spacetop",
  "ProtocolName": "func_run-03_task-faces_acq-ap-mb8",
  "PulseSequenceDetails": "%CustomerSeq%\\cmrr_mbep2d_bold",
  "ReceiveCoilActiveElements": "HEA;HEP",
  "ReceiveCoilName": "Head_32",
  "ReconMatrixPE": 82,
  "RepetitionTime": 0.46,
  "SAR": 0.107332,
  "ScanOptions": "FS",
  "ScanningSequence": "EP",
  "SequenceName": "epfid2d1_82",
  "SequenceVariant": "SK\\SS",
  "SeriesDescription": "func_run-03_task-faces_acq-ap-mb8",
  "SeriesNumber": 20,
  "ShimSetting": [4179, -7741, -7255, 634, 27, -133, 117, 45],
  "SliceThickness": 2.7,
  "SliceTiming": [0, 0.2525, 0.0625, 0.315, 0.125, 0.3775, 0.1875, 0, 0.2525, 0.0625, 0.315, 0.125, 0.3775, 0.1875, 0, 0.2525, 0.0625, 0.315, 0.125, 0.3775, 0.1875, 0, 0.2525, 0.0625, 0.315, 0.125, 0.3775, 0.1875, 0, 0.2525, 0.0625, 0.315, 0.125, 0.3775, 0.1875, 0, 0.2525, 0.0625, 0.315, 0.125, 0.3775, 0.1875, 0, 0.2525, 0.0625, 0.315, 0.125, 0.3775, 0.1875, 0, 0.2525, 0.0625, 0.315, 0.125, 0.3775, 0.1875],
  "SoftwareVersions": "syngo MR E11",
  "SpacingBetweenSlices": 2.7,
  "StationName": "AWP66112",
  "TaskName": "faces",
  "TotalReadoutTime": 0.03969,
  "TxRefAmp": 270.888,
  "WipMemBlock": "d058a70a-922f-422c-b743-9158317760eb||Sequence: R016 ve11c/master r/e634e98; Dec 19 2017 11:00:25 by eja",
  "dcmmeta_affine": [
    [-2.678056001663208, 0.10662558674812317, 0.12219785898923874, 104.92606353759766],
    [0.11650416254997253, 2.6710152626037598, 0.22548235952854156, -88.12508392333984],
    [0.11198154091835022, -0.22892256081104279, 2.6877918243408203, -53.51728439331055],
    [0.0, 0.0, 0.0, 1.0]
],
  "dcmmeta_reorient_transform": [
    [0.0, -1.0, 0.0, 81.0],
    [1.0, 0.0, 0.0, 0.0],
    [0.0, 0.0, 1.0, 0.0],
    [0.0, 0.0, 0.0, 1.0]
],
  "dcmmeta_shape": [82, 82, 56, 914],
  "dcmmeta_slice_dim": 2,
  "dcmmeta_version": 0.6,
  "global": {
    "const": {
      "AccessionNumber": "A003516",
      "AcquisitionMatrix": [82, 0, 0, 82],
      "AngioFlag": "N",
      "BitsAllocated": 16,
      "BitsStored": 16,
      "BodyPartExamined": "BRAIN",
      "Columns": 656,
      "EchoNumbers": 1,
      "EchoTime": 27.2,
      "EchoTrainLength": 82,
      "FlipAngle": 44.0,
      "HighBit": 15,
      "ImageOrientationPatient": [0.99818446371903, -0.0434242780845, 0.04173857284081, 0.03974226373446, 0.99556018446776, 0.08532567946275],
      "ImagePositionPatient": [-912.76633829899, -861.37181463059, -169.8994876557],
      "ImageType": [
        "ORIGINAL",
        "PRIMARY",
        "M",
        "MB",
        "ND",
        "NORM",
        "MOSAIC"
],
      "ImagedNucleus": "1H",
      "ImagingFrequency": 123.252463,
      "InPlanePhaseEncodingDirection": "COL",
      "MRAcquisitionType": "2D",
      "MagneticFieldStrength": 3.0,
      "Manufacturer": "SIEMENS",
      "ManufacturerModelName": "Prisma",
      "Modality": "MR",
      "NumberOfAverages": 1.0,
      "NumberOfPhaseEncodingSteps": 82,
      "PercentPhaseFieldOfView": 100.0,
      "PercentSampling": 100.0,
      "PerformedProcedureStepStartTime": "113628.296000",
      "PhotometricInterpretation": "MONOCHROME2",
      "PixelBandwidth": 3050.0,
      "PixelRepresentation": 0,
      "PixelSpacing": [2.6829268932343, 2.6829268932343],
      "ProtocolName": "func_run-03_task-faces_acq-ap-mb8",
      "RepetitionTime": 460.0,
      "Rows": 656,
      "SAR": 0.1073316669793,
      "SamplesPerPixel": 1,
      "ScanOptions": "FS",
      "ScanningSequence": "EP",
      "SequenceName": "epfid2d1_82",
      "SequenceVariant": [
        "SK",
        "SS"
],
      "SeriesDescription": "func_run-03_task-faces_acq-ap-mb8",
      "SeriesNumber": 20,
      "SeriesTime": "130850.871000",
      "SliceLocation": -55.886011917342,
      "SliceThickness": 2.7000000476837,
      "SmallestImagePixelValue": 0,
      "SoftwareVersions": "syngo MR E11",
      "SpacingBetweenSlices": 2.7000000102805,
      "SpecificCharacterSet": "ISO_IR 100",
      "StudyID": "1",
      "StudyTime": "113628.173000",
      "TransmitCoilName": "Body",
      "VariableFlipAngleFlag": "N",
      "WindowCenterWidthExplanation": "Algo1",
      "dBdt": 0.0},
    "slices": {}
  },
  "time": {
    "samples": {
      "AcquisitionNumber": [1, 2, 3, 4, 5, 6, 7, 8, 9, 10, 11, 12, 13, 14, 15, 16, 17, 18, 19, 20, 21, 22, 23, 24, 25, 26, 27, 28, 29, 30, 31, 32, 33, 34, 35, 36, 37, 38, 39, 40, 41, 42, 43, 44, 45, 46, 47, 48, 49, 50, 51, 52, 53, 54, 55, 56, 57, 58, 59, 60, 61, 62, 63, 64, 65, 66, 67, 68, 69, 70, 71, 72, 73, 74, 75, 76, 77, 78, 79, 80, 81, 82, 83, 84, 85, 86, 87, 88, 89, 90, 91, 92, 93, 94, 95, 96, 97, 98, 99, 100, 101, 102, 103, 104, 105, 106, 107, 108, 109, 110, 111, 112, 113, 114, 115, 116, 117, 118, 119, 120, 121, 122, 123, 124, 125, 126, 127, 128, 129, 130, 131, 132, 133, 134, 135, 136, 137, 138, 139, 140, 141, 142, 143, 144, 145, 146, 147, 148, 149, 150, 151, 152, 153, 154, 155, 156, 157, 158, 159, 160, 161, 162, 163, 164, 165, 166, 167, 168, 169, 170, 171, 172, 173, 174, 175, 176, 177, 178, 179, 180, 181, 182, 183, 184, 185, 186, 187, 188, 189, 190, 191, 192, 193, 194, 195, 196, 197, 198, 199, 200, 201, 202, 203, 204, 205, 206, 207, 208, 209, 210, 211, 212, 213, 214, 215, 216, 217, 218, 219, 220, 221, 222, 223, 224, 225, 226, 227, 228, 229, 230, 231, 232, 233, 234, 235, 236, 237, 238, 239, 240, 241, 242, 243, 244, 245, 246, 247, 248, 249, 250, 251, 252, 253, 254, 255, 256, 257, 258, 259, 260, 261, 262, 263, 264, 265, 266, 267, 268, 269, 270, 271, 272, 273, 274, 275, 276, 277, 278, 279, 280, 281, 282, 283, 284, 285, 286, 287, 288, 289, 290, 291, 292, 293, 294, 295, 296, 297, 298, 299, 300, 301, 302, 303, 304, 305, 306, 307, 308, 309, 310, 311, 312, 313, 314, 315, 316, 317, 318, 319, 320, 321, 322, 323, 324, 325, 326, 327, 328, 329, 330, 331, 332, 333, 334, 335, 336, 337, 338, 339, 340, 341, 342, 343, 344, 345, 346, 347, 348, 349, 350, 351, 352, 353, 354, 355, 356, 357, 358, 359, 360, 361, 362, 363, 364, 365, 366, 367, 368, 369, 370, 371, 372, 373, 374, 375, 376, 377, 378, 379, 380, 381, 382, 383, 384, 385, 386, 387, 388, 389, 390, 391, 392, 393, 394, 395, 396, 397, 398, 399, 400, 401, 402, 403, 404, 405, 406, 407, 408, 409, 410, 411, 412, 413, 414, 415, 416, 417, 418, 419, 420, 421, 422, 423, 424, 425, 426, 427, 428, 429, 430, 431, 432, 433, 434, 435, 436, 437, 438, 439, 440, 441, 442, 443, 444, 445, 446, 447, 448, 449, 450, 451, 452, 453, 454, 455, 456, 457, 458, 459, 460, 461, 462, 463, 464, 465, 466, 467, 468, 469, 470, 471, 472, 473, 474, 475, 476, 477, 478, 479, 480, 481, 482, 483, 484, 485, 486, 487, 488, 489, 490, 491, 492, 493, 494, 495, 496, 497, 498, 499, 500, 501, 502, 503, 504, 505, 506, 507, 508, 509, 510, 511, 512, 513, 514, 515, 516, 517, 518, 519, 520, 521, 522, 523, 524, 525, 526, 527, 528, 529, 530, 531, 532, 533, 534, 535, 536, 537, 538, 539, 540, 541, 542, 543, 544, 545, 546, 547, 548, 549, 550, 551, 552, 553, 554, 555, 556, 557, 558, 559, 560, 561, 562, 563, 564, 565, 566, 567, 568, 569, 570, 571, 572, 573, 574, 575, 576, 577, 578, 579, 580, 581, 582, 583, 584, 585, 586, 587, 588, 589, 590, 591, 592, 593, 594, 595, 596, 597, 598, 599, 600, 601, 602, 603, 604, 605, 606, 607, 608, 609, 610, 611, 612, 613, 614, 615, 616, 617, 618, 619, 620, 621, 622, 623, 624, 625, 626, 627, 628, 629, 630, 631, 632, 633, 634, 635, 636, 637, 638, 639, 640, 641, 642, 643, 644, 645, 646, 647, 648, 649, 650, 651, 652, 653, 654, 655, 656, 657, 658, 659, 660, 661, 662, 663, 664, 665, 666, 667, 668, 669, 670, 671, 672, 673, 674, 675, 676, 677, 678, 679, 680, 681, 682, 683, 684, 685, 686, 687, 688, 689, 690, 691, 692, 693, 694, 695, 696, 697, 698, 699, 700, 701, 702, 703, 704, 705, 706, 707, 708, 709, 710, 711, 712, 713, 714, 715, 716, 717, 718, 719, 720, 721, 722, 723, 724, 725, 726, 727, 728, 729, 730, 731, 732, 733, 734, 735, 736, 737, 738, 739, 740, 741, 742, 743, 744, 745, 746, 747, 748, 749, 750, 751, 752, 753, 754, 755, 756, 757, 758, 759, 760, 761, 762, 763, 764, 765, 766, 767, 768, 769, 770, 771, 772, 773, 774, 775, 776, 777, 778, 779, 780, 781, 782, 783, 784, 785, 786, 787, 788, 789, 790, 791, 792, 793, 794, 795, 796, 797, 798, 799, 800, 801, 802, 803, 804, 805, 806, 807, 808, 809, 810, 811, 812, 813, 814, 815, 816, 817, 818, 819, 820, 821, 822, 823, 824, 825, 826, 827, 828, 829, 830, 831, 832, 833, 834, 835, 836, 837, 838, 839, 840, 841, 842, 843, 844, 845, 846, 847, 848, 849, 850, 851, 852, 853, 854, 855, 856, 857, 858, 859, 860, 861, 862, 863, 864, 865, 866, 867, 868, 869, 870, 871, 872, 873, 874, 875, 876, 877, 878, 879, 880, 881, 882, 883, 884, 885, 886, 887, 888, 889, 890, 891, 892, 893, 894, 895, 896, 897, 898, 899, 900, 901, 902, 903, 904, 905, 906, 907, 908, 909, 910, 911, 912, 913, 914],
      "AcquisitionTime": ["130836.362500", "130836.822500", "130837.282500", "130837.742500", "130838.202500", "130838.662500", "130839.122500", "130839.582500", "130840.042500", "130840.502500", "130840.962500", "130841.422500", "130841.882500", "130842.342500", "130842.802500", "130843.262500", "130843.722500", "130844.182500", "130844.642500", "130845.102500", "130845.562500", "130846.022500", "130846.482500", "130846.942500", "130847.402500", "130847.862500", "130848.322500", "130848.782500", "130849.242500", "130849.702500", "130850.162500", "130850.622500", "130851.082500", "130851.542500", "130852.002500", "130852.462500", "130852.922500", "130853.382500", "130853.842500", "130854.302500", "130854.762500", "130855.222500", "130855.682500", "130856.142500", "130856.602500", "130857.062500", "130857.522500", "130857.982500", "130858.442500", "130858.902500", "130859.362500", "130859.822500", "130900.282500", "130900.742500", "130901.202500", "130901.662500", "130902.122500", "130902.582500", "130903.042500", "130903.502500", "130903.962500", "130904.422500", "130904.882500", "130905.342500", "130905.802500", "130906.262500", "130906.722500", "130907.182500", "130907.642500", "130908.102500", "130908.562500", "130909.022500", "130909.482500", "130909.942500", "130910.402500", "130910.862500", "130911.322500", "130911.782500", "130912.242500", "130912.702500", "130913.162500", "130913.622500", "130914.082500", "130914.542500", "130915.002500", "130915.462500", "130915.922500", "130916.382500", "130916.842500", "130917.302500", "130917.762500", "130918.222500", "130918.682500", "130919.142500", "130919.602500", "130920.062500", "130920.522500", "130920.982500", "130921.442500", "130921.902500", "130922.362500", "130922.822500", "130923.282500", "130923.742500", "130924.202500", "130924.662500", "130925.122500", "130925.582500", "130926.042500", "130926.502500", "130926.962500", "130927.422500", "130927.882500", "130928.342500", "130928.802500", "130929.262500", "130929.722500", "130930.182500", "130930.642500", "130931.102500", "130931.562500", "130932.022500", "130932.482500", "130932.942500", "130933.402500", "130933.862500", "130934.322500", "130934.782500", "130935.242500", "130935.702500", "130936.162500", "130936.622500", "130937.082500", "130937.542500", "130938.002500", "130938.462500", "130938.922500", "130939.382500", "130939.842500", "130940.302500", "130940.762500", "130941.222500", "130941.682500", "130942.142500", "130942.602500", "130943.062500", "130943.522500", "130943.982500", "130944.442500", "130944.902500", "130945.362500", "130945.822500", "130946.282500", "130946.742500", "130947.202500", "130947.662500", "130948.122500", "130948.582500", "130949.042500", "130949.502500", "130949.962500", "130950.422500", "130950.882500", "130951.342500", "130951.802500", "130952.262500", "130952.722500", "130953.182500", "130953.642500", "130954.102500", "130954.562500", "130955.022500", "130955.482500", "130955.942500", "130956.402500", "130956.862500", "130957.322500", "130957.782500", "130958.242500", "130958.702500", "130959.162500", "130959.622500", "131000.082500", "131000.542500", "131001.002500", "131001.462500", "131001.922500", "131002.382500", "131002.842500", "131003.302500", "131003.762500", "131004.222500", "131004.682500", "131005.142500", "131005.602500", "131006.062500", "131006.522500", "131006.982500", "131007.442500", "131007.902500", "131008.362500", "131008.822500", "131009.282500", "131009.742500", "131010.202500", "131010.662500", "131011.122500", "131011.582500", "131012.042500", "131012.502500", "131012.962500", "131013.422500", "131013.882500", "131014.342500", "131014.802500", "131015.262500", "131015.722500", "131016.182500", "131016.642500", "131017.102500", "131017.562500", "131018.022500", "131018.482500", "131018.942500", "131019.402500", "131019.862500", "131020.322500", "131020.782500", "131021.242500", "131021.702500", "131022.162500", "131022.622500", "131023.082500", "131023.542500", "131024.002500", "131024.462500", "131024.922500", "131025.382500", "131025.842500", "131026.302500", "131026.762500", "131027.222500", "131027.682500", "131028.142500", "131028.602500", "131029.062500", "131029.522500", "131029.982500", "131030.442500", "131030.902500", "131031.362500", "131031.822500", "131032.282500", "131032.742500", "131033.202500", "131033.662500", "131034.122500", "131034.582500", "131035.042500", "131035.502500", "131035.962500", "131036.422500", "131036.882500", "131037.342500", "131037.802500", "131038.262500", "131038.722500", "131039.182500", "131039.642500", "131040.102500", "131040.562500", "131041.022500", "131041.482500", "131041.942500", "131042.402500", "131042.862500", "131043.322500", "131043.782500", "131044.242500", "131044.702500", "131045.162500", "131045.622500", "131046.082500", "131046.542500", "131047.002500", "131047.462500", "131047.922500", "131048.382500", "131048.842500", "131049.302500", "131049.762500", "131050.222500", "131050.682500", "131051.142500", "131051.602500", "131052.062500", "131052.522500", "131052.982500", "131053.442500", "131053.902500", "131054.362500", "131054.822500", "131055.282500", "131055.742500", "131056.202500", "131056.662500", "131057.122500", "131057.582500", "131058.042500", "131058.502500", "131058.962500", "131059.422500", "131059.882500", "131100.342500", "131100.802500", "131101.262500", "131101.722500", "131102.182500", "131102.642500", "131103.102500", "131103.562500", "131104.022500", "131104.482500", "131104.942500", "131105.402500", "131105.862500", "131106.322500", "131106.782500", "131107.242500", "131107.702500", "131108.162500", "131108.622500", "131109.082500", "131109.542500", "131110.002500", "131110.462500", "131110.922500", "131111.382500", "131111.842500", "131112.302500", "131112.762500", "131113.222500", "131113.682500", "131114.142500", "131114.602500", "131115.062500", "131115.522500", "131115.982500", "131116.442500", "131116.902500", "131117.362500", "131117.822500", "131118.282500", "131118.742500", "131119.202500", "131119.662500", "131120.122500", "131120.582500", "131121.042500", "131121.502500", "131121.962500", "131122.422500", "131122.882500", "131123.342500", "131123.802500", "131124.262500", "131124.722500", "131125.182500", "131125.642500", "131126.102500", "131126.562500", "131127.022500", "131127.482500", "131127.942500", "131128.402500", "131128.862500", "131129.322500", "131129.782500", "131130.242500", "131130.702500", "131131.162500", "131131.622500", "131132.082500", "131132.542500", "131133.002500", "131133.462500", "131133.922500", "131134.382500", "131134.842500", "131135.302500", "131135.762500", "131136.222500", "131136.682500", "131137.142500", "131137.602500", "131138.062500", "131138.522500", "131138.982500", "131139.442500", "131139.902500", "131140.362500", "131140.822500", "131141.282500", "131141.742500", "131142.202500", "131142.662500", "131143.122500", "131143.582500", "131144.042500", "131144.502500", "131144.962500", "131145.422500", "131145.882500", "131146.342500", "131146.802500", "131147.262500", "131147.722500", "131148.182500", "131148.642500", "131149.102500", "131149.562500", "131150.022500", "131150.482500", "131150.942500", "131151.402500", "131151.862500", "131152.322500", "131152.782500", "131153.242500", "131153.702500", "131154.162500", "131154.622500", "131155.082500", "131155.542500", "131156.002500", "131156.462500", "131156.922500", "131157.382500", "131157.842500", "131158.302500", "131158.762500", "131159.222500", "131159.682500", "131200.142500", "131200.602500", "131201.062500", "131201.522500", "131201.982500", "131202.442500", "131202.902500", "131203.362500", "131203.822500", "131204.282500", "131204.742500", "131205.202500", "131205.662500", "131206.122500", "131206.582500", "131207.042500", "131207.502500", "131207.962500", "131208.422500", "131208.882500", "131209.342500", "131209.802500", "131210.262500", "131210.722500", "131211.182500", "131211.642500", "131212.102500", "131212.562500", "131213.022500", "131213.482500", "131213.942500", "131214.402500", "131214.862500", "131215.322500", "131215.782500", "131216.242500", "131216.702500", "131217.162500", "131217.622500", "131218.082500", "131218.542500", "131219.002500", "131219.462500", "131219.922500", "131220.382500", "131220.842500", "131221.302500", "131221.762500", "131222.222500", "131222.682500", "131223.142500", "131223.602500", "131224.062500", "131224.522500", "131224.982500", "131225.442500", "131225.902500", "131226.362500", "131226.822500", "131227.282500", "131227.742500", "131228.202500", "131228.662500", "131229.122500", "131229.582500", "131230.042500", "131230.502500", "131230.962500", "131231.422500", "131231.882500", "131232.342500", "131232.802500", "131233.262500", "131233.722500", "131234.182500", "131234.642500", "131235.102500", "131235.562500", "131236.022500", "131236.482500", "131236.942500", "131237.402500", "131237.862500", "131238.322500", "131238.782500", "131239.242500", "131239.702500", "131240.162500", "131240.622500", "131241.082500", "131241.542500", "131242.002500", "131242.462500", "131242.922500", "131243.382500", "131243.842500", "131244.302500", "131244.762500", "131245.222500", "131245.682500", "131246.142500", "131246.602500", "131247.062500", "131247.522500", "131247.982500", "131248.442500", "131248.902500", "131249.362500", "131249.822500", "131250.282500", "131250.742500", "131251.202500", "131251.662500", "131252.122500", "131252.582500", "131253.042500", "131253.502500", "131253.962500", "131254.422500", "131254.882500", "131255.342500", "131255.802500", "131256.262500", "131256.722500", "131257.182500", "131257.642500", "131258.102500", "131258.562500", "131259.022500", "131259.482500", "131259.942500", "131300.402500", "131300.862500", "131301.322500", "131301.782500", "131302.242500", "131302.702500", "131303.162500", "131303.622500", "131304.082500", "131304.542500", "131305.002500", "131305.462500", "131305.922500", "131306.382500", "131306.842500", "131307.302500", "131307.762500", "131308.222500", "131308.682500", "131309.142500", "131309.602500", "131310.062500", "131310.522500", "131310.982500", "131311.442500", "131311.902500", "131312.362500", "131312.822500", "131313.282500", "131313.742500", "131314.202500", "131314.662500", "131315.122500", "131315.582500", "131316.042500", "131316.502500", "131316.962500", "131317.422500", "131317.882500", "131318.342500", "131318.802500", "131319.262500", "131319.722500", "131320.182500", "131320.642500", "131321.102500", "131321.562500", "131322.022500", "131322.482500", "131322.942500", "131323.402500", "131323.862500", "131324.322500", "131324.782500", "131325.242500", "131325.702500", "131326.162500", "131326.622500", "131327.082500", "131327.542500", "131328.002500", "131328.462500", "131328.922500", "131329.382500", "131329.842500", "131330.302500", "131330.762500", "131331.222500", "131331.682500", "131332.142500", "131332.602500", "131333.062500", "131333.522500", "131333.982500", "131334.442500", "131334.902500", "131335.362500", "131335.822500", "131336.282500", "131336.742500", "131337.202500", "131337.662500", "131338.122500", "131338.582500", "131339.042500", "131339.502500", "131339.962500", "131340.422500", "131340.882500", "131341.342500", "131341.802500", "131342.262500", "131342.722500", "131343.182500", "131343.642500", "131344.102500", "131344.562500", "131345.022500", "131345.482500", "131345.942500", "131346.402500", "131346.862500", "131347.322500", "131347.782500", "131348.242500", "131348.702500", "131349.162500", "131349.622500", "131350.082500", "131350.542500", "131351.002500", "131351.462500", "131351.922500", "131352.382500", "131352.842500", "131353.302500", "131353.762500", "131354.222500", "131354.682500", "131355.142500", "131355.602500", "131356.062500", "131356.522500", "131356.982500", "131357.442500", "131357.902500", "131358.362500", "131358.822500", "131359.282500", "131359.742500", "131400.202500", "131400.662500", "131401.122500", "131401.582500", "131402.042500", "131402.502500", "131402.962500", "131403.422500", "131403.882500", "131404.342500", "131404.802500", "131405.262500", "131405.722500", "131406.182500", "131406.642500", "131407.102500", "131407.562500", "131408.022500", "131408.482500", "131408.942500", "131409.402500", "131409.862500", "131410.322500", "131410.782500", "131411.242500", "131411.702500", "131412.162500", "131412.622500", "131413.082500", "131413.542500", "131414.002500", "131414.462500", "131414.922500", "131415.382500", "131415.842500", "131416.302500", "131416.762500", "131417.222500", "131417.682500", "131418.142500", "131418.602500", "131419.062500", "131419.522500", "131419.982500", "131420.442500", "131420.902500", "131421.362500", "131421.822500", "131422.282500", "131422.742500", "131423.202500", "131423.662500", "131424.122500", "131424.582500", "131425.042500", "131425.502500", "131425.962500", "131426.422500", "131426.882500", "131427.342500", "131427.802500", "131428.262500", "131428.722500", "131429.182500", "131429.642500", "131430.102500", "131430.562500", "131431.022500", "131431.482500", "131431.942500", "131432.402500", "131432.862500", "131433.322500", "131433.782500", "131434.242500", "131434.702500", "131435.162500", "131435.622500", "131436.082500", "131436.542500", "131437.002500", "131437.462500", "131437.922500", "131438.382500", "131438.842500", "131439.302500", "131439.762500", "131440.222500", "131440.682500", "131441.142500", "131441.602500", "131442.062500", "131442.522500", "131442.982500", "131443.442500", "131443.902500", "131444.362500", "131444.822500", "131445.282500", "131445.742500", "131446.202500", "131446.662500", "131447.122500", "131447.582500", "131448.042500", "131448.502500", "131448.962500", "131449.422500", "131449.882500", "131450.342500", "131450.802500", "131451.262500", "131451.722500", "131452.182500", "131452.642500", "131453.102500", "131453.562500", "131454.022500", "131454.482500", "131454.942500", "131455.402500", "131455.862500", "131456.322500", "131456.782500", "131457.242500", "131457.702500", "131458.162500", "131458.622500", "131459.082500", "131459.542500", "131500.002500", "131500.462500", "131500.922500", "131501.382500", "131501.842500", "131502.302500", "131502.762500", "131503.222500", "131503.682500", "131504.142500", "131504.602500", "131505.062500", "131505.522500", "131505.982500", "131506.442500", "131506.902500", "131507.362500", "131507.822500", "131508.282500", "131508.742500", "131509.202500", "131509.662500", "131510.122500", "131510.582500", "131511.042500", "131511.502500", "131511.962500", "131512.422500", "131512.882500", "131513.342500", "131513.802500", "131514.262500", "131514.722500", "131515.182500", "131515.642500", "131516.102500", "131516.562500", "131517.022500", "131517.482500", "131517.942500", "131518.402500", "131518.862500", "131519.322500", "131519.782500", "131520.242500", "131520.702500", "131521.162500", "131521.622500", "131522.082500", "131522.542500", "131523.002500", "131523.462500", "131523.922500", "131524.382500", "131524.842500", "131525.302500", "131525.762500", "131526.222500", "131526.682500", "131527.142500", "131527.602500", "131528.062500", "131528.522500", "131528.982500", "131529.442500", "131529.902500", "131530.362500", "131530.822500", "131531.282500", "131531.742500", "131532.202500", "131532.662500", "131533.122500", "131533.582500", "131534.042500", "131534.502500", "131534.962500", "131535.422500", "131535.882500", "131536.342500"],
