{
  "AcquisitionMatrixPE": 82,
  "AcquisitionNumber": 1,
  "AcquisitionTime": "12:59:53.925000",
  "BandwidthPerPixelPhaseEncode": 24.888,
  "BaseResolution": 82,
  "BodyPartExamined": "BRAIN",
  "ConsistencyInfo": "N4_VE11C_LATEST_20160120",
  "ConversionSoftware": "dcm2niix",
  "ConversionSoftwareVersion": "v1.0.20201102",
  "DerivedVendorReportedEchoSpacing": 0.00049,
  "DeviceSerialNumber": "66112",
  "DwellTime": 2e-06,
  "EchoTime": 0.0272,
  "EchoTrainLength": 82,
  "EffectiveEchoSpacing": 0.00049,
  "FlipAngle": 44,
  "ImageComments": "Unaliased MB8/PE3",
  "ImageOrientationPatientDICOM": [0.998184, -0.0434243, 0.0417386, 0.0397423, 0.99556, 0.0853257],
  "ImageType": [
    "ORIGINAL",
    "PRIMARY",
    "M",
    "MB",
    "ND",
    "NORM",
    "MOSAIC"
],
  "ImagingFrequency": 123.252,
  "InPlanePhaseEncodingDirectionDICOM": "COL",
  "InstitutionAddress": "Maynard 3,Hanover,NH,US,03755",
  "InstitutionName": "Dartmouth College - PBS",
  "InstitutionalDepartmentName": "Department",
  "MRAcquisitionType": "2D",
  "MagneticFieldStrength": 3,
  "Manufacturer": "Siemens",
  "ManufacturersModelName": "Prisma",
  "Modality": "MR",
  "MultibandAccelerationFactor": 8,
  "PartialFourier": 1,
  "PatientPosition": "HFS",
  "PercentPhaseFOV": 100,
  "PercentSampling": 100,
  "PhaseEncodingDirection": "j-",
  "PhaseEncodingSteps": 82,
  "PhaseResolution": 1,
  "PixelBandwidth": 3050,
  "ProcedureStepDescription": "Wager_Wager^1076_spacetop",
  "ProtocolName": "func_run-02_task-faces_acq-ap-mb8",
  "PulseSequenceDetails": "%CustomerSeq%\\cmrr_mbep2d_bold",
  "ReceiveCoilActiveElements": "HEA;HEP",
  "ReceiveCoilName": "Head_32",
  "ReconMatrixPE": 82,
  "RepetitionTime": 0.46,
  "SAR": 0.107332,
  "ScanOptions": "FS",
  "ScanningSequence": "EP",
  "SequenceName": "epfid2d1_82",
  "SequenceVariant": "SK\\SS",
  "SeriesDescription": "func_run-02_task-faces_acq-ap-mb8",
  "SeriesNumber": 18,
  "ShimSetting": [4179, -7741, -7255, 634, 27, -133, 117, 45],
  "SliceThickness": 2.7,
  "SliceTiming": [0, 0.2525, 0.0625, 0.315, 0.1275, 0.3775, 0.19, 0, 0.2525, 0.0625, 0.315, 0.1275, 0.3775, 0.19, 0, 0.2525, 0.0625, 0.315, 0.1275, 0.3775, 0.19, 0, 0.2525, 0.0625, 0.315, 0.1275, 0.3775, 0.19, 0, 0.2525, 0.0625, 0.315, 0.1275, 0.3775, 0.19, 0, 0.2525, 0.0625, 0.315, 0.1275, 0.3775, 0.19, 0, 0.2525, 0.0625, 0.315, 0.1275, 0.3775, 0.19, 0, 0.2525, 0.0625, 0.315, 0.1275, 0.3775, 0.19],
  "SoftwareVersions": "syngo MR E11",
  "SpacingBetweenSlices": 2.7,
  "StationName": "AWP66112",
  "TaskName": "faces",
  "TotalReadoutTime": 0.03969,
  "TxRefAmp": 270.888,
  "WipMemBlock": "bc71a725-ace3-4c90-8af7-2fa30f88f9bc||Sequence: R016 ve11c/master r/e634e98; Dec 19 2017 11:00:25 by eja",
  "dcmmeta_affine": [
    [-2.678056001663208, 0.10662558674812317, 0.12219785898923874, 104.92606353759766],
    [0.11650416254997253, 2.6710152626037598, 0.22548235952854156, -88.12508392333984],
    [0.11198154091835022, -0.22892256081104279, 2.6877918243408203, -53.51728439331055],
    [0.0, 0.0, 0.0, 1.0]
],
  "dcmmeta_reorient_transform": [
    [0.0, -1.0, 0.0, 81.0],
    [1.0, 0.0, 0.0, 0.0],
    [0.0, 0.0, 1.0, 0.0],
    [0.0, 0.0, 0.0, 1.0]
],
  "dcmmeta_shape": [82, 82, 56, 914],
  "dcmmeta_slice_dim": 2,
  "dcmmeta_version": 0.6,
  "global": {
    "const": {
      "AccessionNumber": "A003516",
      "AcquisitionMatrix": [82, 0, 0, 82],
      "AngioFlag": "N",
      "BitsAllocated": 16,
      "BitsStored": 16,
      "BodyPartExamined": "BRAIN",
      "Columns": 656,
      "EchoNumbers": 1,
      "EchoTime": 27.2,
      "EchoTrainLength": 82,
      "FlipAngle": 44.0,
      "HighBit": 15,
      "ImageOrientationPatient": [0.99818446371903, -0.0434242780845, 0.04173857284081, 0.03974226373446, 0.99556018446776, 0.08532567946275],
      "ImagePositionPatient": [-912.76633829899, -861.37181463059, -169.8994876557],
      "ImageType": [
        "ORIGINAL",
        "PRIMARY",
        "M",
        "MB",
        "ND",
        "NORM",
        "MOSAIC"
],
      "ImagedNucleus": "1H",
      "ImagingFrequency": 123.25246,
      "InPlanePhaseEncodingDirection": "COL",
      "MRAcquisitionType": "2D",
      "MagneticFieldStrength": 3.0,
      "Manufacturer": "SIEMENS",
      "ManufacturerModelName": "Prisma",
      "Modality": "MR",
      "NumberOfAverages": 1.0,
      "NumberOfPhaseEncodingSteps": 82,
      "PercentPhaseFieldOfView": 100.0,
      "PercentSampling": 100.0,
      "PerformedProcedureStepStartTime": "113628.296000",
      "PhotometricInterpretation": "MONOCHROME2",
      "PixelBandwidth": 3050.0,
      "PixelRepresentation": 0,
      "PixelSpacing": [2.6829268932343, 2.6829268932343],
      "ProtocolName": "func_run-02_task-faces_acq-ap-mb8",
      "RepetitionTime": 460.0,
      "Rows": 656,
      "SAR": 0.1073316669793,
      "SamplesPerPixel": 1,
      "ScanOptions": "FS",
      "ScanningSequence": "EP",
      "SequenceName": "epfid2d1_82",
      "SequenceVariant": [
        "SK",
        "SS"
],
      "SeriesDescription": "func_run-02_task-faces_acq-ap-mb8",
      "SeriesNumber": 18,
      "SeriesTime": "130011.017000",
      "SliceLocation": -55.886011917342,
      "SliceThickness": 2.7000000476837,
      "SmallestImagePixelValue": 0,
      "SoftwareVersions": "syngo MR E11",
      "SpacingBetweenSlices": 2.7000000102805,
      "SpecificCharacterSet": "ISO_IR 100",
      "StudyID": "1",
      "StudyTime": "113628.173000",
      "TransmitCoilName": "Body",
      "VariableFlipAngleFlag": "N",
      "WindowCenterWidthExplanation": "Algo1",
      "dBdt": 0.0},
    "slices": {}
  },
  "time": {
    "samples": {
      "AcquisitionNumber": [1, 2, 3, 4, 5, 6, 7, 8, 9, 10, 11, 12, 13, 14, 15, 16, 17, 18, 19, 20, 21, 22, 23, 24, 25, 26, 27, 28, 29, 30, 31, 32, 33, 34, 35, 36, 37, 38, 39, 40, 41, 42, 43, 44, 45, 46, 47, 48, 49, 50, 51, 52, 53, 54, 55, 56, 57, 58, 59, 60, 61, 62, 63, 64, 65, 66, 67, 68, 69, 70, 71, 72, 73, 74, 75, 76, 77, 78, 79, 80, 81, 82, 83, 84, 85, 86, 87, 88, 89, 90, 91, 92, 93, 94, 95, 96, 97, 98, 99, 100, 101, 102, 103, 104, 105, 106, 107, 108, 109, 110, 111, 112, 113, 114, 115, 116, 117, 118, 119, 120, 121, 122, 123, 124, 125, 126, 127, 128, 129, 130, 131, 132, 133, 134, 135, 136, 137, 138, 139, 140, 141, 142, 143, 144, 145, 146, 147, 148, 149, 150, 151, 152, 153, 154, 155, 156, 157, 158, 159, 160, 161, 162, 163, 164, 165, 166, 167, 168, 169, 170, 171, 172, 173, 174, 175, 176, 177, 178, 179, 180, 181, 182, 183, 184, 185, 186, 187, 188, 189, 190, 191, 192, 193, 194, 195, 196, 197, 198, 199, 200, 201, 202, 203, 204, 205, 206, 207, 208, 209, 210, 211, 212, 213, 214, 215, 216, 217, 218, 219, 220, 221, 222, 223, 224, 225, 226, 227, 228, 229, 230, 231, 232, 233, 234, 235, 236, 237, 238, 239, 240, 241, 242, 243, 244, 245, 246, 247, 248, 249, 250, 251, 252, 253, 254, 255, 256, 257, 258, 259, 260, 261, 262, 263, 264, 265, 266, 267, 268, 269, 270, 271, 272, 273, 274, 275, 276, 277, 278, 279, 280, 281, 282, 283, 284, 285, 286, 287, 288, 289, 290, 291, 292, 293, 294, 295, 296, 297, 298, 299, 300, 301, 302, 303, 304, 305, 306, 307, 308, 309, 310, 311, 312, 313, 314, 315, 316, 317, 318, 319, 320, 321, 322, 323, 324, 325, 326, 327, 328, 329, 330, 331, 332, 333, 334, 335, 336, 337, 338, 339, 340, 341, 342, 343, 344, 345, 346, 347, 348, 349, 350, 351, 352, 353, 354, 355, 356, 357, 358, 359, 360, 361, 362, 363, 364, 365, 366, 367, 368, 369, 370, 371, 372, 373, 374, 375, 376, 377, 378, 379, 380, 381, 382, 383, 384, 385, 386, 387, 388, 389, 390, 391, 392, 393, 394, 395, 396, 397, 398, 399, 400, 401, 402, 403, 404, 405, 406, 407, 408, 409, 410, 411, 412, 413, 414, 415, 416, 417, 418, 419, 420, 421, 422, 423, 424, 425, 426, 427, 428, 429, 430, 431, 432, 433, 434, 435, 436, 437, 438, 439, 440, 441, 442, 443, 444, 445, 446, 447, 448, 449, 450, 451, 452, 453, 454, 455, 456, 457, 458, 459, 460, 461, 462, 463, 464, 465, 466, 467, 468, 469, 470, 471, 472, 473, 474, 475, 476, 477, 478, 479, 480, 481, 482, 483, 484, 485, 486, 487, 488, 489, 490, 491, 492, 493, 494, 495, 496, 497, 498, 499, 500, 501, 502, 503, 504, 505, 506, 507, 508, 509, 510, 511, 512, 513, 514, 515, 516, 517, 518, 519, 520, 521, 522, 523, 524, 525, 526, 527, 528, 529, 530, 531, 532, 533, 534, 535, 536, 537, 538, 539, 540, 541, 542, 543, 544, 545, 546, 547, 548, 549, 550, 551, 552, 553, 554, 555, 556, 557, 558, 559, 560, 561, 562, 563, 564, 565, 566, 567, 568, 569, 570, 571, 572, 573, 574, 575, 576, 577, 578, 579, 580, 581, 582, 583, 584, 585, 586, 587, 588, 589, 590, 591, 592, 593, 594, 595, 596, 597, 598, 599, 600, 601, 602, 603, 604, 605, 606, 607, 608, 609, 610, 611, 612, 613, 614, 615, 616, 617, 618, 619, 620, 621, 622, 623, 624, 625, 626, 627, 628, 629, 630, 631, 632, 633, 634, 635, 636, 637, 638, 639, 640, 641, 642, 643, 644, 645, 646, 647, 648, 649, 650, 651, 652, 653, 654, 655, 656, 657, 658, 659, 660, 661, 662, 663, 664, 665, 666, 667, 668, 669, 670, 671, 672, 673, 674, 675, 676, 677, 678, 679, 680, 681, 682, 683, 684, 685, 686, 687, 688, 689, 690, 691, 692, 693, 694, 695, 696, 697, 698, 699, 700, 701, 702, 703, 704, 705, 706, 707, 708, 709, 710, 711, 712, 713, 714, 715, 716, 717, 718, 719, 720, 721, 722, 723, 724, 725, 726, 727, 728, 729, 730, 731, 732, 733, 734, 735, 736, 737, 738, 739, 740, 741, 742, 743, 744, 745, 746, 747, 748, 749, 750, 751, 752, 753, 754, 755, 756, 757, 758, 759, 760, 761, 762, 763, 764, 765, 766, 767, 768, 769, 770, 771, 772, 773, 774, 775, 776, 777, 778, 779, 780, 781, 782, 783, 784, 785, 786, 787, 788, 789, 790, 791, 792, 793, 794, 795, 796, 797, 798, 799, 800, 801, 802, 803, 804, 805, 806, 807, 808, 809, 810, 811, 812, 813, 814, 815, 816, 817, 818, 819, 820, 821, 822, 823, 824, 825, 826, 827, 828, 829, 830, 831, 832, 833, 834, 835, 836, 837, 838, 839, 840, 841, 842, 843, 844, 845, 846, 847, 848, 849, 850, 851, 852, 853, 854, 855, 856, 857, 858, 859, 860, 861, 862, 863, 864, 865, 866, 867, 868, 869, 870, 871, 872, 873, 874, 875, 876, 877, 878, 879, 880, 881, 882, 883, 884, 885, 886, 887, 888, 889, 890, 891, 892, 893, 894, 895, 896, 897, 898, 899, 900, 901, 902, 903, 904, 905, 906, 907, 908, 909, 910, 911, 912, 913, 914],
      "AcquisitionTime": ["125953.925000", "125954.385000", "125954.845000", "125955.305000", "125955.765000", "125956.225000", "125956.685000", "125957.145000", "125957.605000", "125958.065000", "125958.525000", "125958.985000", "125959.445000", "125959.905000", "130000.365000", "130000.825000", "130001.285000", "130001.745000", "130002.205000", "130002.665000", "130003.125000", "130003.585000", "130004.045000", "130004.505000", "130004.965000", "130005.425000", "130005.885000", "130006.345000", "130006.805000", "130007.265000", "130007.725000", "130008.185000", "130008.645000", "130009.105000", "130009.565000", "130010.025000", "130010.485000", "130010.945000", "130011.405000", "130011.865000", "130012.325000", "130012.785000", "130013.245000", "130013.705000", "130014.165000", "130014.625000", "130015.085000", "130015.545000", "130016.005000", "130016.465000", "130016.925000", "130017.385000", "130017.845000", "130018.305000", "130018.765000", "130019.225000", "130019.685000", "130020.145000", "130020.605000", "130021.065000", "130021.525000", "130021.985000", "130022.445000", "130022.905000", "130023.365000", "130023.825000", "130024.285000", "130024.745000", "130025.205000", "130025.665000", "130026.125000", "130026.585000", "130027.045000", "130027.505000", "130027.965000", "130028.425000", "130028.885000", "130029.345000", "130029.805000", "130030.265000", "130030.725000", "130031.185000", "130031.645000", "130032.105000", "130032.565000", "130033.025000", "130033.485000", "130033.945000", "130034.405000", "130034.865000", "130035.325000", "130035.785000", "130036.245000", "130036.705000", "130037.165000", "130037.625000", "130038.085000", "130038.545000", "130039.005000", "130039.465000", "130039.925000", "130040.385000", "130040.845000", "130041.305000", "130041.765000", "130042.225000", "130042.685000", "130043.145000", "130043.605000", "130044.065000", "130044.525000", "130044.985000", "130045.445000", "130045.905000", "130046.365000", "130046.825000", "130047.285000", "130047.745000", "130048.205000", "130048.665000", "130049.125000", "130049.585000", "130050.045000", "130050.505000", "130050.965000", "130051.425000", "130051.885000", "130052.345000", "130052.805000", "130053.265000", "130053.725000", "130054.185000", "130054.645000", "130055.105000", "130055.565000", "130056.025000", "130056.485000", "130056.945000", "130057.405000", "130057.865000", "130058.325000", "130058.785000", "130059.245000", "130059.705000", "130100.165000", "130100.625000", "130101.085000", "130101.545000", "130102.005000", "130102.465000", "130102.925000", "130103.385000", "130103.845000", "130104.305000", "130104.765000", "130105.225000", "130105.685000", "130106.145000", "130106.605000", "130107.065000", "130107.525000", "130107.985000", "130108.445000", "130108.905000", "130109.365000", "130109.825000", "130110.285000", "130110.745000", "130111.205000", "130111.665000", "130112.125000", "130112.585000", "130113.045000", "130113.505000", "130113.965000", "130114.425000", "130114.885000", "130115.345000", "130115.805000", "130116.265000", "130116.725000", "130117.185000", "130117.645000", "130118.105000", "130118.565000", "130119.025000", "130119.485000", "130119.945000", "130120.405000", "130120.865000", "130121.325000", "130121.785000", "130122.245000", "130122.705000", "130123.165000", "130123.625000", "130124.085000", "130124.545000", "130125.005000", "130125.465000", "130125.925000", "130126.385000", "130126.845000", "130127.305000", "130127.765000", "130128.225000", "130128.685000", "130129.145000", "130129.605000", "130130.065000", "130130.525000", "130130.985000", "130131.445000", "130131.905000", "130132.365000", "130132.825000", "130133.285000", "130133.745000", "130134.205000", "130134.665000", "130135.125000", "130135.585000", "130136.045000", "130136.505000", "130136.965000", "130137.425000", "130137.885000", "130138.345000", "130138.805000", "130139.265000", "130139.725000", "130140.185000", "130140.645000", "130141.105000", "130141.565000", "130142.025000", "130142.485000", "130142.945000", "130143.405000", "130143.865000", "130144.325000", "130144.785000", "130145.245000", "130145.705000", "130146.165000", "130146.625000", "130147.085000", "130147.545000", "130148.005000", "130148.465000", "130148.925000", "130149.385000", "130149.845000", "130150.305000", "130150.765000", "130151.225000", "130151.685000", "130152.145000", "130152.605000", "130153.065000", "130153.525000", "130153.985000", "130154.445000", "130154.905000", "130155.365000", "130155.825000", "130156.285000", "130156.745000", "130157.205000", "130157.665000", "130158.125000", "130158.585000", "130159.045000", "130159.505000", "130159.965000", "130200.425000", "130200.885000", "130201.345000", "130201.805000", "130202.265000", "130202.725000", "130203.185000", "130203.645000", "130204.105000", "130204.565000", "130205.025000", "130205.485000", "130205.945000", "130206.405000", "130206.865000", "130207.325000", "130207.785000", "130208.245000", "130208.705000", "130209.165000", "130209.625000", "130210.085000", "130210.545000", "130211.005000", "130211.465000", "130211.925000", "130212.385000", "130212.845000", "130213.305000", "130213.765000", "130214.225000", "130214.685000", "130215.145000", "130215.605000", "130216.065000", "130216.525000", "130216.985000", "130217.445000", "130217.905000", "130218.365000", "130218.825000", "130219.285000", "130219.745000", "130220.205000", "130220.665000", "130221.125000", "130221.585000", "130222.045000", "130222.505000", "130222.965000", "130223.425000", "130223.885000", "130224.345000", "130224.805000", "130225.265000", "130225.725000", "130226.185000", "130226.645000", "130227.105000", "130227.565000", "130228.025000", "130228.485000", "130228.945000", "130229.405000", "130229.865000", "130230.325000", "130230.785000", "130231.245000", "130231.705000", "130232.165000", "130232.625000", "130233.085000", "130233.545000", "130234.005000", "130234.465000", "130234.925000", "130235.385000", "130235.845000", "130236.305000", "130236.765000", "130237.225000", "130237.685000", "130238.145000", "130238.605000", "130239.065000", "130239.525000", "130239.985000", "130240.445000", "130240.905000", "130241.365000", "130241.825000", "130242.285000", "130242.745000", "130243.205000", "130243.665000", "130244.125000", "130244.585000", "130245.045000", "130245.505000", "130245.965000", "130246.425000", "130246.885000", "130247.345000", "130247.805000", "130248.265000", "130248.725000", "130249.185000", "130249.645000", "130250.105000", "130250.565000", "130251.025000", "130251.485000", "130251.945000", "130252.405000", "130252.865000", "130253.325000", "130253.785000", "130254.245000", "130254.705000", "130255.165000", "130255.625000", "130256.085000", "130256.545000", "130257.005000", "130257.465000", "130257.925000", "130258.385000", "130258.845000", "130259.305000", "130259.765000", "130300.225000", "130300.685000", "130301.145000", "130301.605000", "130302.065000", "130302.525000", "130302.985000", "130303.445000", "130303.905000", "130304.365000", "130304.825000", "130305.285000", "130305.745000", "130306.205000", "130306.665000", "130307.125000", "130307.585000", "130308.045000", "130308.505000", "130308.965000", "130309.425000", "130309.885000", "130310.345000", "130310.805000", "130311.265000", "130311.725000", "130312.185000", "130312.645000", "130313.105000", "130313.565000", "130314.025000", "130314.485000", "130314.945000", "130315.405000", "130315.865000", "130316.325000", "130316.785000", "130317.245000", "130317.705000", "130318.165000", "130318.625000", "130319.085000", "130319.545000", "130320.005000", "130320.465000", "130320.925000", "130321.385000", "130321.845000", "130322.305000", "130322.765000", "130323.225000", "130323.685000", "130324.145000", "130324.605000", "130325.065000", "130325.525000", "130325.985000", "130326.445000", "130326.905000", "130327.365000", "130327.825000", "130328.285000", "130328.745000", "130329.205000", "130329.665000", "130330.125000", "130330.585000", "130331.045000", "130331.505000", "130331.965000", "130332.425000", "130332.885000", "130333.345000", "130333.805000", "130334.265000", "130334.725000", "130335.185000", "130335.645000", "130336.105000", "130336.565000", "130337.025000", "130337.485000", "130337.945000", "130338.405000", "130338.865000", "130339.325000", "130339.785000", "130340.245000", "130340.705000", "130341.165000", "130341.625000", "130342.085000", "130342.545000", "130343.005000", "130343.465000", "130343.925000", "130344.385000", "130344.845000", "130345.305000", "130345.765000", "130346.225000", "130346.685000", "130347.145000", "130347.605000", "130348.065000", "130348.525000", "130348.985000", "130349.445000", "130349.905000", "130350.365000", "130350.825000", "130351.285000", "130351.745000", "130352.205000", "130352.665000", "130353.125000", "130353.585000", "130354.045000", "130354.505000", "130354.965000", "130355.425000", "130355.885000", "130356.345000", "130356.805000", "130357.265000", "130357.725000", "130358.185000", "130358.645000", "130359.105000", "130359.565000", "130400.025000", "130400.485000", "130400.945000", "130401.405000", "130401.865000", "130402.325000", "130402.785000", "130403.245000", "130403.705000", "130404.165000", "130404.625000", "130405.085000", "130405.545000", "130406.005000", "130406.465000", "130406.925000", "130407.385000", "130407.845000", "130408.305000", "130408.765000", "130409.225000", "130409.685000", "130410.145000", "130410.605000", "130411.065000", "130411.525000", "130411.985000", "130412.445000", "130412.905000", "130413.365000", "130413.825000", "130414.285000", "130414.745000", "130415.205000", "130415.665000", "130416.125000", "130416.585000", "130417.045000", "130417.505000", "130417.965000", "130418.425000", "130418.885000", "130419.345000", "130419.805000", "130420.265000", "130420.725000", "130421.185000", "130421.645000", "130422.105000", "130422.565000", "130423.025000", "130423.485000", "130423.945000", "130424.405000", "130424.865000", "130425.325000", "130425.785000", "130426.245000", "130426.705000", "130427.165000", "130427.625000", "130428.085000", "130428.545000", "130429.005000", "130429.465000", "130429.925000", "130430.385000", "130430.845000", "130431.305000", "130431.765000", "130432.225000", "130432.685000", "130433.145000", "130433.605000", "130434.065000", "130434.525000", "130434.985000", "130435.445000", "130435.905000", "130436.365000", "130436.825000", "130437.285000", "130437.745000", "130438.205000", "130438.665000", "130439.125000", "130439.585000", "130440.045000", "130440.505000", "130440.965000", "130441.425000", "130441.885000", "130442.345000", "130442.805000", "130443.265000", "130443.725000", "130444.185000", "130444.645000", "130445.105000", "130445.565000", "130446.025000", "130446.485000", "130446.945000", "130447.405000", "130447.865000", "130448.325000", "130448.785000", "130449.245000", "130449.705000", "130450.165000", "130450.625000", "130451.085000", "130451.545000", "130452.005000", "130452.465000", "130452.925000", "130453.385000", "130453.845000", "130454.305000", "130454.765000", "130455.225000", "130455.685000", "130456.145000", "130456.605000", "130457.065000", "130457.525000", "130457.985000", "130458.445000", "130458.905000", "130459.365000", "130459.825000", "130500.285000", "130500.745000", "130501.205000", "130501.665000", "130502.125000", "130502.585000", "130503.045000", "130503.505000", "130503.965000", "130504.425000", "130504.885000", "130505.345000", "130505.805000", "130506.265000", "130506.725000", "130507.185000", "130507.645000", "130508.105000", "130508.565000", "130509.025000", "130509.485000", "130509.945000", "130510.405000", "130510.865000", "130511.325000", "130511.785000", "130512.245000", "130512.705000", "130513.165000", "130513.625000", "130514.085000", "130514.545000", "130515.005000", "130515.465000", "130515.925000", "130516.385000", "130516.845000", "130517.305000", "130517.765000", "130518.225000", "130518.685000", "130519.145000", "130519.605000", "130520.065000", "130520.525000", "130520.985000", "130521.445000", "130521.905000", "130522.365000", "130522.825000", "130523.285000", "130523.745000", "130524.205000", "130524.665000", "130525.125000", "130525.585000", "130526.045000", "130526.505000", "130526.965000", "130527.425000", "130527.885000", "130528.345000", "130528.805000", "130529.265000", "130529.725000", "130530.185000", "130530.645000", "130531.105000", "130531.565000", "130532.025000", "130532.485000", "130532.945000", "130533.405000", "130533.865000", "130534.325000", "130534.785000", "130535.245000", "130535.705000", "130536.165000", "130536.625000", "130537.085000", "130537.545000", "130538.005000", "130538.465000", "130538.925000", "130539.385000", "130539.845000", "130540.305000", "130540.765000", "130541.225000", "130541.685000", "130542.145000", "130542.605000", "130543.065000", "130543.525000", "130543.985000", "130544.445000", "130544.905000", "130545.365000", "130545.825000", "130546.285000", "130546.745000", "130547.205000", "130547.665000", "130548.125000", "130548.585000", "130549.045000", "130549.505000", "130549.965000", "130550.425000", "130550.885000", "130551.345000", "130551.805000", "130552.265000", "130552.725000", "130553.185000", "130553.645000", "130554.105000", "130554.565000", "130555.025000", "130555.485000", "130555.945000", "130556.405000", "130556.865000", "130557.325000", "130557.785000", "130558.245000", "130558.705000", "130559.165000", "130559.625000", "130600.085000", "130600.545000", "130601.005000", "130601.465000", "130601.925000", "130602.385000", "130602.845000", "130603.305000", "130603.765000", "130604.225000", "130604.685000", "130605.145000", "130605.605000", "130606.065000", "130606.525000", "130606.985000", "130607.445000", "130607.905000", "130608.365000", "130608.825000", "130609.285000", "130609.745000", "130610.205000", "130610.665000", "130611.125000", "130611.585000", "130612.045000", "130612.505000", "130612.965000", "130613.425000", "130613.885000", "130614.345000", "130614.805000", "130615.265000", "130615.725000", "130616.185000", "130616.645000", "130617.105000", "130617.565000", "130618.025000", "130618.485000", "130618.945000", "130619.405000", "130619.865000", "130620.325000", "130620.785000", "130621.245000", "130621.705000", "130622.165000", "130622.625000", "130623.085000", "130623.545000", "130624.005000", "130624.465000", "130624.925000", "130625.385000", "130625.845000", "130626.305000", "130626.765000", "130627.225000", "130627.685000", "130628.145000", "130628.605000", "130629.065000", "130629.525000", "130629.985000", "130630.445000", "130630.905000", "130631.365000", "130631.825000", "130632.285000", "130632.745000", "130633.205000", "130633.665000", "130634.125000", "130634.585000", "130635.045000", "130635.505000", "130635.965000", "130636.425000", "130636.885000", "130637.345000", "130637.805000", "130638.265000", "130638.725000", "130639.185000", "130639.645000", "130640.105000", "130640.565000", "130641.025000", "130641.485000", "130641.945000", "130642.405000", "130642.865000", "130643.325000", "130643.785000", "130644.245000", "130644.705000", "130645.165000", "130645.625000", "130646.085000", "130646.545000", "130647.005000", "130647.465000", "130647.925000", "130648.385000", "130648.845000", "130649.305000", "130649.765000", "130650.225000", "130650.685000", "130651.145000", "130651.605000", "130652.065000", "130652.525000", "130652.985000", "130653.445000", "130653.905000"],
