{
  "AcquisitionMatrixPE": 82,
  "AcquisitionNumber": 1,
  "AcquisitionTime": "18:16:26.420000",
  "BandwidthPerPixelPhaseEncode": 24.888,
  "BaseResolution": 82,
  "BodyPartExamined": "BRAIN",
  "ConsistencyInfo": "N4_VE11E_LATEST_20181129",
  "ConversionSoftware": "dcm2niix",
  "ConversionSoftwareVersion": "v1.0.20201102",
  "DerivedVendorReportedEchoSpacing": 0.00049,
  "DeviceSerialNumber": "66112",
  "DwellTime": 2e-06,
  "EchoTime": 0.0272,
  "EchoTrainLength": 82,
  "EffectiveEchoSpacing": 0.00049,
  "FlipAngle": 44,
  "ImageComments": "Unaliased MB8/PE3",
  "ImageOrientationPatientDICOM": [0.999219, -0.0376426, 0.0120395, 0.0383861, 0.996876, -0.0690246],
  "ImageType": [
    "ORIGINAL",
    "PRIMARY",
    "M",
    "MB",
    "ND",
    "NORM",
    "MOSAIC"
],
  "ImagingFrequency": 123.252,
  "InPlanePhaseEncodingDirectionDICOM": "COL",
  "InstitutionAddress": "Maynard 3,Hanover,NH,US,03755",
  "InstitutionName": "Dartmouth College - PBS",
  "InstitutionalDepartmentName": "Department",
  "MRAcquisitionType": "2D",
  "MagneticFieldStrength": 3,
  "Manufacturer": "Siemens",
  "ManufacturersModelName": "Prisma",
  "Modality": "MR",
  "MultibandAccelerationFactor": 8,
  "PartialFourier": 1,
  "PatientPosition": "HFS",
  "PercentPhaseFOV": 100,
  "PercentSampling": 100,
  "PhaseEncodingDirection": "j-",
  "PhaseEncodingSteps": 82,
  "PhaseResolution": 1,
  "PixelBandwidth": 3050,
  "ProcedureStepDescription": "Wager_Wager^1076_spacetop",
  "ProtocolName": "func_run-02_task-social_acq-ap-mb8",
  "PulseSequenceDetails": "%CustomerSeq%\\cmrr_mbep2d_bold",
  "ReceiveCoilActiveElements": "HEA;HEP",
  "ReceiveCoilName": "Head_32",
  "ReconMatrixPE": 82,
  "RepetitionTime": 0.46,
  "SAR": 0.0866508,
  "ScanOptions": "FS",
  "ScanningSequence": "EP",
  "SequenceName": "epfid2d1_82",
  "SequenceVariant": "SK\\SS",
  "SeriesDescription": "func_run-02_task-social_acq-ap-mb8",
  "SeriesNumber": 12,
  "ShimSetting": [4150, -7710, -7285, 532, -77, -47, 35, 68],
  "SliceThickness": 2.7,
  "SliceTiming": [0, 0.2525, 0.065, 0.315, 0.1275, 0.3775, 0.19, 0, 0.2525, 0.065, 0.315, 0.1275, 0.3775, 0.19, 0, 0.2525, 0.065, 0.315, 0.1275, 0.3775, 0.19, 0, 0.2525, 0.065, 0.315, 0.1275, 0.3775, 0.19, 0, 0.2525, 0.065, 0.315, 0.1275, 0.3775, 0.19, 0, 0.2525, 0.065, 0.315, 0.1275, 0.3775, 0.19, 0, 0.2525, 0.065, 0.315, 0.1275, 0.3775, 0.19, 0, 0.2525, 0.065, 0.315, 0.1275, 0.3775, 0.19],
  "SoftwareVersions": "syngo MR E11",
  "SpacingBetweenSlices": 2.7,
  "StationName": "AWP66112",
  "TaskName": "social",
  "TotalReadoutTime": 0.03969,
  "TxRefAmp": 235.208,
  "WipMemBlock": "82020143-df9d-46d3-92d1-066fb5c6c0ae||Sequence: R016 ve11e/master r/434b28f1; Aug  7 2019 18:53:46 by eja",
  "dcmmeta_affine": [
    [-2.680830717086792, 0.10298696905374527, 0.025389792397618294, 105.3679428100586],
    [0.10099242627620697, 2.674546003341675, -0.18746863305568695, -87.3620834350586],
    [0.03230110928416252, 0.18518796563148499, 2.693364143371582, -79.38897705078125],
    [0.0, 0.0, 0.0, 1.0]
],
  "dcmmeta_reorient_transform": [
    [0.0, -1.0, 0.0, 81.0],
    [1.0, 0.0, 0.0, 0.0],
    [0.0, 0.0, 1.0, 0.0],
    [0.0, 0.0, 0.0, 1.0]
],
  "dcmmeta_shape": [82, 82, 56, 872],
  "dcmmeta_slice_dim": 2,
  "dcmmeta_version": 0.6,
  "global": {
    "const": {
      "AccessionNumber": "A004018",
      "AcquisitionMatrix": [82, 0, 0, 82],
      "AngioFlag": "N",
      "BitsAllocated": 16,
      "BitsStored": 16,
      "BodyPartExamined": "BRAIN",
      "Columns": 656,
      "EchoNumbers": 1,
      "EchoTime": 27.2,
      "EchoTrainLength": 82,
      "FlipAngle": 44.0,
      "HighBit": 15,
      "ImageOrientationPatient": [0.99921873621279, -0.0376426294221, 0.01203950378989, 0.03838605215727, 0.99687617853407, -0.0690246019263],
      "ImagePositionPatient": [-912.66559314736, -867.88598417045, -20.510224565942],
      "ImageType": [
        "ORIGINAL",
        "PRIMARY",
        "M",
        "MB",
        "ND",
        "NORM",
        "MOSAIC"
],
      "ImagedNucleus": "1H",
      "ImagingFrequency": 123.252222,
      "InPlanePhaseEncodingDirection": "COL",
      "MRAcquisitionType": "2D",
      "MagneticFieldStrength": 3.0,
      "Manufacturer": "SIEMENS",
      "ManufacturerModelName": "Prisma",
      "Modality": "MR",
      "NumberOfAverages": 1.0,
      "NumberOfPhaseEncodingSteps": 82,
      "PercentPhaseFieldOfView": 100.0,
      "PercentSampling": 100.0,
      "PerformedProcedureStepStartTime": "173519.458000",
      "PhotometricInterpretation": "MONOCHROME2",
      "PixelBandwidth": 3050.0,
      "PixelRepresentation": 0,
      "PixelSpacing": [2.6829268932343, 2.6829268932343],
      "ProtocolName": "func_run-02_task-social_acq-ap-mb8",
      "RepetitionTime": 460.0,
      "Rows": 656,
      "SAR": 0.08665084627566,
      "SamplesPerPixel": 1,
      "ScanOptions": "FS",
      "ScanningSequence": "EP",
      "SequenceName": "epfid2d1_82",
      "SequenceVariant": [
        "SK",
        "SS"
],
      "SeriesDescription": "func_run-02_task-social_acq-ap-mb8",
      "SeriesNumber": 12,
      "SeriesTime": "181655.191000",
      "SliceLocation": -72.137225151105,
      "SliceThickness": 2.7000000476837,
      "SmallestImagePixelValue": 0,
      "SoftwareVersions": "syngo MR E11",
      "SpacingBetweenSlices": 2.7000000010038,
      "SpecificCharacterSet": "ISO_IR 100",
      "StudyID": "4",
      "StudyTime": "173519.363000",
      "TransmitCoilName": "Body",
      "VariableFlipAngleFlag": "N",
      "WindowCenterWidthExplanation": "Algo1"
    },
    "slices": {}
  },
  "time": {
    "samples": {
      "AcquisitionNumber": [1, 2, 3, 4, 5, 6, 7, 8, 9, 10, 11, 12, 13, 14, 15, 16, 17, 18, 19, 20, 21, 22, 23, 24, 25, 26, 27, 28, 29, 30, 31, 32, 33, 34, 35, 36, 37, 38, 39, 40, 41, 42, 43, 44, 45, 46, 47, 48, 49, 50, 51, 52, 53, 54, 55, 56, 57, 58, 59, 60, 61, 62, 63, 64, 65, 66, 67, 68, 69, 70, 71, 72, 73, 74, 75, 76, 77, 78, 79, 80, 81, 82, 83, 84, 85, 86, 87, 88, 89, 90, 91, 92, 93, 94, 95, 96, 97, 98, 99, 100, 101, 102, 103, 104, 105, 106, 107, 108, 109, 110, 111, 112, 113, 114, 115, 116, 117, 118, 119, 120, 121, 122, 123, 124, 125, 126, 127, 128, 129, 130, 131, 132, 133, 134, 135, 136, 137, 138, 139, 140, 141, 142, 143, 144, 145, 146, 147, 148, 149, 150, 151, 152, 153, 154, 155, 156, 157, 158, 159, 160, 161, 162, 163, 164, 165, 166, 167, 168, 169, 170, 171, 172, 173, 174, 175, 176, 177, 178, 179, 180, 181, 182, 183, 184, 185, 186, 187, 188, 189, 190, 191, 192, 193, 194, 195, 196, 197, 198, 199, 200, 201, 202, 203, 204, 205, 206, 207, 208, 209, 210, 211, 212, 213, 214, 215, 216, 217, 218, 219, 220, 221, 222, 223, 224, 225, 226, 227, 228, 229, 230, 231, 232, 233, 234, 235, 236, 237, 238, 239, 240, 241, 242, 243, 244, 245, 246, 247, 248, 249, 250, 251, 252, 253, 254, 255, 256, 257, 258, 259, 260, 261, 262, 263, 264, 265, 266, 267, 268, 269, 270, 271, 272, 273, 274, 275, 276, 277, 278, 279, 280, 281, 282, 283, 284, 285, 286, 287, 288, 289, 290, 291, 292, 293, 294, 295, 296, 297, 298, 299, 300, 301, 302, 303, 304, 305, 306, 307, 308, 309, 310, 311, 312, 313, 314, 315, 316, 317, 318, 319, 320, 321, 322, 323, 324, 325, 326, 327, 328, 329, 330, 331, 332, 333, 334, 335, 336, 337, 338, 339, 340, 341, 342, 343, 344, 345, 346, 347, 348, 349, 350, 351, 352, 353, 354, 355, 356, 357, 358, 359, 360, 361, 362, 363, 364, 365, 366, 367, 368, 369, 370, 371, 372, 373, 374, 375, 376, 377, 378, 379, 380, 381, 382, 383, 384, 385, 386, 387, 388, 389, 390, 391, 392, 393, 394, 395, 396, 397, 398, 399, 400, 401, 402, 403, 404, 405, 406, 407, 408, 409, 410, 411, 412, 413, 414, 415, 416, 417, 418, 419, 420, 421, 422, 423, 424, 425, 426, 427, 428, 429, 430, 431, 432, 433, 434, 435, 436, 437, 438, 439, 440, 441, 442, 443, 444, 445, 446, 447, 448, 449, 450, 451, 452, 453, 454, 455, 456, 457, 458, 459, 460, 461, 462, 463, 464, 465, 466, 467, 468, 469, 470, 471, 472, 473, 474, 475, 476, 477, 478, 479, 480, 481, 482, 483, 484, 485, 486, 487, 488, 489, 490, 491, 492, 493, 494, 495, 496, 497, 498, 499, 500, 501, 502, 503, 504, 505, 506, 507, 508, 509, 510, 511, 512, 513, 514, 515, 516, 517, 518, 519, 520, 521, 522, 523, 524, 525, 526, 527, 528, 529, 530, 531, 532, 533, 534, 535, 536, 537, 538, 539, 540, 541, 542, 543, 544, 545, 546, 547, 548, 549, 550, 551, 552, 553, 554, 555, 556, 557, 558, 559, 560, 561, 562, 563, 564, 565, 566, 567, 568, 569, 570, 571, 572, 573, 574, 575, 576, 577, 578, 579, 580, 581, 582, 583, 584, 585, 586, 587, 588, 589, 590, 591, 592, 593, 594, 595, 596, 597, 598, 599, 600, 601, 602, 603, 604, 605, 606, 607, 608, 609, 610, 611, 612, 613, 614, 615, 616, 617, 618, 619, 620, 621, 622, 623, 624, 625, 626, 627, 628, 629, 630, 631, 632, 633, 634, 635, 636, 637, 638, 639, 640, 641, 642, 643, 644, 645, 646, 647, 648, 649, 650, 651, 652, 653, 654, 655, 656, 657, 658, 659, 660, 661, 662, 663, 664, 665, 666, 667, 668, 669, 670, 671, 672, 673, 674, 675, 676, 677, 678, 679, 680, 681, 682, 683, 684, 685, 686, 687, 688, 689, 690, 691, 692, 693, 694, 695, 696, 697, 698, 699, 700, 701, 702, 703, 704, 705, 706, 707, 708, 709, 710, 711, 712, 713, 714, 715, 716, 717, 718, 719, 720, 721, 722, 723, 724, 725, 726, 727, 728, 729, 730, 731, 732, 733, 734, 735, 736, 737, 738, 739, 740, 741, 742, 743, 744, 745, 746, 747, 748, 749, 750, 751, 752, 753, 754, 755, 756, 757, 758, 759, 760, 761, 762, 763, 764, 765, 766, 767, 768, 769, 770, 771, 772, 773, 774, 775, 776, 777, 778, 779, 780, 781, 782, 783, 784, 785, 786, 787, 788, 789, 790, 791, 792, 793, 794, 795, 796, 797, 798, 799, 800, 801, 802, 803, 804, 805, 806, 807, 808, 809, 810, 811, 812, 813, 814, 815, 816, 817, 818, 819, 820, 821, 822, 823, 824, 825, 826, 827, 828, 829, 830, 831, 832, 833, 834, 835, 836, 837, 838, 839, 840, 841, 842, 843, 844, 845, 846, 847, 848, 849, 850, 851, 852, 853, 854, 855, 856, 857, 858, 859, 860, 861, 862, 863, 864, 865, 866, 867, 868, 869, 870, 871, 872],
      "AcquisitionTime": ["181626.420000", "181626.880000", "181627.340000", "181627.800000", "181628.260000", "181628.720000", "181629.180000", "181629.640000", "181630.100000", "181630.560000", "181631.020000", "181631.480000", "181631.940000", "181632.400000", "181632.860000", "181633.320000", "181633.780000", "181634.240000", "181634.700000", "181635.160000", "181635.620000", "181636.080000", "181636.540000", "181637.000000", "181637.460000", "181637.920000", "181638.380000", "181638.840000", "181639.300000", "181639.760000", "181640.220000", "181640.680000", "181641.140000", "181641.600000", "181642.060000", "181642.520000", "181642.980000", "181643.440000", "181643.900000", "181644.360000", "181644.820000", "181645.280000", "181645.740000", "181646.200000", "181646.660000", "181647.120000", "181647.580000", "181648.040000", "181648.500000", "181648.960000", "181649.420000", "181649.880000", "181650.340000", "181650.800000", "181651.260000", "181651.720000", "181652.180000", "181652.640000", "181653.100000", "181653.560000", "181654.020000", "181654.480000", "181654.940000", "181655.400000", "181655.860000", "181656.320000", "181656.780000", "181657.240000", "181657.700000", "181658.160000", "181658.620000", "181659.080000", "181659.540000", "181700.000000", "181700.460000", "181700.920000", "181701.380000", "181701.840000", "181702.300000", "181702.760000", "181703.220000", "181703.680000", "181704.140000", "181704.600000", "181705.060000", "181705.520000", "181705.980000", "181706.440000", "181706.900000", "181707.360000", "181707.820000", "181708.280000", "181708.740000", "181709.200000", "181709.660000", "181710.120000", "181710.580000", "181711.040000", "181711.500000", "181711.960000", "181712.420000", "181712.880000", "181713.340000", "181713.800000", "181714.260000", "181714.720000", "181715.180000", "181715.640000", "181716.100000", "181716.560000", "181717.020000", "181717.480000", "181717.940000", "181718.400000", "181718.860000", "181719.320000", "181719.780000", "181720.240000", "181720.700000", "181721.160000", "181721.620000", "181722.080000", "181722.540000", "181723.000000", "181723.460000", "181723.920000", "181724.380000", "181724.840000", "181725.300000", "181725.760000", "181726.220000", "181726.680000", "181727.140000", "181727.600000", "181728.060000", "181728.520000", "181728.980000", "181729.440000", "181729.900000", "181730.360000", "181730.820000", "181731.280000", "181731.740000", "181732.200000", "181732.660000", "181733.120000", "181733.580000", "181734.040000", "181734.500000", "181734.960000", "181735.420000", "181735.880000", "181736.340000", "181736.800000", "181737.260000", "181737.720000", "181738.180000", "181738.640000", "181739.100000", "181739.560000", "181740.020000", "181740.480000", "181740.940000", "181741.400000", "181741.860000", "181742.320000", "181742.780000", "181743.240000", "181743.700000", "181744.160000", "181744.620000", "181745.080000", "181745.540000", "181746.000000", "181746.460000", "181746.920000", "181747.380000", "181747.840000", "181748.300000", "181748.760000", "181749.220000", "181749.680000", "181750.140000", "181750.600000", "181751.060000", "181751.520000", "181751.980000", "181752.440000", "181752.900000", "181753.360000", "181753.820000", "181754.280000", "181754.740000", "181755.200000", "181755.660000", "181756.120000", "181756.580000", "181757.040000", "181757.500000", "181757.960000", "181758.420000", "181758.880000", "181759.340000", "181759.800000", "181800.260000", "181800.720000", "181801.180000", "181801.640000", "181802.100000", "181802.560000", "181803.020000", "181803.480000", "181803.940000", "181804.400000", "181804.860000", "181805.320000", "181805.780000", "181806.240000", "181806.700000", "181807.160000", "181807.620000", "181808.080000", "181808.540000", "181809.000000", "181809.460000", "181809.920000", "181810.380000", "181810.840000", "181811.300000", "181811.760000", "181812.220000", "181812.680000", "181813.140000", "181813.600000", "181814.060000", "181814.520000", "181814.980000", "181815.440000", "181815.900000", "181816.360000", "181816.820000", "181817.280000", "181817.740000", "181818.200000", "181818.660000", "181819.120000", "181819.580000", "181820.040000", "181820.500000", "181820.960000", "181821.420000", "181821.880000", "181822.340000", "181822.800000", "181823.260000", "181823.720000", "181824.180000", "181824.640000", "181825.100000", "181825.560000", "181826.020000", "181826.480000", "181826.940000", "181827.400000", "181827.860000", "181828.320000", "181828.780000", "181829.240000", "181829.700000", "181830.160000", "181830.620000", "181831.080000", "181831.540000", "181832.000000", "181832.460000", "181832.920000", "181833.380000", "181833.840000", "181834.300000", "181834.760000", "181835.220000", "181835.680000", "181836.140000", "181836.600000", "181837.060000", "181837.520000", "181837.980000", "181838.440000", "181838.900000", "181839.360000", "181839.820000", "181840.280000", "181840.740000", "181841.200000", "181841.660000", "181842.120000", "181842.580000", "181843.040000", "181843.500000", "181843.960000", "181844.420000", "181844.880000", "181845.340000", "181845.800000", "181846.260000", "181846.720000", "181847.180000", "181847.640000", "181848.100000", "181848.560000", "181849.020000", "181849.480000", "181849.940000", "181850.400000", "181850.860000", "181851.320000", "181851.780000", "181852.240000", "181852.700000", "181853.160000", "181853.620000", "181854.080000", "181854.540000", "181855.000000", "181855.460000", "181855.920000", "181856.380000", "181856.840000", "181857.300000", "181857.760000", "181858.220000", "181858.680000", "181859.140000", "181859.600000", "181900.060000", "181900.520000", "181900.980000", "181901.440000", "181901.900000", "181902.360000", "181902.820000", "181903.280000", "181903.740000", "181904.200000", "181904.660000", "181905.120000", "181905.580000", "181906.040000", "181906.500000", "181906.960000", "181907.420000", "181907.880000", "181908.340000", "181908.800000", "181909.260000", "181909.720000", "181910.180000", "181910.640000", "181911.100000", "181911.560000", "181912.020000", "181912.480000", "181912.940000", "181913.400000", "181913.860000", "181914.320000", "181914.780000", "181915.240000", "181915.700000", "181916.160000", "181916.620000", "181917.080000", "181917.540000", "181918.000000", "181918.460000", "181918.920000", "181919.380000", "181919.840000", "181920.300000", "181920.760000", "181921.220000", "181921.680000", "181922.140000", "181922.600000", "181923.060000", "181923.520000", "181923.980000", "181924.440000", "181924.900000", "181925.360000", "181925.820000", "181926.280000", "181926.740000", "181927.200000", "181927.660000", "181928.120000", "181928.580000", "181929.040000", "181929.500000", "181929.960000", "181930.420000", "181930.880000", "181931.340000", "181931.800000", "181932.260000", "181932.720000", "181933.180000", "181933.640000", "181934.100000", "181934.560000", "181935.020000", "181935.480000", "181935.940000", "181936.400000", "181936.860000", "181937.320000", "181937.780000", "181938.240000", "181938.700000", "181939.160000", "181939.620000", "181940.080000", "181940.540000", "181941.000000", "181941.460000", "181941.920000", "181942.380000", "181942.840000", "181943.300000", "181943.760000", "181944.220000", "181944.680000", "181945.140000", "181945.600000", "181946.060000", "181946.520000", "181946.980000", "181947.440000", "181947.900000", "181948.360000", "181948.820000", "181949.280000", "181949.740000", "181950.200000", "181950.660000", "181951.120000", "181951.580000", "181952.040000", "181952.500000", "181952.960000", "181953.420000", "181953.880000", "181954.340000", "181954.800000", "181955.260000", "181955.720000", "181956.180000", "181956.640000", "181957.100000", "181957.560000", "181958.020000", "181958.480000", "181958.940000", "181959.400000", "181959.860000", "182000.320000", "182000.780000", "182001.240000", "182001.700000", "182002.160000", "182002.620000", "182003.080000", "182003.540000", "182004.000000", "182004.460000", "182004.920000", "182005.380000", "182005.840000", "182006.300000", "182006.760000", "182007.220000", "182007.680000", "182008.140000", "182008.600000", "182009.060000", "182009.520000", "182009.980000", "182010.440000", "182010.900000", "182011.360000", "182011.820000", "182012.280000", "182012.740000", "182013.200000", "182013.660000", "182014.120000", "182014.580000", "182015.040000", "182015.500000", "182015.960000", "182016.420000", "182016.880000", "182017.340000", "182017.800000", "182018.260000", "182018.720000", "182019.180000", "182019.640000", "182020.100000", "182020.560000", "182021.020000", "182021.480000", "182021.940000", "182022.400000", "182022.860000", "182023.320000", "182023.780000", "182024.240000", "182024.700000", "182025.160000", "182025.620000", "182026.080000", "182026.540000", "182027.000000", "182027.460000", "182027.920000", "182028.380000", "182028.840000", "182029.300000", "182029.760000", "182030.220000", "182030.680000", "182031.140000", "182031.600000", "182032.060000", "182032.520000", "182032.980000", "182033.440000", "182033.900000", "182034.360000", "182034.820000", "182035.280000", "182035.740000", "182036.200000", "182036.660000", "182037.120000", "182037.580000", "182038.040000", "182038.500000", "182038.960000", "182039.420000", "182039.880000", "182040.340000", "182040.800000", "182041.260000", "182041.720000", "182042.180000", "182042.640000", "182043.100000", "182043.560000", "182044.020000", "182044.480000", "182044.940000", "182045.400000", "182045.860000", "182046.320000", "182046.780000", "182047.240000", "182047.700000", "182048.160000", "182048.620000", "182049.080000", "182049.540000", "182050.000000", "182050.460000", "182050.920000", "182051.380000", "182051.840000", "182052.300000", "182052.760000", "182053.220000", "182053.680000", "182054.140000", "182054.600000", "182055.060000", "182055.520000", "182055.980000", "182056.440000", "182056.900000", "182057.360000", "182057.820000", "182058.280000", "182058.740000", "182059.200000", "182059.660000", "182100.120000", "182100.580000", "182101.040000", "182101.500000", "182101.960000", "182102.420000", "182102.880000", "182103.340000", "182103.800000", "182104.260000", "182104.720000", "182105.180000", "182105.640000", "182106.100000", "182106.560000", "182107.020000", "182107.480000", "182107.940000", "182108.400000", "182108.860000", "182109.320000", "182109.780000", "182110.240000", "182110.700000", "182111.160000", "182111.620000", "182112.080000", "182112.540000", "182113.000000", "182113.460000", "182113.920000", "182114.380000", "182114.840000", "182115.300000", "182115.760000", "182116.220000", "182116.680000", "182117.140000", "182117.600000", "182118.060000", "182118.520000", "182118.980000", "182119.440000", "182119.900000", "182120.360000", "182120.820000", "182121.280000", "182121.740000", "182122.200000", "182122.660000", "182123.120000", "182123.580000", "182124.040000", "182124.500000", "182124.960000", "182125.420000", "182125.880000", "182126.340000", "182126.800000", "182127.260000", "182127.720000", "182128.180000", "182128.640000", "182129.100000", "182129.560000", "182130.020000", "182130.480000", "182130.940000", "182131.400000", "182131.860000", "182132.320000", "182132.780000", "182133.240000", "182133.700000", "182134.160000", "182134.620000", "182135.080000", "182135.540000", "182136.000000", "182136.460000", "182136.920000", "182137.380000", "182137.840000", "182138.300000", "182138.760000", "182139.220000", "182139.680000", "182140.140000", "182140.600000", "182141.060000", "182141.520000", "182141.980000", "182142.440000", "182142.900000", "182143.360000", "182143.820000", "182144.280000", "182144.740000", "182145.200000", "182145.660000", "182146.120000", "182146.580000", "182147.040000", "182147.500000", "182147.960000", "182148.420000", "182148.880000", "182149.340000", "182149.800000", "182150.260000", "182150.720000", "182151.180000", "182151.640000", "182152.100000", "182152.560000", "182153.020000", "182153.480000", "182153.940000", "182154.400000", "182154.860000", "182155.320000", "182155.780000", "182156.240000", "182156.700000", "182157.160000", "182157.620000", "182158.080000", "182158.540000", "182159.000000", "182159.460000", "182159.920000", "182200.380000", "182200.840000", "182201.300000", "182201.760000", "182202.220000", "182202.680000", "182203.140000", "182203.600000", "182204.060000", "182204.520000", "182204.980000", "182205.440000", "182205.900000", "182206.360000", "182206.820000", "182207.280000", "182207.740000", "182208.200000", "182208.660000", "182209.120000", "182209.580000", "182210.040000", "182210.500000", "182210.960000", "182211.420000", "182211.880000", "182212.340000", "182212.800000", "182213.260000", "182213.720000", "182214.180000", "182214.640000", "182215.100000", "182215.560000", "182216.020000", "182216.480000", "182216.940000", "182217.400000", "182217.860000", "182218.320000", "182218.780000", "182219.240000", "182219.700000", "182220.160000", "182220.620000", "182221.080000", "182221.540000", "182222.000000", "182222.460000", "182222.920000", "182223.380000", "182223.840000", "182224.300000", "182224.760000", "182225.220000", "182225.680000", "182226.140000", "182226.600000", "182227.060000", "182227.520000", "182227.980000", "182228.440000", "182228.900000", "182229.360000", "182229.820000", "182230.280000", "182230.740000", "182231.200000", "182231.660000", "182232.120000", "182232.580000", "182233.040000", "182233.500000", "182233.960000", "182234.420000", "182234.880000", "182235.340000", "182235.800000", "182236.260000", "182236.720000", "182237.180000", "182237.640000", "182238.100000", "182238.560000", "182239.020000", "182239.480000", "182239.940000", "182240.400000", "182240.860000", "182241.320000", "182241.780000", "182242.240000", "182242.700000", "182243.160000", "182243.620000", "182244.080000", "182244.540000", "182245.000000", "182245.460000", "182245.920000", "182246.380000", "182246.840000", "182247.300000", "182247.760000", "182248.220000", "182248.680000", "182249.140000", "182249.600000", "182250.060000", "182250.520000", "182250.980000", "182251.440000", "182251.900000", "182252.360000", "182252.820000", "182253.280000", "182253.740000", "182254.200000", "182254.660000", "182255.120000", "182255.580000", "182256.040000", "182256.500000", "182256.960000", "182257.420000", "182257.880000", "182258.340000", "182258.800000", "182259.260000", "182259.720000", "182300.180000", "182300.640000", "182301.100000", "182301.560000", "182302.020000", "182302.480000", "182302.940000", "182303.400000", "182303.860000", "182304.320000", "182304.780000", "182305.240000", "182305.700000", "182306.160000", "182306.620000", "182307.080000"],
