{
  "AcquisitionMatrixPE": 82,
  "AcquisitionNumber": 1,
  "AcquisitionTime": "18:38:37.330000",
  "BandwidthPerPixelPhaseEncode": 24.888,
  "BaseResolution": 82,
  "BodyPartExamined": "BRAIN",
  "ConsistencyInfo": "N4_VE11E_LATEST_20181129",
  "ConversionSoftware": "dcm2niix",
  "ConversionSoftwareVersion": "v1.0.20201102",
  "DerivedVendorReportedEchoSpacing": 0.00049,
  "DeviceSerialNumber": "66112",
  "DwellTime": 2e-06,
  "EchoTime": 0.0272,
  "EchoTrainLength": 82,
  "EffectiveEchoSpacing": 0.00049,
  "FlipAngle": 44,
  "ImageComments": "Unaliased MB8/PE3",
  "ImageOrientationPatientDICOM": [0.999219, -0.0376426, 0.0120395, 0.0383861, 0.996876, -0.0690246],
  "ImageType": [
    "ORIGINAL",
    "PRIMARY",
    "M",
    "MB",
    "ND",
    "NORM",
    "MOSAIC"
],
  "ImagingFrequency": 123.252,
  "InPlanePhaseEncodingDirectionDICOM": "COL",
  "InstitutionAddress": "Maynard 3,Hanover,NH,US,03755",
  "InstitutionName": "Dartmouth College - PBS",
  "InstitutionalDepartmentName": "Department",
  "MRAcquisitionType": "2D",
  "MagneticFieldStrength": 3,
  "Manufacturer": "Siemens",
  "ManufacturersModelName": "Prisma",
  "Modality": "MR",
  "MultibandAccelerationFactor": 8,
  "PartialFourier": 1,
  "PatientPosition": "HFS",
  "PercentPhaseFOV": 100,
  "PercentSampling": 100,
  "PhaseEncodingDirection": "j-",
  "PhaseEncodingSteps": 82,
  "PhaseResolution": 1,
  "PixelBandwidth": 3050,
  "ProcedureStepDescription": "Wager_Wager^1076_spacetop",
  "ProtocolName": "func_run-06_task-social_acq-ap-mb8",
  "PulseSequenceDetails": "%CustomerSeq%\\cmrr_mbep2d_bold",
  "ReceiveCoilActiveElements": "HEA;HEP",
  "ReceiveCoilName": "Head_32",
  "ReconMatrixPE": 82,
  "RepetitionTime": 0.46,
  "SAR": 0.0866508,
  "ScanOptions": "FS",
  "ScanningSequence": "EP",
  "SequenceName": "epfid2d1_82",
  "SequenceVariant": "SK\\SS",
  "SeriesDescription": "func_run-06_task-social_acq-ap-mb8",
  "SeriesNumber": 18,
  "ShimSetting": [4150, -7710, -7285, 532, -77, -47, 35, 68],
  "SliceThickness": 2.7,
  "SliceTiming": [0, 0.2525, 0.065, 0.315, 0.1275, 0.3775, 0.19, 0, 0.2525, 0.065, 0.315, 0.1275, 0.3775, 0.19, 0, 0.2525, 0.065, 0.315, 0.1275, 0.3775, 0.19, 0, 0.2525, 0.065, 0.315, 0.1275, 0.3775, 0.19, 0, 0.2525, 0.065, 0.315, 0.1275, 0.3775, 0.19, 0, 0.2525, 0.065, 0.315, 0.1275, 0.3775, 0.19, 0, 0.2525, 0.065, 0.315, 0.1275, 0.3775, 0.19, 0, 0.2525, 0.065, 0.315, 0.1275, 0.3775, 0.19],
  "SoftwareVersions": "syngo MR E11",
  "SpacingBetweenSlices": 2.7,
  "StationName": "AWP66112",
  "TaskName": "social",
  "TotalReadoutTime": 0.03969,
  "TxRefAmp": 235.208,
  "WipMemBlock": "3b9a2d43-ac96-47a8-9f45-0b1fd887997a||Sequence: R016 ve11e/master r/434b28f1; Aug  7 2019 18:53:46 by eja",
  "dcmmeta_affine": [
    [-2.680830717086792, 0.10298696905374527, 0.025389792397618294, 105.3679428100586],
    [0.10099242627620697, 2.674546003341675, -0.18746863305568695, -87.3620834350586],
    [0.03230110928416252, 0.18518796563148499, 2.693364143371582, -79.38897705078125],
    [0.0, 0.0, 0.0, 1.0]
],
  "dcmmeta_reorient_transform": [
    [0.0, -1.0, 0.0, 81.0],
    [1.0, 0.0, 0.0, 0.0],
    [0.0, 0.0, 1.0, 0.0],
    [0.0, 0.0, 0.0, 1.0]
],
  "dcmmeta_shape": [82, 82, 56, 872],
  "dcmmeta_slice_dim": 2,
  "dcmmeta_version": 0.6,
  "global": {
    "const": {
      "AccessionNumber": "A004018",
      "AcquisitionMatrix": [82, 0, 0, 82],
      "AngioFlag": "N",
      "BitsAllocated": 16,
      "BitsStored": 16,
      "BodyPartExamined": "BRAIN",
      "Columns": 656,
      "EchoNumbers": 1,
      "EchoTime": 27.2,
      "EchoTrainLength": 82,
      "FlipAngle": 44.0,
      "HighBit": 15,
      "ImageOrientationPatient": [0.99921873621279, -0.0376426294221, 0.01203950378989, 0.03838605215727, 0.99687617853407, -0.0690246019263],
      "ImagePositionPatient": [-912.66559314736, -867.88598417045, -20.510224565942],
      "ImageType": [
        "ORIGINAL",
        "PRIMARY",
        "M",
        "MB",
        "ND",
        "NORM",
        "MOSAIC"
],
      "ImagedNucleus": "1H",
      "ImagingFrequency": 123.252233,
      "InPlanePhaseEncodingDirection": "COL",
      "MRAcquisitionType": "2D",
      "MagneticFieldStrength": 3.0,
      "Manufacturer": "SIEMENS",
      "ManufacturerModelName": "Prisma",
      "Modality": "MR",
      "NumberOfAverages": 1.0,
      "NumberOfPhaseEncodingSteps": 82,
      "PercentPhaseFieldOfView": 100.0,
      "PercentSampling": 100.0,
      "PerformedProcedureStepStartTime": "173519.458000",
      "PhotometricInterpretation": "MONOCHROME2",
      "PixelBandwidth": 3050.0,
      "PixelRepresentation": 0,
      "PixelSpacing": [2.6829268932343, 2.6829268932343],
      "ProtocolName": "func_run-06_task-social_acq-ap-mb8",
      "RepetitionTime": 460.0,
      "Rows": 656,
      "SAR": 0.08665084627566,
      "SamplesPerPixel": 1,
      "ScanOptions": "FS",
      "ScanningSequence": "EP",
      "SequenceName": "epfid2d1_82",
      "SequenceVariant": [
        "SK",
        "SS"
],
      "SeriesDescription": "func_run-06_task-social_acq-ap-mb8",
      "SeriesNumber": 18,
      "SeriesTime": "183855.190000",
      "SliceLocation": -72.137225151105,
      "SliceThickness": 2.7000000476837,
      "SmallestImagePixelValue": 0,
      "SoftwareVersions": "syngo MR E11",
      "SpacingBetweenSlices": 2.7000000010038,
      "SpecificCharacterSet": "ISO_IR 100",
      "StudyID": "4",
      "StudyTime": "173519.363000",
      "TransmitCoilName": "Body",
      "VariableFlipAngleFlag": "N",
      "WindowCenterWidthExplanation": "Algo1"
    },
    "slices": {}
  },
  "time": {
    "samples": {
      "AcquisitionNumber": [1, 2, 3, 4, 5, 6, 7, 8, 9, 10, 11, 12, 13, 14, 15, 16, 17, 18, 19, 20, 21, 22, 23, 24, 25, 26, 27, 28, 29, 30, 31, 32, 33, 34, 35, 36, 37, 38, 39, 40, 41, 42, 43, 44, 45, 46, 47, 48, 49, 50, 51, 52, 53, 54, 55, 56, 57, 58, 59, 60, 61, 62, 63, 64, 65, 66, 67, 68, 69, 70, 71, 72, 73, 74, 75, 76, 77, 78, 79, 80, 81, 82, 83, 84, 85, 86, 87, 88, 89, 90, 91, 92, 93, 94, 95, 96, 97, 98, 99, 100, 101, 102, 103, 104, 105, 106, 107, 108, 109, 110, 111, 112, 113, 114, 115, 116, 117, 118, 119, 120, 121, 122, 123, 124, 125, 126, 127, 128, 129, 130, 131, 132, 133, 134, 135, 136, 137, 138, 139, 140, 141, 142, 143, 144, 145, 146, 147, 148, 149, 150, 151, 152, 153, 154, 155, 156, 157, 158, 159, 160, 161, 162, 163, 164, 165, 166, 167, 168, 169, 170, 171, 172, 173, 174, 175, 176, 177, 178, 179, 180, 181, 182, 183, 184, 185, 186, 187, 188, 189, 190, 191, 192, 193, 194, 195, 196, 197, 198, 199, 200, 201, 202, 203, 204, 205, 206, 207, 208, 209, 210, 211, 212, 213, 214, 215, 216, 217, 218, 219, 220, 221, 222, 223, 224, 225, 226, 227, 228, 229, 230, 231, 232, 233, 234, 235, 236, 237, 238, 239, 240, 241, 242, 243, 244, 245, 246, 247, 248, 249, 250, 251, 252, 253, 254, 255, 256, 257, 258, 259, 260, 261, 262, 263, 264, 265, 266, 267, 268, 269, 270, 271, 272, 273, 274, 275, 276, 277, 278, 279, 280, 281, 282, 283, 284, 285, 286, 287, 288, 289, 290, 291, 292, 293, 294, 295, 296, 297, 298, 299, 300, 301, 302, 303, 304, 305, 306, 307, 308, 309, 310, 311, 312, 313, 314, 315, 316, 317, 318, 319, 320, 321, 322, 323, 324, 325, 326, 327, 328, 329, 330, 331, 332, 333, 334, 335, 336, 337, 338, 339, 340, 341, 342, 343, 344, 345, 346, 347, 348, 349, 350, 351, 352, 353, 354, 355, 356, 357, 358, 359, 360, 361, 362, 363, 364, 365, 366, 367, 368, 369, 370, 371, 372, 373, 374, 375, 376, 377, 378, 379, 380, 381, 382, 383, 384, 385, 386, 387, 388, 389, 390, 391, 392, 393, 394, 395, 396, 397, 398, 399, 400, 401, 402, 403, 404, 405, 406, 407, 408, 409, 410, 411, 412, 413, 414, 415, 416, 417, 418, 419, 420, 421, 422, 423, 424, 425, 426, 427, 428, 429, 430, 431, 432, 433, 434, 435, 436, 437, 438, 439, 440, 441, 442, 443, 444, 445, 446, 447, 448, 449, 450, 451, 452, 453, 454, 455, 456, 457, 458, 459, 460, 461, 462, 463, 464, 465, 466, 467, 468, 469, 470, 471, 472, 473, 474, 475, 476, 477, 478, 479, 480, 481, 482, 483, 484, 485, 486, 487, 488, 489, 490, 491, 492, 493, 494, 495, 496, 497, 498, 499, 500, 501, 502, 503, 504, 505, 506, 507, 508, 509, 510, 511, 512, 513, 514, 515, 516, 517, 518, 519, 520, 521, 522, 523, 524, 525, 526, 527, 528, 529, 530, 531, 532, 533, 534, 535, 536, 537, 538, 539, 540, 541, 542, 543, 544, 545, 546, 547, 548, 549, 550, 551, 552, 553, 554, 555, 556, 557, 558, 559, 560, 561, 562, 563, 564, 565, 566, 567, 568, 569, 570, 571, 572, 573, 574, 575, 576, 577, 578, 579, 580, 581, 582, 583, 584, 585, 586, 587, 588, 589, 590, 591, 592, 593, 594, 595, 596, 597, 598, 599, 600, 601, 602, 603, 604, 605, 606, 607, 608, 609, 610, 611, 612, 613, 614, 615, 616, 617, 618, 619, 620, 621, 622, 623, 624, 625, 626, 627, 628, 629, 630, 631, 632, 633, 634, 635, 636, 637, 638, 639, 640, 641, 642, 643, 644, 645, 646, 647, 648, 649, 650, 651, 652, 653, 654, 655, 656, 657, 658, 659, 660, 661, 662, 663, 664, 665, 666, 667, 668, 669, 670, 671, 672, 673, 674, 675, 676, 677, 678, 679, 680, 681, 682, 683, 684, 685, 686, 687, 688, 689, 690, 691, 692, 693, 694, 695, 696, 697, 698, 699, 700, 701, 702, 703, 704, 705, 706, 707, 708, 709, 710, 711, 712, 713, 714, 715, 716, 717, 718, 719, 720, 721, 722, 723, 724, 725, 726, 727, 728, 729, 730, 731, 732, 733, 734, 735, 736, 737, 738, 739, 740, 741, 742, 743, 744, 745, 746, 747, 748, 749, 750, 751, 752, 753, 754, 755, 756, 757, 758, 759, 760, 761, 762, 763, 764, 765, 766, 767, 768, 769, 770, 771, 772, 773, 774, 775, 776, 777, 778, 779, 780, 781, 782, 783, 784, 785, 786, 787, 788, 789, 790, 791, 792, 793, 794, 795, 796, 797, 798, 799, 800, 801, 802, 803, 804, 805, 806, 807, 808, 809, 810, 811, 812, 813, 814, 815, 816, 817, 818, 819, 820, 821, 822, 823, 824, 825, 826, 827, 828, 829, 830, 831, 832, 833, 834, 835, 836, 837, 838, 839, 840, 841, 842, 843, 844, 845, 846, 847, 848, 849, 850, 851, 852, 853, 854, 855, 856, 857, 858, 859, 860, 861, 862, 863, 864, 865, 866, 867, 868, 869, 870, 871, 872],
      "AcquisitionTime": ["183837.330000", "183837.790000", "183838.250000", "183838.710000", "183839.170000", "183839.630000", "183840.090000", "183840.550000", "183841.010000", "183841.470000", "183841.930000", "183842.390000", "183842.850000", "183843.310000", "183843.770000", "183844.230000", "183844.690000", "183845.150000", "183845.610000", "183846.070000", "183846.530000", "183846.990000", "183847.450000", "183847.910000", "183848.370000", "183848.830000", "183849.290000", "183849.750000", "183850.210000", "183850.670000", "183851.130000", "183851.590000", "183852.050000", "183852.510000", "183852.970000", "183853.430000", "183853.890000", "183854.350000", "183854.810000", "183855.270000", "183855.730000", "183856.190000", "183856.650000", "183857.110000", "183857.570000", "183858.030000", "183858.490000", "183858.950000", "183859.410000", "183859.870000", "183900.330000", "183900.790000", "183901.250000", "183901.710000", "183902.170000", "183902.630000", "183903.090000", "183903.550000", "183904.010000", "183904.470000", "183904.930000", "183905.390000", "183905.850000", "183906.310000", "183906.770000", "183907.230000", "183907.690000", "183908.150000", "183908.610000", "183909.070000", "183909.530000", "183909.990000", "183910.450000", "183910.910000", "183911.370000", "183911.830000", "183912.290000", "183912.750000", "183913.210000", "183913.670000", "183914.130000", "183914.590000", "183915.050000", "183915.510000", "183915.970000", "183916.430000", "183916.890000", "183917.350000", "183917.810000", "183918.270000", "183918.730000", "183919.190000", "183919.650000", "183920.110000", "183920.570000", "183921.030000", "183921.490000", "183921.950000", "183922.410000", "183922.870000", "183923.330000", "183923.790000", "183924.250000", "183924.710000", "183925.170000", "183925.630000", "183926.090000", "183926.550000", "183927.010000", "183927.470000", "183927.930000", "183928.390000", "183928.850000", "183929.310000", "183929.770000", "183930.230000", "183930.690000", "183931.150000", "183931.610000", "183932.070000", "183932.530000", "183932.990000", "183933.450000", "183933.910000", "183934.370000", "183934.830000", "183935.290000", "183935.750000", "183936.210000", "183936.670000", "183937.130000", "183937.590000", "183938.050000", "183938.510000", "183938.970000", "183939.430000", "183939.890000", "183940.350000", "183940.810000", "183941.270000", "183941.730000", "183942.190000", "183942.650000", "183943.110000", "183943.570000", "183944.030000", "183944.490000", "183944.950000", "183945.410000", "183945.870000", "183946.330000", "183946.790000", "183947.250000", "183947.710000", "183948.170000", "183948.630000", "183949.090000", "183949.550000", "183950.010000", "183950.470000", "183950.930000", "183951.390000", "183951.850000", "183952.310000", "183952.770000", "183953.230000", "183953.690000", "183954.150000", "183954.610000", "183955.070000", "183955.530000", "183955.990000", "183956.450000", "183956.910000", "183957.370000", "183957.830000", "183958.290000", "183958.750000", "183959.210000", "183959.670000", "184000.130000", "184000.590000", "184001.050000", "184001.510000", "184001.970000", "184002.430000", "184002.890000", "184003.350000", "184003.810000", "184004.270000", "184004.730000", "184005.190000", "184005.650000", "184006.110000", "184006.570000", "184007.030000", "184007.490000", "184007.950000", "184008.410000", "184008.870000", "184009.330000", "184009.790000", "184010.250000", "184010.710000", "184011.170000", "184011.630000", "184012.090000", "184012.550000", "184013.010000", "184013.470000", "184013.930000", "184014.390000", "184014.850000", "184015.310000", "184015.770000", "184016.230000", "184016.690000", "184017.150000", "184017.610000", "184018.070000", "184018.530000", "184018.990000", "184019.450000", "184019.910000", "184020.370000", "184020.830000", "184021.290000", "184021.750000", "184022.210000", "184022.670000", "184023.130000", "184023.590000", "184024.050000", "184024.510000", "184024.970000", "184025.430000", "184025.890000", "184026.350000", "184026.810000", "184027.270000", "184027.730000", "184028.190000", "184028.650000", "184029.110000", "184029.570000", "184030.030000", "184030.490000", "184030.950000", "184031.410000", "184031.870000", "184032.330000", "184032.790000", "184033.250000", "184033.710000", "184034.170000", "184034.630000", "184035.090000", "184035.550000", "184036.010000", "184036.470000", "184036.930000", "184037.390000", "184037.850000", "184038.310000", "184038.770000", "184039.230000", "184039.690000", "184040.150000", "184040.610000", "184041.070000", "184041.530000", "184041.990000", "184042.450000", "184042.910000", "184043.370000", "184043.830000", "184044.290000", "184044.750000", "184045.210000", "184045.670000", "184046.130000", "184046.590000", "184047.050000", "184047.510000", "184047.970000", "184048.430000", "184048.890000", "184049.350000", "184049.810000", "184050.270000", "184050.730000", "184051.190000", "184051.650000", "184052.110000", "184052.570000", "184053.030000", "184053.490000", "184053.950000", "184054.410000", "184054.870000", "184055.330000", "184055.790000", "184056.250000", "184056.710000", "184057.170000", "184057.630000", "184058.090000", "184058.550000", "184059.010000", "184059.470000", "184059.930000", "184100.390000", "184100.850000", "184101.310000", "184101.770000", "184102.230000", "184102.690000", "184103.150000", "184103.610000", "184104.070000", "184104.530000", "184104.990000", "184105.450000", "184105.910000", "184106.370000", "184106.830000", "184107.290000", "184107.750000", "184108.210000", "184108.670000", "184109.130000", "184109.590000", "184110.050000", "184110.510000", "184110.970000", "184111.430000", "184111.890000", "184112.350000", "184112.810000", "184113.270000", "184113.730000", "184114.190000", "184114.650000", "184115.110000", "184115.570000", "184116.030000", "184116.490000", "184116.950000", "184117.410000", "184117.870000", "184118.330000", "184118.790000", "184119.250000", "184119.710000", "184120.170000", "184120.630000", "184121.090000", "184121.550000", "184122.010000", "184122.470000", "184122.930000", "184123.390000", "184123.850000", "184124.310000", "184124.770000", "184125.230000", "184125.690000", "184126.150000", "184126.610000", "184127.070000", "184127.530000", "184127.990000", "184128.450000", "184128.910000", "184129.370000", "184129.830000", "184130.290000", "184130.750000", "184131.210000", "184131.670000", "184132.130000", "184132.590000", "184133.050000", "184133.510000", "184133.970000", "184134.430000", "184134.890000", "184135.350000", "184135.810000", "184136.270000", "184136.730000", "184137.190000", "184137.650000", "184138.110000", "184138.570000", "184139.030000", "184139.490000", "184139.950000", "184140.410000", "184140.870000", "184141.330000", "184141.790000", "184142.250000", "184142.710000", "184143.170000", "184143.630000", "184144.090000", "184144.550000", "184145.010000", "184145.470000", "184145.930000", "184146.390000", "184146.850000", "184147.310000", "184147.770000", "184148.230000", "184148.690000", "184149.150000", "184149.610000", "184150.070000", "184150.530000", "184150.990000", "184151.450000", "184151.910000", "184152.370000", "184152.830000", "184153.290000", "184153.750000", "184154.210000", "184154.670000", "184155.130000", "184155.590000", "184156.050000", "184156.510000", "184156.970000", "184157.430000", "184157.890000", "184158.350000", "184158.810000", "184159.270000", "184159.730000", "184200.190000", "184200.650000", "184201.110000", "184201.570000", "184202.030000", "184202.490000", "184202.950000", "184203.410000", "184203.870000", "184204.330000", "184204.790000", "184205.250000", "184205.710000", "184206.170000", "184206.630000", "184207.090000", "184207.550000", "184208.010000", "184208.470000", "184208.930000", "184209.390000", "184209.850000", "184210.310000", "184210.770000", "184211.230000", "184211.690000", "184212.150000", "184212.610000", "184213.070000", "184213.530000", "184213.990000", "184214.450000", "184214.910000", "184215.370000", "184215.830000", "184216.290000", "184216.750000", "184217.210000", "184217.670000", "184218.130000", "184218.590000", "184219.050000", "184219.510000", "184219.970000", "184220.430000", "184220.890000", "184221.350000", "184221.810000", "184222.270000", "184222.730000", "184223.190000", "184223.650000", "184224.110000", "184224.570000", "184225.030000", "184225.490000", "184225.950000", "184226.410000", "184226.870000", "184227.330000", "184227.790000", "184228.250000", "184228.710000", "184229.170000", "184229.630000", "184230.090000", "184230.550000", "184231.010000", "184231.470000", "184231.930000", "184232.390000", "184232.850000", "184233.310000", "184233.770000", "184234.230000", "184234.690000", "184235.150000", "184235.610000", "184236.070000", "184236.530000", "184236.990000", "184237.450000", "184237.910000", "184238.370000", "184238.830000", "184239.290000", "184239.750000", "184240.210000", "184240.670000", "184241.130000", "184241.590000", "184242.050000", "184242.510000", "184242.970000", "184243.430000", "184243.890000", "184244.350000", "184244.810000", "184245.270000", "184245.730000", "184246.190000", "184246.650000", "184247.110000", "184247.570000", "184248.030000", "184248.490000", "184248.950000", "184249.410000", "184249.870000", "184250.330000", "184250.790000", "184251.250000", "184251.710000", "184252.170000", "184252.630000", "184253.090000", "184253.550000", "184254.010000", "184254.470000", "184254.930000", "184255.390000", "184255.850000", "184256.310000", "184256.770000", "184257.230000", "184257.690000", "184258.150000", "184258.610000", "184259.070000", "184259.530000", "184259.990000", "184300.450000", "184300.910000", "184301.370000", "184301.830000", "184302.290000", "184302.750000", "184303.210000", "184303.670000", "184304.130000", "184304.590000", "184305.050000", "184305.510000", "184305.970000", "184306.430000", "184306.890000", "184307.350000", "184307.810000", "184308.270000", "184308.730000", "184309.190000", "184309.650000", "184310.110000", "184310.570000", "184311.030000", "184311.490000", "184311.950000", "184312.410000", "184312.870000", "184313.330000", "184313.790000", "184314.250000", "184314.710000", "184315.170000", "184315.630000", "184316.090000", "184316.550000", "184317.010000", "184317.470000", "184317.930000", "184318.390000", "184318.850000", "184319.310000", "184319.770000", "184320.230000", "184320.690000", "184321.150000", "184321.610000", "184322.070000", "184322.530000", "184322.990000", "184323.450000", "184323.910000", "184324.370000", "184324.830000", "184325.290000", "184325.750000", "184326.210000", "184326.670000", "184327.130000", "184327.590000", "184328.050000", "184328.510000", "184328.970000", "184329.430000", "184329.890000", "184330.350000", "184330.810000", "184331.270000", "184331.730000", "184332.190000", "184332.650000", "184333.110000", "184333.570000", "184334.030000", "184334.490000", "184334.950000", "184335.410000", "184335.870000", "184336.330000", "184336.790000", "184337.250000", "184337.710000", "184338.170000", "184338.630000", "184339.090000", "184339.550000", "184340.010000", "184340.470000", "184340.930000", "184341.390000", "184341.850000", "184342.310000", "184342.770000", "184343.230000", "184343.690000", "184344.150000", "184344.610000", "184345.070000", "184345.530000", "184345.990000", "184346.450000", "184346.910000", "184347.370000", "184347.830000", "184348.290000", "184348.750000", "184349.210000", "184349.670000", "184350.130000", "184350.590000", "184351.050000", "184351.510000", "184351.970000", "184352.430000", "184352.890000", "184353.350000", "184353.810000", "184354.270000", "184354.730000", "184355.190000", "184355.650000", "184356.110000", "184356.570000", "184357.030000", "184357.490000", "184357.950000", "184358.410000", "184358.870000", "184359.330000", "184359.790000", "184400.250000", "184400.710000", "184401.170000", "184401.630000", "184402.090000", "184402.550000", "184403.010000", "184403.470000", "184403.930000", "184404.390000", "184404.850000", "184405.310000", "184405.770000", "184406.230000", "184406.690000", "184407.150000", "184407.610000", "184408.070000", "184408.530000", "184408.990000", "184409.450000", "184409.910000", "184410.370000", "184410.830000", "184411.290000", "184411.750000", "184412.210000", "184412.670000", "184413.130000", "184413.590000", "184414.050000", "184414.510000", "184414.970000", "184415.430000", "184415.890000", "184416.350000", "184416.810000", "184417.270000", "184417.730000", "184418.190000", "184418.650000", "184419.110000", "184419.570000", "184420.030000", "184420.490000", "184420.950000", "184421.410000", "184421.870000", "184422.330000", "184422.790000", "184423.250000", "184423.710000", "184424.170000", "184424.630000", "184425.090000", "184425.550000", "184426.010000", "184426.470000", "184426.930000", "184427.390000", "184427.850000", "184428.310000", "184428.770000", "184429.230000", "184429.690000", "184430.150000", "184430.610000", "184431.070000", "184431.530000", "184431.990000", "184432.450000", "184432.910000", "184433.370000", "184433.830000", "184434.290000", "184434.750000", "184435.210000", "184435.670000", "184436.130000", "184436.590000", "184437.050000", "184437.510000", "184437.970000", "184438.430000", "184438.890000", "184439.350000", "184439.810000", "184440.270000", "184440.730000", "184441.190000", "184441.650000", "184442.110000", "184442.570000", "184443.030000", "184443.490000", "184443.950000", "184444.410000", "184444.870000", "184445.330000", "184445.790000", "184446.250000", "184446.710000", "184447.170000", "184447.630000", "184448.090000", "184448.550000", "184449.010000", "184449.470000", "184449.930000", "184450.390000", "184450.850000", "184451.310000", "184451.770000", "184452.230000", "184452.690000", "184453.150000", "184453.610000", "184454.070000", "184454.530000", "184454.990000", "184455.450000", "184455.910000", "184456.370000", "184456.830000", "184457.290000", "184457.750000", "184458.210000", "184458.670000", "184459.130000", "184459.590000", "184500.050000", "184500.510000", "184500.970000", "184501.430000", "184501.890000", "184502.350000", "184502.810000", "184503.270000", "184503.730000", "184504.190000", "184504.650000", "184505.110000", "184505.570000", "184506.030000", "184506.490000", "184506.950000", "184507.410000", "184507.870000", "184508.330000", "184508.790000", "184509.250000", "184509.710000", "184510.170000", "184510.630000", "184511.090000", "184511.550000", "184512.010000", "184512.470000", "184512.930000", "184513.390000", "184513.850000", "184514.310000", "184514.770000", "184515.230000", "184515.690000", "184516.150000", "184516.610000", "184517.070000", "184517.530000", "184517.990000"],
