{
  "AcquisitionMatrixPE": 82,
  "AcquisitionNumber": 1,
  "AcquisitionTime": "18:59:2.302500",
  "BandwidthPerPixelPhaseEncode": 24.888,
  "BaseResolution": 82,
  "BodyPartExamined": "BRAIN",
  "ConsistencyInfo": "N4_VE11E_LATEST_20181129",
  "ConversionSoftware": "dcm2niix",
  "ConversionSoftwareVersion": "v1.0.20201102",
  "DerivedVendorReportedEchoSpacing": 0.00049,
  "DeviceSerialNumber": "66112",
  "DwellTime": 2e-06,
  "EchoTime": 0.0272,
  "EchoTrainLength": 82,
  "EffectiveEchoSpacing": 0.00049,
  "FlipAngle": 44,
  "ImageComments": "Unaliased MB8/PE3",
  "ImageOrientationPatientDICOM": [0.999345, -0.0329049, 0.0150497, 0.0338501, 0.997139, -0.0675941],
  "ImageType": [
    "ORIGINAL",
    "PRIMARY",
    "M",
    "MB",
    "ND",
    "NORM",
    "MOSAIC"
],
  "ImagingFrequency": 123.252,
  "InPlanePhaseEncodingDirectionDICOM": "COL",
  "InstitutionAddress": "Maynard 3,Hanover,NH,US,03755",
  "InstitutionName": "Dartmouth College - PBS",
  "InstitutionalDepartmentName": "Department",
  "MRAcquisitionType": "2D",
  "MagneticFieldStrength": 3,
  "Manufacturer": "Siemens",
  "ManufacturersModelName": "Prisma",
  "Modality": "MR",
  "MultibandAccelerationFactor": 8,
  "PartialFourier": 1,
  "PatientPosition": "HFS",
  "PercentPhaseFOV": 100,
  "PercentSampling": 100,
  "PhaseEncodingDirection": "j-",
  "PhaseEncodingSteps": 82,
  "PhaseResolution": 1,
  "PixelBandwidth": 3050,
  "ProcedureStepDescription": "Wager_Wager^1076_spacetop",
  "ProtocolName": "func_run-02_task-alignvideo_acq-ap-mb8",
  "PulseSequenceDetails": "%CustomerSeq%\\cmrr_mbep2d_bold",
  "ReceiveCoilActiveElements": "HEA;HEP",
  "ReceiveCoilName": "Head_32",
  "ReconMatrixPE": 82,
  "RepetitionTime": 0.46,
  "SAR": 0.0866822,
  "ScanOptions": "FS",
  "ScanningSequence": "EP",
  "SequenceName": "epfid2d1_82",
  "SequenceVariant": "SK\\SS",
  "SeriesDescription": "func_run-02_task-alignvideo_acq-ap-mb8",
  "SeriesNumber": 28,
  "ShimSetting": [4150, -7709, -7286, 535, -76, -38, 32, 67],
  "SliceThickness": 2.7,
  "SliceTiming": [0, 0.2525, 0.0625, 0.315, 0.1275, 0.3775, 0.19, 0, 0.2525, 0.0625, 0.315, 0.1275, 0.3775, 0.19, 0, 0.2525, 0.0625, 0.315, 0.1275, 0.3775, 0.19, 0, 0.2525, 0.0625, 0.315, 0.1275, 0.3775, 0.19, 0, 0.2525, 0.0625, 0.315, 0.1275, 0.3775, 0.19, 0, 0.2525, 0.0625, 0.315, 0.1275, 0.3775, 0.19, 0, 0.2525, 0.0625, 0.315, 0.1275, 0.3775, 0.19, 0, 0.2525, 0.0625, 0.315, 0.1275, 0.3775, 0.19],
  "SoftwareVersions": "syngo MR E11",
  "SpacingBetweenSlices": 2.7,
  "StationName": "AWP66112",
  "TaskName": "alignvideo",
  "TotalReadoutTime": 0.03969,
  "TxRefAmp": 235.208,
  "WipMemBlock": "8794913b-35c9-453a-9dec-17cc1b67ccf7||Sequence: R016 ve11e/master r/434b28f1; Aug  7 2019 18:53:46 by eja",
  "dcmmeta_affine": [
    [-2.6811699867248535, 0.09081746637821198, 0.034512706100940704, 104.83332061767578],
    [0.08828134834766388, 2.6752498149871826, -0.1837598979473114, -88.63771057128906],
    [0.04037730023264885, 0.18134988844394684, 2.6935184001922607, -76.23571014404297],
    [0.0, 0.0, 0.0, 1.0]
],
  "dcmmeta_reorient_transform": [
    [0.0, -1.0, 0.0, 81.0],
    [1.0, 0.0, 0.0, 0.0],
    [0.0, 0.0, 1.0, 0.0],
    [0.0, 0.0, 0.0, 1.0]
],
  "dcmmeta_shape": [82, 82, 56, 926],
  "dcmmeta_slice_dim": 2,
  "dcmmeta_version": 0.6,
  "global": {
    "const": {
      "AccessionNumber": "A004018",
      "AcquisitionMatrix": [82, 0, 0, 82],
      "AngioFlag": "N",
      "BitsAllocated": 16,
      "BitsStored": 16,
      "BodyPartExamined": "BRAIN",
      "Columns": 656,
      "EchoNumbers": 1,
      "EchoTime": 27.2,
      "EchoTrainLength": 82,
      "FlipAngle": 44.0,
      "HighBit": 15,
      "ImageOrientationPatient": [0.99934517346949, -0.0329048652369, 0.01504972115947, 0.03385014593515, 0.99713851196284, -0.0675940498913],
      "ImagePositionPatient": [-907.74994959023, -870.51744300895, -21.087237782541],
      "ImageType": [
        "ORIGINAL",
        "PRIMARY",
        "M",
        "MB",
        "ND",
        "NORM",
        "MOSAIC"
],
      "ImagedNucleus": "1H",
      "ImagingFrequency": 123.252234,
      "InPlanePhaseEncodingDirection": "COL",
      "MRAcquisitionType": "2D",
      "MagneticFieldStrength": 3.0,
      "Manufacturer": "SIEMENS",
      "ManufacturerModelName": "Prisma",
      "Modality": "MR",
      "NumberOfAverages": 1.0,
      "NumberOfPhaseEncodingSteps": 82,
      "PercentPhaseFieldOfView": 100.0,
      "PercentSampling": 100.0,
      "PerformedProcedureStepStartTime": "173519.458000",
      "PhotometricInterpretation": "MONOCHROME2",
      "PixelBandwidth": 3050.0,
      "PixelRepresentation": 0,
      "PixelSpacing": [2.6829268932343, 2.6829268932343],
      "ProtocolName": "func_run-02_task-alignvideo_acq-ap-mb8",
      "RepetitionTime": 460.0,
      "Rows": 656,
      "SAR": 0.0866822311766,
      "SamplesPerPixel": 1,
      "ScanOptions": "FS",
      "ScanningSequence": "EP",
      "SequenceName": "epfid2d1_82",
      "SequenceVariant": [
        "SK",
        "SS"
],
      "SeriesDescription": "func_run-02_task-alignvideo_acq-ap-mb8",
      "SeriesNumber": 28,
      "SeriesTime": "185915.365000",
      "SliceLocation": -68.680057490636,
      "SliceThickness": 2.7000000476837,
      "SmallestImagePixelValue": 0,
      "SoftwareVersions": "syngo MR E11",
      "SpacingBetweenSlices": 2.6999999818065,
      "SpecificCharacterSet": "ISO_IR 100",
      "StudyID": "4",
      "StudyTime": "173519.363000",
      "TransmitCoilName": "Body",
      "VariableFlipAngleFlag": "N",
      "WindowCenterWidthExplanation": "Algo1"
    },
    "slices": {}
  },
  "time": {
    "samples": {
      "AcquisitionNumber": [1, 2, 3, 4, 5, 6, 7, 8, 9, 10, 11, 12, 13, 14, 15, 16, 17, 18, 19, 20, 21, 22, 23, 24, 25, 26, 27, 28, 29, 30, 31, 32, 33, 34, 35, 36, 37, 38, 39, 40, 41, 42, 43, 44, 45, 46, 47, 48, 49, 50, 51, 52, 53, 54, 55, 56, 57, 58, 59, 60, 61, 62, 63, 64, 65, 66, 67, 68, 69, 70, 71, 72, 73, 74, 75, 76, 77, 78, 79, 80, 81, 82, 83, 84, 85, 86, 87, 88, 89, 90, 91, 92, 93, 94, 95, 96, 97, 98, 99, 100, 101, 102, 103, 104, 105, 106, 107, 108, 109, 110, 111, 112, 113, 114, 115, 116, 117, 118, 119, 120, 121, 122, 123, 124, 125, 126, 127, 128, 129, 130, 131, 132, 133, 134, 135, 136, 137, 138, 139, 140, 141, 142, 143, 144, 145, 146, 147, 148, 149, 150, 151, 152, 153, 154, 155, 156, 157, 158, 159, 160, 161, 162, 163, 164, 165, 166, 167, 168, 169, 170, 171, 172, 173, 174, 175, 176, 177, 178, 179, 180, 181, 182, 183, 184, 185, 186, 187, 188, 189, 190, 191, 192, 193, 194, 195, 196, 197, 198, 199, 200, 201, 202, 203, 204, 205, 206, 207, 208, 209, 210, 211, 212, 213, 214, 215, 216, 217, 218, 219, 220, 221, 222, 223, 224, 225, 226, 227, 228, 229, 230, 231, 232, 233, 234, 235, 236, 237, 238, 239, 240, 241, 242, 243, 244, 245, 246, 247, 248, 249, 250, 251, 252, 253, 254, 255, 256, 257, 258, 259, 260, 261, 262, 263, 264, 265, 266, 267, 268, 269, 270, 271, 272, 273, 274, 275, 276, 277, 278, 279, 280, 281, 282, 283, 284, 285, 286, 287, 288, 289, 290, 291, 292, 293, 294, 295, 296, 297, 298, 299, 300, 301, 302, 303, 304, 305, 306, 307, 308, 309, 310, 311, 312, 313, 314, 315, 316, 317, 318, 319, 320, 321, 322, 323, 324, 325, 326, 327, 328, 329, 330, 331, 332, 333, 334, 335, 336, 337, 338, 339, 340, 341, 342, 343, 344, 345, 346, 347, 348, 349, 350, 351, 352, 353, 354, 355, 356, 357, 358, 359, 360, 361, 362, 363, 364, 365, 366, 367, 368, 369, 370, 371, 372, 373, 374, 375, 376, 377, 378, 379, 380, 381, 382, 383, 384, 385, 386, 387, 388, 389, 390, 391, 392, 393, 394, 395, 396, 397, 398, 399, 400, 401, 402, 403, 404, 405, 406, 407, 408, 409, 410, 411, 412, 413, 414, 415, 416, 417, 418, 419, 420, 421, 422, 423, 424, 425, 426, 427, 428, 429, 430, 431, 432, 433, 434, 435, 436, 437, 438, 439, 440, 441, 442, 443, 444, 445, 446, 447, 448, 449, 450, 451, 452, 453, 454, 455, 456, 457, 458, 459, 460, 461, 462, 463, 464, 465, 466, 467, 468, 469, 470, 471, 472, 473, 474, 475, 476, 477, 478, 479, 480, 481, 482, 483, 484, 485, 486, 487, 488, 489, 490, 491, 492, 493, 494, 495, 496, 497, 498, 499, 500, 501, 502, 503, 504, 505, 506, 507, 508, 509, 510, 511, 512, 513, 514, 515, 516, 517, 518, 519, 520, 521, 522, 523, 524, 525, 526, 527, 528, 529, 530, 531, 532, 533, 534, 535, 536, 537, 538, 539, 540, 541, 542, 543, 544, 545, 546, 547, 548, 549, 550, 551, 552, 553, 554, 555, 556, 557, 558, 559, 560, 561, 562, 563, 564, 565, 566, 567, 568, 569, 570, 571, 572, 573, 574, 575, 576, 577, 578, 579, 580, 581, 582, 583, 584, 585, 586, 587, 588, 589, 590, 591, 592, 593, 594, 595, 596, 597, 598, 599, 600, 601, 602, 603, 604, 605, 606, 607, 608, 609, 610, 611, 612, 613, 614, 615, 616, 617, 618, 619, 620, 621, 622, 623, 624, 625, 626, 627, 628, 629, 630, 631, 632, 633, 634, 635, 636, 637, 638, 639, 640, 641, 642, 643, 644, 645, 646, 647, 648, 649, 650, 651, 652, 653, 654, 655, 656, 657, 658, 659, 660, 661, 662, 663, 664, 665, 666, 667, 668, 669, 670, 671, 672, 673, 674, 675, 676, 677, 678, 679, 680, 681, 682, 683, 684, 685, 686, 687, 688, 689, 690, 691, 692, 693, 694, 695, 696, 697, 698, 699, 700, 701, 702, 703, 704, 705, 706, 707, 708, 709, 710, 711, 712, 713, 714, 715, 716, 717, 718, 719, 720, 721, 722, 723, 724, 725, 726, 727, 728, 729, 730, 731, 732, 733, 734, 735, 736, 737, 738, 739, 740, 741, 742, 743, 744, 745, 746, 747, 748, 749, 750, 751, 752, 753, 754, 755, 756, 757, 758, 759, 760, 761, 762, 763, 764, 765, 766, 767, 768, 769, 770, 771, 772, 773, 774, 775, 776, 777, 778, 779, 780, 781, 782, 783, 784, 785, 786, 787, 788, 789, 790, 791, 792, 793, 794, 795, 796, 797, 798, 799, 800, 801, 802, 803, 804, 805, 806, 807, 808, 809, 810, 811, 812, 813, 814, 815, 816, 817, 818, 819, 820, 821, 822, 823, 824, 825, 826, 827, 828, 829, 830, 831, 832, 833, 834, 835, 836, 837, 838, 839, 840, 841, 842, 843, 844, 845, 846, 847, 848, 849, 850, 851, 852, 853, 854, 855, 856, 857, 858, 859, 860, 861, 862, 863, 864, 865, 866, 867, 868, 869, 870, 871, 872, 873, 874, 875, 876, 877, 878, 879, 880, 881, 882, 883, 884, 885, 886, 887, 888, 889, 890, 891, 892, 893, 894, 895, 896, 897, 898, 899, 900, 901, 902, 903, 904, 905, 906, 907, 908, 909, 910, 911, 912, 913, 914, 915, 916, 917, 918, 919, 920, 921, 922, 923, 924, 925, 926],
      "AcquisitionTime": ["185902.302500", "185902.762500", "185903.222500", "185903.682500", "185904.142500", "185904.602500", "185905.062500", "185905.522500", "185905.982500", "185906.442500", "185906.902500", "185907.362500", "185907.822500", "185908.282500", "185908.742500", "185909.202500", "185909.662500", "185910.122500", "185910.582500", "185911.042500", "185911.502500", "185911.962500", "185912.422500", "185912.882500", "185913.342500", "185913.802500", "185914.262500", "185914.722500", "185915.182500", "185915.642500", "185916.102500", "185916.562500", "185917.022500", "185917.482500", "185917.942500", "185918.402500", "185918.862500", "185919.322500", "185919.782500", "185920.242500", "185920.702500", "185921.162500", "185921.622500", "185922.082500", "185922.542500", "185923.002500", "185923.462500", "185923.922500", "185924.382500", "185924.842500", "185925.302500", "185925.762500", "185926.222500", "185926.682500", "185927.142500", "185927.602500", "185928.062500", "185928.522500", "185928.982500", "185929.442500", "185929.902500", "185930.362500", "185930.822500", "185931.282500", "185931.742500", "185932.202500", "185932.662500", "185933.122500", "185933.582500", "185934.042500", "185934.502500", "185934.962500", "185935.422500", "185935.882500", "185936.342500", "185936.802500", "185937.262500", "185937.722500", "185938.182500", "185938.642500", "185939.102500", "185939.562500", "185940.022500", "185940.482500", "185940.942500", "185941.402500", "185941.862500", "185942.322500", "185942.782500", "185943.242500", "185943.702500", "185944.162500", "185944.622500", "185945.082500", "185945.542500", "185946.002500", "185946.462500", "185946.922500", "185947.382500", "185947.842500", "185948.302500", "185948.762500", "185949.222500", "185949.682500", "185950.142500", "185950.602500", "185951.062500", "185951.522500", "185951.982500", "185952.442500", "185952.902500", "185953.362500", "185953.822500", "185954.282500", "185954.742500", "185955.202500", "185955.662500", "185956.122500", "185956.582500", "185957.042500", "185957.502500", "185957.962500", "185958.422500", "185958.882500", "185959.342500", "185959.802500", "190000.262500", "190000.722500", "190001.182500", "190001.642500", "190002.102500", "190002.562500", "190003.022500", "190003.482500", "190003.942500", "190004.402500", "190004.862500", "190005.322500", "190005.782500", "190006.242500", "190006.702500", "190007.162500", "190007.622500", "190008.082500", "190008.542500", "190009.002500", "190009.462500", "190009.922500", "190010.382500", "190010.842500", "190011.302500", "190011.762500", "190012.222500", "190012.682500", "190013.142500", "190013.602500", "190014.062500", "190014.522500", "190014.982500", "190015.442500", "190015.902500", "190016.362500", "190016.822500", "190017.282500", "190017.742500", "190018.202500", "190018.662500", "190019.122500", "190019.582500", "190020.042500", "190020.502500", "190020.962500", "190021.422500", "190021.882500", "190022.342500", "190022.802500", "190023.262500", "190023.722500", "190024.182500", "190024.642500", "190025.102500", "190025.562500", "190026.022500", "190026.482500", "190026.942500", "190027.402500", "190027.862500", "190028.322500", "190028.782500", "190029.242500", "190029.702500", "190030.162500", "190030.622500", "190031.082500", "190031.542500", "190032.002500", "190032.462500", "190032.922500", "190033.382500", "190033.842500", "190034.302500", "190034.762500", "190035.222500", "190035.682500", "190036.142500", "190036.602500", "190037.062500", "190037.522500", "190037.982500", "190038.442500", "190038.902500", "190039.362500", "190039.822500", "190040.282500", "190040.742500", "190041.202500", "190041.662500", "190042.122500", "190042.582500", "190043.042500", "190043.502500", "190043.962500", "190044.422500", "190044.882500", "190045.342500", "190045.802500", "190046.262500", "190046.722500", "190047.182500", "190047.642500", "190048.102500", "190048.562500", "190049.022500", "190049.482500", "190049.942500", "190050.402500", "190050.862500", "190051.322500", "190051.782500", "190052.242500", "190052.702500", "190053.162500", "190053.622500", "190054.082500", "190054.542500", "190055.002500", "190055.462500", "190055.922500", "190056.382500", "190056.842500", "190057.302500", "190057.762500", "190058.222500", "190058.682500", "190059.142500", "190059.602500", "190100.062500", "190100.522500", "190100.982500", "190101.442500", "190101.902500", "190102.362500", "190102.822500", "190103.282500", "190103.742500", "190104.202500", "190104.662500", "190105.122500", "190105.582500", "190106.042500", "190106.502500", "190106.962500", "190107.422500", "190107.882500", "190108.342500", "190108.802500", "190109.262500", "190109.722500", "190110.182500", "190110.642500", "190111.102500", "190111.562500", "190112.022500", "190112.482500", "190112.942500", "190113.402500", "190113.862500", "190114.322500", "190114.782500", "190115.242500", "190115.702500", "190116.162500", "190116.622500", "190117.082500", "190117.542500", "190118.002500", "190118.462500", "190118.922500", "190119.382500", "190119.842500", "190120.302500", "190120.762500", "190121.222500", "190121.682500", "190122.142500", "190122.602500", "190123.062500", "190123.522500", "190123.982500", "190124.442500", "190124.902500", "190125.362500", "190125.822500", "190126.282500", "190126.742500", "190127.202500", "190127.662500", "190128.122500", "190128.582500", "190129.042500", "190129.502500", "190129.962500", "190130.422500", "190130.882500", "190131.342500", "190131.802500", "190132.262500", "190132.722500", "190133.182500", "190133.642500", "190134.102500", "190134.562500", "190135.022500", "190135.482500", "190135.942500", "190136.402500", "190136.862500", "190137.322500", "190137.782500", "190138.242500", "190138.702500", "190139.162500", "190139.622500", "190140.082500", "190140.542500", "190141.002500", "190141.462500", "190141.922500", "190142.382500", "190142.842500", "190143.302500", "190143.762500", "190144.222500", "190144.682500", "190145.142500", "190145.602500", "190146.062500", "190146.522500", "190146.982500", "190147.442500", "190147.902500", "190148.362500", "190148.822500", "190149.282500", "190149.742500", "190150.202500", "190150.662500", "190151.122500", "190151.582500", "190152.042500", "190152.502500", "190152.962500", "190153.422500", "190153.882500", "190154.342500", "190154.802500", "190155.262500", "190155.722500", "190156.182500", "190156.642500", "190157.102500", "190157.562500", "190158.022500", "190158.482500", "190158.942500", "190159.402500", "190159.862500", "190200.322500", "190200.782500", "190201.242500", "190201.702500", "190202.162500", "190202.622500", "190203.082500", "190203.542500", "190204.002500", "190204.462500", "190204.922500", "190205.382500", "190205.842500", "190206.302500", "190206.762500", "190207.222500", "190207.682500", "190208.142500", "190208.602500", "190209.062500", "190209.522500", "190209.982500", "190210.442500", "190210.902500", "190211.362500", "190211.822500", "190212.282500", "190212.742500", "190213.202500", "190213.662500", "190214.122500", "190214.582500", "190215.042500", "190215.502500", "190215.962500", "190216.422500", "190216.882500", "190217.342500", "190217.802500", "190218.262500", "190218.722500", "190219.182500", "190219.642500", "190220.102500", "190220.562500", "190221.022500", "190221.482500", "190221.942500", "190222.402500", "190222.862500", "190223.322500", "190223.782500", "190224.242500", "190224.702500", "190225.162500", "190225.622500", "190226.082500", "190226.542500", "190227.002500", "190227.462500", "190227.922500", "190228.382500", "190228.842500", "190229.302500", "190229.762500", "190230.222500", "190230.682500", "190231.142500", "190231.602500", "190232.062500", "190232.522500", "190232.982500", "190233.442500", "190233.902500", "190234.362500", "190234.822500", "190235.282500", "190235.742500", "190236.202500", "190236.662500", "190237.122500", "190237.582500", "190238.042500", "190238.502500", "190238.962500", "190239.422500", "190239.882500", "190240.342500", "190240.802500", "190241.262500", "190241.722500", "190242.182500", "190242.642500", "190243.102500", "190243.562500", "190244.022500", "190244.482500", "190244.942500", "190245.402500", "190245.862500", "190246.322500", "190246.782500", "190247.242500", "190247.702500", "190248.162500", "190248.622500", "190249.082500", "190249.542500", "190250.002500", "190250.462500", "190250.922500", "190251.382500", "190251.842500", "190252.302500", "190252.762500", "190253.222500", "190253.682500", "190254.142500", "190254.602500", "190255.062500", "190255.522500", "190255.982500", "190256.442500", "190256.902500", "190257.362500", "190257.822500", "190258.282500", "190258.742500", "190259.202500", "190259.662500", "190300.122500", "190300.582500", "190301.042500", "190301.502500", "190301.962500", "190302.422500", "190302.882500", "190303.342500", "190303.802500", "190304.262500", "190304.722500", "190305.182500", "190305.642500", "190306.102500", "190306.562500", "190307.022500", "190307.482500", "190307.942500", "190308.402500", "190308.862500", "190309.322500", "190309.782500", "190310.242500", "190310.702500", "190311.162500", "190311.622500", "190312.082500", "190312.542500", "190313.002500", "190313.462500", "190313.922500", "190314.382500", "190314.842500", "190315.302500", "190315.762500", "190316.222500", "190316.682500", "190317.142500", "190317.602500", "190318.062500", "190318.522500", "190318.982500", "190319.442500", "190319.902500", "190320.362500", "190320.822500", "190321.282500", "190321.742500", "190322.202500", "190322.662500", "190323.122500", "190323.582500", "190324.042500", "190324.502500", "190324.962500", "190325.422500", "190325.882500", "190326.342500", "190326.802500", "190327.262500", "190327.722500", "190328.182500", "190328.642500", "190329.102500", "190329.562500", "190330.022500", "190330.482500", "190330.942500", "190331.402500", "190331.862500", "190332.322500", "190332.782500", "190333.242500", "190333.702500", "190334.162500", "190334.622500", "190335.082500", "190335.542500", "190336.002500", "190336.462500", "190336.922500", "190337.382500", "190337.842500", "190338.302500", "190338.762500", "190339.222500", "190339.682500", "190340.142500", "190340.602500", "190341.062500", "190341.522500", "190341.982500", "190342.442500", "190342.902500", "190343.362500", "190343.822500", "190344.282500", "190344.742500", "190345.202500", "190345.662500", "190346.122500", "190346.582500", "190347.042500", "190347.502500", "190347.962500", "190348.422500", "190348.882500", "190349.342500", "190349.802500", "190350.262500", "190350.722500", "190351.182500", "190351.642500", "190352.102500", "190352.562500", "190353.022500", "190353.482500", "190353.942500", "190354.402500", "190354.862500", "190355.322500", "190355.782500", "190356.242500", "190356.702500", "190357.162500", "190357.622500", "190358.082500", "190358.542500", "190359.002500", "190359.462500", "190359.922500", "190400.382500", "190400.842500", "190401.302500", "190401.762500", "190402.222500", "190402.682500", "190403.142500", "190403.602500", "190404.062500", "190404.522500", "190404.982500", "190405.442500", "190405.902500", "190406.362500", "190406.822500", "190407.282500", "190407.742500", "190408.202500", "190408.662500", "190409.122500", "190409.582500", "190410.042500", "190410.502500", "190410.962500", "190411.422500", "190411.882500", "190412.342500", "190412.802500", "190413.262500", "190413.722500", "190414.182500", "190414.642500", "190415.102500", "190415.562500", "190416.022500", "190416.482500", "190416.942500", "190417.402500", "190417.862500", "190418.322500", "190418.782500", "190419.242500", "190419.702500", "190420.162500", "190420.622500", "190421.082500", "190421.542500", "190422.002500", "190422.462500", "190422.922500", "190423.382500", "190423.842500", "190424.302500", "190424.762500", "190425.222500", "190425.682500", "190426.142500", "190426.602500", "190427.062500", "190427.522500", "190427.982500", "190428.442500", "190428.902500", "190429.362500", "190429.822500", "190430.282500", "190430.742500", "190431.202500", "190431.662500", "190432.122500", "190432.582500", "190433.042500", "190433.502500", "190433.962500", "190434.422500", "190434.882500", "190435.342500", "190435.802500", "190436.262500", "190436.722500", "190437.182500", "190437.642500", "190438.102500", "190438.562500", "190439.022500", "190439.482500", "190439.942500", "190440.402500", "190440.862500", "190441.322500", "190441.782500", "190442.242500", "190442.702500", "190443.162500", "190443.622500", "190444.082500", "190444.542500", "190445.002500", "190445.462500", "190445.922500", "190446.382500", "190446.842500", "190447.302500", "190447.762500", "190448.222500", "190448.682500", "190449.142500", "190449.602500", "190450.062500", "190450.522500", "190450.982500", "190451.442500", "190451.902500", "190452.362500", "190452.822500", "190453.282500", "190453.742500", "190454.202500", "190454.662500", "190455.122500", "190455.582500", "190456.042500", "190456.502500", "190456.962500", "190457.422500", "190457.882500", "190458.342500", "190458.802500", "190459.262500", "190459.722500", "190500.182500", "190500.642500", "190501.102500", "190501.562500", "190502.022500", "190502.482500", "190502.942500", "190503.402500", "190503.862500", "190504.322500", "190504.782500", "190505.242500", "190505.702500", "190506.162500", "190506.622500", "190507.082500", "190507.542500", "190508.002500", "190508.462500", "190508.922500", "190509.382500", "190509.842500", "190510.302500", "190510.762500", "190511.222500", "190511.682500", "190512.142500", "190512.602500", "190513.062500", "190513.522500", "190513.982500", "190514.442500", "190514.902500", "190515.362500", "190515.822500", "190516.282500", "190516.742500", "190517.202500", "190517.662500", "190518.122500", "190518.582500", "190519.042500", "190519.502500", "190519.962500", "190520.422500", "190520.882500", "190521.342500", "190521.802500", "190522.262500", "190522.722500", "190523.182500", "190523.642500", "190524.102500", "190524.562500", "190525.022500", "190525.482500", "190525.942500", "190526.402500", "190526.862500", "190527.322500", "190527.782500", "190528.242500", "190528.702500", "190529.162500", "190529.622500", "190530.082500", "190530.542500", "190531.002500", "190531.462500", "190531.922500", "190532.382500", "190532.842500", "190533.302500", "190533.762500", "190534.222500", "190534.682500", "190535.142500", "190535.602500", "190536.062500", "190536.522500", "190536.982500", "190537.442500", "190537.902500", "190538.362500", "190538.822500", "190539.282500", "190539.742500", "190540.202500", "190540.662500", "190541.122500", "190541.582500", "190542.042500", "190542.502500", "190542.962500", "190543.422500", "190543.882500", "190544.342500", "190544.802500", "190545.262500", "190545.722500", "190546.182500", "190546.642500", "190547.102500", "190547.562500", "190548.022500", "190548.482500", "190548.942500", "190549.402500", "190549.862500", "190550.322500", "190550.782500", "190551.242500", "190551.702500", "190552.162500", "190552.622500", "190553.082500", "190553.542500", "190554.002500", "190554.462500", "190554.922500", "190555.382500", "190555.842500", "190556.302500", "190556.762500", "190557.222500", "190557.682500", "190558.142500", "190558.602500", "190559.062500", "190559.522500", "190559.982500", "190600.442500", "190600.902500", "190601.362500", "190601.822500", "190602.282500", "190602.742500", "190603.202500", "190603.662500", "190604.122500", "190604.582500", "190605.042500", "190605.502500", "190605.962500", "190606.422500", "190606.882500", "190607.342500", "190607.802500"],
