{
  "AcquisitionMatrixPE": 82,
  "AcquisitionNumber": 1,
  "AcquisitionTime": "10:09:49.817500",
  "BandwidthPerPixelPhaseEncode": 24.888,
  "BaseResolution": 82,
  "BodyPartExamined": "BRAIN",
  "ConsistencyInfo": "N4_VE11E_LATEST_20181129",
  "ConversionSoftware": "dcm2niix",
  "ConversionSoftwareVersion": "v1.0.20201102",
  "DerivedVendorReportedEchoSpacing": 0.00049,
  "DeviceSerialNumber": "66112",
  "DwellTime": 2e-06,
  "EchoTime": 0.0272,
  "EchoTrainLength": 82,
  "EffectiveEchoSpacing": 0.00049,
  "FlipAngle": 44,
  "ImageComments": "Unaliased MB8/PE3",
  "ImageOrientationPatientDICOM": [0.999707, 0.00632279, 0.0233803, -0.00907329, 0.992796, 0.119476],
  "ImageType": [
    "ORIGINAL",
    "PRIMARY",
    "M",
    "MB",
    "ND",
    "NORM",
    "MOSAIC"
],
  "ImagingFrequency": 123.252,
  "InPlanePhaseEncodingDirectionDICOM": "COL",
  "InstitutionAddress": "Maynard 3,Hanover,NH,US,03755",
  "InstitutionName": "Dartmouth College - PBS",
  "InstitutionalDepartmentName": "Department",
  "MRAcquisitionType": "2D",
  "MagneticFieldStrength": 3,
  "Manufacturer": "Siemens",
  "ManufacturersModelName": "Prisma",
  "Modality": "MR",
  "MultibandAccelerationFactor": 8,
  "PartialFourier": 1,
  "PatientPosition": "HFS",
  "PercentPhaseFOV": 100,
  "PercentSampling": 100,
  "PhaseEncodingDirection": "j-",
  "PhaseEncodingSteps": 82,
  "PhaseResolution": 1,
  "PixelBandwidth": 3050,
  "ProcedureStepDescription": "Wager_Wager^1076_spacetop",
  "ProtocolName": "func_run-02_task-alignvideo_acq-ap-mb8",
  "PulseSequenceDetails": "%CustomerSeq%\\cmrr_mbep2d_bold",
  "ReceiveCoilActiveElements": "HEA;HEP",
  "ReceiveCoilName": "Head_32",
  "ReconMatrixPE": 82,
  "RepetitionTime": 0.46,
  "SAR": 0.106601,
  "ScanOptions": "FS",
  "ScanningSequence": "EP",
  "SequenceName": "epfid2d1_82",
  "SequenceVariant": "SK\\SS",
  "SeriesDescription": "func_run-02_task-alignvideo_acq-ap-mb8",
  "SeriesNumber": 32,
  "ShimSetting": [4152, -7743, -7287, 496, -14, -96, 58, 64],
  "SliceThickness": 2.7,
  "SliceTiming": [0, 0.25, 0.0625, 0.3125, 0.125, 0.3775, 0.1875, 0, 0.25, 0.0625, 0.3125, 0.125, 0.3775, 0.1875, 0, 0.25, 0.0625, 0.3125, 0.125, 0.3775, 0.1875, 0, 0.25, 0.0625, 0.3125, 0.125, 0.3775, 0.1875, 0, 0.25, 0.0625, 0.3125, 0.125, 0.3775, 0.1875, 0, 0.25, 0.0625, 0.3125, 0.125, 0.3775, 0.1875, 0, 0.25, 0.0625, 0.3125, 0.125, 0.3775, 0.1875, 0, 0.25, 0.0625, 0.3125, 0.125, 0.3775, 0.1875],
  "SoftwareVersions": "syngo MR E11",
  "SpacingBetweenSlices": 2.7,
  "StationName": "AWP66112",
  "TaskName": "alignvideo",
  "TotalReadoutTime": 0.03969,
  "TxRefAmp": 272.702,
  "WipMemBlock": "a21e6483-885d-4496-be02-f9c7dd978932||Sequence: R016 ve11e/master r/434b28f1; Aug  7 2019 18:53:46 by eja",
  "dcmmeta_affine": [
    [-2.6821398735046387, -0.024342970922589302, 0.060632478445768356, 113.27376556396484],
    [-0.01696358248591423, 2.66359806060791, 0.32306337356567383, -97.55789947509766],
    [0.06272773444652557, -0.32054540514945984, 2.6799166202545166, -50.34217834472656],
    [0.0, 0.0, 0.0, 1.0]
],
  "dcmmeta_reorient_transform": [
    [0.0, -1.0, 0.0, 81.0],
    [1.0, 0.0, 0.0, 0.0],
    [0.0, 0.0, 1.0, 0.0],
    [0.0, 0.0, 0.0, 1.0]
],
  "dcmmeta_shape": [82, 82, 56, 926],
  "dcmmeta_slice_dim": 2,
  "dcmmeta_version": 0.6,
  "global": {
    "const": {
      "AccessionNumber": "A003954",
      "AcquisitionMatrix": [82, 0, 0, 82],
      "AngioFlag": "N",
      "BitsAllocated": 16,
      "BitsStored": 16,
      "BodyPartExamined": "BRAIN",
      "Columns": 656,
      "EchoNumbers": 1,
      "EchoTime": 27.2,
      "EchoTrainLength": 82,
      "FlipAngle": 44.0,
      "HighBit": 15,
      "ImageOrientationPatient": [0.99970664807487, 0.00632278975906, 0.02338033628005, -0.0090732890671, 0.99279562730842, 0.11947601358759],
      "ImagePositionPatient": [-874.0896866725, -887.51474769607, -186.30575015201],
      "ImageType": [
        "ORIGINAL",
        "PRIMARY",
        "M",
        "MB",
        "ND",
        "NORM",
        "MOSAIC"
],
      "ImagedNucleus": "1H",
      "ImagingFrequency": 123.252196,
      "InPlanePhaseEncodingDirection": "COL",
      "MRAcquisitionType": "2D",
      "MagneticFieldStrength": 3.0,
      "Manufacturer": "SIEMENS",
      "ManufacturerModelName": "Prisma",
      "Modality": "MR",
      "NumberOfAverages": 1.0,
      "NumberOfPhaseEncodingSteps": 82,
      "PercentPhaseFieldOfView": 100.0,
      "PercentSampling": 100.0,
      "PerformedProcedureStepStartTime": "083051.236000",
      "PhotometricInterpretation": "MONOCHROME2",
      "PixelBandwidth": 3050.0,
      "PixelRepresentation": 0,
      "PixelSpacing": [2.6829268932343, 2.6829268932343],
      "ProtocolName": "func_run-02_task-alignvideo_acq-ap-mb8",
      "RepetitionTime": 460.0,
      "Rows": 656,
      "SAR": 0.10660094275394,
      "SamplesPerPixel": 1,
      "ScanOptions": "FS",
      "ScanningSequence": "EP",
      "SequenceName": "epfid2d1_82",
      "SequenceVariant": [
        "SK",
        "SS"
],
      "SeriesDescription": "func_run-02_task-alignvideo_acq-ap-mb8",
      "SeriesNumber": 32,
      "SeriesTime": "101010.816000",
      "SliceLocation": -59.097098229163,
      "SliceThickness": 2.7000000476837,
      "SmallestImagePixelValue": 0,
      "SoftwareVersions": "syngo MR E11",
      "SpacingBetweenSlices": 2.6999999850933,
      "SpecificCharacterSet": "ISO_IR 100",
      "StudyID": "4",
      "StudyTime": "083051.038000",
      "TransmitCoilName": "Body",
      "VariableFlipAngleFlag": "N",
      "WindowCenterWidthExplanation": "Algo1"
    },
    "slices": {}
  },
  "time": {
    "samples": {
      "AcquisitionNumber": [1, 2, 3, 4, 5, 6, 7, 8, 9, 10, 11, 12, 13, 14, 15, 16, 17, 18, 19, 20, 21, 22, 23, 24, 25, 26, 27, 28, 29, 30, 31, 32, 33, 34, 35, 36, 37, 38, 39, 40, 41, 42, 43, 44, 45, 46, 47, 48, 49, 50, 51, 52, 53, 54, 55, 56, 57, 58, 59, 60, 61, 62, 63, 64, 65, 66, 67, 68, 69, 70, 71, 72, 73, 74, 75, 76, 77, 78, 79, 80, 81, 82, 83, 84, 85, 86, 87, 88, 89, 90, 91, 92, 93, 94, 95, 96, 97, 98, 99, 100, 101, 102, 103, 104, 105, 106, 107, 108, 109, 110, 111, 112, 113, 114, 115, 116, 117, 118, 119, 120, 121, 122, 123, 124, 125, 126, 127, 128, 129, 130, 131, 132, 133, 134, 135, 136, 137, 138, 139, 140, 141, 142, 143, 144, 145, 146, 147, 148, 149, 150, 151, 152, 153, 154, 155, 156, 157, 158, 159, 160, 161, 162, 163, 164, 165, 166, 167, 168, 169, 170, 171, 172, 173, 174, 175, 176, 177, 178, 179, 180, 181, 182, 183, 184, 185, 186, 187, 188, 189, 190, 191, 192, 193, 194, 195, 196, 197, 198, 199, 200, 201, 202, 203, 204, 205, 206, 207, 208, 209, 210, 211, 212, 213, 214, 215, 216, 217, 218, 219, 220, 221, 222, 223, 224, 225, 226, 227, 228, 229, 230, 231, 232, 233, 234, 235, 236, 237, 238, 239, 240, 241, 242, 243, 244, 245, 246, 247, 248, 249, 250, 251, 252, 253, 254, 255, 256, 257, 258, 259, 260, 261, 262, 263, 264, 265, 266, 267, 268, 269, 270, 271, 272, 273, 274, 275, 276, 277, 278, 279, 280, 281, 282, 283, 284, 285, 286, 287, 288, 289, 290, 291, 292, 293, 294, 295, 296, 297, 298, 299, 300, 301, 302, 303, 304, 305, 306, 307, 308, 309, 310, 311, 312, 313, 314, 315, 316, 317, 318, 319, 320, 321, 322, 323, 324, 325, 326, 327, 328, 329, 330, 331, 332, 333, 334, 335, 336, 337, 338, 339, 340, 341, 342, 343, 344, 345, 346, 347, 348, 349, 350, 351, 352, 353, 354, 355, 356, 357, 358, 359, 360, 361, 362, 363, 364, 365, 366, 367, 368, 369, 370, 371, 372, 373, 374, 375, 376, 377, 378, 379, 380, 381, 382, 383, 384, 385, 386, 387, 388, 389, 390, 391, 392, 393, 394, 395, 396, 397, 398, 399, 400, 401, 402, 403, 404, 405, 406, 407, 408, 409, 410, 411, 412, 413, 414, 415, 416, 417, 418, 419, 420, 421, 422, 423, 424, 425, 426, 427, 428, 429, 430, 431, 432, 433, 434, 435, 436, 437, 438, 439, 440, 441, 442, 443, 444, 445, 446, 447, 448, 449, 450, 451, 452, 453, 454, 455, 456, 457, 458, 459, 460, 461, 462, 463, 464, 465, 466, 467, 468, 469, 470, 471, 472, 473, 474, 475, 476, 477, 478, 479, 480, 481, 482, 483, 484, 485, 486, 487, 488, 489, 490, 491, 492, 493, 494, 495, 496, 497, 498, 499, 500, 501, 502, 503, 504, 505, 506, 507, 508, 509, 510, 511, 512, 513, 514, 515, 516, 517, 518, 519, 520, 521, 522, 523, 524, 525, 526, 527, 528, 529, 530, 531, 532, 533, 534, 535, 536, 537, 538, 539, 540, 541, 542, 543, 544, 545, 546, 547, 548, 549, 550, 551, 552, 553, 554, 555, 556, 557, 558, 559, 560, 561, 562, 563, 564, 565, 566, 567, 568, 569, 570, 571, 572, 573, 574, 575, 576, 577, 578, 579, 580, 581, 582, 583, 584, 585, 586, 587, 588, 589, 590, 591, 592, 593, 594, 595, 596, 597, 598, 599, 600, 601, 602, 603, 604, 605, 606, 607, 608, 609, 610, 611, 612, 613, 614, 615, 616, 617, 618, 619, 620, 621, 622, 623, 624, 625, 626, 627, 628, 629, 630, 631, 632, 633, 634, 635, 636, 637, 638, 639, 640, 641, 642, 643, 644, 645, 646, 647, 648, 649, 650, 651, 652, 653, 654, 655, 656, 657, 658, 659, 660, 661, 662, 663, 664, 665, 666, 667, 668, 669, 670, 671, 672, 673, 674, 675, 676, 677, 678, 679, 680, 681, 682, 683, 684, 685, 686, 687, 688, 689, 690, 691, 692, 693, 694, 695, 696, 697, 698, 699, 700, 701, 702, 703, 704, 705, 706, 707, 708, 709, 710, 711, 712, 713, 714, 715, 716, 717, 718, 719, 720, 721, 722, 723, 724, 725, 726, 727, 728, 729, 730, 731, 732, 733, 734, 735, 736, 737, 738, 739, 740, 741, 742, 743, 744, 745, 746, 747, 748, 749, 750, 751, 752, 753, 754, 755, 756, 757, 758, 759, 760, 761, 762, 763, 764, 765, 766, 767, 768, 769, 770, 771, 772, 773, 774, 775, 776, 777, 778, 779, 780, 781, 782, 783, 784, 785, 786, 787, 788, 789, 790, 791, 792, 793, 794, 795, 796, 797, 798, 799, 800, 801, 802, 803, 804, 805, 806, 807, 808, 809, 810, 811, 812, 813, 814, 815, 816, 817, 818, 819, 820, 821, 822, 823, 824, 825, 826, 827, 828, 829, 830, 831, 832, 833, 834, 835, 836, 837, 838, 839, 840, 841, 842, 843, 844, 845, 846, 847, 848, 849, 850, 851, 852, 853, 854, 855, 856, 857, 858, 859, 860, 861, 862, 863, 864, 865, 866, 867, 868, 869, 870, 871, 872, 873, 874, 875, 876, 877, 878, 879, 880, 881, 882, 883, 884, 885, 886, 887, 888, 889, 890, 891, 892, 893, 894, 895, 896, 897, 898, 899, 900, 901, 902, 903, 904, 905, 906, 907, 908, 909, 910, 911, 912, 913, 914, 915, 916, 917, 918, 919, 920, 921, 922, 923, 924, 925, 926],
      "AcquisitionTime": ["100949.817500", "100950.277500", "100950.737500", "100951.197500", "100951.657500", "100952.117500", "100952.577500", "100953.037500", "100953.497500", "100953.957500", "100954.417500", "100954.877500", "100955.337500", "100955.797500", "100956.257500", "100956.717500", "100957.177500", "100957.637500", "100958.097500", "100958.557500", "100959.017500", "100959.477500", "100959.937500", "101000.397500", "101000.857500", "101001.317500", "101001.777500", "101002.237500", "101002.697500", "101003.157500", "101003.617500", "101004.077500", "101004.537500", "101004.997500", "101005.457500", "101005.917500", "101006.377500", "101006.837500", "101007.297500", "101007.757500", "101008.217500", "101008.677500", "101009.137500", "101009.597500", "101010.057500", "101010.517500", "101010.977500", "101011.437500", "101011.897500", "101012.357500", "101012.817500", "101013.277500", "101013.737500", "101014.197500", "101014.657500", "101015.117500", "101015.577500", "101016.037500", "101016.497500", "101016.957500", "101017.417500", "101017.877500", "101018.337500", "101018.797500", "101019.257500", "101019.717500", "101020.177500", "101020.637500", "101021.097500", "101021.557500", "101022.017500", "101022.477500", "101022.937500", "101023.397500", "101023.857500", "101024.317500", "101024.777500", "101025.237500", "101025.697500", "101026.157500", "101026.617500", "101027.077500", "101027.537500", "101027.997500", "101028.457500", "101028.917500", "101029.377500", "101029.837500", "101030.297500", "101030.757500", "101031.217500", "101031.677500", "101032.137500", "101032.597500", "101033.057500", "101033.517500", "101033.977500", "101034.437500", "101034.897500", "101035.357500", "101035.817500", "101036.277500", "101036.737500", "101037.197500", "101037.657500", "101038.117500", "101038.577500", "101039.037500", "101039.497500", "101039.957500", "101040.417500", "101040.877500", "101041.337500", "101041.797500", "101042.257500", "101042.717500", "101043.177500", "101043.637500", "101044.097500", "101044.557500", "101045.017500", "101045.477500", "101045.937500", "101046.397500", "101046.857500", "101047.317500", "101047.777500", "101048.237500", "101048.697500", "101049.157500", "101049.617500", "101050.077500", "101050.537500", "101050.997500", "101051.457500", "101051.917500", "101052.377500", "101052.837500", "101053.297500", "101053.757500", "101054.217500", "101054.677500", "101055.137500", "101055.597500", "101056.057500", "101056.517500", "101056.977500", "101057.437500", "101057.897500", "101058.357500", "101058.817500", "101059.277500", "101059.737500", "101100.197500", "101100.657500", "101101.117500", "101101.577500", "101102.037500", "101102.497500", "101102.957500", "101103.417500", "101103.877500", "101104.337500", "101104.797500", "101105.257500", "101105.717500", "101106.177500", "101106.637500", "101107.097500", "101107.557500", "101108.017500", "101108.477500", "101108.937500", "101109.397500", "101109.857500", "101110.317500", "101110.777500", "101111.237500", "101111.697500", "101112.157500", "101112.617500", "101113.077500", "101113.537500", "101113.997500", "101114.457500", "101114.917500", "101115.377500", "101115.837500", "101116.297500", "101116.757500", "101117.217500", "101117.677500", "101118.137500", "101118.597500", "101119.057500", "101119.517500", "101119.977500", "101120.437500", "101120.897500", "101121.357500", "101121.817500", "101122.277500", "101122.737500", "101123.197500", "101123.657500", "101124.117500", "101124.577500", "101125.037500", "101125.497500", "101125.957500", "101126.417500", "101126.877500", "101127.337500", "101127.797500", "101128.257500", "101128.717500", "101129.177500", "101129.637500", "101130.097500", "101130.557500", "101131.017500", "101131.477500", "101131.937500", "101132.397500", "101132.857500", "101133.317500", "101133.777500", "101134.237500", "101134.697500", "101135.157500", "101135.617500", "101136.077500", "101136.537500", "101136.997500", "101137.457500", "101137.917500", "101138.377500", "101138.837500", "101139.297500", "101139.757500", "101140.217500", "101140.677500", "101141.137500", "101141.597500", "101142.057500", "101142.517500", "101142.977500", "101143.437500", "101143.897500", "101144.357500", "101144.817500", "101145.277500", "101145.737500", "101146.197500", "101146.657500", "101147.117500", "101147.577500", "101148.037500", "101148.497500", "101148.957500", "101149.417500", "101149.877500", "101150.337500", "101150.797500", "101151.257500", "101151.717500", "101152.177500", "101152.637500", "101153.097500", "101153.557500", "101154.017500", "101154.477500", "101154.937500", "101155.397500", "101155.857500", "101156.317500", "101156.777500", "101157.237500", "101157.697500", "101158.157500", "101158.617500", "101159.077500", "101159.537500", "101159.997500", "101200.457500", "101200.917500", "101201.377500", "101201.837500", "101202.297500", "101202.757500", "101203.217500", "101203.677500", "101204.137500", "101204.597500", "101205.057500", "101205.517500", "101205.977500", "101206.437500", "101206.897500", "101207.357500", "101207.817500", "101208.277500", "101208.737500", "101209.197500", "101209.657500", "101210.117500", "101210.577500", "101211.037500", "101211.497500", "101211.957500", "101212.417500", "101212.877500", "101213.337500", "101213.797500", "101214.257500", "101214.717500", "101215.177500", "101215.637500", "101216.097500", "101216.557500", "101217.017500", "101217.477500", "101217.937500", "101218.397500", "101218.857500", "101219.317500", "101219.777500", "101220.237500", "101220.697500", "101221.157500", "101221.617500", "101222.077500", "101222.537500", "101222.997500", "101223.457500", "101223.917500", "101224.377500", "101224.837500", "101225.297500", "101225.757500", "101226.217500", "101226.677500", "101227.137500", "101227.597500", "101228.057500", "101228.517500", "101228.977500", "101229.437500", "101229.897500", "101230.357500", "101230.817500", "101231.277500", "101231.737500", "101232.197500", "101232.657500", "101233.117500", "101233.577500", "101234.037500", "101234.497500", "101234.957500", "101235.417500", "101235.877500", "101236.337500", "101236.797500", "101237.257500", "101237.717500", "101238.177500", "101238.637500", "101239.097500", "101239.557500", "101240.017500", "101240.477500", "101240.937500", "101241.397500", "101241.857500", "101242.317500", "101242.777500", "101243.237500", "101243.697500", "101244.157500", "101244.617500", "101245.077500", "101245.537500", "101245.997500", "101246.457500", "101246.917500", "101247.377500", "101247.837500", "101248.297500", "101248.757500", "101249.217500", "101249.677500", "101250.137500", "101250.597500", "101251.057500", "101251.517500", "101251.977500", "101252.437500", "101252.897500", "101253.357500", "101253.817500", "101254.277500", "101254.737500", "101255.197500", "101255.657500", "101256.117500", "101256.577500", "101257.037500", "101257.497500", "101257.957500", "101258.417500", "101258.877500", "101259.337500", "101259.797500", "101300.257500", "101300.717500", "101301.177500", "101301.637500", "101302.097500", "101302.557500", "101303.017500", "101303.477500", "101303.937500", "101304.397500", "101304.857500", "101305.317500", "101305.777500", "101306.237500", "101306.697500", "101307.157500", "101307.617500", "101308.077500", "101308.537500", "101308.997500", "101309.457500", "101309.917500", "101310.377500", "101310.837500", "101311.297500", "101311.757500", "101312.217500", "101312.677500", "101313.137500", "101313.597500", "101314.057500", "101314.517500", "101314.977500", "101315.437500", "101315.897500", "101316.357500", "101316.817500", "101317.277500", "101317.737500", "101318.197500", "101318.657500", "101319.117500", "101319.577500", "101320.037500", "101320.497500", "101320.957500", "101321.417500", "101321.877500", "101322.337500", "101322.797500", "101323.257500", "101323.717500", "101324.177500", "101324.637500", "101325.097500", "101325.557500", "101326.017500", "101326.477500", "101326.937500", "101327.397500", "101327.857500", "101328.317500", "101328.777500", "101329.237500", "101329.697500", "101330.157500", "101330.617500", "101331.077500", "101331.537500", "101331.997500", "101332.457500", "101332.917500", "101333.377500", "101333.837500", "101334.297500", "101334.757500", "101335.217500", "101335.677500", "101336.137500", "101336.597500", "101337.057500", "101337.517500", "101337.977500", "101338.437500", "101338.897500", "101339.357500", "101339.817500", "101340.277500", "101340.737500", "101341.197500", "101341.657500", "101342.117500", "101342.577500", "101343.037500", "101343.497500", "101343.957500", "101344.417500", "101344.877500", "101345.337500", "101345.797500", "101346.257500", "101346.717500", "101347.177500", "101347.637500", "101348.097500", "101348.557500", "101349.017500", "101349.477500", "101349.937500", "101350.397500", "101350.857500", "101351.317500", "101351.777500", "101352.237500", "101352.697500", "101353.157500", "101353.617500", "101354.077500", "101354.537500", "101354.997500", "101355.457500", "101355.917500", "101356.377500", "101356.837500", "101357.297500", "101357.757500", "101358.217500", "101358.677500", "101359.137500", "101359.597500", "101400.057500", "101400.517500", "101400.977500", "101401.437500", "101401.897500", "101402.357500", "101402.817500", "101403.277500", "101403.737500", "101404.197500", "101404.657500", "101405.117500", "101405.577500", "101406.037500", "101406.497500", "101406.957500", "101407.417500", "101407.877500", "101408.337500", "101408.797500", "101409.257500", "101409.717500", "101410.177500", "101410.637500", "101411.097500", "101411.557500", "101412.017500", "101412.477500", "101412.937500", "101413.397500", "101413.857500", "101414.317500", "101414.777500", "101415.237500", "101415.697500", "101416.157500", "101416.617500", "101417.077500", "101417.537500", "101417.997500", "101418.457500", "101418.917500", "101419.377500", "101419.837500", "101420.297500", "101420.757500", "101421.217500", "101421.677500", "101422.137500", "101422.597500", "101423.057500", "101423.517500", "101423.977500", "101424.437500", "101424.897500", "101425.357500", "101425.817500", "101426.277500", "101426.737500", "101427.197500", "101427.657500", "101428.117500", "101428.577500", "101429.037500", "101429.497500", "101429.957500", "101430.417500", "101430.877500", "101431.337500", "101431.797500", "101432.257500", "101432.717500", "101433.177500", "101433.637500", "101434.097500", "101434.557500", "101435.017500", "101435.477500", "101435.937500", "101436.397500", "101436.857500", "101437.317500", "101437.777500", "101438.237500", "101438.697500", "101439.157500", "101439.617500", "101440.077500", "101440.537500", "101440.997500", "101441.457500", "101441.917500", "101442.377500", "101442.837500", "101443.297500", "101443.757500", "101444.217500", "101444.677500", "101445.137500", "101445.597500", "101446.057500", "101446.517500", "101446.977500", "101447.437500", "101447.897500", "101448.357500", "101448.817500", "101449.277500", "101449.737500", "101450.197500", "101450.657500", "101451.117500", "101451.577500", "101452.037500", "101452.497500", "101452.957500", "101453.417500", "101453.877500", "101454.337500", "101454.797500", "101455.257500", "101455.717500", "101456.177500", "101456.637500", "101457.097500", "101457.557500", "101458.017500", "101458.477500", "101458.937500", "101459.397500", "101459.857500", "101500.317500", "101500.777500", "101501.237500", "101501.697500", "101502.157500", "101502.617500", "101503.077500", "101503.537500", "101503.997500", "101504.457500", "101504.917500", "101505.377500", "101505.837500", "101506.297500", "101506.757500", "101507.217500", "101507.677500", "101508.137500", "101508.597500", "101509.057500", "101509.517500", "101509.977500", "101510.437500", "101510.897500", "101511.357500", "101511.817500", "101512.277500", "101512.737500", "101513.197500", "101513.657500", "101514.117500", "101514.577500", "101515.037500", "101515.497500", "101515.957500", "101516.417500", "101516.877500", "101517.337500", "101517.797500", "101518.257500", "101518.717500", "101519.177500", "101519.637500", "101520.097500", "101520.557500", "101521.017500", "101521.477500", "101521.937500", "101522.397500", "101522.857500", "101523.317500", "101523.777500", "101524.237500", "101524.697500", "101525.157500", "101525.617500", "101526.077500", "101526.537500", "101526.997500", "101527.457500", "101527.917500", "101528.377500", "101528.837500", "101529.297500", "101529.757500", "101530.217500", "101530.677500", "101531.137500", "101531.597500", "101532.057500", "101532.517500", "101532.977500", "101533.437500", "101533.897500", "101534.357500", "101534.817500", "101535.277500", "101535.737500", "101536.197500", "101536.657500", "101537.117500", "101537.577500", "101538.037500", "101538.497500", "101538.957500", "101539.417500", "101539.877500", "101540.337500", "101540.797500", "101541.257500", "101541.717500", "101542.177500", "101542.637500", "101543.097500", "101543.557500", "101544.017500", "101544.477500", "101544.937500", "101545.397500", "101545.857500", "101546.317500", "101546.777500", "101547.237500", "101547.697500", "101548.157500", "101548.617500", "101549.077500", "101549.537500", "101549.997500", "101550.457500", "101550.917500", "101551.377500", "101551.837500", "101552.297500", "101552.757500", "101553.217500", "101553.677500", "101554.137500", "101554.597500", "101555.057500", "101555.517500", "101555.977500", "101556.437500", "101556.897500", "101557.357500", "101557.817500", "101558.277500", "101558.737500", "101559.197500", "101559.657500", "101600.117500", "101600.577500", "101601.037500", "101601.497500", "101601.957500", "101602.417500", "101602.877500", "101603.337500", "101603.797500", "101604.257500", "101604.717500", "101605.177500", "101605.637500", "101606.097500", "101606.557500", "101607.017500", "101607.477500", "101607.937500", "101608.397500", "101608.857500", "101609.317500", "101609.777500", "101610.237500", "101610.697500", "101611.157500", "101611.617500", "101612.077500", "101612.537500", "101612.997500", "101613.457500", "101613.917500", "101614.377500", "101614.837500", "101615.297500", "101615.757500", "101616.217500", "101616.677500", "101617.137500", "101617.597500", "101618.057500", "101618.517500", "101618.977500", "101619.437500", "101619.897500", "101620.357500", "101620.817500", "101621.277500", "101621.737500", "101622.197500", "101622.657500", "101623.117500", "101623.577500", "101624.037500", "101624.497500", "101624.957500", "101625.417500", "101625.877500", "101626.337500", "101626.797500", "101627.257500", "101627.717500", "101628.177500", "101628.637500", "101629.097500", "101629.557500", "101630.017500", "101630.477500", "101630.937500", "101631.397500", "101631.857500", "101632.317500", "101632.777500", "101633.237500", "101633.697500", "101634.157500", "101634.617500", "101635.077500", "101635.537500", "101635.997500", "101636.457500", "101636.917500", "101637.377500", "101637.837500", "101638.297500", "101638.757500", "101639.217500", "101639.677500", "101640.137500", "101640.597500", "101641.057500", "101641.517500", "101641.977500", "101642.437500", "101642.897500", "101643.357500", "101643.817500", "101644.277500", "101644.737500", "101645.197500", "101645.657500", "101646.117500", "101646.577500", "101647.037500", "101647.497500", "101647.957500", "101648.417500", "101648.877500", "101649.337500", "101649.797500", "101650.257500", "101650.717500", "101651.177500", "101651.637500", "101652.097500", "101652.557500", "101653.017500", "101653.477500", "101653.937500", "101654.397500", "101654.857500", "101655.317500"],
