{
  "AcquisitionMatrixPE": 82,
  "AcquisitionNumber": 1,
  "AcquisitionTime": "09:50:25.072500",
  "BandwidthPerPixelPhaseEncode": 24.888,
  "BaseResolution": 82,
  "BodyPartExamined": "BRAIN",
  "ConsistencyInfo": "N4_VE11E_LATEST_20181129",
  "ConversionSoftware": "dcm2niix",
  "ConversionSoftwareVersion": "v1.0.20201102",
  "DerivedVendorReportedEchoSpacing": 0.00049,
  "DeviceSerialNumber": "66112",
  "DwellTime": 2e-06,
  "EchoTime": 0.0272,
  "EchoTrainLength": 82,
  "EffectiveEchoSpacing": 0.00049,
  "FlipAngle": 44,
  "ImageComments": "Unaliased MB8/PE3",
  "ImageOrientationPatientDICOM": [0.999596, -0.00558033, 0.0278592, 0.00314033, 0.996215, 0.0868706],
  "ImageType": [
    "ORIGINAL",
    "PRIMARY",
    "M",
    "MB",
    "ND",
    "NORM",
    "MOSAIC"
],
  "ImagingFrequency": 123.252,
  "InPlanePhaseEncodingDirectionDICOM": "COL",
  "InstitutionAddress": "Maynard 3,Hanover,NH,US,03755",
  "InstitutionName": "Dartmouth College - PBS",
  "InstitutionalDepartmentName": "Department",
  "MRAcquisitionType": "2D",
  "MagneticFieldStrength": 3,
  "Manufacturer": "Siemens",
  "ManufacturersModelName": "Prisma",
  "Modality": "MR",
  "MultibandAccelerationFactor": 8,
  "PartialFourier": 1,
  "PatientPosition": "HFS",
  "PercentPhaseFOV": 100,
  "PercentSampling": 100,
  "PhaseEncodingDirection": "j-",
  "PhaseEncodingSteps": 82,
  "PhaseResolution": 1,
  "PixelBandwidth": 3050,
  "ProcedureStepDescription": "Wager_Wager^1076_spacetop",
  "ProtocolName": "func_run-06_task-social_acq-ap-mb8",
  "PulseSequenceDetails": "%CustomerSeq%\\cmrr_mbep2d_bold",
  "ReceiveCoilActiveElements": "HEA;HEP",
  "ReceiveCoilName": "Head_32",
  "ReconMatrixPE": 82,
  "RepetitionTime": 0.46,
  "SAR": 0.106562,
  "ScanOptions": "FS",
  "ScanningSequence": "EP",
  "SequenceName": "epfid2d1_82",
  "SequenceVariant": "SK\\SS",
  "SeriesDescription": "func_run-06_task-social_acq-ap-mb8",
  "SeriesNumber": 22,
  "ShimSetting": [4153, -7743, -7283, 517, -13, -86, 57, 69],
  "SliceThickness": 2.7,
  "SliceTiming": [0, 0.2525, 0.0625, 0.315, 0.125, 0.3775, 0.19, 0, 0.2525, 0.0625, 0.315, 0.125, 0.3775, 0.19, 0, 0.2525, 0.0625, 0.315, 0.125, 0.3775, 0.19, 0, 0.2525, 0.0625, 0.315, 0.125, 0.3775, 0.19, 0, 0.2525, 0.0625, 0.315, 0.125, 0.3775, 0.19, 0, 0.2525, 0.0625, 0.315, 0.125, 0.3775, 0.19, 0, 0.2525, 0.0625, 0.315, 0.125, 0.3775, 0.19, 0, 0.2525, 0.0625, 0.315, 0.125, 0.3775, 0.19],
  "SoftwareVersions": "syngo MR E11",
  "SpacingBetweenSlices": 2.7,
  "StationName": "AWP66112",
  "TaskName": "social",
  "TotalReadoutTime": 0.03969,
  "TxRefAmp": 272.702,
  "WipMemBlock": "f9dbe724-e05f-4b7e-8c51-ad99a2346575||Sequence: R016 ve11e/master r/434b28f1; Aug  7 2019 18:53:46 by eja",
  "dcmmeta_affine": [
    [-2.6818437576293945, 0.008425286039710045, 0.07624388486146927, 111.5133285522461],
    [0.014971623197197914, 2.6727709770202637, 0.23421970009803772, -96.98233795166016],
    [0.07474410533905029, -0.23306746780872345, 2.6887409687042236, -52.44034957885742],
    [0.0, 0.0, 0.0, 1.0]
],
  "dcmmeta_reorient_transform": [
    [0.0, -1.0, 0.0, 81.0],
    [1.0, 0.0, 0.0, 0.0],
    [0.0, 0.0, 1.0, 0.0],
    [0.0, 0.0, 0.0, 1.0]
],
  "dcmmeta_shape": [82, 82, 56, 872],
  "dcmmeta_slice_dim": 2,
  "dcmmeta_version": 0.6,
  "global": {
    "const": {
      "AccessionNumber": "A003954",
      "AcquisitionMatrix": [82, 0, 0, 82],
      "AngioFlag": "N",
      "BitsAllocated": 16,
      "BitsStored": 16,
      "BodyPartExamined": "BRAIN",
      "Columns": 656,
      "EchoNumbers": 1,
      "EchoTime": 27.2,
      "EchoTrainLength": 82,
      "FlipAngle": 44.0,
      "HighBit": 15,
      "ImageOrientationPatient": [0.999596281883, -0.0055803320427, 0.02785916617511, 0.0031403339726, 0.99621465442837, 0.08687059689397],
      "ImagePositionPatient": [-884.30299203655, -882.30056285503, -159.6607336418],
      "ImageType": [
        "ORIGINAL",
        "PRIMARY",
        "M",
        "MB",
        "ND",
        "NORM",
        "MOSAIC"
],
      "ImagedNucleus": "1H",
      "ImagingFrequency": 123.252191,
      "InPlanePhaseEncodingDirection": "COL",
      "MRAcquisitionType": "2D",
      "MagneticFieldStrength": 3.0,
      "Manufacturer": "SIEMENS",
      "ManufacturerModelName": "Prisma",
      "Modality": "MR",
      "NumberOfAverages": 1.0,
      "NumberOfPhaseEncodingSteps": 82,
      "PercentPhaseFieldOfView": 100.0,
      "PercentSampling": 100.0,
      "PerformedProcedureStepStartTime": "083051.236000",
      "PhotometricInterpretation": "MONOCHROME2",
      "PixelBandwidth": 3050.0,
      "PixelRepresentation": 0,
      "PixelSpacing": [2.6829268932343, 2.6829268932343],
      "ProtocolName": "func_run-06_task-social_acq-ap-mb8",
      "RepetitionTime": 460.0,
      "Rows": 656,
      "SAR": 0.10656233914608,
      "SamplesPerPixel": 1,
      "ScanOptions": "FS",
      "ScanningSequence": "EP",
      "SequenceName": "epfid2d1_82",
      "SequenceVariant": [
        "SK",
        "SS"
],
      "SeriesDescription": "func_run-06_task-social_acq-ap-mb8",
      "SeriesNumber": 22,
      "SeriesTime": "095050.889000",
      "SliceLocation": -57.485734153953,
      "SliceThickness": 2.7000000476837,
      "SmallestImagePixelValue": 0,
      "SoftwareVersions": "syngo MR E11",
      "SpacingBetweenSlices": 2.6999999885203,
      "SpecificCharacterSet": "ISO_IR 100",
      "StudyID": "4",
      "StudyTime": "083051.038000",
      "TransmitCoilName": "Body",
      "VariableFlipAngleFlag": "N",
      "WindowCenterWidthExplanation": "Algo1"
    },
    "slices": {}
  },
  "time": {
    "samples": {
      "AcquisitionNumber": [1, 2, 3, 4, 5, 6, 7, 8, 9, 10, 11, 12, 13, 14, 15, 16, 17, 18, 19, 20, 21, 22, 23, 24, 25, 26, 27, 28, 29, 30, 31, 32, 33, 34, 35, 36, 37, 38, 39, 40, 41, 42, 43, 44, 45, 46, 47, 48, 49, 50, 51, 52, 53, 54, 55, 56, 57, 58, 59, 60, 61, 62, 63, 64, 65, 66, 67, 68, 69, 70, 71, 72, 73, 74, 75, 76, 77, 78, 79, 80, 81, 82, 83, 84, 85, 86, 87, 88, 89, 90, 91, 92, 93, 94, 95, 96, 97, 98, 99, 100, 101, 102, 103, 104, 105, 106, 107, 108, 109, 110, 111, 112, 113, 114, 115, 116, 117, 118, 119, 120, 121, 122, 123, 124, 125, 126, 127, 128, 129, 130, 131, 132, 133, 134, 135, 136, 137, 138, 139, 140, 141, 142, 143, 144, 145, 146, 147, 148, 149, 150, 151, 152, 153, 154, 155, 156, 157, 158, 159, 160, 161, 162, 163, 164, 165, 166, 167, 168, 169, 170, 171, 172, 173, 174, 175, 176, 177, 178, 179, 180, 181, 182, 183, 184, 185, 186, 187, 188, 189, 190, 191, 192, 193, 194, 195, 196, 197, 198, 199, 200, 201, 202, 203, 204, 205, 206, 207, 208, 209, 210, 211, 212, 213, 214, 215, 216, 217, 218, 219, 220, 221, 222, 223, 224, 225, 226, 227, 228, 229, 230, 231, 232, 233, 234, 235, 236, 237, 238, 239, 240, 241, 242, 243, 244, 245, 246, 247, 248, 249, 250, 251, 252, 253, 254, 255, 256, 257, 258, 259, 260, 261, 262, 263, 264, 265, 266, 267, 268, 269, 270, 271, 272, 273, 274, 275, 276, 277, 278, 279, 280, 281, 282, 283, 284, 285, 286, 287, 288, 289, 290, 291, 292, 293, 294, 295, 296, 297, 298, 299, 300, 301, 302, 303, 304, 305, 306, 307, 308, 309, 310, 311, 312, 313, 314, 315, 316, 317, 318, 319, 320, 321, 322, 323, 324, 325, 326, 327, 328, 329, 330, 331, 332, 333, 334, 335, 336, 337, 338, 339, 340, 341, 342, 343, 344, 345, 346, 347, 348, 349, 350, 351, 352, 353, 354, 355, 356, 357, 358, 359, 360, 361, 362, 363, 364, 365, 366, 367, 368, 369, 370, 371, 372, 373, 374, 375, 376, 377, 378, 379, 380, 381, 382, 383, 384, 385, 386, 387, 388, 389, 390, 391, 392, 393, 394, 395, 396, 397, 398, 399, 400, 401, 402, 403, 404, 405, 406, 407, 408, 409, 410, 411, 412, 413, 414, 415, 416, 417, 418, 419, 420, 421, 422, 423, 424, 425, 426, 427, 428, 429, 430, 431, 432, 433, 434, 435, 436, 437, 438, 439, 440, 441, 442, 443, 444, 445, 446, 447, 448, 449, 450, 451, 452, 453, 454, 455, 456, 457, 458, 459, 460, 461, 462, 463, 464, 465, 466, 467, 468, 469, 470, 471, 472, 473, 474, 475, 476, 477, 478, 479, 480, 481, 482, 483, 484, 485, 486, 487, 488, 489, 490, 491, 492, 493, 494, 495, 496, 497, 498, 499, 500, 501, 502, 503, 504, 505, 506, 507, 508, 509, 510, 511, 512, 513, 514, 515, 516, 517, 518, 519, 520, 521, 522, 523, 524, 525, 526, 527, 528, 529, 530, 531, 532, 533, 534, 535, 536, 537, 538, 539, 540, 541, 542, 543, 544, 545, 546, 547, 548, 549, 550, 551, 552, 553, 554, 555, 556, 557, 558, 559, 560, 561, 562, 563, 564, 565, 566, 567, 568, 569, 570, 571, 572, 573, 574, 575, 576, 577, 578, 579, 580, 581, 582, 583, 584, 585, 586, 587, 588, 589, 590, 591, 592, 593, 594, 595, 596, 597, 598, 599, 600, 601, 602, 603, 604, 605, 606, 607, 608, 609, 610, 611, 612, 613, 614, 615, 616, 617, 618, 619, 620, 621, 622, 623, 624, 625, 626, 627, 628, 629, 630, 631, 632, 633, 634, 635, 636, 637, 638, 639, 640, 641, 642, 643, 644, 645, 646, 647, 648, 649, 650, 651, 652, 653, 654, 655, 656, 657, 658, 659, 660, 661, 662, 663, 664, 665, 666, 667, 668, 669, 670, 671, 672, 673, 674, 675, 676, 677, 678, 679, 680, 681, 682, 683, 684, 685, 686, 687, 688, 689, 690, 691, 692, 693, 694, 695, 696, 697, 698, 699, 700, 701, 702, 703, 704, 705, 706, 707, 708, 709, 710, 711, 712, 713, 714, 715, 716, 717, 718, 719, 720, 721, 722, 723, 724, 725, 726, 727, 728, 729, 730, 731, 732, 733, 734, 735, 736, 737, 738, 739, 740, 741, 742, 743, 744, 745, 746, 747, 748, 749, 750, 751, 752, 753, 754, 755, 756, 757, 758, 759, 760, 761, 762, 763, 764, 765, 766, 767, 768, 769, 770, 771, 772, 773, 774, 775, 776, 777, 778, 779, 780, 781, 782, 783, 784, 785, 786, 787, 788, 789, 790, 791, 792, 793, 794, 795, 796, 797, 798, 799, 800, 801, 802, 803, 804, 805, 806, 807, 808, 809, 810, 811, 812, 813, 814, 815, 816, 817, 818, 819, 820, 821, 822, 823, 824, 825, 826, 827, 828, 829, 830, 831, 832, 833, 834, 835, 836, 837, 838, 839, 840, 841, 842, 843, 844, 845, 846, 847, 848, 849, 850, 851, 852, 853, 854, 855, 856, 857, 858, 859, 860, 861, 862, 863, 864, 865, 866, 867, 868, 869, 870, 871, 872],
      "AcquisitionTime": ["095025.072500", "095025.532500", "095025.992500", "095026.452500", "095026.912500", "095027.372500", "095027.832500", "095028.292500", "095028.752500", "095029.212500", "095029.672500", "095030.132500", "095030.592500", "095031.052500", "095031.512500", "095031.972500", "095032.432500", "095032.892500", "095033.352500", "095033.812500", "095034.272500", "095034.732500", "095035.192500", "095035.652500", "095036.112500", "095036.572500", "095037.032500", "095037.492500", "095037.952500", "095038.412500", "095038.872500", "095039.332500", "095039.792500", "095040.252500", "095040.712500", "095041.172500", "095041.632500", "095042.092500", "095042.552500", "095043.012500", "095043.472500", "095043.932500", "095044.392500", "095044.852500", "095045.312500", "095045.772500", "095046.232500", "095046.692500", "095047.152500", "095047.612500", "095048.072500", "095048.532500", "095048.992500", "095049.452500", "095049.912500", "095050.372500", "095050.832500", "095051.292500", "095051.752500", "095052.212500", "095052.672500", "095053.132500", "095053.592500", "095054.052500", "095054.512500", "095054.972500", "095055.432500", "095055.892500", "095056.352500", "095056.812500", "095057.272500", "095057.732500", "095058.192500", "095058.652500", "095059.112500", "095059.572500", "095100.032500", "095100.492500", "095100.952500", "095101.412500", "095101.872500", "095102.332500", "095102.792500", "095103.252500", "095103.712500", "095104.172500", "095104.632500", "095105.092500", "095105.552500", "095106.012500", "095106.472500", "095106.932500", "095107.392500", "095107.852500", "095108.312500", "095108.772500", "095109.232500", "095109.692500", "095110.152500", "095110.612500", "095111.072500", "095111.532500", "095111.992500", "095112.452500", "095112.912500", "095113.372500", "095113.832500", "095114.292500", "095114.752500", "095115.212500", "095115.672500", "095116.132500", "095116.592500", "095117.052500", "095117.512500", "095117.972500", "095118.432500", "095118.892500", "095119.352500", "095119.812500", "095120.272500", "095120.732500", "095121.192500", "095121.652500", "095122.112500", "095122.572500", "095123.032500", "095123.492500", "095123.952500", "095124.412500", "095124.872500", "095125.332500", "095125.792500", "095126.252500", "095126.712500", "095127.172500", "095127.632500", "095128.092500", "095128.552500", "095129.012500", "095129.472500", "095129.932500", "095130.392500", "095130.852500", "095131.312500", "095131.772500", "095132.232500", "095132.692500", "095133.152500", "095133.612500", "095134.072500", "095134.532500", "095134.992500", "095135.452500", "095135.912500", "095136.372500", "095136.832500", "095137.292500", "095137.752500", "095138.212500", "095138.672500", "095139.132500", "095139.592500", "095140.052500", "095140.512500", "095140.972500", "095141.432500", "095141.892500", "095142.352500", "095142.812500", "095143.272500", "095143.732500", "095144.192500", "095144.652500", "095145.112500", "095145.572500", "095146.032500", "095146.492500", "095146.952500", "095147.412500", "095147.872500", "095148.332500", "095148.792500", "095149.252500", "095149.712500", "095150.172500", "095150.632500", "095151.092500", "095151.552500", "095152.012500", "095152.472500", "095152.932500", "095153.392500", "095153.852500", "095154.312500", "095154.772500", "095155.232500", "095155.692500", "095156.152500", "095156.612500", "095157.072500", "095157.532500", "095157.992500", "095158.452500", "095158.912500", "095159.372500", "095159.832500", "095200.292500", "095200.752500", "095201.212500", "095201.672500", "095202.132500", "095202.592500", "095203.052500", "095203.512500", "095203.972500", "095204.432500", "095204.892500", "095205.352500", "095205.812500", "095206.272500", "095206.732500", "095207.192500", "095207.652500", "095208.112500", "095208.572500", "095209.032500", "095209.492500", "095209.952500", "095210.412500", "095210.872500", "095211.332500", "095211.792500", "095212.252500", "095212.712500", "095213.172500", "095213.632500", "095214.092500", "095214.552500", "095215.012500", "095215.472500", "095215.932500", "095216.392500", "095216.852500", "095217.312500", "095217.772500", "095218.232500", "095218.692500", "095219.152500", "095219.612500", "095220.072500", "095220.532500", "095220.992500", "095221.452500", "095221.912500", "095222.372500", "095222.832500", "095223.292500", "095223.752500", "095224.212500", "095224.672500", "095225.132500", "095225.592500", "095226.052500", "095226.512500", "095226.972500", "095227.432500", "095227.892500", "095228.352500", "095228.812500", "095229.272500", "095229.732500", "095230.192500", "095230.652500", "095231.112500", "095231.572500", "095232.032500", "095232.492500", "095232.952500", "095233.412500", "095233.872500", "095234.332500", "095234.792500", "095235.252500", "095235.712500", "095236.172500", "095236.632500", "095237.092500", "095237.552500", "095238.012500", "095238.472500", "095238.932500", "095239.392500", "095239.852500", "095240.312500", "095240.772500", "095241.232500", "095241.692500", "095242.152500", "095242.612500", "095243.072500", "095243.532500", "095243.992500", "095244.452500", "095244.912500", "095245.372500", "095245.832500", "095246.292500", "095246.752500", "095247.212500", "095247.672500", "095248.132500", "095248.592500", "095249.052500", "095249.512500", "095249.972500", "095250.432500", "095250.892500", "095251.352500", "095251.812500", "095252.272500", "095252.732500", "095253.192500", "095253.652500", "095254.112500", "095254.572500", "095255.032500", "095255.492500", "095255.952500", "095256.412500", "095256.872500", "095257.332500", "095257.792500", "095258.252500", "095258.712500", "095259.172500", "095259.632500", "095300.092500", "095300.552500", "095301.012500", "095301.472500", "095301.932500", "095302.392500", "095302.852500", "095303.312500", "095303.772500", "095304.232500", "095304.692500", "095305.152500", "095305.612500", "095306.072500", "095306.532500", "095306.992500", "095307.452500", "095307.912500", "095308.372500", "095308.832500", "095309.292500", "095309.752500", "095310.212500", "095310.672500", "095311.132500", "095311.592500", "095312.052500", "095312.512500", "095312.972500", "095313.432500", "095313.892500", "095314.352500", "095314.812500", "095315.272500", "095315.732500", "095316.192500", "095316.652500", "095317.112500", "095317.572500", "095318.032500", "095318.492500", "095318.952500", "095319.412500", "095319.872500", "095320.332500", "095320.792500", "095321.252500", "095321.712500", "095322.172500", "095322.632500", "095323.092500", "095323.552500", "095324.012500", "095324.472500", "095324.932500", "095325.392500", "095325.852500", "095326.312500", "095326.772500", "095327.232500", "095327.692500", "095328.152500", "095328.612500", "095329.072500", "095329.532500", "095329.992500", "095330.452500", "095330.912500", "095331.372500", "095331.832500", "095332.292500", "095332.752500", "095333.212500", "095333.672500", "095334.132500", "095334.592500", "095335.052500", "095335.512500", "095335.972500", "095336.432500", "095336.892500", "095337.352500", "095337.812500", "095338.272500", "095338.732500", "095339.192500", "095339.652500", "095340.112500", "095340.572500", "095341.032500", "095341.492500", "095341.952500", "095342.412500", "095342.872500", "095343.332500", "095343.792500", "095344.252500", "095344.712500", "095345.172500", "095345.632500", "095346.092500", "095346.552500", "095347.012500", "095347.472500", "095347.932500", "095348.392500", "095348.852500", "095349.312500", "095349.772500", "095350.232500", "095350.692500", "095351.152500", "095351.612500", "095352.072500", "095352.532500", "095352.992500", "095353.452500", "095353.912500", "095354.372500", "095354.832500", "095355.292500", "095355.752500", "095356.212500", "095356.672500", "095357.132500", "095357.592500", "095358.052500", "095358.512500", "095358.972500", "095359.432500", "095359.892500", "095400.352500", "095400.812500", "095401.272500", "095401.732500", "095402.192500", "095402.652500", "095403.112500", "095403.572500", "095404.032500", "095404.492500", "095404.952500", "095405.412500", "095405.872500", "095406.332500", "095406.792500", "095407.252500", "095407.712500", "095408.172500", "095408.632500", "095409.092500", "095409.552500", "095410.012500", "095410.472500", "095410.932500", "095411.392500", "095411.852500", "095412.312500", "095412.772500", "095413.232500", "095413.692500", "095414.152500", "095414.612500", "095415.072500", "095415.532500", "095415.992500", "095416.452500", "095416.912500", "095417.372500", "095417.832500", "095418.292500", "095418.752500", "095419.212500", "095419.672500", "095420.132500", "095420.592500", "095421.052500", "095421.512500", "095421.972500", "095422.432500", "095422.892500", "095423.352500", "095423.812500", "095424.272500", "095424.732500", "095425.192500", "095425.652500", "095426.112500", "095426.572500", "095427.032500", "095427.492500", "095427.952500", "095428.412500", "095428.872500", "095429.332500", "095429.792500", "095430.252500", "095430.712500", "095431.172500", "095431.632500", "095432.092500", "095432.552500", "095433.012500", "095433.472500", "095433.932500", "095434.392500", "095434.852500", "095435.312500", "095435.772500", "095436.232500", "095436.692500", "095437.152500", "095437.612500", "095438.072500", "095438.532500", "095438.992500", "095439.452500", "095439.912500", "095440.372500", "095440.832500", "095441.292500", "095441.752500", "095442.212500", "095442.672500", "095443.132500", "095443.592500", "095444.052500", "095444.512500", "095444.972500", "095445.432500", "095445.892500", "095446.352500", "095446.812500", "095447.272500", "095447.732500", "095448.192500", "095448.652500", "095449.112500", "095449.572500", "095450.032500", "095450.492500", "095450.952500", "095451.412500", "095451.872500", "095452.332500", "095452.792500", "095453.252500", "095453.712500", "095454.172500", "095454.632500", "095455.092500", "095455.552500", "095456.012500", "095456.472500", "095456.932500", "095457.392500", "095457.852500", "095458.312500", "095458.772500", "095459.232500", "095459.692500", "095500.152500", "095500.612500", "095501.072500", "095501.532500", "095501.992500", "095502.452500", "095502.912500", "095503.372500", "095503.832500", "095504.292500", "095504.752500", "095505.212500", "095505.672500", "095506.132500", "095506.592500", "095507.052500", "095507.512500", "095507.972500", "095508.432500", "095508.892500", "095509.352500", "095509.812500", "095510.272500", "095510.732500", "095511.192500", "095511.652500", "095512.112500", "095512.572500", "095513.032500", "095513.492500", "095513.952500", "095514.412500", "095514.872500", "095515.332500", "095515.792500", "095516.252500", "095516.712500", "095517.172500", "095517.632500", "095518.092500", "095518.552500", "095519.012500", "095519.472500", "095519.932500", "095520.392500", "095520.852500", "095521.312500", "095521.772500", "095522.232500", "095522.692500", "095523.152500", "095523.612500", "095524.072500", "095524.532500", "095524.992500", "095525.452500", "095525.912500", "095526.372500", "095526.832500", "095527.292500", "095527.752500", "095528.212500", "095528.672500", "095529.132500", "095529.592500", "095530.052500", "095530.512500", "095530.972500", "095531.432500", "095531.892500", "095532.352500", "095532.812500", "095533.272500", "095533.732500", "095534.192500", "095534.652500", "095535.112500", "095535.572500", "095536.032500", "095536.492500", "095536.952500", "095537.412500", "095537.872500", "095538.332500", "095538.792500", "095539.252500", "095539.712500", "095540.172500", "095540.632500", "095541.092500", "095541.552500", "095542.012500", "095542.472500", "095542.932500", "095543.392500", "095543.852500", "095544.312500", "095544.772500", "095545.232500", "095545.692500", "095546.152500", "095546.612500", "095547.072500", "095547.532500", "095547.992500", "095548.452500", "095548.912500", "095549.372500", "095549.832500", "095550.292500", "095550.752500", "095551.212500", "095551.672500", "095552.132500", "095552.592500", "095553.052500", "095553.512500", "095553.972500", "095554.432500", "095554.892500", "095555.352500", "095555.812500", "095556.272500", "095556.732500", "095557.192500", "095557.652500", "095558.112500", "095558.572500", "095559.032500", "095559.492500", "095559.952500", "095600.412500", "095600.872500", "095601.332500", "095601.792500", "095602.252500", "095602.712500", "095603.172500", "095603.632500", "095604.092500", "095604.552500", "095605.012500", "095605.472500", "095605.932500", "095606.392500", "095606.852500", "095607.312500", "095607.772500", "095608.232500", "095608.692500", "095609.152500", "095609.612500", "095610.072500", "095610.532500", "095610.992500", "095611.452500", "095611.912500", "095612.372500", "095612.832500", "095613.292500", "095613.752500", "095614.212500", "095614.672500", "095615.132500", "095615.592500", "095616.052500", "095616.512500", "095616.972500", "095617.432500", "095617.892500", "095618.352500", "095618.812500", "095619.272500", "095619.732500", "095620.192500", "095620.652500", "095621.112500", "095621.572500", "095622.032500", "095622.492500", "095622.952500", "095623.412500", "095623.872500", "095624.332500", "095624.792500", "095625.252500", "095625.712500", "095626.172500", "095626.632500", "095627.092500", "095627.552500", "095628.012500", "095628.472500", "095628.932500", "095629.392500", "095629.852500", "095630.312500", "095630.772500", "095631.232500", "095631.692500", "095632.152500", "095632.612500", "095633.072500", "095633.532500", "095633.992500", "095634.452500", "095634.912500", "095635.372500", "095635.832500", "095636.292500", "095636.752500", "095637.212500", "095637.672500", "095638.132500", "095638.592500", "095639.052500", "095639.512500", "095639.972500", "095640.432500", "095640.892500", "095641.352500", "095641.812500", "095642.272500", "095642.732500", "095643.192500", "095643.652500", "095644.112500", "095644.572500", "095645.032500", "095645.492500", "095645.952500", "095646.412500", "095646.872500", "095647.332500", "095647.792500", "095648.252500", "095648.712500", "095649.172500", "095649.632500", "095650.092500", "095650.552500", "095651.012500", "095651.472500", "095651.932500", "095652.392500", "095652.852500", "095653.312500", "095653.772500", "095654.232500", "095654.692500", "095655.152500", "095655.612500", "095656.072500", "095656.532500", "095656.992500", "095657.452500", "095657.912500", "095658.372500", "095658.832500", "095659.292500", "095659.752500", "095700.212500", "095700.672500", "095701.132500", "095701.592500", "095702.052500", "095702.512500", "095702.972500", "095703.432500", "095703.892500", "095704.352500", "095704.812500", "095705.272500", "095705.732500"],
