{
  "AcquisitionMatrixPE": 82,
  "AcquisitionNumber": 1,
  "AcquisitionTime": "09:43:23.647500",
  "BandwidthPerPixelPhaseEncode": 24.888,
  "BaseResolution": 82,
  "BodyPartExamined": "BRAIN",
  "ConsistencyInfo": "N4_VE11E_LATEST_20181129",
  "ConversionSoftware": "dcm2niix",
  "ConversionSoftwareVersion": "v1.0.20201102",
  "DerivedVendorReportedEchoSpacing": 0.00049,
  "DeviceSerialNumber": "66112",
  "DwellTime": 2e-06,
  "EchoTime": 0.0272,
  "EchoTrainLength": 82,
  "EffectiveEchoSpacing": 0.00049,
  "FlipAngle": 44,
  "ImageComments": "Unaliased MB8/PE3",
  "ImageOrientationPatientDICOM": [0.999596, -0.00558033, 0.0278592, 0.00314033, 0.996215, 0.0868706],
  "ImageType": [
    "ORIGINAL",
    "PRIMARY",
    "M",
    "MB",
    "ND",
    "NORM",
    "MOSAIC"
],
  "ImagingFrequency": 123.252,
  "InPlanePhaseEncodingDirectionDICOM": "COL",
  "InstitutionAddress": "Maynard 3,Hanover,NH,US,03755",
  "InstitutionName": "Dartmouth College - PBS",
  "InstitutionalDepartmentName": "Department",
  "MRAcquisitionType": "2D",
  "MagneticFieldStrength": 3,
  "Manufacturer": "Siemens",
  "ManufacturersModelName": "Prisma",
  "Modality": "MR",
  "MultibandAccelerationFactor": 8,
  "PartialFourier": 1,
  "PatientPosition": "HFS",
  "PercentPhaseFOV": 100,
  "PercentSampling": 100,
  "PhaseEncodingDirection": "j-",
  "PhaseEncodingSteps": 82,
  "PhaseResolution": 1,
  "PixelBandwidth": 3050,
  "ProcedureStepDescription": "Wager_Wager^1076_spacetop",
  "ProtocolName": "func_run-05_task-social_acq-ap-mb8",
  "PulseSequenceDetails": "%CustomerSeq%\\cmrr_mbep2d_bold",
  "ReceiveCoilActiveElements": "HEA;HEP",
  "ReceiveCoilName": "Head_32",
  "ReconMatrixPE": 82,
  "RepetitionTime": 0.46,
  "SAR": 0.106562,
  "ScanOptions": "FS",
  "ScanningSequence": "EP",
  "SequenceName": "epfid2d1_82",
  "SequenceVariant": "SK\\SS",
  "SeriesDescription": "func_run-05_task-social_acq-ap-mb8",
  "SeriesNumber": 20,
  "ShimSetting": [4153, -7743, -7283, 517, -13, -86, 57, 69],
  "SliceThickness": 2.7,
  "SliceTiming": [0, 0.25, 0.0625, 0.3125, 0.125, 0.3775, 0.1875, 0, 0.25, 0.0625, 0.3125, 0.125, 0.3775, 0.1875, 0, 0.25, 0.0625, 0.3125, 0.125, 0.3775, 0.1875, 0, 0.25, 0.0625, 0.3125, 0.125, 0.3775, 0.1875, 0, 0.25, 0.0625, 0.3125, 0.125, 0.3775, 0.1875, 0, 0.25, 0.0625, 0.3125, 0.125, 0.3775, 0.1875, 0, 0.25, 0.0625, 0.3125, 0.125, 0.3775, 0.1875, 0, 0.25, 0.0625, 0.3125, 0.125, 0.3775, 0.1875],
  "SoftwareVersions": "syngo MR E11",
  "SpacingBetweenSlices": 2.7,
  "StationName": "AWP66112",
  "TaskName": "social",
  "TotalReadoutTime": 0.03969,
  "TxRefAmp": 272.702,
  "WipMemBlock": "d79d0807-6a03-4ac7-ba7a-07147a74895f||Sequence: R016 ve11e/master r/434b28f1; Aug  7 2019 18:53:46 by eja",
  "dcmmeta_affine": [
    [-2.6818437576293945, 0.008425286039710045, 0.07624388486146927, 111.5133285522461],
    [0.014971623197197914, 2.6727709770202637, 0.23421970009803772, -96.98233795166016],
    [0.07474410533905029, -0.23306746780872345, 2.6887409687042236, -52.44034957885742],
    [0.0, 0.0, 0.0, 1.0]
],
  "dcmmeta_reorient_transform": [
    [0.0, -1.0, 0.0, 81.0],
    [1.0, 0.0, 0.0, 0.0],
    [0.0, 0.0, 1.0, 0.0],
    [0.0, 0.0, 0.0, 1.0]
],
  "dcmmeta_shape": [82, 82, 56, 872],
  "dcmmeta_slice_dim": 2,
  "dcmmeta_version": 0.6,
  "global": {
    "const": {
      "AccessionNumber": "A003954",
      "AcquisitionMatrix": [82, 0, 0, 82],
      "AngioFlag": "N",
      "BitsAllocated": 16,
      "BitsStored": 16,
      "BodyPartExamined": "BRAIN",
      "Columns": 656,
      "EchoNumbers": 1,
      "EchoTime": 27.2,
      "EchoTrainLength": 82,
      "FlipAngle": 44.0,
      "HighBit": 15,
      "ImageOrientationPatient": [0.999596281883, -0.0055803320427, 0.02785916617511, 0.0031403339726, 0.99621465442837, 0.08687059689397],
      "ImagePositionPatient": [-884.30299203655, -882.30056285503, -159.6607336418],
      "ImageType": [
        "ORIGINAL",
        "PRIMARY",
        "M",
        "MB",
        "ND",
        "NORM",
        "MOSAIC"
],
      "ImagedNucleus": "1H",
      "ImagingFrequency": 123.252189,
      "InPlanePhaseEncodingDirection": "COL",
      "MRAcquisitionType": "2D",
      "MagneticFieldStrength": 3.0,
      "Manufacturer": "SIEMENS",
      "ManufacturerModelName": "Prisma",
      "Modality": "MR",
      "NumberOfAverages": 1.0,
      "NumberOfPhaseEncodingSteps": 82,
      "PercentPhaseFieldOfView": 100.0,
      "PercentSampling": 100.0,
      "PerformedProcedureStepStartTime": "083051.236000",
      "PhotometricInterpretation": "MONOCHROME2",
      "PixelBandwidth": 3050.0,
      "PixelRepresentation": 0,
      "PixelSpacing": [2.6829268932343, 2.6829268932343],
      "ProtocolName": "func_run-05_task-social_acq-ap-mb8",
      "RepetitionTime": 460.0,
      "Rows": 656,
      "SAR": 0.10656233914608,
      "SamplesPerPixel": 1,
      "ScanOptions": "FS",
      "ScanningSequence": "EP",
      "SequenceName": "epfid2d1_82",
      "SequenceVariant": [
        "SK",
        "SS"
],
      "SeriesDescription": "func_run-05_task-social_acq-ap-mb8",
      "SeriesNumber": 20,
      "SeriesTime": "094350.814000",
      "SliceLocation": -57.485734153953,
      "SliceThickness": 2.7000000476837,
      "SmallestImagePixelValue": 0,
      "SoftwareVersions": "syngo MR E11",
      "SpacingBetweenSlices": 2.6999999885203,
      "SpecificCharacterSet": "ISO_IR 100",
      "StudyID": "4",
      "StudyTime": "083051.038000",
      "TransmitCoilName": "Body",
      "VariableFlipAngleFlag": "N",
      "WindowCenterWidthExplanation": "Algo1"
    },
    "slices": {}
  },
  "time": {
    "samples": {
      "AcquisitionNumber": [1, 2, 3, 4, 5, 6, 7, 8, 9, 10, 11, 12, 13, 14, 15, 16, 17, 18, 19, 20, 21, 22, 23, 24, 25, 26, 27, 28, 29, 30, 31, 32, 33, 34, 35, 36, 37, 38, 39, 40, 41, 42, 43, 44, 45, 46, 47, 48, 49, 50, 51, 52, 53, 54, 55, 56, 57, 58, 59, 60, 61, 62, 63, 64, 65, 66, 67, 68, 69, 70, 71, 72, 73, 74, 75, 76, 77, 78, 79, 80, 81, 82, 83, 84, 85, 86, 87, 88, 89, 90, 91, 92, 93, 94, 95, 96, 97, 98, 99, 100, 101, 102, 103, 104, 105, 106, 107, 108, 109, 110, 111, 112, 113, 114, 115, 116, 117, 118, 119, 120, 121, 122, 123, 124, 125, 126, 127, 128, 129, 130, 131, 132, 133, 134, 135, 136, 137, 138, 139, 140, 141, 142, 143, 144, 145, 146, 147, 148, 149, 150, 151, 152, 153, 154, 155, 156, 157, 158, 159, 160, 161, 162, 163, 164, 165, 166, 167, 168, 169, 170, 171, 172, 173, 174, 175, 176, 177, 178, 179, 180, 181, 182, 183, 184, 185, 186, 187, 188, 189, 190, 191, 192, 193, 194, 195, 196, 197, 198, 199, 200, 201, 202, 203, 204, 205, 206, 207, 208, 209, 210, 211, 212, 213, 214, 215, 216, 217, 218, 219, 220, 221, 222, 223, 224, 225, 226, 227, 228, 229, 230, 231, 232, 233, 234, 235, 236, 237, 238, 239, 240, 241, 242, 243, 244, 245, 246, 247, 248, 249, 250, 251, 252, 253, 254, 255, 256, 257, 258, 259, 260, 261, 262, 263, 264, 265, 266, 267, 268, 269, 270, 271, 272, 273, 274, 275, 276, 277, 278, 279, 280, 281, 282, 283, 284, 285, 286, 287, 288, 289, 290, 291, 292, 293, 294, 295, 296, 297, 298, 299, 300, 301, 302, 303, 304, 305, 306, 307, 308, 309, 310, 311, 312, 313, 314, 315, 316, 317, 318, 319, 320, 321, 322, 323, 324, 325, 326, 327, 328, 329, 330, 331, 332, 333, 334, 335, 336, 337, 338, 339, 340, 341, 342, 343, 344, 345, 346, 347, 348, 349, 350, 351, 352, 353, 354, 355, 356, 357, 358, 359, 360, 361, 362, 363, 364, 365, 366, 367, 368, 369, 370, 371, 372, 373, 374, 375, 376, 377, 378, 379, 380, 381, 382, 383, 384, 385, 386, 387, 388, 389, 390, 391, 392, 393, 394, 395, 396, 397, 398, 399, 400, 401, 402, 403, 404, 405, 406, 407, 408, 409, 410, 411, 412, 413, 414, 415, 416, 417, 418, 419, 420, 421, 422, 423, 424, 425, 426, 427, 428, 429, 430, 431, 432, 433, 434, 435, 436, 437, 438, 439, 440, 441, 442, 443, 444, 445, 446, 447, 448, 449, 450, 451, 452, 453, 454, 455, 456, 457, 458, 459, 460, 461, 462, 463, 464, 465, 466, 467, 468, 469, 470, 471, 472, 473, 474, 475, 476, 477, 478, 479, 480, 481, 482, 483, 484, 485, 486, 487, 488, 489, 490, 491, 492, 493, 494, 495, 496, 497, 498, 499, 500, 501, 502, 503, 504, 505, 506, 507, 508, 509, 510, 511, 512, 513, 514, 515, 516, 517, 518, 519, 520, 521, 522, 523, 524, 525, 526, 527, 528, 529, 530, 531, 532, 533, 534, 535, 536, 537, 538, 539, 540, 541, 542, 543, 544, 545, 546, 547, 548, 549, 550, 551, 552, 553, 554, 555, 556, 557, 558, 559, 560, 561, 562, 563, 564, 565, 566, 567, 568, 569, 570, 571, 572, 573, 574, 575, 576, 577, 578, 579, 580, 581, 582, 583, 584, 585, 586, 587, 588, 589, 590, 591, 592, 593, 594, 595, 596, 597, 598, 599, 600, 601, 602, 603, 604, 605, 606, 607, 608, 609, 610, 611, 612, 613, 614, 615, 616, 617, 618, 619, 620, 621, 622, 623, 624, 625, 626, 627, 628, 629, 630, 631, 632, 633, 634, 635, 636, 637, 638, 639, 640, 641, 642, 643, 644, 645, 646, 647, 648, 649, 650, 651, 652, 653, 654, 655, 656, 657, 658, 659, 660, 661, 662, 663, 664, 665, 666, 667, 668, 669, 670, 671, 672, 673, 674, 675, 676, 677, 678, 679, 680, 681, 682, 683, 684, 685, 686, 687, 688, 689, 690, 691, 692, 693, 694, 695, 696, 697, 698, 699, 700, 701, 702, 703, 704, 705, 706, 707, 708, 709, 710, 711, 712, 713, 714, 715, 716, 717, 718, 719, 720, 721, 722, 723, 724, 725, 726, 727, 728, 729, 730, 731, 732, 733, 734, 735, 736, 737, 738, 739, 740, 741, 742, 743, 744, 745, 746, 747, 748, 749, 750, 751, 752, 753, 754, 755, 756, 757, 758, 759, 760, 761, 762, 763, 764, 765, 766, 767, 768, 769, 770, 771, 772, 773, 774, 775, 776, 777, 778, 779, 780, 781, 782, 783, 784, 785, 786, 787, 788, 789, 790, 791, 792, 793, 794, 795, 796, 797, 798, 799, 800, 801, 802, 803, 804, 805, 806, 807, 808, 809, 810, 811, 812, 813, 814, 815, 816, 817, 818, 819, 820, 821, 822, 823, 824, 825, 826, 827, 828, 829, 830, 831, 832, 833, 834, 835, 836, 837, 838, 839, 840, 841, 842, 843, 844, 845, 846, 847, 848, 849, 850, 851, 852, 853, 854, 855, 856, 857, 858, 859, 860, 861, 862, 863, 864, 865, 866, 867, 868, 869, 870, 871, 872],
      "AcquisitionTime": ["094323.647500", "094324.107500", "094324.567500", "094325.027500", "094325.487500", "094325.947500", "094326.407500", "094326.867500", "094327.327500", "094327.787500", "094328.247500", "094328.707500", "094329.167500", "094329.627500", "094330.087500", "094330.547500", "094331.007500", "094331.467500", "094331.927500", "094332.387500", "094332.847500", "094333.307500", "094333.767500", "094334.227500", "094334.687500", "094335.147500", "094335.607500", "094336.067500", "094336.527500", "094336.987500", "094337.447500", "094337.907500", "094338.367500", "094338.827500", "094339.287500", "094339.747500", "094340.207500", "094340.667500", "094341.127500", "094341.587500", "094342.047500", "094342.507500", "094342.967500", "094343.427500", "094343.887500", "094344.347500", "094344.807500", "094345.267500", "094345.727500", "094346.187500", "094346.647500", "094347.107500", "094347.567500", "094348.027500", "094348.487500", "094348.947500", "094349.407500", "094349.867500", "094350.327500", "094350.787500", "094351.247500", "094351.707500", "094352.167500", "094352.627500", "094353.087500", "094353.547500", "094354.007500", "094354.467500", "094354.927500", "094355.387500", "094355.847500", "094356.307500", "094356.767500", "094357.227500", "094357.687500", "094358.147500", "094358.607500", "094359.067500", "094359.527500", "094359.987500", "094400.447500", "094400.907500", "094401.367500", "094401.827500", "094402.287500", "094402.747500", "094403.207500", "094403.667500", "094404.127500", "094404.587500", "094405.047500", "094405.507500", "094405.967500", "094406.427500", "094406.887500", "094407.347500", "094407.807500", "094408.267500", "094408.727500", "094409.187500", "094409.647500", "094410.107500", "094410.567500", "094411.027500", "094411.487500", "094411.947500", "094412.407500", "094412.867500", "094413.327500", "094413.787500", "094414.247500", "094414.707500", "094415.167500", "094415.627500", "094416.087500", "094416.547500", "094417.007500", "094417.467500", "094417.927500", "094418.387500", "094418.847500", "094419.307500", "094419.767500", "094420.227500", "094420.687500", "094421.147500", "094421.607500", "094422.067500", "094422.527500", "094422.987500", "094423.447500", "094423.907500", "094424.367500", "094424.827500", "094425.287500", "094425.747500", "094426.207500", "094426.667500", "094427.127500", "094427.587500", "094428.047500", "094428.507500", "094428.967500", "094429.427500", "094429.887500", "094430.347500", "094430.807500", "094431.267500", "094431.727500", "094432.187500", "094432.647500", "094433.107500", "094433.567500", "094434.027500", "094434.487500", "094434.947500", "094435.407500", "094435.867500", "094436.327500", "094436.787500", "094437.247500", "094437.707500", "094438.167500", "094438.627500", "094439.087500", "094439.547500", "094440.007500", "094440.467500", "094440.927500", "094441.387500", "094441.847500", "094442.307500", "094442.767500", "094443.227500", "094443.687500", "094444.147500", "094444.607500", "094445.067500", "094445.527500", "094445.987500", "094446.447500", "094446.907500", "094447.367500", "094447.827500", "094448.287500", "094448.747500", "094449.207500", "094449.667500", "094450.127500", "094450.587500", "094451.047500", "094451.507500", "094451.967500", "094452.427500", "094452.887500", "094453.347500", "094453.807500", "094454.267500", "094454.727500", "094455.187500", "094455.647500", "094456.107500", "094456.567500", "094457.027500", "094457.487500", "094457.947500", "094458.407500", "094458.867500", "094459.327500", "094459.787500", "094500.247500", "094500.707500", "094501.167500", "094501.627500", "094502.087500", "094502.547500", "094503.007500", "094503.467500", "094503.927500", "094504.387500", "094504.847500", "094505.307500", "094505.767500", "094506.227500", "094506.687500", "094507.147500", "094507.607500", "094508.067500", "094508.527500", "094508.987500", "094509.447500", "094509.907500", "094510.367500", "094510.827500", "094511.287500", "094511.747500", "094512.207500", "094512.667500", "094513.127500", "094513.587500", "094514.047500", "094514.507500", "094514.967500", "094515.427500", "094515.887500", "094516.347500", "094516.807500", "094517.267500", "094517.727500", "094518.187500", "094518.647500", "094519.107500", "094519.567500", "094520.027500", "094520.487500", "094520.947500", "094521.407500", "094521.867500", "094522.327500", "094522.787500", "094523.247500", "094523.707500", "094524.167500", "094524.627500", "094525.087500", "094525.547500", "094526.007500", "094526.467500", "094526.927500", "094527.387500", "094527.847500", "094528.307500", "094528.767500", "094529.227500", "094529.687500", "094530.147500", "094530.607500", "094531.067500", "094531.527500", "094531.987500", "094532.447500", "094532.907500", "094533.367500", "094533.827500", "094534.287500", "094534.747500", "094535.207500", "094535.667500", "094536.127500", "094536.587500", "094537.047500", "094537.507500", "094537.967500", "094538.427500", "094538.887500", "094539.347500", "094539.807500", "094540.267500", "094540.727500", "094541.187500", "094541.647500", "094542.107500", "094542.567500", "094543.027500", "094543.487500", "094543.947500", "094544.407500", "094544.867500", "094545.327500", "094545.787500", "094546.247500", "094546.707500", "094547.167500", "094547.627500", "094548.087500", "094548.547500", "094549.007500", "094549.467500", "094549.927500", "094550.387500", "094550.847500", "094551.307500", "094551.767500", "094552.227500", "094552.687500", "094553.147500", "094553.607500", "094554.067500", "094554.527500", "094554.987500", "094555.447500", "094555.907500", "094556.367500", "094556.827500", "094557.287500", "094557.747500", "094558.207500", "094558.667500", "094559.127500", "094559.587500", "094600.047500", "094600.507500", "094600.967500", "094601.427500", "094601.887500", "094602.347500", "094602.807500", "094603.267500", "094603.727500", "094604.187500", "094604.647500", "094605.107500", "094605.567500", "094606.027500", "094606.487500", "094606.947500", "094607.407500", "094607.867500", "094608.327500", "094608.787500", "094609.247500", "094609.707500", "094610.167500", "094610.627500", "094611.087500", "094611.547500", "094612.007500", "094612.467500", "094612.927500", "094613.387500", "094613.847500", "094614.307500", "094614.767500", "094615.227500", "094615.687500", "094616.147500", "094616.607500", "094617.067500", "094617.527500", "094617.987500", "094618.447500", "094618.907500", "094619.367500", "094619.827500", "094620.287500", "094620.747500", "094621.207500", "094621.667500", "094622.127500", "094622.587500", "094623.047500", "094623.507500", "094623.967500", "094624.427500", "094624.887500", "094625.347500", "094625.807500", "094626.267500", "094626.727500", "094627.187500", "094627.647500", "094628.107500", "094628.567500", "094629.027500", "094629.487500", "094629.947500", "094630.407500", "094630.867500", "094631.327500", "094631.787500", "094632.247500", "094632.707500", "094633.167500", "094633.627500", "094634.087500", "094634.547500", "094635.007500", "094635.467500", "094635.927500", "094636.387500", "094636.847500", "094637.307500", "094637.767500", "094638.227500", "094638.687500", "094639.147500", "094639.607500", "094640.067500", "094640.527500", "094640.987500", "094641.447500", "094641.907500", "094642.367500", "094642.827500", "094643.287500", "094643.747500", "094644.207500", "094644.667500", "094645.127500", "094645.587500", "094646.047500", "094646.507500", "094646.967500", "094647.427500", "094647.887500", "094648.347500", "094648.807500", "094649.267500", "094649.727500", "094650.187500", "094650.647500", "094651.107500", "094651.567500", "094652.027500", "094652.487500", "094652.947500", "094653.407500", "094653.867500", "094654.327500", "094654.787500", "094655.247500", "094655.707500", "094656.167500", "094656.627500", "094657.087500", "094657.547500", "094658.007500", "094658.467500", "094658.927500", "094659.387500", "094659.847500", "094700.307500", "094700.767500", "094701.227500", "094701.687500", "094702.147500", "094702.607500", "094703.067500", "094703.527500", "094703.987500", "094704.447500", "094704.907500", "094705.367500", "094705.827500", "094706.287500", "094706.747500", "094707.207500", "094707.667500", "094708.127500", "094708.587500", "094709.047500", "094709.507500", "094709.967500", "094710.427500", "094710.887500", "094711.347500", "094711.807500", "094712.267500", "094712.727500", "094713.187500", "094713.647500", "094714.107500", "094714.567500", "094715.027500", "094715.487500", "094715.947500", "094716.407500", "094716.867500", "094717.327500", "094717.787500", "094718.247500", "094718.707500", "094719.167500", "094719.627500", "094720.087500", "094720.547500", "094721.007500", "094721.467500", "094721.927500", "094722.387500", "094722.847500", "094723.307500", "094723.767500", "094724.227500", "094724.687500", "094725.147500", "094725.607500", "094726.067500", "094726.527500", "094726.987500", "094727.447500", "094727.907500", "094728.367500", "094728.827500", "094729.287500", "094729.747500", "094730.207500", "094730.667500", "094731.127500", "094731.587500", "094732.047500", "094732.507500", "094732.967500", "094733.427500", "094733.887500", "094734.347500", "094734.807500", "094735.267500", "094735.727500", "094736.187500", "094736.647500", "094737.107500", "094737.567500", "094738.027500", "094738.487500", "094738.947500", "094739.407500", "094739.867500", "094740.327500", "094740.787500", "094741.247500", "094741.707500", "094742.167500", "094742.627500", "094743.087500", "094743.547500", "094744.007500", "094744.467500", "094744.927500", "094745.387500", "094745.847500", "094746.307500", "094746.767500", "094747.227500", "094747.687500", "094748.147500", "094748.607500", "094749.067500", "094749.527500", "094749.987500", "094750.447500", "094750.907500", "094751.367500", "094751.827500", "094752.287500", "094752.747500", "094753.207500", "094753.667500", "094754.127500", "094754.587500", "094755.047500", "094755.507500", "094755.967500", "094756.427500", "094756.887500", "094757.347500", "094757.807500", "094758.267500", "094758.727500", "094759.187500", "094759.647500", "094800.107500", "094800.567500", "094801.027500", "094801.487500", "094801.947500", "094802.407500", "094802.867500", "094803.327500", "094803.787500", "094804.247500", "094804.707500", "094805.167500", "094805.627500", "094806.087500", "094806.547500", "094807.007500", "094807.467500", "094807.927500", "094808.387500", "094808.847500", "094809.307500", "094809.767500", "094810.227500", "094810.687500", "094811.147500", "094811.607500", "094812.067500", "094812.527500", "094812.987500", "094813.447500", "094813.907500", "094814.367500", "094814.827500", "094815.287500", "094815.747500", "094816.207500", "094816.667500", "094817.127500", "094817.587500", "094818.047500", "094818.507500", "094818.967500", "094819.427500", "094819.887500", "094820.347500", "094820.807500", "094821.267500", "094821.727500", "094822.187500", "094822.647500", "094823.107500", "094823.567500", "094824.027500", "094824.487500", "094824.947500", "094825.407500", "094825.867500", "094826.327500", "094826.787500", "094827.247500", "094827.707500", "094828.167500", "094828.627500", "094829.087500", "094829.547500", "094830.007500", "094830.467500", "094830.927500", "094831.387500", "094831.847500", "094832.307500", "094832.767500", "094833.227500", "094833.687500", "094834.147500", "094834.607500", "094835.067500", "094835.527500", "094835.987500", "094836.447500", "094836.907500", "094837.367500", "094837.827500", "094838.287500", "094838.747500", "094839.207500", "094839.667500", "094840.127500", "094840.587500", "094841.047500", "094841.507500", "094841.967500", "094842.427500", "094842.887500", "094843.347500", "094843.807500", "094844.267500", "094844.727500", "094845.187500", "094845.647500", "094846.107500", "094846.567500", "094847.027500", "094847.487500", "094847.947500", "094848.407500", "094848.867500", "094849.327500", "094849.787500", "094850.247500", "094850.707500", "094851.167500", "094851.627500", "094852.087500", "094852.547500", "094853.007500", "094853.467500", "094853.927500", "094854.387500", "094854.847500", "094855.307500", "094855.767500", "094856.227500", "094856.687500", "094857.147500", "094857.607500", "094858.067500", "094858.527500", "094858.987500", "094859.447500", "094859.907500", "094900.367500", "094900.827500", "094901.287500", "094901.747500", "094902.207500", "094902.667500", "094903.127500", "094903.587500", "094904.047500", "094904.507500", "094904.967500", "094905.427500", "094905.887500", "094906.347500", "094906.807500", "094907.267500", "094907.727500", "094908.187500", "094908.647500", "094909.107500", "094909.567500", "094910.027500", "094910.487500", "094910.947500", "094911.407500", "094911.867500", "094912.327500", "094912.787500", "094913.247500", "094913.707500", "094914.167500", "094914.627500", "094915.087500", "094915.547500", "094916.007500", "094916.467500", "094916.927500", "094917.387500", "094917.847500", "094918.307500", "094918.767500", "094919.227500", "094919.687500", "094920.147500", "094920.607500", "094921.067500", "094921.527500", "094921.987500", "094922.447500", "094922.907500", "094923.367500", "094923.827500", "094924.287500", "094924.747500", "094925.207500", "094925.667500", "094926.127500", "094926.587500", "094927.047500", "094927.507500", "094927.967500", "094928.427500", "094928.887500", "094929.347500", "094929.807500", "094930.267500", "094930.727500", "094931.187500", "094931.647500", "094932.107500", "094932.567500", "094933.027500", "094933.487500", "094933.947500", "094934.407500", "094934.867500", "094935.327500", "094935.787500", "094936.247500", "094936.707500", "094937.167500", "094937.627500", "094938.087500", "094938.547500", "094939.007500", "094939.467500", "094939.927500", "094940.387500", "094940.847500", "094941.307500", "094941.767500", "094942.227500", "094942.687500", "094943.147500", "094943.607500", "094944.067500", "094944.527500", "094944.987500", "094945.447500", "094945.907500", "094946.367500", "094946.827500", "094947.287500", "094947.747500", "094948.207500", "094948.667500", "094949.127500", "094949.587500", "094950.047500", "094950.507500", "094950.967500", "094951.427500", "094951.887500", "094952.347500", "094952.807500", "094953.267500", "094953.727500", "094954.187500", "094954.647500", "094955.107500", "094955.567500", "094956.027500", "094956.487500", "094956.947500", "094957.407500", "094957.867500", "094958.327500", "094958.787500", "094959.247500", "094959.707500", "095000.167500", "095000.627500", "095001.087500", "095001.547500", "095002.007500", "095002.467500", "095002.927500", "095003.387500", "095003.847500", "095004.307500"],
