{
  "AcquisitionMatrixPE": 82,
  "AcquisitionNumber": 1,
  "AcquisitionTime": "09:26:29.462500",
  "BandwidthPerPixelPhaseEncode": 24.888,
  "BaseResolution": 82,
  "BodyPartExamined": "BRAIN",
  "ConsistencyInfo": "N4_VE11E_LATEST_20181129",
  "ConversionSoftware": "dcm2niix",
  "ConversionSoftwareVersion": "v1.0.20201102",
  "DerivedVendorReportedEchoSpacing": 0.00049,
  "DeviceSerialNumber": "66112",
  "DwellTime": 2e-06,
  "EchoTime": 0.0272,
  "EchoTrainLength": 82,
  "EffectiveEchoSpacing": 0.00049,
  "FlipAngle": 44,
  "ImageComments": "Unaliased MB8/PE3",
  "ImageOrientationPatientDICOM": [0.999596, -0.00558033, 0.0278592, 0.00314033, 0.996215, 0.0868706],
  "ImageType": [
    "ORIGINAL",
    "PRIMARY",
    "M",
    "MB",
    "ND",
    "NORM",
    "MOSAIC"
],
  "ImagingFrequency": 123.252,
  "InPlanePhaseEncodingDirectionDICOM": "COL",
  "InstitutionAddress": "Maynard 3,Hanover,NH,US,03755",
  "InstitutionName": "Dartmouth College - PBS",
  "InstitutionalDepartmentName": "Department",
  "MRAcquisitionType": "2D",
  "MagneticFieldStrength": 3,
  "Manufacturer": "Siemens",
  "ManufacturersModelName": "Prisma",
  "Modality": "MR",
  "MultibandAccelerationFactor": 8,
  "PartialFourier": 1,
  "PatientPosition": "HFS",
  "PercentPhaseFOV": 100,
  "PercentSampling": 100,
  "PhaseEncodingDirection": "j-",
  "PhaseEncodingSteps": 82,
  "PhaseResolution": 1,
  "PixelBandwidth": 3050,
  "ProcedureStepDescription": "Wager_Wager^1076_spacetop",
  "ProtocolName": "func_run-03_task-social_acq-ap-mb8",
  "PulseSequenceDetails": "%CustomerSeq%\\cmrr_mbep2d_bold",
  "ReceiveCoilActiveElements": "HEA;HEP",
  "ReceiveCoilName": "Head_32",
  "ReconMatrixPE": 82,
  "RepetitionTime": 0.46,
  "SAR": 0.106562,
  "ScanOptions": "FS",
  "ScanningSequence": "EP",
  "SequenceName": "epfid2d1_82",
  "SequenceVariant": "SK\\SS",
  "SeriesDescription": "func_run-03_task-social_acq-ap-mb8",
  "SeriesNumber": 16,
  "ShimSetting": [4153, -7743, -7283, 517, -13, -86, 57, 69],
  "SliceThickness": 2.7,
  "SliceTiming": [0, 0.25, 0.0625, 0.3125, 0.125, 0.375, 0.1875, 0, 0.25, 0.0625, 0.3125, 0.125, 0.375, 0.1875, 0, 0.25, 0.0625, 0.3125, 0.125, 0.375, 0.1875, 0, 0.25, 0.0625, 0.3125, 0.125, 0.375, 0.1875, 0, 0.25, 0.0625, 0.3125, 0.125, 0.375, 0.1875, 0, 0.25, 0.0625, 0.3125, 0.125, 0.375, 0.1875, 0, 0.25, 0.0625, 0.3125, 0.125, 0.375, 0.1875, 0, 0.25, 0.0625, 0.3125, 0.125, 0.375, 0.1875],
  "SoftwareVersions": "syngo MR E11",
  "SpacingBetweenSlices": 2.7,
  "StationName": "AWP66112",
  "TaskName": "social",
  "TotalReadoutTime": 0.03969,
  "TxRefAmp": 272.702,
  "WipMemBlock": "b0d71e5b-0201-4565-a1fc-1a327f742011||Sequence: R016 ve11e/master r/434b28f1; Aug  7 2019 18:53:46 by eja",
  "dcmmeta_affine": [
    [-2.6818437576293945, 0.008425286039710045, 0.07624388486146927, 111.5133285522461],
    [0.014971623197197914, 2.6727709770202637, 0.23421970009803772, -96.98233795166016],
    [0.07474410533905029, -0.23306746780872345, 2.6887409687042236, -52.44034957885742],
    [0.0, 0.0, 0.0, 1.0]
],
  "dcmmeta_reorient_transform": [
    [0.0, -1.0, 0.0, 81.0],
    [1.0, 0.0, 0.0, 0.0],
    [0.0, 0.0, 1.0, 0.0],
    [0.0, 0.0, 0.0, 1.0]
],
  "dcmmeta_shape": [82, 82, 56, 872],
  "dcmmeta_slice_dim": 2,
  "dcmmeta_version": 0.6,
  "global": {
    "const": {
      "AccessionNumber": "A003954",
      "AcquisitionMatrix": [82, 0, 0, 82],
      "AngioFlag": "N",
      "BitsAllocated": 16,
      "BitsStored": 16,
      "BodyPartExamined": "BRAIN",
      "Columns": 656,
      "EchoNumbers": 1,
      "EchoTime": 27.2,
      "EchoTrainLength": 82,
      "FlipAngle": 44.0,
      "HighBit": 15,
      "ImageOrientationPatient": [0.999596281883, -0.0055803320427, 0.02785916617511, 0.0031403339726, 0.99621465442837, 0.08687059689397],
      "ImagePositionPatient": [-884.30299203655, -882.30056285503, -159.6607336418],
      "ImageType": [
        "ORIGINAL",
        "PRIMARY",
        "M",
        "MB",
        "ND",
        "NORM",
        "MOSAIC"
],
      "ImagedNucleus": "1H",
      "ImagingFrequency": 123.252185,
      "InPlanePhaseEncodingDirection": "COL",
      "MRAcquisitionType": "2D",
      "MagneticFieldStrength": 3.0,
      "Manufacturer": "SIEMENS",
      "ManufacturerModelName": "Prisma",
      "Modality": "MR",
      "NumberOfAverages": 1.0,
      "NumberOfPhaseEncodingSteps": 82,
      "PercentPhaseFieldOfView": 100.0,
      "PercentSampling": 100.0,
      "PerformedProcedureStepStartTime": "083051.236000",
      "PhotometricInterpretation": "MONOCHROME2",
      "PixelBandwidth": 3050.0,
      "PixelRepresentation": 0,
      "PixelSpacing": [2.6829268932343, 2.6829268932343],
      "ProtocolName": "func_run-03_task-social_acq-ap-mb8",
      "RepetitionTime": 460.0,
      "Rows": 656,
      "SAR": 0.10656233914608,
      "SamplesPerPixel": 1,
      "ScanOptions": "FS",
      "ScanningSequence": "EP",
      "SequenceName": "epfid2d1_82",
      "SequenceVariant": [
        "SK",
        "SS"
],
      "SeriesDescription": "func_run-03_task-social_acq-ap-mb8",
      "SeriesNumber": 16,
      "SeriesTime": "092650.904000",
      "SliceLocation": -57.485734153953,
      "SliceThickness": 2.7000000476837,
      "SmallestImagePixelValue": 0,
      "SoftwareVersions": "syngo MR E11",
      "SpacingBetweenSlices": 2.6999999885203,
      "SpecificCharacterSet": "ISO_IR 100",
      "StudyID": "4",
      "StudyTime": "083051.038000",
      "TransmitCoilName": "Body",
      "VariableFlipAngleFlag": "N",
      "WindowCenterWidthExplanation": "Algo1"
    },
    "slices": {}
  },
  "time": {
    "samples": {
      "AcquisitionNumber": [1, 2, 3, 4, 5, 6, 7, 8, 9, 10, 11, 12, 13, 14, 15, 16, 17, 18, 19, 20, 21, 22, 23, 24, 25, 26, 27, 28, 29, 30, 31, 32, 33, 34, 35, 36, 37, 38, 39, 40, 41, 42, 43, 44, 45, 46, 47, 48, 49, 50, 51, 52, 53, 54, 55, 56, 57, 58, 59, 60, 61, 62, 63, 64, 65, 66, 67, 68, 69, 70, 71, 72, 73, 74, 75, 76, 77, 78, 79, 80, 81, 82, 83, 84, 85, 86, 87, 88, 89, 90, 91, 92, 93, 94, 95, 96, 97, 98, 99, 100, 101, 102, 103, 104, 105, 106, 107, 108, 109, 110, 111, 112, 113, 114, 115, 116, 117, 118, 119, 120, 121, 122, 123, 124, 125, 126, 127, 128, 129, 130, 131, 132, 133, 134, 135, 136, 137, 138, 139, 140, 141, 142, 143, 144, 145, 146, 147, 148, 149, 150, 151, 152, 153, 154, 155, 156, 157, 158, 159, 160, 161, 162, 163, 164, 165, 166, 167, 168, 169, 170, 171, 172, 173, 174, 175, 176, 177, 178, 179, 180, 181, 182, 183, 184, 185, 186, 187, 188, 189, 190, 191, 192, 193, 194, 195, 196, 197, 198, 199, 200, 201, 202, 203, 204, 205, 206, 207, 208, 209, 210, 211, 212, 213, 214, 215, 216, 217, 218, 219, 220, 221, 222, 223, 224, 225, 226, 227, 228, 229, 230, 231, 232, 233, 234, 235, 236, 237, 238, 239, 240, 241, 242, 243, 244, 245, 246, 247, 248, 249, 250, 251, 252, 253, 254, 255, 256, 257, 258, 259, 260, 261, 262, 263, 264, 265, 266, 267, 268, 269, 270, 271, 272, 273, 274, 275, 276, 277, 278, 279, 280, 281, 282, 283, 284, 285, 286, 287, 288, 289, 290, 291, 292, 293, 294, 295, 296, 297, 298, 299, 300, 301, 302, 303, 304, 305, 306, 307, 308, 309, 310, 311, 312, 313, 314, 315, 316, 317, 318, 319, 320, 321, 322, 323, 324, 325, 326, 327, 328, 329, 330, 331, 332, 333, 334, 335, 336, 337, 338, 339, 340, 341, 342, 343, 344, 345, 346, 347, 348, 349, 350, 351, 352, 353, 354, 355, 356, 357, 358, 359, 360, 361, 362, 363, 364, 365, 366, 367, 368, 369, 370, 371, 372, 373, 374, 375, 376, 377, 378, 379, 380, 381, 382, 383, 384, 385, 386, 387, 388, 389, 390, 391, 392, 393, 394, 395, 396, 397, 398, 399, 400, 401, 402, 403, 404, 405, 406, 407, 408, 409, 410, 411, 412, 413, 414, 415, 416, 417, 418, 419, 420, 421, 422, 423, 424, 425, 426, 427, 428, 429, 430, 431, 432, 433, 434, 435, 436, 437, 438, 439, 440, 441, 442, 443, 444, 445, 446, 447, 448, 449, 450, 451, 452, 453, 454, 455, 456, 457, 458, 459, 460, 461, 462, 463, 464, 465, 466, 467, 468, 469, 470, 471, 472, 473, 474, 475, 476, 477, 478, 479, 480, 481, 482, 483, 484, 485, 486, 487, 488, 489, 490, 491, 492, 493, 494, 495, 496, 497, 498, 499, 500, 501, 502, 503, 504, 505, 506, 507, 508, 509, 510, 511, 512, 513, 514, 515, 516, 517, 518, 519, 520, 521, 522, 523, 524, 525, 526, 527, 528, 529, 530, 531, 532, 533, 534, 535, 536, 537, 538, 539, 540, 541, 542, 543, 544, 545, 546, 547, 548, 549, 550, 551, 552, 553, 554, 555, 556, 557, 558, 559, 560, 561, 562, 563, 564, 565, 566, 567, 568, 569, 570, 571, 572, 573, 574, 575, 576, 577, 578, 579, 580, 581, 582, 583, 584, 585, 586, 587, 588, 589, 590, 591, 592, 593, 594, 595, 596, 597, 598, 599, 600, 601, 602, 603, 604, 605, 606, 607, 608, 609, 610, 611, 612, 613, 614, 615, 616, 617, 618, 619, 620, 621, 622, 623, 624, 625, 626, 627, 628, 629, 630, 631, 632, 633, 634, 635, 636, 637, 638, 639, 640, 641, 642, 643, 644, 645, 646, 647, 648, 649, 650, 651, 652, 653, 654, 655, 656, 657, 658, 659, 660, 661, 662, 663, 664, 665, 666, 667, 668, 669, 670, 671, 672, 673, 674, 675, 676, 677, 678, 679, 680, 681, 682, 683, 684, 685, 686, 687, 688, 689, 690, 691, 692, 693, 694, 695, 696, 697, 698, 699, 700, 701, 702, 703, 704, 705, 706, 707, 708, 709, 710, 711, 712, 713, 714, 715, 716, 717, 718, 719, 720, 721, 722, 723, 724, 725, 726, 727, 728, 729, 730, 731, 732, 733, 734, 735, 736, 737, 738, 739, 740, 741, 742, 743, 744, 745, 746, 747, 748, 749, 750, 751, 752, 753, 754, 755, 756, 757, 758, 759, 760, 761, 762, 763, 764, 765, 766, 767, 768, 769, 770, 771, 772, 773, 774, 775, 776, 777, 778, 779, 780, 781, 782, 783, 784, 785, 786, 787, 788, 789, 790, 791, 792, 793, 794, 795, 796, 797, 798, 799, 800, 801, 802, 803, 804, 805, 806, 807, 808, 809, 810, 811, 812, 813, 814, 815, 816, 817, 818, 819, 820, 821, 822, 823, 824, 825, 826, 827, 828, 829, 830, 831, 832, 833, 834, 835, 836, 837, 838, 839, 840, 841, 842, 843, 844, 845, 846, 847, 848, 849, 850, 851, 852, 853, 854, 855, 856, 857, 858, 859, 860, 861, 862, 863, 864, 865, 866, 867, 868, 869, 870, 871, 872],
      "AcquisitionTime": ["092629.462500", "092629.922500", "092630.382500", "092630.842500", "092631.302500", "092631.762500", "092632.222500", "092632.682500", "092633.142500", "092633.602500", "092634.062500", "092634.522500", "092634.982500", "092635.442500", "092635.902500", "092636.362500", "092636.822500", "092637.282500", "092637.742500", "092638.202500", "092638.662500", "092639.122500", "092639.582500", "092640.042500", "092640.502500", "092640.962500", "092641.422500", "092641.882500", "092642.342500", "092642.802500", "092643.262500", "092643.722500", "092644.182500", "092644.642500", "092645.102500", "092645.562500", "092646.022500", "092646.482500", "092646.942500", "092647.402500", "092647.862500", "092648.322500", "092648.782500", "092649.242500", "092649.702500", "092650.162500", "092650.622500", "092651.082500", "092651.542500", "092652.002500", "092652.462500", "092652.922500", "092653.382500", "092653.842500", "092654.302500", "092654.762500", "092655.222500", "092655.682500", "092656.142500", "092656.602500", "092657.062500", "092657.522500", "092657.982500", "092658.442500", "092658.902500", "092659.362500", "092659.822500", "092700.282500", "092700.742500", "092701.202500", "092701.662500", "092702.122500", "092702.582500", "092703.042500", "092703.502500", "092703.962500", "092704.422500", "092704.882500", "092705.342500", "092705.802500", "092706.262500", "092706.722500", "092707.182500", "092707.642500", "092708.102500", "092708.562500", "092709.022500", "092709.482500", "092709.942500", "092710.402500", "092710.862500", "092711.322500", "092711.782500", "092712.242500", "092712.702500", "092713.162500", "092713.622500", "092714.082500", "092714.542500", "092715.002500", "092715.462500", "092715.922500", "092716.382500", "092716.842500", "092717.302500", "092717.762500", "092718.222500", "092718.682500", "092719.142500", "092719.602500", "092720.062500", "092720.522500", "092720.982500", "092721.442500", "092721.902500", "092722.362500", "092722.822500", "092723.282500", "092723.742500", "092724.202500", "092724.662500", "092725.122500", "092725.582500", "092726.042500", "092726.502500", "092726.962500", "092727.422500", "092727.882500", "092728.342500", "092728.802500", "092729.262500", "092729.722500", "092730.182500", "092730.642500", "092731.102500", "092731.562500", "092732.022500", "092732.482500", "092732.942500", "092733.402500", "092733.862500", "092734.322500", "092734.782500", "092735.242500", "092735.702500", "092736.162500", "092736.622500", "092737.082500", "092737.542500", "092738.002500", "092738.462500", "092738.922500", "092739.382500", "092739.842500", "092740.302500", "092740.762500", "092741.222500", "092741.682500", "092742.142500", "092742.602500", "092743.062500", "092743.522500", "092743.982500", "092744.442500", "092744.902500", "092745.362500", "092745.822500", "092746.282500", "092746.742500", "092747.202500", "092747.662500", "092748.122500", "092748.582500", "092749.042500", "092749.502500", "092749.962500", "092750.422500", "092750.882500", "092751.342500", "092751.802500", "092752.262500", "092752.722500", "092753.182500", "092753.642500", "092754.102500", "092754.562500", "092755.022500", "092755.482500", "092755.942500", "092756.402500", "092756.862500", "092757.322500", "092757.782500", "092758.242500", "092758.702500", "092759.162500", "092759.622500", "092800.082500", "092800.542500", "092801.002500", "092801.462500", "092801.922500", "092802.382500", "092802.842500", "092803.302500", "092803.762500", "092804.222500", "092804.682500", "092805.142500", "092805.602500", "092806.062500", "092806.522500", "092806.982500", "092807.442500", "092807.902500", "092808.362500", "092808.822500", "092809.282500", "092809.742500", "092810.202500", "092810.662500", "092811.122500", "092811.582500", "092812.042500", "092812.502500", "092812.962500", "092813.422500", "092813.882500", "092814.342500", "092814.802500", "092815.262500", "092815.722500", "092816.182500", "092816.642500", "092817.102500", "092817.562500", "092818.022500", "092818.482500", "092818.942500", "092819.402500", "092819.862500", "092820.322500", "092820.782500", "092821.242500", "092821.702500", "092822.162500", "092822.622500", "092823.082500", "092823.542500", "092824.002500", "092824.462500", "092824.922500", "092825.382500", "092825.842500", "092826.302500", "092826.762500", "092827.222500", "092827.682500", "092828.142500", "092828.602500", "092829.062500", "092829.522500", "092829.982500", "092830.442500", "092830.902500", "092831.362500", "092831.822500", "092832.282500", "092832.742500", "092833.202500", "092833.662500", "092834.122500", "092834.582500", "092835.042500", "092835.502500", "092835.962500", "092836.422500", "092836.882500", "092837.342500", "092837.802500", "092838.262500", "092838.722500", "092839.182500", "092839.642500", "092840.102500", "092840.562500", "092841.022500", "092841.482500", "092841.942500", "092842.402500", "092842.862500", "092843.322500", "092843.782500", "092844.242500", "092844.702500", "092845.162500", "092845.622500", "092846.082500", "092846.542500", "092847.002500", "092847.462500", "092847.922500", "092848.382500", "092848.842500", "092849.302500", "092849.762500", "092850.222500", "092850.682500", "092851.142500", "092851.602500", "092852.062500", "092852.522500", "092852.982500", "092853.442500", "092853.902500", "092854.362500", "092854.822500", "092855.282500", "092855.742500", "092856.202500", "092856.662500", "092857.122500", "092857.582500", "092858.042500", "092858.502500", "092858.962500", "092859.422500", "092859.882500", "092900.342500", "092900.802500", "092901.262500", "092901.722500", "092902.182500", "092902.642500", "092903.102500", "092903.562500", "092904.022500", "092904.482500", "092904.942500", "092905.402500", "092905.862500", "092906.322500", "092906.782500", "092907.242500", "092907.702500", "092908.162500", "092908.622500", "092909.082500", "092909.542500", "092910.002500", "092910.462500", "092910.922500", "092911.382500", "092911.842500", "092912.302500", "092912.762500", "092913.222500", "092913.682500", "092914.142500", "092914.602500", "092915.062500", "092915.522500", "092915.982500", "092916.442500", "092916.902500", "092917.362500", "092917.822500", "092918.282500", "092918.742500", "092919.202500", "092919.662500", "092920.122500", "092920.582500", "092921.042500", "092921.502500", "092921.962500", "092922.422500", "092922.882500", "092923.342500", "092923.802500", "092924.262500", "092924.722500", "092925.182500", "092925.642500", "092926.102500", "092926.562500", "092927.022500", "092927.482500", "092927.942500", "092928.402500", "092928.862500", "092929.322500", "092929.782500", "092930.242500", "092930.702500", "092931.162500", "092931.622500", "092932.082500", "092932.542500", "092933.002500", "092933.462500", "092933.922500", "092934.382500", "092934.842500", "092935.302500", "092935.762500", "092936.222500", "092936.682500", "092937.142500", "092937.602500", "092938.062500", "092938.522500", "092938.982500", "092939.442500", "092939.902500", "092940.362500", "092940.822500", "092941.282500", "092941.742500", "092942.202500", "092942.662500", "092943.122500", "092943.582500", "092944.042500", "092944.502500", "092944.962500", "092945.422500", "092945.882500", "092946.342500", "092946.802500", "092947.262500", "092947.722500", "092948.182500", "092948.642500", "092949.102500", "092949.562500", "092950.022500", "092950.482500", "092950.942500", "092951.402500", "092951.862500", "092952.322500", "092952.782500", "092953.242500", "092953.702500", "092954.162500", "092954.622500", "092955.082500", "092955.542500", "092956.002500", "092956.462500", "092956.922500", "092957.382500", "092957.842500", "092958.302500", "092958.762500", "092959.222500", "092959.682500", "093000.142500", "093000.602500", "093001.062500", "093001.522500", "093001.982500", "093002.442500", "093002.902500", "093003.362500", "093003.822500", "093004.282500", "093004.742500", "093005.202500", "093005.662500", "093006.122500", "093006.582500", "093007.042500", "093007.502500", "093007.962500", "093008.422500", "093008.882500", "093009.342500", "093009.802500", "093010.262500", "093010.722500", "093011.182500", "093011.642500", "093012.102500", "093012.562500", "093013.022500", "093013.482500", "093013.942500", "093014.402500", "093014.862500", "093015.322500", "093015.782500", "093016.242500", "093016.702500", "093017.162500", "093017.622500", "093018.082500", "093018.542500", "093019.002500", "093019.462500", "093019.922500", "093020.382500", "093020.842500", "093021.302500", "093021.762500", "093022.222500", "093022.682500", "093023.142500", "093023.602500", "093024.062500", "093024.522500", "093024.982500", "093025.442500", "093025.902500", "093026.362500", "093026.822500", "093027.282500", "093027.742500", "093028.202500", "093028.662500", "093029.122500", "093029.582500", "093030.042500", "093030.502500", "093030.962500", "093031.422500", "093031.882500", "093032.342500", "093032.802500", "093033.262500", "093033.722500", "093034.182500", "093034.642500", "093035.102500", "093035.562500", "093036.022500", "093036.482500", "093036.942500", "093037.402500", "093037.862500", "093038.322500", "093038.782500", "093039.242500", "093039.702500", "093040.162500", "093040.622500", "093041.082500", "093041.542500", "093042.002500", "093042.462500", "093042.922500", "093043.382500", "093043.842500", "093044.302500", "093044.762500", "093045.222500", "093045.682500", "093046.142500", "093046.602500", "093047.062500", "093047.522500", "093047.982500", "093048.442500", "093048.902500", "093049.362500", "093049.822500", "093050.282500", "093050.742500", "093051.202500", "093051.662500", "093052.122500", "093052.582500", "093053.042500", "093053.502500", "093053.962500", "093054.422500", "093054.882500", "093055.342500", "093055.802500", "093056.262500", "093056.722500", "093057.182500", "093057.642500", "093058.102500", "093058.562500", "093059.022500", "093059.482500", "093059.942500", "093100.402500", "093100.862500", "093101.322500", "093101.782500", "093102.242500", "093102.702500", "093103.162500", "093103.622500", "093104.082500", "093104.542500", "093105.002500", "093105.462500", "093105.922500", "093106.382500", "093106.842500", "093107.302500", "093107.762500", "093108.222500", "093108.682500", "093109.142500", "093109.602500", "093110.062500", "093110.522500", "093110.982500", "093111.442500", "093111.902500", "093112.362500", "093112.822500", "093113.282500", "093113.742500", "093114.202500", "093114.662500", "093115.122500", "093115.582500", "093116.042500", "093116.502500", "093116.962500", "093117.422500", "093117.882500", "093118.342500", "093118.802500", "093119.262500", "093119.722500", "093120.182500", "093120.642500", "093121.102500", "093121.562500", "093122.022500", "093122.482500", "093122.942500", "093123.402500", "093123.862500", "093124.322500", "093124.782500", "093125.242500", "093125.702500", "093126.162500", "093126.622500", "093127.082500", "093127.542500", "093128.002500", "093128.462500", "093128.922500", "093129.382500", "093129.842500", "093130.302500", "093130.762500", "093131.222500", "093131.682500", "093132.142500", "093132.602500", "093133.062500", "093133.522500", "093133.982500", "093134.442500", "093134.902500", "093135.362500", "093135.822500", "093136.282500", "093136.742500", "093137.202500", "093137.662500", "093138.122500", "093138.582500", "093139.042500", "093139.502500", "093139.962500", "093140.422500", "093140.882500", "093141.342500", "093141.802500", "093142.262500", "093142.722500", "093143.182500", "093143.642500", "093144.102500", "093144.562500", "093145.022500", "093145.482500", "093145.942500", "093146.402500", "093146.862500", "093147.322500", "093147.782500", "093148.242500", "093148.702500", "093149.162500", "093149.622500", "093150.082500", "093150.542500", "093151.002500", "093151.462500", "093151.922500", "093152.382500", "093152.842500", "093153.302500", "093153.762500", "093154.222500", "093154.682500", "093155.142500", "093155.602500", "093156.062500", "093156.522500", "093156.982500", "093157.442500", "093157.902500", "093158.362500", "093158.822500", "093159.282500", "093159.742500", "093200.202500", "093200.662500", "093201.122500", "093201.582500", "093202.042500", "093202.502500", "093202.962500", "093203.422500", "093203.882500", "093204.342500", "093204.802500", "093205.262500", "093205.722500", "093206.182500", "093206.642500", "093207.102500", "093207.562500", "093208.022500", "093208.482500", "093208.942500", "093209.402500", "093209.862500", "093210.322500", "093210.782500", "093211.242500", "093211.702500", "093212.162500", "093212.622500", "093213.082500", "093213.542500", "093214.002500", "093214.462500", "093214.922500", "093215.382500", "093215.842500", "093216.302500", "093216.762500", "093217.222500", "093217.682500", "093218.142500", "093218.602500", "093219.062500", "093219.522500", "093219.982500", "093220.442500", "093220.902500", "093221.362500", "093221.822500", "093222.282500", "093222.742500", "093223.202500", "093223.662500", "093224.122500", "093224.582500", "093225.042500", "093225.502500", "093225.962500", "093226.422500", "093226.882500", "093227.342500", "093227.802500", "093228.262500", "093228.722500", "093229.182500", "093229.642500", "093230.102500", "093230.562500", "093231.022500", "093231.482500", "093231.942500", "093232.402500", "093232.862500", "093233.322500", "093233.782500", "093234.242500", "093234.702500", "093235.162500", "093235.622500", "093236.082500", "093236.542500", "093237.002500", "093237.462500", "093237.922500", "093238.382500", "093238.842500", "093239.302500", "093239.762500", "093240.222500", "093240.682500", "093241.142500", "093241.602500", "093242.062500", "093242.522500", "093242.982500", "093243.442500", "093243.902500", "093244.362500", "093244.822500", "093245.282500", "093245.742500", "093246.202500", "093246.662500", "093247.122500", "093247.582500", "093248.042500", "093248.502500", "093248.962500", "093249.422500", "093249.882500", "093250.342500", "093250.802500", "093251.262500", "093251.722500", "093252.182500", "093252.642500", "093253.102500", "093253.562500", "093254.022500", "093254.482500", "093254.942500", "093255.402500", "093255.862500", "093256.322500", "093256.782500", "093257.242500", "093257.702500", "093258.162500", "093258.622500", "093259.082500", "093259.542500", "093300.002500", "093300.462500", "093300.922500", "093301.382500", "093301.842500", "093302.302500", "093302.762500", "093303.222500", "093303.682500", "093304.142500", "093304.602500", "093305.062500", "093305.522500", "093305.982500", "093306.442500", "093306.902500", "093307.362500", "093307.822500", "093308.282500", "093308.742500", "093309.202500", "093309.662500", "093310.122500"],
