{
  "AcquisitionMatrixPE": 140,
  "AcquisitionNumber": 1,
  "AcquisitionTime": "20:28:16.067500",
  "BandwidthPerPixelPhaseEncode": 10.352,
  "BaseResolution": 140,
  "BodyPartExamined": "BRAIN",
  "ConsistencyInfo": "N4_VE11E_LATEST_20181129",
  "ConversionSoftware": "dcm2niix",
  "ConversionSoftwareVersion": "v1.0.20201102",
  "DerivedVendorReportedEchoSpacing": 0.000689998,
  "DeviceSerialNumber": "66112",
  "DiffusionScheme": "Monopolar",
  "DwellTime": 2.1e-06,
  "EchoTime": 0.0884,
  "EchoTrainLength": 105,
  "EffectiveEchoSpacing": 0.000689998,
  "FlipAngle": 90,
  "ImageComments": "Unaliased MB3/PE3 SENSE1",
  "ImageOrientationPatientDICOM": [0.997454, -0.00235373, 0.0712725, -0.0128833, 0.977062, 0.212567],
  "ImageType": [
    "ORIGINAL",
    "PRIMARY",
    "DIFFUSION",
    "NONE",
    "MB",
    "ND",
    "MOSAIC"
],
  "ImagingFrequency": 123.252,
  "InPlanePhaseEncodingDirectionDICOM": "COL",
  "InstitutionAddress": "Maynard 3,Hanover,NH,US,03755",
  "InstitutionName": "Dartmouth College - PBS",
  "InstitutionalDepartmentName": "Department",
  "MRAcquisitionType": "2D",
  "MagneticFieldStrength": 3,
  "Manufacturer": "Siemens",
  "ManufacturersModelName": "Prisma",
  "Modality": "MR",
  "MultibandAccelerationFactor": 3,
  "PartialFourier": 0.75,
  "PatientPosition": "HFS",
  "PercentPhaseFOV": 100,
  "PercentSampling": 100,
  "PhaseEncodingDirection": "j-",
  "PhaseEncodingSteps": 105,
  "PhaseResolution": 1,
  "PixelBandwidth": 1700,
  "ProcedureStepDescription": "Wager_Wager^1076_spacetop",
  "ProtocolName": "dwi_acq-96dir-6b0-mb",
  "PulseSequenceDetails": "%CustomerSeq%\\cmrr_mbep2d_diff",
  "ReceiveCoilActiveElements": "HEA;HEP",
  "ReceiveCoilName": "Head_32",
  "ReconMatrixPE": 140,
  "RepetitionTime": 4.11,
  "SAR": 0.277557,
  "ScanOptions": "PFP\\FS",
  "ScanningSequence": "EP",
  "SequenceName": "ep_b5#1",
  "SequenceVariant": "SK\\SS",
  "SeriesDescription": "dwi_acq-96dir-6b0-mb",
  "SeriesNumber": 8,
  "ShimSetting": [4154, -7733, -7299, 498, -152, -60, 3, 94],
  "SliceThickness": 1.7,
  "SliceTiming": [0, 2.12, 0.15, 2.27, 0.3025, 2.4225, 0.4525, 2.575, 0.605, 2.725, 0.7575, 2.8775, 0.9075, 3.0275, 1.06, 3.18, 1.21, 3.3325, 1.3625, 3.4825, 1.515, 3.635, 1.665, 3.785, 1.8175, 3.9375, 1.9675, 0, 2.12, 0.15, 2.27, 0.3025, 2.4225, 0.4525, 2.575, 0.605, 2.725, 0.7575, 2.8775, 0.9075, 3.0275, 1.06, 3.18, 1.21, 3.3325, 1.3625, 3.4825, 1.515, 3.635, 1.665, 3.785, 1.8175, 3.9375, 1.9675, 0, 2.12, 0.15, 2.27, 0.3025, 2.4225, 0.4525, 2.575, 0.605, 2.725, 0.7575, 2.8775, 0.9075, 3.0275, 1.06, 3.18, 1.21, 3.3325, 1.3625, 3.4825, 1.515, 3.635, 1.665, 3.785, 1.8175, 3.9375, 1.9675],
  "SoftwareVersions": "syngo MR E11",
  "SpacingBetweenSlices": 1.7,
  "StationName": "AWP66112",
  "TotalReadoutTime": 0.0959097,
  "TxRefAmp": 276.243,
  "WipMemBlock": "2908eaac-e55b-4543-8be5-e053ba3d071e||Sequence: R016 ve11e/master r/434b28f1; Aug  7 2019 19:06:17 by eja",
  "dcmmeta_affine": [
    [-1.7099213600158691, -0.022085601463913918, 0.11923456937074661, 120.22840118408203],
    [0.004034960176795721, 1.6749626398086548, 0.36200520396232605, -96.78278350830078],
    [0.1221814975142479, -0.3644008934497833, 1.656724214553833, -49.542457580566406],
    [0.0, 0.0, 0.0, 1.0]
],
  "dcmmeta_reorient_transform": [
    [0.0, -1.0, 0.0, 139.0],
    [1.0, 0.0, 0.0, 0.0],
    [0.0, 0.0, 1.0, 0.0],
    [0.0, 0.0, 0.0, 1.0]
],
  "dcmmeta_shape": [140, 140, 81, 103],
  "dcmmeta_slice_dim": 2,
  "dcmmeta_version": 0.6,
  "global": {
    "const": {
      "AccessionNumber": "A003976",
      "AcquisitionMatrix": [140, 0, 0, 140],
      "AngioFlag": "N",
      "BitsAllocated": 16,
      "BitsStored": 16,
      "BodyPartExamined": "BRAIN",
      "Columns": 1260,
      "EchoNumbers": 1,
      "EchoTime": 88.4,
      "EchoTrainLength": 105,
      "FlipAngle": 90.0,
      "HighBit": 15,
      "ImageOrientationPatient": [0.9974541017145, -0.0023537268605, 0.07127253989287, -0.0128832670107, 0.97706151881651, 0.21256718909348],
      "ImagePositionPatient": [-1062.3465137028, -1071.7565121042, -372.68032557269],
      "ImageType": [
        "ORIGINAL",
        "PRIMARY",
        "DIFFUSION",
        "NONE",
        "MB",
        "ND",
        "MOSAIC"
],
      "ImagedNucleus": "1H",
      "ImagingFrequency": 123.252193,
      "InPlanePhaseEncodingDirection": "COL",
      "MRAcquisitionType": "2D",
      "MagneticFieldStrength": 3.0,
      "Manufacturer": "SIEMENS",
      "ManufacturerModelName": "Prisma",
      "Modality": "MR",
      "NumberOfAverages": 1.0,
      "NumberOfPhaseEncodingSteps": 105,
      "PercentPhaseFieldOfView": 100.0,
      "PercentSampling": 100.0,
      "PerformedProcedureStepStartTime": "201744.659000",
      "PhotometricInterpretation": "MONOCHROME2",
      "PixelBandwidth": 1700.0,
      "PixelRepresentation": 0,
      "PixelSpacing": [1.7142857313156, 1.7142857313156],
      "ProtocolName": "dwi_acq-96dir-6b0-mb",
      "RepetitionTime": 4110.0,
      "Rows": 1260,
      "SAR": 0.27755707087608,
      "SamplesPerPixel": 1,
      "ScanOptions": [
        "PFP",
        "FS"
],
      "ScanningSequence": "EP",
      "SequenceVariant": [
        "SK",
        "SS"
],
      "SeriesDescription": "dwi_acq-96dir-6b0-mb",
      "SeriesNumber": 8,
      "SeriesTime": "202833.657000",
      "SliceLocation": -60.458048488765,
      "SliceThickness": 1.7000000476837,
      "SmallestImagePixelValue": 0,
      "SoftwareVersions": "syngo MR E11",
      "SpacingBetweenSlices": 1.6999999750503,
      "SpecificCharacterSet": "ISO_IR 100",
      "StudyID": "1",
      "StudyTime": "201744.605000",
      "TransmitCoilName": "Body",
      "VariableFlipAngleFlag": "N",
      "WindowCenterWidthExplanation": "Algo1"
    },
    "slices": {}
  },
  "time": {
    "samples": {
      "AcquisitionNumber": [1, 2, 3, 4, 5, 6, 7, 8, 9, 10, 11, 12, 13, 14, 15, 16, 17, 18, 19, 20, 21, 22, 23, 24, 25, 26, 27, 28, 29, 30, 31, 32, 33, 34, 35, 36, 37, 38, 39, 40, 41, 42, 43, 44, 45, 46, 47, 48, 49, 50, 51, 52, 53, 54, 55, 56, 57, 58, 59, 60, 61, 62, 63, 64, 65, 66, 67, 68, 69, 70, 71, 72, 73, 74, 75, 76, 77, 78, 79, 80, 81, 82, 83, 84, 85, 86, 87, 88, 89, 90, 91, 92, 93, 94, 95, 96, 97, 98, 99, 100, 101, 102, 103],
      "AcquisitionTime": ["202816.067500", "202820.177500", "202824.287500", "202828.397500", "202832.507500", "202836.617500", "202840.727500", "202844.837500", "202848.947500", "202853.057500", "202857.167500", "202901.277500", "202905.387500", "202909.497500", "202913.607500", "202917.717500", "202921.827500", "202925.937500", "202930.047500", "202934.157500", "202938.267500", "202942.377500", "202946.487500", "202950.597500", "202954.707500", "202958.817500", "203002.927500", "203007.037500", "203011.147500", "203015.257500", "203019.367500", "203023.477500", "203027.587500", "203031.697500", "203035.807500", "203039.917500", "203044.027500", "203048.137500", "203052.247500", "203056.357500", "203100.467500", "203104.577500", "203108.687500", "203112.797500", "203116.907500", "203121.017500", "203125.127500", "203129.237500", "203133.347500", "203137.457500", "203141.567500", "203145.677500", "203149.787500", "203153.897500", "203158.007500", "203202.117500", "203206.227500", "203210.337500", "203214.447500", "203218.557500", "203222.667500", "203226.777500", "203230.887500", "203234.997500", "203239.107500", "203243.217500", "203247.327500", "203251.437500", "203255.547500", "203259.657500", "203303.767500", "203307.877500", "203311.987500", "203316.097500", "203320.207500", "203324.317500", "203328.427500", "203332.537500", "203336.647500", "203340.757500", "203344.867500", "203348.977500", "203353.087500", "203357.197500", "203401.307500", "203405.417500", "203409.527500", "203413.637500", "203417.747500", "203421.857500", "203425.967500", "203430.077500", "203434.187500", "203438.297500", "203442.407500", "203446.517500", "203450.627500", "203454.737500", "203458.847500", "203502.957500", "203507.067500", "203511.177500", "203515.287500"],
      "ContentTime": ["202833.661000", "202833.665000", "202833.668000", "202833.671000", "203013.657000", "203013.670000", "203013.673000", "203013.676000", "203013.680000", "203013.682000", "203013.686000", "203013.689000", "203013.692000", "203013.695000", "203013.698000", "203013.701000", "203013.704000", "203013.707000", "203013.710000", "203013.713000", "203013.716000", "203013.719000", "203013.722000", "203013.725000", "203013.728000", "203013.731000", "203013.735000", "203013.738000", "203153.657000", "203153.660000", "203153.670000", "203153.673000", "203153.676000", "203153.679000", "203153.682000", "203153.685000", "203153.688000", "203153.691000", "203153.694000", "203153.698000", "203153.701000", "203153.704000", "203153.707000", "203153.710000", "203153.713000", "203153.716000", "203153.719000", "203153.722000", "203153.725000", "203153.728000", "203153.731000", "203153.735000", "203313.657000", "203313.660000", "203313.663000", "203313.667000", "203313.670000", "203313.673000", "203313.676000", "203313.689000", "203313.692000", "203313.695000", "203313.698000", "203313.701000", "203313.704000", "203313.707000", "203313.710000", "203313.713000", "203313.717000", "203313.720000", "203313.723000", "203313.726000", "203453.657000", "203453.660000", "203453.663000", "203453.667000", "203453.670000", "203453.673000", "203453.676000", "203453.679000", "203453.682000", "203453.685000", "203453.688000", "203453.691000", "203453.694000", "203453.697000", "203453.700000", "203453.703000", "203453.706000", "203453.709000", "203453.712000", "203453.715000", "203453.718000", "203453.727000", "203453.730000", "203453.733000", "203520.138000", "203520.141000", "203520.145000", "203520.148000", "203520.151000", "203520.154000", "203520.157000"],
      "InstanceCreationTime": ["202833.661000", "202833.665000", "202833.668000", "202833.671000", "203013.657000", "203013.670000", "203013.673000", "203013.676000", "203013.680000", "203013.682000", "203013.686000", "203013.689000", "203013.692000", "203013.695000", "203013.698000", "203013.701000", "203013.704000", "203013.707000", "203013.710000", "203013.713000", "203013.716000", "203013.719000", "203013.722000", "203013.725000", "203013.728000", "203013.731000", "203013.735000", "203013.738000", "203153.657000", "203153.660000", "203153.670000", "203153.673000", "203153.676000", "203153.679000", "203153.682000", "203153.685000", "203153.688000", "203153.691000", "203153.694000", "203153.698000", "203153.701000", "203153.704000", "203153.707000", "203153.710000", "203153.713000", "203153.716000", "203153.719000", "203153.722000", "203153.725000", "203153.728000", "203153.731000", "203153.735000", "203313.657000", "203313.660000", "203313.663000", "203313.667000", "203313.670000", "203313.673000", "203313.676000", "203313.689000", "203313.692000", "203313.695000", "203313.698000", "203313.701000", "203313.704000", "203313.707000", "203313.710000", "203313.713000", "203313.717000", "203313.720000", "203313.723000", "203313.726000", "203453.657000", "203453.660000", "203453.663000", "203453.667000", "203453.670000", "203453.673000", "203453.676000", "203453.679000", "203453.682000", "203453.685000", "203453.688000", "203453.691000", "203453.694000", "203453.697000", "203453.700000", "203453.703000", "203453.706000", "203453.709000", "203453.712000", "203453.715000", "203453.718000", "203453.727000", "203453.730000", "203453.733000", "203520.138000", "203520.141000", "203520.145000", "203520.148000", "203520.151000", "203520.154000", "203520.157000"],
      "InstanceNumber": [1, 2, 3, 4, 5, 6, 7, 8, 9, 10, 11, 12, 13, 14, 15, 16, 17, 18, 19, 20, 21, 22, 23, 24, 25, 26, 27, 28, 29, 30, 31, 32, 33, 34, 35, 36, 37, 38, 39, 40, 41, 42, 43, 44, 45, 46, 47, 48, 49, 50, 51, 52, 53, 54, 55, 56, 57, 58, 59, 60, 61, 62, 63, 64, 65, 66, 67, 68, 69, 70, 71, 72, 73, 74, 75, 76, 77, 78, 79, 80, 81, 82, 83, 84, 85, 86, 87, 88, 89, 90, 91, 92, 93, 94, 95, 96, 97, 98, 99, 100, 101, 102, 103],
      "LargestImagePixelValue": [65535, 65535, 63557, 62802, 59862, 60493, 58327, 57562, 65535, 39503, 42705, 41269, 39545, 40418, 39925, 41653, 39434, 41576, 38703, 40206, 38584, 39980, 40820, 38867, 65535, 20627, 21033, 21511, 20268, 23574, 22881, 20650, 21867, 20448, 20534, 21284, 20143, 21881, 21805, 21806, 65535, 14421, 13745, 14469, 13479, 12286, 11692, 12326, 14667, 13237, 13198, 14709, 13617, 13833, 12403, 13014, 15441, 11814, 13712, 15082, 12333, 14480, 12214, 12096, 11829, 12304, 11749, 11698, 15446, 16848, 19190, 12791, 11934, 65535, 13267, 12563, 13510, 11433, 13360, 14529, 13006, 13578, 12639, 16649, 14984, 12208, 14808, 13764, 13778, 13129, 17234, 13778, 13936, 11803, 14129, 14884, 12230, 12505, 12257, 12695, 13875, 12314, 65535],
      "SequenceName": [
 "ep_b5#1",
 "ep_b5#1",
 "ep_b500#2",
 "ep_b500#3",
 "ep_b500#4",
 "ep_b505#5",
 "ep_b495#6",
 "ep_b500#7",
 "ep_b5#8",
 "ep_b1000#9",
 "ep_b1005#10",
 "ep_b1000#11",
 "ep_b1005#12",
 "ep_b995#13",
 "ep_b995#14",
 "ep_b1005#15",
 "ep_b1000#16",
 "ep_b1000#17",
 "ep_b995#18",
 "ep_b1000#19",
 "ep_b995#20",
 "ep_b1000#21",
 "ep_b1005#22",
 "ep_b1005#23",
 "ep_b5#24",
 "ep_b2000#25",
 "ep_b2000#26",
 "ep_b1995#27",
 "ep_b1995#28",
 "ep_b2005#29",
 "ep_b2010#30",
 "ep_b2005#31",
 "ep_b2005#32",
 "ep_b1995#33",
 "ep_b1990#34",
 "ep_b1995#35",
 "ep_b2005#36",
 "ep_b2000#37",
 "ep_b2010#38",
 "ep_b2000#39",
 "ep_b5#40",
 "ep_b3000#41",
 "ep_b3005#42",
 "ep_b3010#43",
 "ep_b3010#44",
 "ep_b2995#45",
 "ep_b2995#46",
 "ep_b2990#47",
 "ep_b3005#48",
 "ep_b3000#49",
 "ep_b2990#50",
 "ep_b2990#51",
 "ep_b2995#52",
 "ep_b2995#53",
 "ep_b3010#54",
 "ep_b3000#55",
 "ep_b2995#56",
 "ep_b3000#57",
 "ep_b2990#58",
 "ep_b2990#59",
 "ep_b3000#60",
 "ep_b2990#61",
 "ep_b2990#62",
 "ep_b2995#63",
 "ep_b3005#64",
 "ep_b3010#65",
 "ep_b3000#66",
 "ep_b3005#67",
 "ep_b3010#68",
 "ep_b3005#69",
 "ep_b3005#70",
 "ep_b3010#71",
 "ep_b2990#72",
 "ep_b5#73",
 "ep_b3010#74",
 "ep_b3000#75",
 "ep_b3005#76",
 "ep_b3005#77",
 "ep_b2995#78",
 "ep_b3005#79",
 "ep_b2995#80",
 "ep_b3010#81",
 "ep_b3010#82",
 "ep_b3005#83",
 "ep_b3000#84",
 "ep_b3000#85",
 "ep_b3010#86",
 "ep_b3010#87",
 "ep_b2990#88",
 "ep_b3010#89",
 "ep_b2990#90",
 "ep_b2995#91",
 "ep_b2995#92",
 "ep_b2995#93",
 "ep_b3005#94",
 "ep_b3005#95",
 "ep_b2995#96",
 "ep_b3000#97",
 "ep_b2990#98",
 "ep_b3000#99",
 "ep_b3000#100",
 "ep_b2995#101",
 "ep_b5#102"
],
      "WindowCenter": [11559.0, 11563.0, 8053.0, 8082.0, 7997.0, 7921.0, 8045.0, 8009.0, 11559.0, 5903.0, 5835.0, 5906.0, 5839.0, 5892.0, 5907.0, 5853.0, 5915.0, 5909.0, 5896.0, 5885.0, 5932.0, 5897.0, 5850.0, 5877.0, 11542.0, 3713.0, 3709.0, 3696.0, 3778.0, 3729.0, 3662.0, 3707.0, 3665.0, 3730.0, 3726.0, 3729.0, 3662.0, 3725.0, 3702.0, 3720.0, 11524.0, 2637.0, 2580.0, 2607.0, 2564.0, 2585.0, 2598.0, 2608.0, 2614.0, 2586.0, 2572.0, 2618.0, 2624.0, 2630.0, 2562.0, 2582.0, 2660.0, 2559.0, 2608.0, 2632.0, 2597.0, 2621.0, 2611.0, 2614.0, 2599.0, 2569.0, 2544.0, 2557.0, 2639.0, 2661.0, 2711.0, 2604.0, 2569.0, 11494.0, 2561.0, 2583.0, 2565.0, 2544.0, 2571.0, 2598.0, 2569.0, 2556.0, 2580.0, 2649.0, 2643.0, 2563.0, 2577.0, 2565.0, 2620.0, 2566.0, 2718.0, 2593.0, 2594.0, 2589.0, 2589.0, 2632.0, 2624.0, 2564.0, 2587.0, 2582.0, 2594.0, 2601.0, 11496.0],
      "WindowWidth": [26764.0, 26773.0, 17209.0, 17287.0, 17098.0, 16964.0, 17237.0, 17157.0, 26764.0, 12776.0, 12647.0, 12783.0, 12684.0, 12804.0, 12809.0, 12663.0, 12804.0, 12807.0, 12776.0, 12708.0, 12826.0, 12774.0, 12689.0, 12690.0, 26711.0, 8440.0, 8430.0, 8437.0, 8550.0, 8443.0, 8340.0, 8416.0, 8379.0, 8462.0, 8463.0, 8477.0, 8357.0, 8449.0, 8380.0, 8455.0, 26652.0, 6294.0, 6188.0, 6226.0, 6128.0, 6200.0, 6233.0, 6224.0, 6239.0, 6204.0, 6170.0, 6233.0, 6275.0, 6298.0, 6161.0, 6191.0, 6330.0, 6154.0, 6221.0, 6261.0, 6224.0, 6254.0, 6238.0, 6262.0, 6231.0, 6155.0, 6121.0, 6146.0, 6265.0, 6305.0, 6391.0, 6217.0, 6148.0, 26574.0, 6114.0, 6199.0, 6153.0, 6124.0, 6174.0, 6201.0, 6166.0, 6140.0, 6174.0, 6283.0, 6292.0, 6170.0, 6173.0, 6143.0, 6247.0, 6143.0, 6419.0, 6208.0, 6208.0, 6217.0, 6193.0, 6278.0, 6274.0, 6148.0, 6193.0, 6190.0, 6205.0, 6236.0, 26562.0]
    },
    "slices": {}
  }
}