{
  "AcquisitionMatrixPE": 82,
  "AcquisitionNumber": 1,
  "AcquisitionTime": "15:54:6.322500",
  "BandwidthPerPixelPhaseEncode": 24.888,
  "BaseResolution": 82,
  "BodyPartExamined": "BRAIN",
  "ConsistencyInfo": "N4_VE11E_LATEST_20181129",
  "ConversionSoftware": "dcm2niix",
  "ConversionSoftwareVersion": "v1.0.20201102",
  "DerivedVendorReportedEchoSpacing": 0.00049,
  "DeviceSerialNumber": "66112",
  "DwellTime": 2e-06,
  "EchoTime": 0.0272,
  "EchoTrainLength": 82,
  "EffectiveEchoSpacing": 0.00049,
  "FlipAngle": 44,
  "ImageComments": "Unaliased MB8/PE3",
  "ImageOrientationPatientDICOM": [0.999852, -0.0171893, 0.000972382, 0.0171033, 0.998149, 0.0583565],
  "ImageType": [
    "ORIGINAL",
    "PRIMARY",
    "M",
    "MB",
    "ND",
    "NORM",
    "MOSAIC"
],
  "ImagingFrequency": 123.252,
  "InPlanePhaseEncodingDirectionDICOM": "COL",
  "InstitutionAddress": "Maynard 3,Hanover,NH,US,03755",
  "InstitutionName": "dartmouth_brain_imaging_center",
  "InstitutionalDepartmentName": "Department",
  "MRAcquisitionType": "2D",
  "MagneticFieldStrength": 3,
  "Manufacturer": "Siemens",
  "ManufacturersModelName": "Prisma",
  "Modality": "MR",
  "MultibandAccelerationFactor": 8,
  "PartialFourier": 1,
  "PatientPosition": "HFS",
  "PercentPhaseFOV": 100,
  "PercentSampling": 100,
  "PhaseEncodingDirection": "j-",
  "PhaseEncodingSteps": 82,
  "PhaseResolution": 1,
  "PixelBandwidth": 3050,
  "ProcedureStepDescription": "Wager_Wager^1076_spacetop",
  "ProtocolName": "func_run-04_task-social_acq-ap-mb8",
  "PulseSequenceDetails": "%CustomerSeq%\\cmrr_mbep2d_bold",
  "ReceiveCoilActiveElements": "HEA;HEP",
  "ReceiveCoilName": "Head_32",
  "ReconMatrixPE": 82,
  "RepetitionTime": 0.46,
  "SAR": 0.103977,
  "ScanOptions": "FS",
  "ScanningSequence": "EP",
  "SequenceName": "epfid2d1_82",
  "SequenceVariant": "SK\\SS",
  "SeriesDescription": "func_run-04_task-social_acq-ap-mb8",
  "SeriesNumber": 18,
  "ShimSetting": [4149, -7767, -7244, 441, -53, -235, -19, 81],
  "SliceThickness": 2.7,
  "SliceTiming": [0, 0.2525, 0.065, 0.315, 0.1275, 0.3775, 0.19, 0, 0.2525, 0.065, 0.315, 0.1275, 0.3775, 0.19, 0, 0.2525, 0.065, 0.315, 0.1275, 0.3775, 0.19, 0, 0.2525, 0.065, 0.315, 0.1275, 0.3775, 0.19, 0, 0.2525, 0.065, 0.315, 0.1275, 0.3775, 0.19, 0, 0.2525, 0.065, 0.315, 0.1275, 0.3775, 0.19, 0, 0.2525, 0.065, 0.315, 0.1275, 0.3775, 0.19, 0, 0.2525, 0.065, 0.315, 0.1275, 0.3775, 0.19],
  "SoftwareVersions": "syngo MR E11",
  "SpacingBetweenSlices": 2.7,
  "StationName": "AWP66112",
  "TaskName": "social",
  "TotalReadoutTime": 0.03969,
  "TxRefAmp": 250.825,
  "WipMemBlock": "68aeb2bf-06bf-425e-bbac-e04ac1da9b92||Sequence: R016 ve11e/master r/434b28f1; Aug  7 2019 18:53:46 by eja",
  "dcmmeta_affine": [
    [-2.6825292110443115, 0.04588695243000984, 0.005328970029950142, 110.12684631347656],
    [0.04611774533987045, 2.677961587905884, 0.15749430656433105, -99.40980529785156],
    [0.002608830574899912, -0.15656624734401703, 2.69539737701416, -49.91384506225586],
    [0.0, 0.0, 0.0, 1.0]
],
  "dcmmeta_reorient_transform": [
    [0.0, -1.0, 0.0, 81.0],
    [1.0, 0.0, 0.0, 0.0],
    [0.0, 0.0, 1.0, 0.0],
    [0.0, 0.0, 0.0, 1.0]
],
  "dcmmeta_shape": [82, 82, 56, 872],
  "dcmmeta_slice_dim": 2,
  "dcmmeta_version": 0.6,
  "global": {
    "const": {
      "AccessionNumber": "A003900",
      "AcquisitionMatrix": [82, 0, 0, 82],
      "AngioFlag": "N",
      "BitsAllocated": 16,
      "BitsStored": 16,
      "BodyPartExamined": "BRAIN",
      "Columns": 656,
      "EchoNumbers": 1,
      "EchoTime": 27.2,
      "EchoTrainLength": 82,
      "FlipAngle": 44.0,
      "HighBit": 15,
      "ImageOrientationPatient": [0.99985177953645, -0.0171893406056, 0.00097238230698, 0.01710331825871, 0.99814928476959, 0.05835650622259],
      "ImagePositionPatient": [-896.89913221701, -872.84425779672, -108.27895745255],
      "ImageType": [
        "ORIGINAL",
        "PRIMARY",
        "M",
        "MB",
        "ND",
        "NORM",
        "MOSAIC"
],
      "ImagedNucleus": "1H",
      "ImagingFrequency": 123.25217,
      "InPlanePhaseEncodingDirection": "COL",
      "MRAcquisitionType": "2D",
      "MagneticFieldStrength": 3.0,
      "Manufacturer": "SIEMENS",
      "ManufacturerModelName": "Prisma",
      "Modality": "MR",
      "NumberOfAverages": 1.0,
      "NumberOfPhaseEncodingSteps": 82,
      "PercentPhaseFieldOfView": 100.0,
      "PercentSampling": 100.0,
      "PerformedProcedureStepStartTime": "150443.505000",
      "PhotometricInterpretation": "MONOCHROME2",
      "PixelBandwidth": 3050.0,
      "PixelRepresentation": 0,
      "PixelSpacing": [2.6829268932343, 2.6829268932343],
      "ProtocolName": "func_run-04_task-social_acq-ap-mb8",
      "RepetitionTime": 460.0,
      "Rows": 656,
      "SAR": 0.10397663125068,
      "SamplesPerPixel": 1,
      "ScanOptions": "FS",
      "ScanningSequence": "EP",
      "SequenceName": "epfid2d1_82",
      "SequenceVariant": [
        "SK",
        "SS"
],
      "SeriesDescription": "func_run-04_task-social_acq-ap-mb8",
      "SeriesNumber": 18,
      "SeriesTime": "155432.712000",
      "SliceLocation": -55.410099437025,
      "SliceThickness": 2.7000000476837,
      "SmallestImagePixelValue": 0,
      "SoftwareVersions": "syngo MR E11",
      "SpacingBetweenSlices": 2.699999993835,
      "SpecificCharacterSet": "ISO_IR 100",
      "StudyID": "1",
      "StudyTime": "150443.424000",
      "TransmitCoilName": "Body",
      "VariableFlipAngleFlag": "N",
      "WindowCenterWidthExplanation": "Algo1"
    },
    "slices": {}
  },
  "time": {
    "samples": {
      "AcquisitionNumber": [1, 2, 3, 4, 5, 6, 7, 8, 9, 10, 11, 12, 13, 14, 15, 16, 17, 18, 19, 20, 21, 22, 23, 24, 25, 26, 27, 28, 29, 30, 31, 32, 33, 34, 35, 36, 37, 38, 39, 40, 41, 42, 43, 44, 45, 46, 47, 48, 49, 50, 51, 52, 53, 54, 55, 56, 57, 58, 59, 60, 61, 62, 63, 64, 65, 66, 67, 68, 69, 70, 71, 72, 73, 74, 75, 76, 77, 78, 79, 80, 81, 82, 83, 84, 85, 86, 87, 88, 89, 90, 91, 92, 93, 94, 95, 96, 97, 98, 99, 100, 101, 102, 103, 104, 105, 106, 107, 108, 109, 110, 111, 112, 113, 114, 115, 116, 117, 118, 119, 120, 121, 122, 123, 124, 125, 126, 127, 128, 129, 130, 131, 132, 133, 134, 135, 136, 137, 138, 139, 140, 141, 142, 143, 144, 145, 146, 147, 148, 149, 150, 151, 152, 153, 154, 155, 156, 157, 158, 159, 160, 161, 162, 163, 164, 165, 166, 167, 168, 169, 170, 171, 172, 173, 174, 175, 176, 177, 178, 179, 180, 181, 182, 183, 184, 185, 186, 187, 188, 189, 190, 191, 192, 193, 194, 195, 196, 197, 198, 199, 200, 201, 202, 203, 204, 205, 206, 207, 208, 209, 210, 211, 212, 213, 214, 215, 216, 217, 218, 219, 220, 221, 222, 223, 224, 225, 226, 227, 228, 229, 230, 231, 232, 233, 234, 235, 236, 237, 238, 239, 240, 241, 242, 243, 244, 245, 246, 247, 248, 249, 250, 251, 252, 253, 254, 255, 256, 257, 258, 259, 260, 261, 262, 263, 264, 265, 266, 267, 268, 269, 270, 271, 272, 273, 274, 275, 276, 277, 278, 279, 280, 281, 282, 283, 284, 285, 286, 287, 288, 289, 290, 291, 292, 293, 294, 295, 296, 297, 298, 299, 300, 301, 302, 303, 304, 305, 306, 307, 308, 309, 310, 311, 312, 313, 314, 315, 316, 317, 318, 319, 320, 321, 322, 323, 324, 325, 326, 327, 328, 329, 330, 331, 332, 333, 334, 335, 336, 337, 338, 339, 340, 341, 342, 343, 344, 345, 346, 347, 348, 349, 350, 351, 352, 353, 354, 355, 356, 357, 358, 359, 360, 361, 362, 363, 364, 365, 366, 367, 368, 369, 370, 371, 372, 373, 374, 375, 376, 377, 378, 379, 380, 381, 382, 383, 384, 385, 386, 387, 388, 389, 390, 391, 392, 393, 394, 395, 396, 397, 398, 399, 400, 401, 402, 403, 404, 405, 406, 407, 408, 409, 410, 411, 412, 413, 414, 415, 416, 417, 418, 419, 420, 421, 422, 423, 424, 425, 426, 427, 428, 429, 430, 431, 432, 433, 434, 435, 436, 437, 438, 439, 440, 441, 442, 443, 444, 445, 446, 447, 448, 449, 450, 451, 452, 453, 454, 455, 456, 457, 458, 459, 460, 461, 462, 463, 464, 465, 466, 467, 468, 469, 470, 471, 472, 473, 474, 475, 476, 477, 478, 479, 480, 481, 482, 483, 484, 485, 486, 487, 488, 489, 490, 491, 492, 493, 494, 495, 496, 497, 498, 499, 500, 501, 502, 503, 504, 505, 506, 507, 508, 509, 510, 511, 512, 513, 514, 515, 516, 517, 518, 519, 520, 521, 522, 523, 524, 525, 526, 527, 528, 529, 530, 531, 532, 533, 534, 535, 536, 537, 538, 539, 540, 541, 542, 543, 544, 545, 546, 547, 548, 549, 550, 551, 552, 553, 554, 555, 556, 557, 558, 559, 560, 561, 562, 563, 564, 565, 566, 567, 568, 569, 570, 571, 572, 573, 574, 575, 576, 577, 578, 579, 580, 581, 582, 583, 584, 585, 586, 587, 588, 589, 590, 591, 592, 593, 594, 595, 596, 597, 598, 599, 600, 601, 602, 603, 604, 605, 606, 607, 608, 609, 610, 611, 612, 613, 614, 615, 616, 617, 618, 619, 620, 621, 622, 623, 624, 625, 626, 627, 628, 629, 630, 631, 632, 633, 634, 635, 636, 637, 638, 639, 640, 641, 642, 643, 644, 645, 646, 647, 648, 649, 650, 651, 652, 653, 654, 655, 656, 657, 658, 659, 660, 661, 662, 663, 664, 665, 666, 667, 668, 669, 670, 671, 672, 673, 674, 675, 676, 677, 678, 679, 680, 681, 682, 683, 684, 685, 686, 687, 688, 689, 690, 691, 692, 693, 694, 695, 696, 697, 698, 699, 700, 701, 702, 703, 704, 705, 706, 707, 708, 709, 710, 711, 712, 713, 714, 715, 716, 717, 718, 719, 720, 721, 722, 723, 724, 725, 726, 727, 728, 729, 730, 731, 732, 733, 734, 735, 736, 737, 738, 739, 740, 741, 742, 743, 744, 745, 746, 747, 748, 749, 750, 751, 752, 753, 754, 755, 756, 757, 758, 759, 760, 761, 762, 763, 764, 765, 766, 767, 768, 769, 770, 771, 772, 773, 774, 775, 776, 777, 778, 779, 780, 781, 782, 783, 784, 785, 786, 787, 788, 789, 790, 791, 792, 793, 794, 795, 796, 797, 798, 799, 800, 801, 802, 803, 804, 805, 806, 807, 808, 809, 810, 811, 812, 813, 814, 815, 816, 817, 818, 819, 820, 821, 822, 823, 824, 825, 826, 827, 828, 829, 830, 831, 832, 833, 834, 835, 836, 837, 838, 839, 840, 841, 842, 843, 844, 845, 846, 847, 848, 849, 850, 851, 852, 853, 854, 855, 856, 857, 858, 859, 860, 861, 862, 863, 864, 865, 866, 867, 868, 869, 870, 871, 872],
      "AcquisitionTime": ["155406.322500", "155406.782500", "155407.242500", "155407.702500", "155408.162500", "155408.622500", "155409.082500", "155409.542500", "155410.002500", "155410.462500", "155410.922500", "155411.382500", "155411.842500", "155412.302500", "155412.762500", "155413.222500", "155413.682500", "155414.142500", "155414.602500", "155415.062500", "155415.522500", "155415.982500", "155416.442500", "155416.902500", "155417.362500", "155417.822500", "155418.282500", "155418.742500", "155419.202500", "155419.662500", "155420.122500", "155420.582500", "155421.042500", "155421.502500", "155421.962500", "155422.422500", "155422.882500", "155423.342500", "155423.802500", "155424.262500", "155424.722500", "155425.182500", "155425.642500", "155426.102500", "155426.562500", "155427.022500", "155427.482500", "155427.942500", "155428.402500", "155428.862500", "155429.322500", "155429.782500", "155430.242500", "155430.702500", "155431.162500", "155431.622500", "155432.082500", "155432.542500", "155433.002500", "155433.462500", "155433.922500", "155434.382500", "155434.842500", "155435.302500", "155435.762500", "155436.222500", "155436.682500", "155437.142500", "155437.602500", "155438.062500", "155438.522500", "155438.982500", "155439.442500", "155439.902500", "155440.362500", "155440.822500", "155441.282500", "155441.742500", "155442.202500", "155442.662500", "155443.122500", "155443.582500", "155444.042500", "155444.502500", "155444.962500", "155445.422500", "155445.882500", "155446.342500", "155446.802500", "155447.262500", "155447.722500", "155448.182500", "155448.642500", "155449.102500", "155449.562500", "155450.022500", "155450.482500", "155450.942500", "155451.402500", "155451.862500", "155452.322500", "155452.782500", "155453.242500", "155453.702500", "155454.162500", "155454.622500", "155455.082500", "155455.542500", "155456.002500", "155456.462500", "155456.922500", "155457.382500", "155457.842500", "155458.302500", "155458.762500", "155459.222500", "155459.682500", "155500.142500", "155500.602500", "155501.062500", "155501.522500", "155501.982500", "155502.442500", "155502.902500", "155503.362500", "155503.822500", "155504.282500", "155504.742500", "155505.202500", "155505.662500", "155506.122500", "155506.582500", "155507.042500", "155507.502500", "155507.962500", "155508.422500", "155508.882500", "155509.342500", "155509.802500", "155510.262500", "155510.722500", "155511.182500", "155511.642500", "155512.102500", "155512.562500", "155513.022500", "155513.482500", "155513.942500", "155514.402500", "155514.862500", "155515.322500", "155515.782500", "155516.242500", "155516.702500", "155517.162500", "155517.622500", "155518.082500", "155518.542500", "155519.002500", "155519.462500", "155519.922500", "155520.382500", "155520.842500", "155521.302500", "155521.762500", "155522.222500", "155522.682500", "155523.142500", "155523.602500", "155524.062500", "155524.522500", "155524.982500", "155525.442500", "155525.902500", "155526.362500", "155526.822500", "155527.282500", "155527.742500", "155528.202500", "155528.662500", "155529.122500", "155529.582500", "155530.042500", "155530.502500", "155530.962500", "155531.422500", "155531.882500", "155532.342500", "155532.802500", "155533.262500", "155533.722500", "155534.182500", "155534.642500", "155535.102500", "155535.562500", "155536.022500", "155536.482500", "155536.942500", "155537.402500", "155537.862500", "155538.322500", "155538.782500", "155539.242500", "155539.702500", "155540.162500", "155540.622500", "155541.082500", "155541.542500", "155542.002500", "155542.462500", "155542.922500", "155543.382500", "155543.842500", "155544.302500", "155544.762500", "155545.222500", "155545.682500", "155546.142500", "155546.602500", "155547.062500", "155547.522500", "155547.982500", "155548.442500", "155548.902500", "155549.362500", "155549.822500", "155550.282500", "155550.742500", "155551.202500", "155551.662500", "155552.122500", "155552.582500", "155553.042500", "155553.502500", "155553.962500", "155554.422500", "155554.882500", "155555.342500", "155555.802500", "155556.262500", "155556.722500", "155557.182500", "155557.642500", "155558.102500", "155558.562500", "155559.022500", "155559.482500", "155559.942500", "155600.402500", "155600.862500", "155601.322500", "155601.782500", "155602.242500", "155602.702500", "155603.162500", "155603.622500", "155604.082500", "155604.542500", "155605.002500", "155605.462500", "155605.922500", "155606.382500", "155606.842500", "155607.302500", "155607.762500", "155608.222500", "155608.682500", "155609.142500", "155609.602500", "155610.062500", "155610.522500", "155610.982500", "155611.442500", "155611.902500", "155612.362500", "155612.822500", "155613.282500", "155613.742500", "155614.202500", "155614.662500", "155615.122500", "155615.582500", "155616.042500", "155616.502500", "155616.962500", "155617.422500", "155617.882500", "155618.342500", "155618.802500", "155619.262500", "155619.722500", "155620.182500", "155620.642500", "155621.102500", "155621.562500", "155622.022500", "155622.482500", "155622.942500", "155623.402500", "155623.862500", "155624.322500", "155624.782500", "155625.242500", "155625.702500", "155626.162500", "155626.622500", "155627.082500", "155627.542500", "155628.002500", "155628.462500", "155628.922500", "155629.382500", "155629.842500", "155630.302500", "155630.762500", "155631.222500", "155631.682500", "155632.142500", "155632.602500", "155633.062500", "155633.522500", "155633.982500", "155634.442500", "155634.902500", "155635.362500", "155635.822500", "155636.282500", "155636.742500", "155637.202500", "155637.662500", "155638.122500", "155638.582500", "155639.042500", "155639.502500", "155639.962500", "155640.422500", "155640.882500", "155641.342500", "155641.802500", "155642.262500", "155642.722500", "155643.182500", "155643.642500", "155644.102500", "155644.562500", "155645.022500", "155645.482500", "155645.942500", "155646.402500", "155646.862500", "155647.322500", "155647.782500", "155648.242500", "155648.702500", "155649.162500", "155649.622500", "155650.082500", "155650.542500", "155651.002500", "155651.462500", "155651.922500", "155652.382500", "155652.842500", "155653.302500", "155653.762500", "155654.222500", "155654.682500", "155655.142500", "155655.602500", "155656.062500", "155656.522500", "155656.982500", "155657.442500", "155657.902500", "155658.362500", "155658.822500", "155659.282500", "155659.742500", "155700.202500", "155700.662500", "155701.122500", "155701.582500", "155702.042500", "155702.502500", "155702.962500", "155703.422500", "155703.882500", "155704.342500", "155704.802500", "155705.262500", "155705.722500", "155706.182500", "155706.642500", "155707.102500", "155707.562500", "155708.022500", "155708.482500", "155708.942500", "155709.402500", "155709.862500", "155710.322500", "155710.782500", "155711.242500", "155711.702500", "155712.162500", "155712.622500", "155713.082500", "155713.542500", "155714.002500", "155714.462500", "155714.922500", "155715.382500", "155715.842500", "155716.302500", "155716.762500", "155717.222500", "155717.682500", "155718.142500", "155718.602500", "155719.062500", "155719.522500", "155719.982500", "155720.442500", "155720.902500", "155721.362500", "155721.822500", "155722.282500", "155722.742500", "155723.202500", "155723.662500", "155724.122500", "155724.582500", "155725.042500", "155725.502500", "155725.962500", "155726.422500", "155726.882500", "155727.342500", "155727.802500", "155728.262500", "155728.722500", "155729.182500", "155729.642500", "155730.102500", "155730.562500", "155731.022500", "155731.482500", "155731.942500", "155732.402500", "155732.862500", "155733.322500", "155733.782500", "155734.242500", "155734.702500", "155735.162500", "155735.622500", "155736.082500", "155736.542500", "155737.002500", "155737.462500", "155737.922500", "155738.382500", "155738.842500", "155739.302500", "155739.762500", "155740.222500", "155740.682500", "155741.142500", "155741.602500", "155742.062500", "155742.522500", "155742.982500", "155743.442500", "155743.902500", "155744.362500", "155744.822500", "155745.282500", "155745.742500", "155746.202500", "155746.662500", "155747.122500", "155747.582500", "155748.042500", "155748.502500", "155748.962500", "155749.422500", "155749.882500", "155750.342500", "155750.802500", "155751.262500", "155751.722500", "155752.182500", "155752.642500", "155753.102500", "155753.562500", "155754.022500", "155754.482500", "155754.942500", "155755.402500", "155755.862500", "155756.322500", "155756.782500", "155757.242500", "155757.702500", "155758.162500", "155758.622500", "155759.082500", "155759.542500", "155800.002500", "155800.462500", "155800.922500", "155801.382500", "155801.842500", "155802.302500", "155802.762500", "155803.222500", "155803.682500", "155804.142500", "155804.602500", "155805.062500", "155805.522500", "155805.982500", "155806.442500", "155806.902500", "155807.362500", "155807.822500", "155808.282500", "155808.742500", "155809.202500", "155809.662500", "155810.122500", "155810.582500", "155811.042500", "155811.502500", "155811.962500", "155812.422500", "155812.882500", "155813.342500", "155813.802500", "155814.262500", "155814.722500", "155815.182500", "155815.642500", "155816.102500", "155816.562500", "155817.022500", "155817.482500", "155817.942500", "155818.402500", "155818.862500", "155819.322500", "155819.782500", "155820.242500", "155820.702500", "155821.162500", "155821.622500", "155822.082500", "155822.542500", "155823.002500", "155823.462500", "155823.922500", "155824.382500", "155824.842500", "155825.302500", "155825.762500", "155826.222500", "155826.682500", "155827.142500", "155827.602500", "155828.062500", "155828.522500", "155828.982500", "155829.442500", "155829.902500", "155830.362500", "155830.822500", "155831.282500", "155831.742500", "155832.202500", "155832.662500", "155833.122500", "155833.582500", "155834.042500", "155834.502500", "155834.962500", "155835.422500", "155835.882500", "155836.342500", "155836.802500", "155837.262500", "155837.722500", "155838.182500", "155838.642500", "155839.102500", "155839.562500", "155840.022500", "155840.482500", "155840.942500", "155841.402500", "155841.862500", "155842.322500", "155842.782500", "155843.242500", "155843.702500", "155844.162500", "155844.622500", "155845.082500", "155845.542500", "155846.002500", "155846.462500", "155846.922500", "155847.382500", "155847.842500", "155848.302500", "155848.762500", "155849.222500", "155849.682500", "155850.142500", "155850.602500", "155851.062500", "155851.522500", "155851.982500", "155852.442500", "155852.902500", "155853.362500", "155853.822500", "155854.282500", "155854.742500", "155855.202500", "155855.662500", "155856.122500", "155856.582500", "155857.042500", "155857.502500", "155857.962500", "155858.422500", "155858.882500", "155859.342500", "155859.802500", "155900.262500", "155900.722500", "155901.182500", "155901.642500", "155902.102500", "155902.562500", "155903.022500", "155903.482500", "155903.942500", "155904.402500", "155904.862500", "155905.322500", "155905.782500", "155906.242500", "155906.702500", "155907.162500", "155907.622500", "155908.082500", "155908.542500", "155909.002500", "155909.462500", "155909.922500", "155910.382500", "155910.842500", "155911.302500", "155911.762500", "155912.222500", "155912.682500", "155913.142500", "155913.602500", "155914.062500", "155914.522500", "155914.982500", "155915.442500", "155915.902500", "155916.362500", "155916.822500", "155917.282500", "155917.742500", "155918.202500", "155918.662500", "155919.122500", "155919.582500", "155920.042500", "155920.502500", "155920.962500", "155921.422500", "155921.882500", "155922.342500", "155922.802500", "155923.262500", "155923.722500", "155924.182500", "155924.642500", "155925.102500", "155925.562500", "155926.022500", "155926.482500", "155926.942500", "155927.402500", "155927.862500", "155928.322500", "155928.782500", "155929.242500", "155929.702500", "155930.162500", "155930.622500", "155931.082500", "155931.542500", "155932.002500", "155932.462500", "155932.922500", "155933.382500", "155933.842500", "155934.302500", "155934.762500", "155935.222500", "155935.682500", "155936.142500", "155936.602500", "155937.062500", "155937.522500", "155937.982500", "155938.442500", "155938.902500", "155939.362500", "155939.822500", "155940.282500", "155940.742500", "155941.202500", "155941.662500", "155942.122500", "155942.582500", "155943.042500", "155943.502500", "155943.962500", "155944.422500", "155944.882500", "155945.342500", "155945.802500", "155946.262500", "155946.722500", "155947.182500", "155947.642500", "155948.102500", "155948.562500", "155949.022500", "155949.482500", "155949.942500", "155950.402500", "155950.862500", "155951.322500", "155951.782500", "155952.242500", "155952.702500", "155953.162500", "155953.622500", "155954.082500", "155954.542500", "155955.002500", "155955.462500", "155955.922500", "155956.382500", "155956.842500", "155957.302500", "155957.762500", "155958.222500", "155958.682500", "155959.142500", "155959.602500", "160000.062500", "160000.522500", "160000.982500", "160001.442500", "160001.902500", "160002.362500", "160002.822500", "160003.282500", "160003.742500", "160004.202500", "160004.662500", "160005.122500", "160005.582500", "160006.042500", "160006.502500", "160006.962500", "160007.422500", "160007.882500", "160008.342500", "160008.802500", "160009.262500", "160009.722500", "160010.182500", "160010.642500", "160011.102500", "160011.562500", "160012.022500", "160012.482500", "160012.942500", "160013.402500", "160013.862500", "160014.322500", "160014.782500", "160015.242500", "160015.702500", "160016.162500", "160016.622500", "160017.082500", "160017.542500", "160018.002500", "160018.462500", "160018.922500", "160019.382500", "160019.842500", "160020.302500", "160020.762500", "160021.222500", "160021.682500", "160022.142500", "160022.602500", "160023.062500", "160023.522500", "160023.982500", "160024.442500", "160024.902500", "160025.362500", "160025.822500", "160026.282500", "160026.742500", "160027.202500", "160027.662500", "160028.122500", "160028.582500", "160029.042500", "160029.502500", "160029.962500", "160030.422500", "160030.882500", "160031.342500", "160031.802500", "160032.262500", "160032.722500", "160033.182500", "160033.642500", "160034.102500", "160034.562500", "160035.022500", "160035.482500", "160035.942500", "160036.402500", "160036.862500", "160037.322500", "160037.782500", "160038.242500", "160038.702500", "160039.162500", "160039.622500", "160040.082500", "160040.542500", "160041.002500", "160041.462500", "160041.922500", "160042.382500", "160042.842500", "160043.302500", "160043.762500", "160044.222500", "160044.682500", "160045.142500", "160045.602500", "160046.062500", "160046.522500", "160046.982500"],
