{
  "AcquisitionMatrixPE": 82,
  "AcquisitionNumber": 1,
  "AcquisitionTime": "15:38:35.390000",
  "BandwidthPerPixelPhaseEncode": 24.888,
  "BaseResolution": 82,
  "BodyPartExamined": "BRAIN",
  "ConsistencyInfo": "N4_VE11E_LATEST_20181129",
  "ConversionSoftware": "dcm2niix",
  "ConversionSoftwareVersion": "v1.0.20201102",
  "DerivedVendorReportedEchoSpacing": 0.00049,
  "DeviceSerialNumber": "66112",
  "DwellTime": 2e-06,
  "EchoTime": 0.0272,
  "EchoTrainLength": 82,
  "EffectiveEchoSpacing": 0.00049,
  "FlipAngle": 44,
  "ImageComments": "Unaliased MB8/PE3",
  "ImageOrientationPatientDICOM": [0.999852, -0.0171893, 0.000972382, 0.0171033, 0.998149, 0.0583565],
  "ImageType": [
    "ORIGINAL",
    "PRIMARY",
    "M",
    "MB",
    "ND",
    "NORM",
    "MOSAIC"
],
  "ImagingFrequency": 123.252,
  "InPlanePhaseEncodingDirectionDICOM": "COL",
  "InstitutionAddress": "Maynard 3,Hanover,NH,US,03755",
  "InstitutionName": "dartmouth_brain_imaging_center",
  "InstitutionalDepartmentName": "Department",
  "MRAcquisitionType": "2D",
  "MagneticFieldStrength": 3,
  "Manufacturer": "Siemens",
  "ManufacturersModelName": "Prisma",
  "Modality": "MR",
  "MultibandAccelerationFactor": 8,
  "PartialFourier": 1,
  "PatientPosition": "HFS",
  "PercentPhaseFOV": 100,
  "PercentSampling": 100,
  "PhaseEncodingDirection": "j-",
  "PhaseEncodingSteps": 82,
  "PhaseResolution": 1,
  "PixelBandwidth": 3050,
  "ProcedureStepDescription": "Wager_Wager^1076_spacetop",
  "ProtocolName": "func_run-02_task-social_acq-ap-mb8",
  "PulseSequenceDetails": "%CustomerSeq%\\cmrr_mbep2d_bold",
  "ReceiveCoilActiveElements": "HEA;HEP",
  "ReceiveCoilName": "Head_32",
  "ReconMatrixPE": 82,
  "RepetitionTime": 0.46,
  "SAR": 0.103977,
  "ScanOptions": "FS",
  "ScanningSequence": "EP",
  "SequenceName": "epfid2d1_82",
  "SequenceVariant": "SK\\SS",
  "SeriesDescription": "func_run-02_task-social_acq-ap-mb8",
  "SeriesNumber": 14,
  "ShimSetting": [4149, -7767, -7244, 441, -53, -235, -19, 81],
  "SliceThickness": 2.7,
  "SliceTiming": [0, 0.25, 0.0625, 0.3125, 0.125, 0.375, 0.1875, 0, 0.25, 0.0625, 0.3125, 0.125, 0.375, 0.1875, 0, 0.25, 0.0625, 0.3125, 0.125, 0.375, 0.1875, 0, 0.25, 0.0625, 0.3125, 0.125, 0.375, 0.1875, 0, 0.25, 0.0625, 0.3125, 0.125, 0.375, 0.1875, 0, 0.25, 0.0625, 0.3125, 0.125, 0.375, 0.1875, 0, 0.25, 0.0625, 0.3125, 0.125, 0.375, 0.1875, 0, 0.25, 0.0625, 0.3125, 0.125, 0.375, 0.1875],
  "SoftwareVersions": "syngo MR E11",
  "SpacingBetweenSlices": 2.7,
  "StationName": "AWP66112",
  "TaskName": "social",
  "TotalReadoutTime": 0.03969,
  "TxRefAmp": 250.825,
  "WipMemBlock": "71c01758-2e07-4128-bd0c-bb32e08b56a5||Sequence: R016 ve11e/master r/434b28f1; Aug  7 2019 18:53:46 by eja",
  "dcmmeta_affine": [
    [-2.6825292110443115, 0.04588695243000984, 0.005328970029950142, 110.12684631347656],
    [0.04611774533987045, 2.677961587905884, 0.15749430656433105, -99.40980529785156],
    [0.002608830574899912, -0.15656624734401703, 2.69539737701416, -49.91384506225586],
    [0.0, 0.0, 0.0, 1.0]
],
  "dcmmeta_reorient_transform": [
    [0.0, -1.0, 0.0, 81.0],
    [1.0, 0.0, 0.0, 0.0],
    [0.0, 0.0, 1.0, 0.0],
    [0.0, 0.0, 0.0, 1.0]
],
  "dcmmeta_shape": [82, 82, 56, 872],
  "dcmmeta_slice_dim": 2,
  "dcmmeta_version": 0.6,
  "global": {
    "const": {
      "AccessionNumber": "A003900",
      "AcquisitionMatrix": [82, 0, 0, 82],
      "AngioFlag": "N",
      "BitsAllocated": 16,
      "BitsStored": 16,
      "BodyPartExamined": "BRAIN",
      "Columns": 656,
      "EchoNumbers": 1,
      "EchoTime": 27.2,
      "EchoTrainLength": 82,
      "FlipAngle": 44.0,
      "HighBit": 15,
      "ImageOrientationPatient": [0.99985177953645, -0.0171893406056, 0.00097238230698, 0.01710331825871, 0.99814928476959, 0.05835650622259],
      "ImagePositionPatient": [-896.89913221701, -872.84425779672, -108.27895745255],
      "ImageType": [
        "ORIGINAL",
        "PRIMARY",
        "M",
        "MB",
        "ND",
        "NORM",
        "MOSAIC"
],
      "ImagedNucleus": "1H",
      "ImagingFrequency": 123.252171,
      "InPlanePhaseEncodingDirection": "COL",
      "MRAcquisitionType": "2D",
      "MagneticFieldStrength": 3.0,
      "Manufacturer": "SIEMENS",
      "ManufacturerModelName": "Prisma",
      "Modality": "MR",
      "NumberOfAverages": 1.0,
      "NumberOfPhaseEncodingSteps": 82,
      "PercentPhaseFieldOfView": 100.0,
      "PercentSampling": 100.0,
      "PerformedProcedureStepStartTime": "150443.505000",
      "PhotometricInterpretation": "MONOCHROME2",
      "PixelBandwidth": 3050.0,
      "PixelRepresentation": 0,
      "PixelSpacing": [2.6829268932343, 2.6829268932343],
      "ProtocolName": "func_run-02_task-social_acq-ap-mb8",
      "RepetitionTime": 460.0,
      "Rows": 656,
      "SAR": 0.10397663125068,
      "SamplesPerPixel": 1,
      "ScanOptions": "FS",
      "ScanningSequence": "EP",
      "SequenceName": "epfid2d1_82",
      "SequenceVariant": [
        "SK",
        "SS"
],
      "SeriesDescription": "func_run-02_task-social_acq-ap-mb8",
      "SeriesNumber": 14,
      "SeriesTime": "153852.853000",
      "SliceLocation": -55.410099437025,
      "SliceThickness": 2.7000000476837,
      "SmallestImagePixelValue": 0,
      "SoftwareVersions": "syngo MR E11",
      "SpacingBetweenSlices": 2.699999993835,
      "SpecificCharacterSet": "ISO_IR 100",
      "StudyID": "1",
      "StudyTime": "150443.424000",
      "TransmitCoilName": "Body",
      "VariableFlipAngleFlag": "N",
      "WindowCenterWidthExplanation": "Algo1"
    },
    "slices": {}
  },
  "time": {
    "samples": {
      "AcquisitionNumber": [1, 2, 3, 4, 5, 6, 7, 8, 9, 10, 11, 12, 13, 14, 15, 16, 17, 18, 19, 20, 21, 22, 23, 24, 25, 26, 27, 28, 29, 30, 31, 32, 33, 34, 35, 36, 37, 38, 39, 40, 41, 42, 43, 44, 45, 46, 47, 48, 49, 50, 51, 52, 53, 54, 55, 56, 57, 58, 59, 60, 61, 62, 63, 64, 65, 66, 67, 68, 69, 70, 71, 72, 73, 74, 75, 76, 77, 78, 79, 80, 81, 82, 83, 84, 85, 86, 87, 88, 89, 90, 91, 92, 93, 94, 95, 96, 97, 98, 99, 100, 101, 102, 103, 104, 105, 106, 107, 108, 109, 110, 111, 112, 113, 114, 115, 116, 117, 118, 119, 120, 121, 122, 123, 124, 125, 126, 127, 128, 129, 130, 131, 132, 133, 134, 135, 136, 137, 138, 139, 140, 141, 142, 143, 144, 145, 146, 147, 148, 149, 150, 151, 152, 153, 154, 155, 156, 157, 158, 159, 160, 161, 162, 163, 164, 165, 166, 167, 168, 169, 170, 171, 172, 173, 174, 175, 176, 177, 178, 179, 180, 181, 182, 183, 184, 185, 186, 187, 188, 189, 190, 191, 192, 193, 194, 195, 196, 197, 198, 199, 200, 201, 202, 203, 204, 205, 206, 207, 208, 209, 210, 211, 212, 213, 214, 215, 216, 217, 218, 219, 220, 221, 222, 223, 224, 225, 226, 227, 228, 229, 230, 231, 232, 233, 234, 235, 236, 237, 238, 239, 240, 241, 242, 243, 244, 245, 246, 247, 248, 249, 250, 251, 252, 253, 254, 255, 256, 257, 258, 259, 260, 261, 262, 263, 264, 265, 266, 267, 268, 269, 270, 271, 272, 273, 274, 275, 276, 277, 278, 279, 280, 281, 282, 283, 284, 285, 286, 287, 288, 289, 290, 291, 292, 293, 294, 295, 296, 297, 298, 299, 300, 301, 302, 303, 304, 305, 306, 307, 308, 309, 310, 311, 312, 313, 314, 315, 316, 317, 318, 319, 320, 321, 322, 323, 324, 325, 326, 327, 328, 329, 330, 331, 332, 333, 334, 335, 336, 337, 338, 339, 340, 341, 342, 343, 344, 345, 346, 347, 348, 349, 350, 351, 352, 353, 354, 355, 356, 357, 358, 359, 360, 361, 362, 363, 364, 365, 366, 367, 368, 369, 370, 371, 372, 373, 374, 375, 376, 377, 378, 379, 380, 381, 382, 383, 384, 385, 386, 387, 388, 389, 390, 391, 392, 393, 394, 395, 396, 397, 398, 399, 400, 401, 402, 403, 404, 405, 406, 407, 408, 409, 410, 411, 412, 413, 414, 415, 416, 417, 418, 419, 420, 421, 422, 423, 424, 425, 426, 427, 428, 429, 430, 431, 432, 433, 434, 435, 436, 437, 438, 439, 440, 441, 442, 443, 444, 445, 446, 447, 448, 449, 450, 451, 452, 453, 454, 455, 456, 457, 458, 459, 460, 461, 462, 463, 464, 465, 466, 467, 468, 469, 470, 471, 472, 473, 474, 475, 476, 477, 478, 479, 480, 481, 482, 483, 484, 485, 486, 487, 488, 489, 490, 491, 492, 493, 494, 495, 496, 497, 498, 499, 500, 501, 502, 503, 504, 505, 506, 507, 508, 509, 510, 511, 512, 513, 514, 515, 516, 517, 518, 519, 520, 521, 522, 523, 524, 525, 526, 527, 528, 529, 530, 531, 532, 533, 534, 535, 536, 537, 538, 539, 540, 541, 542, 543, 544, 545, 546, 547, 548, 549, 550, 551, 552, 553, 554, 555, 556, 557, 558, 559, 560, 561, 562, 563, 564, 565, 566, 567, 568, 569, 570, 571, 572, 573, 574, 575, 576, 577, 578, 579, 580, 581, 582, 583, 584, 585, 586, 587, 588, 589, 590, 591, 592, 593, 594, 595, 596, 597, 598, 599, 600, 601, 602, 603, 604, 605, 606, 607, 608, 609, 610, 611, 612, 613, 614, 615, 616, 617, 618, 619, 620, 621, 622, 623, 624, 625, 626, 627, 628, 629, 630, 631, 632, 633, 634, 635, 636, 637, 638, 639, 640, 641, 642, 643, 644, 645, 646, 647, 648, 649, 650, 651, 652, 653, 654, 655, 656, 657, 658, 659, 660, 661, 662, 663, 664, 665, 666, 667, 668, 669, 670, 671, 672, 673, 674, 675, 676, 677, 678, 679, 680, 681, 682, 683, 684, 685, 686, 687, 688, 689, 690, 691, 692, 693, 694, 695, 696, 697, 698, 699, 700, 701, 702, 703, 704, 705, 706, 707, 708, 709, 710, 711, 712, 713, 714, 715, 716, 717, 718, 719, 720, 721, 722, 723, 724, 725, 726, 727, 728, 729, 730, 731, 732, 733, 734, 735, 736, 737, 738, 739, 740, 741, 742, 743, 744, 745, 746, 747, 748, 749, 750, 751, 752, 753, 754, 755, 756, 757, 758, 759, 760, 761, 762, 763, 764, 765, 766, 767, 768, 769, 770, 771, 772, 773, 774, 775, 776, 777, 778, 779, 780, 781, 782, 783, 784, 785, 786, 787, 788, 789, 790, 791, 792, 793, 794, 795, 796, 797, 798, 799, 800, 801, 802, 803, 804, 805, 806, 807, 808, 809, 810, 811, 812, 813, 814, 815, 816, 817, 818, 819, 820, 821, 822, 823, 824, 825, 826, 827, 828, 829, 830, 831, 832, 833, 834, 835, 836, 837, 838, 839, 840, 841, 842, 843, 844, 845, 846, 847, 848, 849, 850, 851, 852, 853, 854, 855, 856, 857, 858, 859, 860, 861, 862, 863, 864, 865, 866, 867, 868, 869, 870, 871, 872],
      "AcquisitionTime": ["153835.390000", "153835.850000", "153836.310000", "153836.770000", "153837.230000", "153837.690000", "153838.150000", "153838.610000", "153839.070000", "153839.530000", "153839.990000", "153840.450000", "153840.910000", "153841.370000", "153841.830000", "153842.290000", "153842.750000", "153843.210000", "153843.670000", "153844.130000", "153844.590000", "153845.050000", "153845.510000", "153845.970000", "153846.430000", "153846.890000", "153847.350000", "153847.810000", "153848.270000", "153848.730000", "153849.190000", "153849.650000", "153850.110000", "153850.570000", "153851.030000", "153851.490000", "153851.950000", "153852.410000", "153852.870000", "153853.330000", "153853.790000", "153854.250000", "153854.710000", "153855.170000", "153855.630000", "153856.090000", "153856.550000", "153857.010000", "153857.470000", "153857.930000", "153858.390000", "153858.850000", "153859.310000", "153859.770000", "153900.230000", "153900.690000", "153901.150000", "153901.610000", "153902.070000", "153902.530000", "153902.990000", "153903.450000", "153903.910000", "153904.370000", "153904.830000", "153905.290000", "153905.750000", "153906.210000", "153906.670000", "153907.130000", "153907.590000", "153908.050000", "153908.510000", "153908.970000", "153909.430000", "153909.890000", "153910.350000", "153910.810000", "153911.270000", "153911.730000", "153912.190000", "153912.650000", "153913.110000", "153913.570000", "153914.030000", "153914.490000", "153914.950000", "153915.410000", "153915.870000", "153916.330000", "153916.790000", "153917.250000", "153917.710000", "153918.170000", "153918.630000", "153919.090000", "153919.550000", "153920.010000", "153920.470000", "153920.930000", "153921.390000", "153921.850000", "153922.310000", "153922.770000", "153923.230000", "153923.690000", "153924.150000", "153924.610000", "153925.070000", "153925.530000", "153925.990000", "153926.450000", "153926.910000", "153927.370000", "153927.830000", "153928.290000", "153928.750000", "153929.210000", "153929.670000", "153930.130000", "153930.590000", "153931.050000", "153931.510000", "153931.970000", "153932.430000", "153932.890000", "153933.350000", "153933.810000", "153934.270000", "153934.730000", "153935.190000", "153935.650000", "153936.110000", "153936.570000", "153937.030000", "153937.490000", "153937.950000", "153938.410000", "153938.870000", "153939.330000", "153939.790000", "153940.250000", "153940.710000", "153941.170000", "153941.630000", "153942.090000", "153942.550000", "153943.010000", "153943.470000", "153943.930000", "153944.390000", "153944.850000", "153945.310000", "153945.770000", "153946.230000", "153946.690000", "153947.150000", "153947.610000", "153948.070000", "153948.530000", "153948.990000", "153949.450000", "153949.910000", "153950.370000", "153950.830000", "153951.290000", "153951.750000", "153952.210000", "153952.670000", "153953.130000", "153953.590000", "153954.050000", "153954.510000", "153954.970000", "153955.430000", "153955.890000", "153956.350000", "153956.810000", "153957.270000", "153957.730000", "153958.190000", "153958.650000", "153959.110000", "153959.570000", "154000.030000", "154000.490000", "154000.950000", "154001.410000", "154001.870000", "154002.330000", "154002.790000", "154003.250000", "154003.710000", "154004.170000", "154004.630000", "154005.090000", "154005.550000", "154006.010000", "154006.470000", "154006.930000", "154007.390000", "154007.850000", "154008.310000", "154008.770000", "154009.230000", "154009.690000", "154010.150000", "154010.610000", "154011.070000", "154011.530000", "154011.990000", "154012.450000", "154012.910000", "154013.370000", "154013.830000", "154014.290000", "154014.750000", "154015.210000", "154015.670000", "154016.130000", "154016.590000", "154017.050000", "154017.510000", "154017.970000", "154018.430000", "154018.890000", "154019.350000", "154019.810000", "154020.270000", "154020.730000", "154021.190000", "154021.650000", "154022.110000", "154022.570000", "154023.030000", "154023.490000", "154023.950000", "154024.410000", "154024.870000", "154025.330000", "154025.790000", "154026.250000", "154026.710000", "154027.170000", "154027.630000", "154028.090000", "154028.550000", "154029.010000", "154029.470000", "154029.930000", "154030.390000", "154030.850000", "154031.310000", "154031.770000", "154032.230000", "154032.690000", "154033.150000", "154033.610000", "154034.070000", "154034.530000", "154034.990000", "154035.450000", "154035.910000", "154036.370000", "154036.830000", "154037.290000", "154037.750000", "154038.210000", "154038.670000", "154039.130000", "154039.590000", "154040.050000", "154040.510000", "154040.970000", "154041.430000", "154041.890000", "154042.350000", "154042.810000", "154043.270000", "154043.730000", "154044.190000", "154044.650000", "154045.110000", "154045.570000", "154046.030000", "154046.490000", "154046.950000", "154047.410000", "154047.870000", "154048.330000", "154048.790000", "154049.250000", "154049.710000", "154050.170000", "154050.630000", "154051.090000", "154051.550000", "154052.010000", "154052.470000", "154052.930000", "154053.390000", "154053.850000", "154054.310000", "154054.770000", "154055.230000", "154055.690000", "154056.150000", "154056.610000", "154057.070000", "154057.530000", "154057.990000", "154058.450000", "154058.910000", "154059.370000", "154059.830000", "154100.290000", "154100.750000", "154101.210000", "154101.670000", "154102.130000", "154102.590000", "154103.050000", "154103.510000", "154103.970000", "154104.430000", "154104.890000", "154105.350000", "154105.810000", "154106.270000", "154106.730000", "154107.190000", "154107.650000", "154108.110000", "154108.570000", "154109.030000", "154109.490000", "154109.950000", "154110.410000", "154110.870000", "154111.330000", "154111.790000", "154112.250000", "154112.710000", "154113.170000", "154113.630000", "154114.090000", "154114.550000", "154115.010000", "154115.470000", "154115.930000", "154116.390000", "154116.850000", "154117.310000", "154117.770000", "154118.230000", "154118.690000", "154119.150000", "154119.610000", "154120.070000", "154120.530000", "154120.990000", "154121.450000", "154121.910000", "154122.370000", "154122.830000", "154123.290000", "154123.750000", "154124.210000", "154124.670000", "154125.130000", "154125.590000", "154126.050000", "154126.510000", "154126.970000", "154127.430000", "154127.890000", "154128.350000", "154128.810000", "154129.270000", "154129.730000", "154130.190000", "154130.650000", "154131.110000", "154131.570000", "154132.030000", "154132.490000", "154132.950000", "154133.410000", "154133.870000", "154134.330000", "154134.790000", "154135.250000", "154135.710000", "154136.170000", "154136.630000", "154137.090000", "154137.550000", "154138.010000", "154138.470000", "154138.930000", "154139.390000", "154139.850000", "154140.310000", "154140.770000", "154141.230000", "154141.690000", "154142.150000", "154142.610000", "154143.070000", "154143.530000", "154143.990000", "154144.450000", "154144.910000", "154145.370000", "154145.830000", "154146.290000", "154146.750000", "154147.210000", "154147.670000", "154148.130000", "154148.590000", "154149.050000", "154149.510000", "154149.970000", "154150.430000", "154150.890000", "154151.350000", "154151.810000", "154152.270000", "154152.730000", "154153.190000", "154153.650000", "154154.110000", "154154.570000", "154155.030000", "154155.490000", "154155.950000", "154156.410000", "154156.870000", "154157.330000", "154157.790000", "154158.250000", "154158.710000", "154159.170000", "154159.630000", "154200.090000", "154200.550000", "154201.010000", "154201.470000", "154201.930000", "154202.390000", "154202.850000", "154203.310000", "154203.770000", "154204.230000", "154204.690000", "154205.150000", "154205.610000", "154206.070000", "154206.530000", "154206.990000", "154207.450000", "154207.910000", "154208.370000", "154208.830000", "154209.290000", "154209.750000", "154210.210000", "154210.670000", "154211.130000", "154211.590000", "154212.050000", "154212.510000", "154212.970000", "154213.430000", "154213.890000", "154214.350000", "154214.810000", "154215.270000", "154215.730000", "154216.190000", "154216.650000", "154217.110000", "154217.570000", "154218.030000", "154218.490000", "154218.950000", "154219.410000", "154219.870000", "154220.330000", "154220.790000", "154221.250000", "154221.710000", "154222.170000", "154222.630000", "154223.090000", "154223.550000", "154224.010000", "154224.470000", "154224.930000", "154225.390000", "154225.850000", "154226.310000", "154226.770000", "154227.230000", "154227.690000", "154228.150000", "154228.610000", "154229.070000", "154229.530000", "154229.990000", "154230.450000", "154230.910000", "154231.370000", "154231.830000", "154232.290000", "154232.750000", "154233.210000", "154233.670000", "154234.130000", "154234.590000", "154235.050000", "154235.510000", "154235.970000", "154236.430000", "154236.890000", "154237.350000", "154237.810000", "154238.270000", "154238.730000", "154239.190000", "154239.650000", "154240.110000", "154240.570000", "154241.030000", "154241.490000", "154241.950000", "154242.410000", "154242.870000", "154243.330000", "154243.790000", "154244.250000", "154244.710000", "154245.170000", "154245.630000", "154246.090000", "154246.550000", "154247.010000", "154247.470000", "154247.930000", "154248.390000", "154248.850000", "154249.310000", "154249.770000", "154250.230000", "154250.690000", "154251.150000", "154251.610000", "154252.070000", "154252.530000", "154252.990000", "154253.450000", "154253.910000", "154254.370000", "154254.830000", "154255.290000", "154255.750000", "154256.210000", "154256.670000", "154257.130000", "154257.590000", "154258.050000", "154258.510000", "154258.970000", "154259.430000", "154259.890000", "154300.350000", "154300.810000", "154301.270000", "154301.730000", "154302.190000", "154302.650000", "154303.110000", "154303.570000", "154304.030000", "154304.490000", "154304.950000", "154305.410000", "154305.870000", "154306.330000", "154306.790000", "154307.250000", "154307.710000", "154308.170000", "154308.630000", "154309.090000", "154309.550000", "154310.010000", "154310.470000", "154310.930000", "154311.390000", "154311.850000", "154312.310000", "154312.770000", "154313.230000", "154313.690000", "154314.150000", "154314.610000", "154315.070000", "154315.530000", "154315.990000", "154316.450000", "154316.910000", "154317.370000", "154317.830000", "154318.290000", "154318.750000", "154319.210000", "154319.670000", "154320.130000", "154320.590000", "154321.050000", "154321.510000", "154321.970000", "154322.430000", "154322.890000", "154323.350000", "154323.810000", "154324.270000", "154324.730000", "154325.190000", "154325.650000", "154326.110000", "154326.570000", "154327.030000", "154327.490000", "154327.950000", "154328.410000", "154328.870000", "154329.330000", "154329.790000", "154330.250000", "154330.710000", "154331.170000", "154331.630000", "154332.090000", "154332.550000", "154333.010000", "154333.470000", "154333.930000", "154334.390000", "154334.850000", "154335.310000", "154335.770000", "154336.230000", "154336.690000", "154337.150000", "154337.610000", "154338.070000", "154338.530000", "154338.990000", "154339.450000", "154339.910000", "154340.370000", "154340.830000", "154341.290000", "154341.750000", "154342.210000", "154342.670000", "154343.130000", "154343.590000", "154344.050000", "154344.510000", "154344.970000", "154345.430000", "154345.890000", "154346.350000", "154346.810000", "154347.270000", "154347.730000", "154348.190000", "154348.650000", "154349.110000", "154349.570000", "154350.030000", "154350.490000", "154350.950000", "154351.410000", "154351.870000", "154352.330000", "154352.790000", "154353.250000", "154353.710000", "154354.170000", "154354.630000", "154355.090000", "154355.550000", "154356.010000", "154356.470000", "154356.930000", "154357.390000", "154357.850000", "154358.310000", "154358.770000", "154359.230000", "154359.690000", "154400.150000", "154400.610000", "154401.070000", "154401.530000", "154401.990000", "154402.450000", "154402.910000", "154403.370000", "154403.830000", "154404.290000", "154404.750000", "154405.210000", "154405.670000", "154406.130000", "154406.590000", "154407.050000", "154407.510000", "154407.970000", "154408.430000", "154408.890000", "154409.350000", "154409.810000", "154410.270000", "154410.730000", "154411.190000", "154411.650000", "154412.110000", "154412.570000", "154413.030000", "154413.490000", "154413.950000", "154414.410000", "154414.870000", "154415.330000", "154415.790000", "154416.250000", "154416.710000", "154417.170000", "154417.630000", "154418.090000", "154418.550000", "154419.010000", "154419.470000", "154419.930000", "154420.390000", "154420.850000", "154421.310000", "154421.770000", "154422.230000", "154422.690000", "154423.150000", "154423.610000", "154424.070000", "154424.530000", "154424.990000", "154425.450000", "154425.910000", "154426.370000", "154426.830000", "154427.290000", "154427.750000", "154428.210000", "154428.670000", "154429.130000", "154429.590000", "154430.050000", "154430.510000", "154430.970000", "154431.430000", "154431.890000", "154432.350000", "154432.810000", "154433.270000", "154433.730000", "154434.190000", "154434.650000", "154435.110000", "154435.570000", "154436.030000", "154436.490000", "154436.950000", "154437.410000", "154437.870000", "154438.330000", "154438.790000", "154439.250000", "154439.710000", "154440.170000", "154440.630000", "154441.090000", "154441.550000", "154442.010000", "154442.470000", "154442.930000", "154443.390000", "154443.850000", "154444.310000", "154444.770000", "154445.230000", "154445.690000", "154446.150000", "154446.610000", "154447.070000", "154447.530000", "154447.990000", "154448.450000", "154448.910000", "154449.370000", "154449.830000", "154450.290000", "154450.750000", "154451.210000", "154451.670000", "154452.130000", "154452.590000", "154453.050000", "154453.510000", "154453.970000", "154454.430000", "154454.890000", "154455.350000", "154455.810000", "154456.270000", "154456.730000", "154457.190000", "154457.650000", "154458.110000", "154458.570000", "154459.030000", "154459.490000", "154459.950000", "154500.410000", "154500.870000", "154501.330000", "154501.790000", "154502.250000", "154502.710000", "154503.170000", "154503.630000", "154504.090000", "154504.550000", "154505.010000", "154505.470000", "154505.930000", "154506.390000", "154506.850000", "154507.310000", "154507.770000", "154508.230000", "154508.690000", "154509.150000", "154509.610000", "154510.070000", "154510.530000", "154510.990000", "154511.450000", "154511.910000", "154512.370000", "154512.830000", "154513.290000", "154513.750000", "154514.210000", "154514.670000", "154515.130000", "154515.590000", "154516.050000"],
