{
  "AcquisitionMatrixPE": 82,
  "AcquisitionNumber": 1,
  "AcquisitionTime": "16:09:21.345000",
  "BandwidthPerPixelPhaseEncode": 24.888,
  "BaseResolution": 82,
  "BodyPartExamined": "BRAIN",
  "ConsistencyInfo": "N4_VE11E_LATEST_20181129",
  "ConversionSoftware": "dcm2niix",
  "ConversionSoftwareVersion": "v1.0.20201102",
  "DerivedVendorReportedEchoSpacing": 0.00049,
  "DeviceSerialNumber": "66112",
  "DwellTime": 2e-06,
  "EchoTime": 0.0272,
  "EchoTrainLength": 82,
  "EffectiveEchoSpacing": 0.00049,
  "FlipAngle": 44,
  "ImageComments": "Unaliased MB8/PE3",
  "ImageOrientationPatientDICOM": [0.999852, -0.0171893, 0.000972382, 0.0171033, 0.998149, 0.0583565],
  "ImageType": [
    "ORIGINAL",
    "PRIMARY",
    "M",
    "MB",
    "ND",
    "NORM",
    "MOSAIC"
],
  "ImagingFrequency": 123.252,
  "InPlanePhaseEncodingDirectionDICOM": "COL",
  "InstitutionAddress": "Maynard 3,Hanover,NH,US,03755",
  "InstitutionName": "dartmouth_brain_imaging_center",
  "InstitutionalDepartmentName": "Department",
  "MRAcquisitionType": "2D",
  "MagneticFieldStrength": 3,
  "Manufacturer": "Siemens",
  "ManufacturersModelName": "Prisma",
  "Modality": "MR",
  "MultibandAccelerationFactor": 8,
  "PartialFourier": 1,
  "PatientPosition": "HFS",
  "PercentPhaseFOV": 100,
  "PercentSampling": 100,
  "PhaseEncodingDirection": "j-",
  "PhaseEncodingSteps": 82,
  "PhaseResolution": 1,
  "PixelBandwidth": 3050,
  "ProcedureStepDescription": "Wager_Wager^1076_spacetop",
  "ProtocolName": "func_run-06_task-social_acq-ap-mb8",
  "PulseSequenceDetails": "%CustomerSeq%\\cmrr_mbep2d_bold",
  "ReceiveCoilActiveElements": "HEA;HEP",
  "ReceiveCoilName": "Head_32",
  "ReconMatrixPE": 82,
  "RepetitionTime": 0.46,
  "SAR": 0.103977,
  "ScanOptions": "FS",
  "ScanningSequence": "EP",
  "SequenceName": "epfid2d1_82",
  "SequenceVariant": "SK\\SS",
  "SeriesDescription": "func_run-06_task-social_acq-ap-mb8",
  "SeriesNumber": 22,
  "ShimSetting": [4149, -7767, -7244, 441, -53, -235, -19, 81],
  "SliceThickness": 2.7,
  "SliceTiming": [0, 0.2525, 0.065, 0.315, 0.1275, 0.3775, 0.19, 0, 0.2525, 0.065, 0.315, 0.1275, 0.3775, 0.19, 0, 0.2525, 0.065, 0.315, 0.1275, 0.3775, 0.19, 0, 0.2525, 0.065, 0.315, 0.1275, 0.3775, 0.19, 0, 0.2525, 0.065, 0.315, 0.1275, 0.3775, 0.19, 0, 0.2525, 0.065, 0.315, 0.1275, 0.3775, 0.19, 0, 0.2525, 0.065, 0.315, 0.1275, 0.3775, 0.19, 0, 0.2525, 0.065, 0.315, 0.1275, 0.3775, 0.19],
  "SoftwareVersions": "syngo MR E11",
  "SpacingBetweenSlices": 2.7,
  "StationName": "AWP66112",
  "TaskName": "social",
  "TotalReadoutTime": 0.03969,
  "TxRefAmp": 250.825,
  "WipMemBlock": "a4c4f391-dc05-483d-a052-2eee5bd28525||Sequence: R016 ve11e/master r/434b28f1; Aug  7 2019 18:53:46 by eja",
  "dcmmeta_affine": [
    [-2.6825292110443115, 0.04588695243000984, 0.005328970029950142, 110.12684631347656],
    [0.04611774533987045, 2.677961587905884, 0.15749430656433105, -99.40980529785156],
    [0.002608830574899912, -0.15656624734401703, 2.69539737701416, -49.91384506225586],
    [0.0, 0.0, 0.0, 1.0]
],
  "dcmmeta_reorient_transform": [
    [0.0, -1.0, 0.0, 81.0],
    [1.0, 0.0, 0.0, 0.0],
    [0.0, 0.0, 1.0, 0.0],
    [0.0, 0.0, 0.0, 1.0]
],
  "dcmmeta_shape": [82, 82, 56, 872],
  "dcmmeta_slice_dim": 2,
  "dcmmeta_version": 0.6,
  "global": {
    "const": {
      "AccessionNumber": "A003900",
      "AcquisitionMatrix": [82, 0, 0, 82],
      "AngioFlag": "N",
      "BitsAllocated": 16,
      "BitsStored": 16,
      "BodyPartExamined": "BRAIN",
      "Columns": 656,
      "EchoNumbers": 1,
      "EchoTime": 27.2,
      "EchoTrainLength": 82,
      "FlipAngle": 44.0,
      "HighBit": 15,
      "ImageOrientationPatient": [0.99985177953645, -0.0171893406056, 0.00097238230698, 0.01710331825871, 0.99814928476959, 0.05835650622259],
      "ImagePositionPatient": [-896.89913221701, -872.84425779672, -108.27895745255],
      "ImageType": [
        "ORIGINAL",
        "PRIMARY",
        "M",
        "MB",
        "ND",
        "NORM",
        "MOSAIC"
],
      "ImagedNucleus": "1H",
      "ImagingFrequency": 123.252174,
      "InPlanePhaseEncodingDirection": "COL",
      "MRAcquisitionType": "2D",
      "MagneticFieldStrength": 3.0,
      "Manufacturer": "SIEMENS",
      "ManufacturerModelName": "Prisma",
      "Modality": "MR",
      "NumberOfAverages": 1.0,
      "NumberOfPhaseEncodingSteps": 82,
      "PercentPhaseFieldOfView": 100.0,
      "PercentSampling": 100.0,
      "PerformedProcedureStepStartTime": "150443.505000",
      "PhotometricInterpretation": "MONOCHROME2",
      "PixelBandwidth": 3050.0,
      "PixelRepresentation": 0,
      "PixelSpacing": [2.6829268932343, 2.6829268932343],
      "ProtocolName": "func_run-06_task-social_acq-ap-mb8",
      "RepetitionTime": 460.0,
      "Rows": 656,
      "SAR": 0.10397663125068,
      "SamplesPerPixel": 1,
      "ScanOptions": "FS",
      "ScanningSequence": "EP",
      "SequenceName": "epfid2d1_82",
      "SequenceVariant": [
        "SK",
        "SS"
],
      "SeriesDescription": "func_run-06_task-social_acq-ap-mb8",
      "SeriesNumber": 22,
      "SeriesTime": "160932.906000",
      "SliceLocation": -55.410099437025,
      "SliceThickness": 2.7000000476837,
      "SmallestImagePixelValue": 0,
      "SoftwareVersions": "syngo MR E11",
      "SpacingBetweenSlices": 2.699999993835,
      "SpecificCharacterSet": "ISO_IR 100",
      "StudyID": "1",
      "StudyTime": "150443.424000",
      "TransmitCoilName": "Body",
      "VariableFlipAngleFlag": "N",
      "WindowCenterWidthExplanation": "Algo1"
    },
    "slices": {}
  },
  "time": {
    "samples": {
      "AcquisitionNumber": [1, 2, 3, 4, 5, 6, 7, 8, 9, 10, 11, 12, 13, 14, 15, 16, 17, 18, 19, 20, 21, 22, 23, 24, 25, 26, 27, 28, 29, 30, 31, 32, 33, 34, 35, 36, 37, 38, 39, 40, 41, 42, 43, 44, 45, 46, 47, 48, 49, 50, 51, 52, 53, 54, 55, 56, 57, 58, 59, 60, 61, 62, 63, 64, 65, 66, 67, 68, 69, 70, 71, 72, 73, 74, 75, 76, 77, 78, 79, 80, 81, 82, 83, 84, 85, 86, 87, 88, 89, 90, 91, 92, 93, 94, 95, 96, 97, 98, 99, 100, 101, 102, 103, 104, 105, 106, 107, 108, 109, 110, 111, 112, 113, 114, 115, 116, 117, 118, 119, 120, 121, 122, 123, 124, 125, 126, 127, 128, 129, 130, 131, 132, 133, 134, 135, 136, 137, 138, 139, 140, 141, 142, 143, 144, 145, 146, 147, 148, 149, 150, 151, 152, 153, 154, 155, 156, 157, 158, 159, 160, 161, 162, 163, 164, 165, 166, 167, 168, 169, 170, 171, 172, 173, 174, 175, 176, 177, 178, 179, 180, 181, 182, 183, 184, 185, 186, 187, 188, 189, 190, 191, 192, 193, 194, 195, 196, 197, 198, 199, 200, 201, 202, 203, 204, 205, 206, 207, 208, 209, 210, 211, 212, 213, 214, 215, 216, 217, 218, 219, 220, 221, 222, 223, 224, 225, 226, 227, 228, 229, 230, 231, 232, 233, 234, 235, 236, 237, 238, 239, 240, 241, 242, 243, 244, 245, 246, 247, 248, 249, 250, 251, 252, 253, 254, 255, 256, 257, 258, 259, 260, 261, 262, 263, 264, 265, 266, 267, 268, 269, 270, 271, 272, 273, 274, 275, 276, 277, 278, 279, 280, 281, 282, 283, 284, 285, 286, 287, 288, 289, 290, 291, 292, 293, 294, 295, 296, 297, 298, 299, 300, 301, 302, 303, 304, 305, 306, 307, 308, 309, 310, 311, 312, 313, 314, 315, 316, 317, 318, 319, 320, 321, 322, 323, 324, 325, 326, 327, 328, 329, 330, 331, 332, 333, 334, 335, 336, 337, 338, 339, 340, 341, 342, 343, 344, 345, 346, 347, 348, 349, 350, 351, 352, 353, 354, 355, 356, 357, 358, 359, 360, 361, 362, 363, 364, 365, 366, 367, 368, 369, 370, 371, 372, 373, 374, 375, 376, 377, 378, 379, 380, 381, 382, 383, 384, 385, 386, 387, 388, 389, 390, 391, 392, 393, 394, 395, 396, 397, 398, 399, 400, 401, 402, 403, 404, 405, 406, 407, 408, 409, 410, 411, 412, 413, 414, 415, 416, 417, 418, 419, 420, 421, 422, 423, 424, 425, 426, 427, 428, 429, 430, 431, 432, 433, 434, 435, 436, 437, 438, 439, 440, 441, 442, 443, 444, 445, 446, 447, 448, 449, 450, 451, 452, 453, 454, 455, 456, 457, 458, 459, 460, 461, 462, 463, 464, 465, 466, 467, 468, 469, 470, 471, 472, 473, 474, 475, 476, 477, 478, 479, 480, 481, 482, 483, 484, 485, 486, 487, 488, 489, 490, 491, 492, 493, 494, 495, 496, 497, 498, 499, 500, 501, 502, 503, 504, 505, 506, 507, 508, 509, 510, 511, 512, 513, 514, 515, 516, 517, 518, 519, 520, 521, 522, 523, 524, 525, 526, 527, 528, 529, 530, 531, 532, 533, 534, 535, 536, 537, 538, 539, 540, 541, 542, 543, 544, 545, 546, 547, 548, 549, 550, 551, 552, 553, 554, 555, 556, 557, 558, 559, 560, 561, 562, 563, 564, 565, 566, 567, 568, 569, 570, 571, 572, 573, 574, 575, 576, 577, 578, 579, 580, 581, 582, 583, 584, 585, 586, 587, 588, 589, 590, 591, 592, 593, 594, 595, 596, 597, 598, 599, 600, 601, 602, 603, 604, 605, 606, 607, 608, 609, 610, 611, 612, 613, 614, 615, 616, 617, 618, 619, 620, 621, 622, 623, 624, 625, 626, 627, 628, 629, 630, 631, 632, 633, 634, 635, 636, 637, 638, 639, 640, 641, 642, 643, 644, 645, 646, 647, 648, 649, 650, 651, 652, 653, 654, 655, 656, 657, 658, 659, 660, 661, 662, 663, 664, 665, 666, 667, 668, 669, 670, 671, 672, 673, 674, 675, 676, 677, 678, 679, 680, 681, 682, 683, 684, 685, 686, 687, 688, 689, 690, 691, 692, 693, 694, 695, 696, 697, 698, 699, 700, 701, 702, 703, 704, 705, 706, 707, 708, 709, 710, 711, 712, 713, 714, 715, 716, 717, 718, 719, 720, 721, 722, 723, 724, 725, 726, 727, 728, 729, 730, 731, 732, 733, 734, 735, 736, 737, 738, 739, 740, 741, 742, 743, 744, 745, 746, 747, 748, 749, 750, 751, 752, 753, 754, 755, 756, 757, 758, 759, 760, 761, 762, 763, 764, 765, 766, 767, 768, 769, 770, 771, 772, 773, 774, 775, 776, 777, 778, 779, 780, 781, 782, 783, 784, 785, 786, 787, 788, 789, 790, 791, 792, 793, 794, 795, 796, 797, 798, 799, 800, 801, 802, 803, 804, 805, 806, 807, 808, 809, 810, 811, 812, 813, 814, 815, 816, 817, 818, 819, 820, 821, 822, 823, 824, 825, 826, 827, 828, 829, 830, 831, 832, 833, 834, 835, 836, 837, 838, 839, 840, 841, 842, 843, 844, 845, 846, 847, 848, 849, 850, 851, 852, 853, 854, 855, 856, 857, 858, 859, 860, 861, 862, 863, 864, 865, 866, 867, 868, 869, 870, 871, 872],
      "AcquisitionTime": ["160921.345000", "160921.805000", "160922.265000", "160922.725000", "160923.185000", "160923.645000", "160924.105000", "160924.565000", "160925.025000", "160925.485000", "160925.945000", "160926.405000", "160926.865000", "160927.325000", "160927.785000", "160928.245000", "160928.705000", "160929.165000", "160929.625000", "160930.085000", "160930.545000", "160931.005000", "160931.465000", "160931.925000", "160932.385000", "160932.845000", "160933.305000", "160933.765000", "160934.225000", "160934.685000", "160935.145000", "160935.605000", "160936.065000", "160936.525000", "160936.985000", "160937.445000", "160937.905000", "160938.365000", "160938.825000", "160939.285000", "160939.745000", "160940.205000", "160940.665000", "160941.125000", "160941.585000", "160942.045000", "160942.505000", "160942.965000", "160943.425000", "160943.885000", "160944.345000", "160944.805000", "160945.265000", "160945.725000", "160946.185000", "160946.645000", "160947.105000", "160947.565000", "160948.025000", "160948.485000", "160948.945000", "160949.405000", "160949.865000", "160950.325000", "160950.785000", "160951.245000", "160951.705000", "160952.165000", "160952.625000", "160953.085000", "160953.545000", "160954.005000", "160954.465000", "160954.925000", "160955.385000", "160955.845000", "160956.305000", "160956.765000", "160957.225000", "160957.685000", "160958.145000", "160958.605000", "160959.065000", "160959.525000", "160959.985000", "161000.445000", "161000.905000", "161001.365000", "161001.825000", "161002.285000", "161002.745000", "161003.205000", "161003.665000", "161004.125000", "161004.585000", "161005.045000", "161005.505000", "161005.965000", "161006.425000", "161006.885000", "161007.345000", "161007.805000", "161008.265000", "161008.725000", "161009.185000", "161009.645000", "161010.105000", "161010.565000", "161011.025000", "161011.485000", "161011.945000", "161012.405000", "161012.865000", "161013.325000", "161013.785000", "161014.245000", "161014.705000", "161015.165000", "161015.625000", "161016.085000", "161016.545000", "161017.005000", "161017.465000", "161017.925000", "161018.385000", "161018.845000", "161019.305000", "161019.765000", "161020.225000", "161020.685000", "161021.145000", "161021.605000", "161022.065000", "161022.525000", "161022.985000", "161023.445000", "161023.905000", "161024.365000", "161024.825000", "161025.285000", "161025.745000", "161026.205000", "161026.665000", "161027.125000", "161027.585000", "161028.045000", "161028.505000", "161028.965000", "161029.425000", "161029.885000", "161030.345000", "161030.805000", "161031.265000", "161031.725000", "161032.185000", "161032.645000", "161033.105000", "161033.565000", "161034.025000", "161034.485000", "161034.945000", "161035.405000", "161035.865000", "161036.325000", "161036.785000", "161037.245000", "161037.705000", "161038.165000", "161038.625000", "161039.085000", "161039.545000", "161040.005000", "161040.465000", "161040.925000", "161041.385000", "161041.845000", "161042.305000", "161042.765000", "161043.225000", "161043.685000", "161044.145000", "161044.605000", "161045.065000", "161045.525000", "161045.985000", "161046.445000", "161046.905000", "161047.365000", "161047.825000", "161048.285000", "161048.745000", "161049.205000", "161049.665000", "161050.125000", "161050.585000", "161051.045000", "161051.505000", "161051.965000", "161052.425000", "161052.885000", "161053.345000", "161053.805000", "161054.265000", "161054.725000", "161055.185000", "161055.645000", "161056.105000", "161056.565000", "161057.025000", "161057.485000", "161057.945000", "161058.405000", "161058.865000", "161059.325000", "161059.785000", "161100.245000", "161100.705000", "161101.165000", "161101.625000", "161102.085000", "161102.545000", "161103.005000", "161103.465000", "161103.925000", "161104.385000", "161104.845000", "161105.305000", "161105.765000", "161106.225000", "161106.685000", "161107.145000", "161107.605000", "161108.065000", "161108.525000", "161108.985000", "161109.445000", "161109.905000", "161110.365000", "161110.825000", "161111.285000", "161111.745000", "161112.205000", "161112.665000", "161113.125000", "161113.585000", "161114.045000", "161114.505000", "161114.965000", "161115.425000", "161115.885000", "161116.345000", "161116.805000", "161117.265000", "161117.725000", "161118.185000", "161118.645000", "161119.105000", "161119.565000", "161120.025000", "161120.485000", "161120.945000", "161121.405000", "161121.865000", "161122.325000", "161122.785000", "161123.245000", "161123.705000", "161124.165000", "161124.625000", "161125.085000", "161125.545000", "161126.005000", "161126.465000", "161126.925000", "161127.385000", "161127.845000", "161128.305000", "161128.765000", "161129.225000", "161129.685000", "161130.145000", "161130.605000", "161131.065000", "161131.525000", "161131.985000", "161132.445000", "161132.905000", "161133.365000", "161133.825000", "161134.285000", "161134.745000", "161135.205000", "161135.665000", "161136.125000", "161136.585000", "161137.045000", "161137.505000", "161137.965000", "161138.425000", "161138.885000", "161139.345000", "161139.805000", "161140.265000", "161140.725000", "161141.185000", "161141.645000", "161142.105000", "161142.565000", "161143.025000", "161143.485000", "161143.945000", "161144.405000", "161144.865000", "161145.325000", "161145.785000", "161146.245000", "161146.705000", "161147.165000", "161147.625000", "161148.085000", "161148.545000", "161149.005000", "161149.465000", "161149.925000", "161150.385000", "161150.845000", "161151.305000", "161151.765000", "161152.225000", "161152.685000", "161153.145000", "161153.605000", "161154.065000", "161154.525000", "161154.985000", "161155.445000", "161155.905000", "161156.365000", "161156.825000", "161157.285000", "161157.745000", "161158.205000", "161158.665000", "161159.125000", "161159.585000", "161200.045000", "161200.505000", "161200.965000", "161201.425000", "161201.885000", "161202.345000", "161202.805000", "161203.265000", "161203.725000", "161204.185000", "161204.645000", "161205.105000", "161205.565000", "161206.025000", "161206.485000", "161206.945000", "161207.405000", "161207.865000", "161208.325000", "161208.785000", "161209.245000", "161209.705000", "161210.165000", "161210.625000", "161211.085000", "161211.545000", "161212.005000", "161212.465000", "161212.925000", "161213.385000", "161213.845000", "161214.305000", "161214.765000", "161215.225000", "161215.685000", "161216.145000", "161216.605000", "161217.065000", "161217.525000", "161217.985000", "161218.445000", "161218.905000", "161219.365000", "161219.825000", "161220.285000", "161220.745000", "161221.205000", "161221.665000", "161222.125000", "161222.585000", "161223.045000", "161223.505000", "161223.965000", "161224.425000", "161224.885000", "161225.345000", "161225.805000", "161226.265000", "161226.725000", "161227.185000", "161227.645000", "161228.105000", "161228.565000", "161229.025000", "161229.485000", "161229.945000", "161230.405000", "161230.865000", "161231.325000", "161231.785000", "161232.245000", "161232.705000", "161233.165000", "161233.625000", "161234.085000", "161234.545000", "161235.005000", "161235.465000", "161235.925000", "161236.385000", "161236.845000", "161237.305000", "161237.765000", "161238.225000", "161238.685000", "161239.145000", "161239.605000", "161240.065000", "161240.525000", "161240.985000", "161241.445000", "161241.905000", "161242.365000", "161242.825000", "161243.285000", "161243.745000", "161244.205000", "161244.665000", "161245.125000", "161245.585000", "161246.045000", "161246.505000", "161246.965000", "161247.425000", "161247.885000", "161248.345000", "161248.805000", "161249.265000", "161249.725000", "161250.185000", "161250.645000", "161251.105000", "161251.565000", "161252.025000", "161252.485000", "161252.945000", "161253.405000", "161253.865000", "161254.325000", "161254.785000", "161255.245000", "161255.705000", "161256.165000", "161256.625000", "161257.085000", "161257.545000", "161258.005000", "161258.465000", "161258.925000", "161259.385000", "161259.845000", "161300.305000", "161300.765000", "161301.225000", "161301.685000", "161302.145000", "161302.605000", "161303.065000", "161303.525000", "161303.985000", "161304.445000", "161304.905000", "161305.365000", "161305.825000", "161306.285000", "161306.745000", "161307.205000", "161307.665000", "161308.125000", "161308.585000", "161309.045000", "161309.505000", "161309.965000", "161310.425000", "161310.885000", "161311.345000", "161311.805000", "161312.265000", "161312.725000", "161313.185000", "161313.645000", "161314.105000", "161314.565000", "161315.025000", "161315.485000", "161315.945000", "161316.405000", "161316.865000", "161317.325000", "161317.785000", "161318.245000", "161318.705000", "161319.165000", "161319.625000", "161320.085000", "161320.545000", "161321.005000", "161321.465000", "161321.925000", "161322.385000", "161322.845000", "161323.305000", "161323.765000", "161324.225000", "161324.685000", "161325.145000", "161325.605000", "161326.065000", "161326.525000", "161326.985000", "161327.445000", "161327.905000", "161328.365000", "161328.825000", "161329.285000", "161329.745000", "161330.205000", "161330.665000", "161331.125000", "161331.585000", "161332.045000", "161332.505000", "161332.965000", "161333.425000", "161333.885000", "161334.345000", "161334.805000", "161335.265000", "161335.725000", "161336.185000", "161336.645000", "161337.105000", "161337.565000", "161338.025000", "161338.485000", "161338.945000", "161339.405000", "161339.865000", "161340.325000", "161340.785000", "161341.245000", "161341.705000", "161342.165000", "161342.625000", "161343.085000", "161343.545000", "161344.005000", "161344.465000", "161344.925000", "161345.385000", "161345.845000", "161346.305000", "161346.765000", "161347.225000", "161347.685000", "161348.145000", "161348.605000", "161349.065000", "161349.525000", "161349.985000", "161350.445000", "161350.905000", "161351.365000", "161351.825000", "161352.285000", "161352.745000", "161353.205000", "161353.665000", "161354.125000", "161354.585000", "161355.045000", "161355.505000", "161355.965000", "161356.425000", "161356.885000", "161357.345000", "161357.805000", "161358.265000", "161358.725000", "161359.185000", "161359.645000", "161400.105000", "161400.565000", "161401.025000", "161401.485000", "161401.945000", "161402.405000", "161402.865000", "161403.325000", "161403.785000", "161404.245000", "161404.705000", "161405.165000", "161405.625000", "161406.085000", "161406.545000", "161407.005000", "161407.465000", "161407.925000", "161408.385000", "161408.845000", "161409.305000", "161409.765000", "161410.225000", "161410.685000", "161411.145000", "161411.605000", "161412.065000", "161412.525000", "161412.985000", "161413.445000", "161413.905000", "161414.365000", "161414.825000", "161415.285000", "161415.745000", "161416.205000", "161416.665000", "161417.125000", "161417.585000", "161418.045000", "161418.505000", "161418.965000", "161419.425000", "161419.885000", "161420.345000", "161420.805000", "161421.265000", "161421.725000", "161422.185000", "161422.645000", "161423.105000", "161423.565000", "161424.025000", "161424.485000", "161424.945000", "161425.405000", "161425.865000", "161426.325000", "161426.785000", "161427.245000", "161427.705000", "161428.165000", "161428.625000", "161429.085000", "161429.545000", "161430.005000", "161430.465000", "161430.925000", "161431.385000", "161431.845000", "161432.305000", "161432.765000", "161433.225000", "161433.685000", "161434.145000", "161434.605000", "161435.065000", "161435.525000", "161435.985000", "161436.445000", "161436.905000", "161437.365000", "161437.825000", "161438.285000", "161438.745000", "161439.205000", "161439.665000", "161440.125000", "161440.585000", "161441.045000", "161441.505000", "161441.965000", "161442.425000", "161442.885000", "161443.345000", "161443.805000", "161444.265000", "161444.725000", "161445.185000", "161445.645000", "161446.105000", "161446.565000", "161447.025000", "161447.485000", "161447.945000", "161448.405000", "161448.865000", "161449.325000", "161449.785000", "161450.245000", "161450.705000", "161451.165000", "161451.625000", "161452.085000", "161452.545000", "161453.005000", "161453.465000", "161453.925000", "161454.385000", "161454.845000", "161455.305000", "161455.765000", "161456.225000", "161456.685000", "161457.145000", "161457.605000", "161458.065000", "161458.525000", "161458.985000", "161459.445000", "161459.905000", "161500.365000", "161500.825000", "161501.285000", "161501.745000", "161502.205000", "161502.665000", "161503.125000", "161503.585000", "161504.045000", "161504.505000", "161504.965000", "161505.425000", "161505.885000", "161506.345000", "161506.805000", "161507.265000", "161507.725000", "161508.185000", "161508.645000", "161509.105000", "161509.565000", "161510.025000", "161510.485000", "161510.945000", "161511.405000", "161511.865000", "161512.325000", "161512.785000", "161513.245000", "161513.705000", "161514.165000", "161514.625000", "161515.085000", "161515.545000", "161516.005000", "161516.465000", "161516.925000", "161517.385000", "161517.845000", "161518.305000", "161518.765000", "161519.225000", "161519.685000", "161520.145000", "161520.605000", "161521.065000", "161521.525000", "161521.985000", "161522.445000", "161522.905000", "161523.365000", "161523.825000", "161524.285000", "161524.745000", "161525.205000", "161525.665000", "161526.125000", "161526.585000", "161527.045000", "161527.505000", "161527.965000", "161528.425000", "161528.885000", "161529.345000", "161529.805000", "161530.265000", "161530.725000", "161531.185000", "161531.645000", "161532.105000", "161532.565000", "161533.025000", "161533.485000", "161533.945000", "161534.405000", "161534.865000", "161535.325000", "161535.785000", "161536.245000", "161536.705000", "161537.165000", "161537.625000", "161538.085000", "161538.545000", "161539.005000", "161539.465000", "161539.925000", "161540.385000", "161540.845000", "161541.305000", "161541.765000", "161542.225000", "161542.685000", "161543.145000", "161543.605000", "161544.065000", "161544.525000", "161544.985000", "161545.445000", "161545.905000", "161546.365000", "161546.825000", "161547.285000", "161547.745000", "161548.205000", "161548.665000", "161549.125000", "161549.585000", "161550.045000", "161550.505000", "161550.965000", "161551.425000", "161551.885000", "161552.345000", "161552.805000", "161553.265000", "161553.725000", "161554.185000", "161554.645000", "161555.105000", "161555.565000", "161556.025000", "161556.485000", "161556.945000", "161557.405000", "161557.865000", "161558.325000", "161558.785000", "161559.245000", "161559.705000", "161600.165000", "161600.625000", "161601.085000", "161601.545000", "161602.005000"],
