{
  "AcquisitionMatrixPE": 82,
  "AcquisitionNumber": 1,
  "AcquisitionTime": "16:28:29.027500",
  "BandwidthPerPixelPhaseEncode": 24.888,
  "BaseResolution": 82,
  "BodyPartExamined": "BRAIN",
  "ConsistencyInfo": "N4_VE11E_LATEST_20181129",
  "ConversionSoftware": "dcm2niix",
  "ConversionSoftwareVersion": "v1.0.20201102",
  "DerivedVendorReportedEchoSpacing": 0.00049,
  "DeviceSerialNumber": "66112",
  "DwellTime": 2e-06,
  "EchoTime": 0.0272,
  "EchoTrainLength": 82,
  "EffectiveEchoSpacing": 0.00049,
  "FlipAngle": 44,
  "ImageComments": "Unaliased MB8/PE3",
  "ImageOrientationPatientDICOM": [0.999796, -0.0176126, -0.00992329, 0.0179752, 0.999127, 0.0377188],
  "ImageType": [
    "ORIGINAL",
    "PRIMARY",
    "M",
    "MB",
    "ND",
    "NORM",
    "MOSAIC"
],
  "ImagingFrequency": 123.252,
  "InPlanePhaseEncodingDirectionDICOM": "COL",
  "InstitutionAddress": "Maynard 3,Hanover,NH,US,03755",
  "InstitutionName": "dartmouth_brain_imaging_center",
  "InstitutionalDepartmentName": "Department",
  "MRAcquisitionType": "2D",
  "MagneticFieldStrength": 3,
  "Manufacturer": "Siemens",
  "ManufacturersModelName": "Prisma",
  "Modality": "MR",
  "MultibandAccelerationFactor": 8,
  "PartialFourier": 1,
  "PatientPosition": "HFS",
  "PercentPhaseFOV": 100,
  "PercentSampling": 100,
  "PhaseEncodingDirection": "j-",
  "PhaseEncodingSteps": 82,
  "PhaseResolution": 1,
  "PixelBandwidth": 3050,
  "ProcedureStepDescription": "Wager_Wager^1076_spacetop",
  "ProtocolName": "func_run-02_task-alignvideo_acq-ap-mb8",
  "PulseSequenceDetails": "%CustomerSeq%\\cmrr_mbep2d_bold",
  "ReceiveCoilActiveElements": "HEA;HEP",
  "ReceiveCoilName": "Head_32",
  "ReconMatrixPE": 82,
  "RepetitionTime": 0.46,
  "SAR": 0.104014,
  "ScanOptions": "FS",
  "ScanningSequence": "EP",
  "SequenceName": "epfid2d1_82",
  "SequenceVariant": "SK\\SS",
  "SeriesDescription": "func_run-02_task-alignvideo_acq-ap-mb8",
  "SeriesNumber": 32,
  "ShimSetting": [4148, -7763, -7245, 429, -57, -209, -20, 81],
  "SliceThickness": 2.7,
  "SliceTiming": [0, 0.25, 0.0625, 0.3125, 0.125, 0.375, 0.1875, 0, 0.25, 0.0625, 0.3125, 0.125, 0.375, 0.1875, 0, 0.25, 0.0625, 0.3125, 0.125, 0.375, 0.1875, 0, 0.25, 0.0625, 0.3125, 0.125, 0.375, 0.1875, 0, 0.25, 0.0625, 0.3125, 0.125, 0.375, 0.1875, 0, 0.25, 0.0625, 0.3125, 0.125, 0.375, 0.1875, 0, 0.25, 0.0625, 0.3125, 0.125, 0.375, 0.1875, 0, 0.25, 0.0625, 0.3125, 0.125, 0.375, 0.1875],
  "SoftwareVersions": "syngo MR E11",
  "SpacingBetweenSlices": 2.7,
  "StationName": "AWP66112",
  "TaskName": "alignvideo",
  "TotalReadoutTime": 0.03969,
  "TxRefAmp": 250.825,
  "WipMemBlock": "cbaba3af-4387-48b4-b556-5482f6443e1d||Sequence: R016 ve11e/master r/434b28f1; Aug  7 2019 18:53:46 by eja",
  "dcmmeta_affine": [
    [-2.6823785305023193, 0.04822621867060661, -0.02497580274939537, 111.1702651977539],
    [0.04725342616438866, 2.680583953857422, 0.1023014709353447, -97.56307220458984],
    [-0.02662346325814724, -0.10119669884443283, 2.6979455947875977, -46.19870376586914],
    [0.0, 0.0, 0.0, 1.0]
],
  "dcmmeta_reorient_transform": [
    [0.0, -1.0, 0.0, 81.0],
    [1.0, 0.0, 0.0, 0.0],
    [0.0, 0.0, 1.0, 0.0],
    [0.0, 0.0, 0.0, 1.0]
],
  "dcmmeta_shape": [82, 82, 56, 926],
  "dcmmeta_slice_dim": 2,
  "dcmmeta_version": 0.6,
  "global": {
    "const": {
      "AccessionNumber": "A003900",
      "AcquisitionMatrix": [82, 0, 0, 82],
      "AngioFlag": "N",
      "BitsAllocated": 16,
      "BitsStored": 16,
      "BodyPartExamined": "BRAIN",
      "Columns": 656,
      "EchoNumbers": 1,
      "EchoTime": 27.2,
      "EchoTrainLength": 82,
      "FlipAngle": 44.0,
      "HighBit": 15,
      "ImageOrientationPatient": [0.99979564072669, -0.0176126399632, -0.0099232906561, 0.01797522676674, 0.99912671149996, 0.03771876973013],
      "ImagePositionPatient": [-898.76017801801, -875.3300769615, -75.798156933919],
      "ImageType": [
        "ORIGINAL",
        "PRIMARY",
        "M",
        "MB",
        "ND",
        "NORM",
        "MOSAIC"
],
      "ImagedNucleus": "1H",
      "ImagingFrequency": 123.252177,
      "InPlanePhaseEncodingDirection": "COL",
      "MRAcquisitionType": "2D",
      "MagneticFieldStrength": 3.0,
      "Manufacturer": "SIEMENS",
      "ManufacturerModelName": "Prisma",
      "Modality": "MR",
      "NumberOfAverages": 1.0,
      "NumberOfPhaseEncodingSteps": 82,
      "PercentPhaseFieldOfView": 100.0,
      "PercentSampling": 100.0,
      "PerformedProcedureStepStartTime": "150443.505000",
      "PhotometricInterpretation": "MONOCHROME2",
      "PixelBandwidth": 3050.0,
      "PixelRepresentation": 0,
      "PixelSpacing": [2.6829268932343, 2.6829268932343],
      "ProtocolName": "func_run-02_task-alignvideo_acq-ap-mb8",
      "RepetitionTime": 460.0,
      "Rows": 656,
      "SAR": 0.10401429646167,
      "SamplesPerPixel": 1,
      "ScanOptions": "FS",
      "ScanningSequence": "EP",
      "SequenceName": "epfid2d1_82",
      "SequenceVariant": [
        "SK",
        "SS"
],
      "SeriesDescription": "func_run-02_task-alignvideo_acq-ap-mb8",
      "SeriesNumber": 32,
      "SeriesTime": "162852.821000",
      "SliceLocation": -50.88852092708,
      "SliceThickness": 2.7000000476837,
      "SmallestImagePixelValue": 0,
      "SoftwareVersions": "syngo MR E11",
      "SpacingBetweenSlices": 2.6999999831423,
      "SpecificCharacterSet": "ISO_IR 100",
      "StudyID": "1",
      "StudyTime": "150443.424000",
      "TransmitCoilName": "Body",
      "VariableFlipAngleFlag": "N",
      "WindowCenterWidthExplanation": "Algo1"
    },
    "slices": {}
  },
  "time": {
    "samples": {
      "AcquisitionNumber": [1, 2, 3, 4, 5, 6, 7, 8, 9, 10, 11, 12, 13, 14, 15, 16, 17, 18, 19, 20, 21, 22, 23, 24, 25, 26, 27, 28, 29, 30, 31, 32, 33, 34, 35, 36, 37, 38, 39, 40, 41, 42, 43, 44, 45, 46, 47, 48, 49, 50, 51, 52, 53, 54, 55, 56, 57, 58, 59, 60, 61, 62, 63, 64, 65, 66, 67, 68, 69, 70, 71, 72, 73, 74, 75, 76, 77, 78, 79, 80, 81, 82, 83, 84, 85, 86, 87, 88, 89, 90, 91, 92, 93, 94, 95, 96, 97, 98, 99, 100, 101, 102, 103, 104, 105, 106, 107, 108, 109, 110, 111, 112, 113, 114, 115, 116, 117, 118, 119, 120, 121, 122, 123, 124, 125, 126, 127, 128, 129, 130, 131, 132, 133, 134, 135, 136, 137, 138, 139, 140, 141, 142, 143, 144, 145, 146, 147, 148, 149, 150, 151, 152, 153, 154, 155, 156, 157, 158, 159, 160, 161, 162, 163, 164, 165, 166, 167, 168, 169, 170, 171, 172, 173, 174, 175, 176, 177, 178, 179, 180, 181, 182, 183, 184, 185, 186, 187, 188, 189, 190, 191, 192, 193, 194, 195, 196, 197, 198, 199, 200, 201, 202, 203, 204, 205, 206, 207, 208, 209, 210, 211, 212, 213, 214, 215, 216, 217, 218, 219, 220, 221, 222, 223, 224, 225, 226, 227, 228, 229, 230, 231, 232, 233, 234, 235, 236, 237, 238, 239, 240, 241, 242, 243, 244, 245, 246, 247, 248, 249, 250, 251, 252, 253, 254, 255, 256, 257, 258, 259, 260, 261, 262, 263, 264, 265, 266, 267, 268, 269, 270, 271, 272, 273, 274, 275, 276, 277, 278, 279, 280, 281, 282, 283, 284, 285, 286, 287, 288, 289, 290, 291, 292, 293, 294, 295, 296, 297, 298, 299, 300, 301, 302, 303, 304, 305, 306, 307, 308, 309, 310, 311, 312, 313, 314, 315, 316, 317, 318, 319, 320, 321, 322, 323, 324, 325, 326, 327, 328, 329, 330, 331, 332, 333, 334, 335, 336, 337, 338, 339, 340, 341, 342, 343, 344, 345, 346, 347, 348, 349, 350, 351, 352, 353, 354, 355, 356, 357, 358, 359, 360, 361, 362, 363, 364, 365, 366, 367, 368, 369, 370, 371, 372, 373, 374, 375, 376, 377, 378, 379, 380, 381, 382, 383, 384, 385, 386, 387, 388, 389, 390, 391, 392, 393, 394, 395, 396, 397, 398, 399, 400, 401, 402, 403, 404, 405, 406, 407, 408, 409, 410, 411, 412, 413, 414, 415, 416, 417, 418, 419, 420, 421, 422, 423, 424, 425, 426, 427, 428, 429, 430, 431, 432, 433, 434, 435, 436, 437, 438, 439, 440, 441, 442, 443, 444, 445, 446, 447, 448, 449, 450, 451, 452, 453, 454, 455, 456, 457, 458, 459, 460, 461, 462, 463, 464, 465, 466, 467, 468, 469, 470, 471, 472, 473, 474, 475, 476, 477, 478, 479, 480, 481, 482, 483, 484, 485, 486, 487, 488, 489, 490, 491, 492, 493, 494, 495, 496, 497, 498, 499, 500, 501, 502, 503, 504, 505, 506, 507, 508, 509, 510, 511, 512, 513, 514, 515, 516, 517, 518, 519, 520, 521, 522, 523, 524, 525, 526, 527, 528, 529, 530, 531, 532, 533, 534, 535, 536, 537, 538, 539, 540, 541, 542, 543, 544, 545, 546, 547, 548, 549, 550, 551, 552, 553, 554, 555, 556, 557, 558, 559, 560, 561, 562, 563, 564, 565, 566, 567, 568, 569, 570, 571, 572, 573, 574, 575, 576, 577, 578, 579, 580, 581, 582, 583, 584, 585, 586, 587, 588, 589, 590, 591, 592, 593, 594, 595, 596, 597, 598, 599, 600, 601, 602, 603, 604, 605, 606, 607, 608, 609, 610, 611, 612, 613, 614, 615, 616, 617, 618, 619, 620, 621, 622, 623, 624, 625, 626, 627, 628, 629, 630, 631, 632, 633, 634, 635, 636, 637, 638, 639, 640, 641, 642, 643, 644, 645, 646, 647, 648, 649, 650, 651, 652, 653, 654, 655, 656, 657, 658, 659, 660, 661, 662, 663, 664, 665, 666, 667, 668, 669, 670, 671, 672, 673, 674, 675, 676, 677, 678, 679, 680, 681, 682, 683, 684, 685, 686, 687, 688, 689, 690, 691, 692, 693, 694, 695, 696, 697, 698, 699, 700, 701, 702, 703, 704, 705, 706, 707, 708, 709, 710, 711, 712, 713, 714, 715, 716, 717, 718, 719, 720, 721, 722, 723, 724, 725, 726, 727, 728, 729, 730, 731, 732, 733, 734, 735, 736, 737, 738, 739, 740, 741, 742, 743, 744, 745, 746, 747, 748, 749, 750, 751, 752, 753, 754, 755, 756, 757, 758, 759, 760, 761, 762, 763, 764, 765, 766, 767, 768, 769, 770, 771, 772, 773, 774, 775, 776, 777, 778, 779, 780, 781, 782, 783, 784, 785, 786, 787, 788, 789, 790, 791, 792, 793, 794, 795, 796, 797, 798, 799, 800, 801, 802, 803, 804, 805, 806, 807, 808, 809, 810, 811, 812, 813, 814, 815, 816, 817, 818, 819, 820, 821, 822, 823, 824, 825, 826, 827, 828, 829, 830, 831, 832, 833, 834, 835, 836, 837, 838, 839, 840, 841, 842, 843, 844, 845, 846, 847, 848, 849, 850, 851, 852, 853, 854, 855, 856, 857, 858, 859, 860, 861, 862, 863, 864, 865, 866, 867, 868, 869, 870, 871, 872, 873, 874, 875, 876, 877, 878, 879, 880, 881, 882, 883, 884, 885, 886, 887, 888, 889, 890, 891, 892, 893, 894, 895, 896, 897, 898, 899, 900, 901, 902, 903, 904, 905, 906, 907, 908, 909, 910, 911, 912, 913, 914, 915, 916, 917, 918, 919, 920, 921, 922, 923, 924, 925, 926],
      "AcquisitionTime": ["162829.027500", "162829.487500", "162829.947500", "162830.407500", "162830.867500", "162831.327500", "162831.787500", "162832.247500", "162832.707500", "162833.167500", "162833.627500", "162834.087500", "162834.547500", "162835.007500", "162835.467500", "162835.927500", "162836.387500", "162836.847500", "162837.307500", "162837.767500", "162838.227500", "162838.687500", "162839.147500", "162839.607500", "162840.067500", "162840.527500", "162840.987500", "162841.447500", "162841.907500", "162842.367500", "162842.827500", "162843.287500", "162843.747500", "162844.207500", "162844.667500", "162845.127500", "162845.587500", "162846.047500", "162846.507500", "162846.967500", "162847.427500", "162847.887500", "162848.347500", "162848.807500", "162849.267500", "162849.727500", "162850.187500", "162850.647500", "162851.107500", "162851.567500", "162852.027500", "162852.487500", "162852.947500", "162853.407500", "162853.867500", "162854.327500", "162854.787500", "162855.247500", "162855.707500", "162856.167500", "162856.627500", "162857.087500", "162857.547500", "162858.007500", "162858.467500", "162858.927500", "162859.387500", "162859.847500", "162900.307500", "162900.767500", "162901.227500", "162901.687500", "162902.147500", "162902.607500", "162903.067500", "162903.527500", "162903.987500", "162904.447500", "162904.907500", "162905.367500", "162905.827500", "162906.287500", "162906.747500", "162907.207500", "162907.667500", "162908.127500", "162908.587500", "162909.047500", "162909.507500", "162909.967500", "162910.427500", "162910.887500", "162911.347500", "162911.807500", "162912.267500", "162912.727500", "162913.187500", "162913.647500", "162914.107500", "162914.567500", "162915.027500", "162915.487500", "162915.947500", "162916.407500", "162916.867500", "162917.327500", "162917.787500", "162918.247500", "162918.707500", "162919.167500", "162919.627500", "162920.087500", "162920.547500", "162921.007500", "162921.467500", "162921.927500", "162922.387500", "162922.847500", "162923.307500", "162923.767500", "162924.227500", "162924.687500", "162925.147500", "162925.607500", "162926.067500", "162926.527500", "162926.987500", "162927.447500", "162927.907500", "162928.367500", "162928.827500", "162929.287500", "162929.747500", "162930.207500", "162930.667500", "162931.127500", "162931.587500", "162932.047500", "162932.507500", "162932.967500", "162933.427500", "162933.887500", "162934.347500", "162934.807500", "162935.267500", "162935.727500", "162936.187500", "162936.647500", "162937.107500", "162937.567500", "162938.027500", "162938.487500", "162938.947500", "162939.407500", "162939.867500", "162940.327500", "162940.787500", "162941.247500", "162941.707500", "162942.167500", "162942.627500", "162943.087500", "162943.547500", "162944.007500", "162944.467500", "162944.927500", "162945.387500", "162945.847500", "162946.307500", "162946.767500", "162947.227500", "162947.687500", "162948.147500", "162948.607500", "162949.067500", "162949.527500", "162949.987500", "162950.447500", "162950.907500", "162951.367500", "162951.827500", "162952.287500", "162952.747500", "162953.207500", "162953.667500", "162954.127500", "162954.587500", "162955.047500", "162955.507500", "162955.967500", "162956.427500", "162956.887500", "162957.347500", "162957.807500", "162958.267500", "162958.727500", "162959.187500", "162959.647500", "163000.107500", "163000.567500", "163001.027500", "163001.487500", "163001.947500", "163002.407500", "163002.867500", "163003.327500", "163003.787500", "163004.247500", "163004.707500", "163005.167500", "163005.627500", "163006.087500", "163006.547500", "163007.007500", "163007.467500", "163007.927500", "163008.387500", "163008.847500", "163009.307500", "163009.767500", "163010.227500", "163010.687500", "163011.147500", "163011.607500", "163012.067500", "163012.527500", "163012.987500", "163013.447500", "163013.907500", "163014.367500", "163014.827500", "163015.287500", "163015.747500", "163016.207500", "163016.667500", "163017.127500", "163017.587500", "163018.047500", "163018.507500", "163018.967500", "163019.427500", "163019.887500", "163020.347500", "163020.807500", "163021.267500", "163021.727500", "163022.187500", "163022.647500", "163023.107500", "163023.567500", "163024.027500", "163024.487500", "163024.947500", "163025.407500", "163025.867500", "163026.327500", "163026.787500", "163027.247500", "163027.707500", "163028.167500", "163028.627500", "163029.087500", "163029.547500", "163030.007500", "163030.467500", "163030.927500", "163031.387500", "163031.847500", "163032.307500", "163032.767500", "163033.227500", "163033.687500", "163034.147500", "163034.607500", "163035.067500", "163035.527500", "163035.987500", "163036.447500", "163036.907500", "163037.367500", "163037.827500", "163038.287500", "163038.747500", "163039.207500", "163039.667500", "163040.127500", "163040.587500", "163041.047500", "163041.507500", "163041.967500", "163042.427500", "163042.887500", "163043.347500", "163043.807500", "163044.267500", "163044.727500", "163045.187500", "163045.647500", "163046.107500", "163046.567500", "163047.027500", "163047.487500", "163047.947500", "163048.407500", "163048.867500", "163049.327500", "163049.787500", "163050.247500", "163050.707500", "163051.167500", "163051.627500", "163052.087500", "163052.547500", "163053.007500", "163053.467500", "163053.927500", "163054.387500", "163054.847500", "163055.307500", "163055.767500", "163056.227500", "163056.687500", "163057.147500", "163057.607500", "163058.067500", "163058.527500", "163058.987500", "163059.447500", "163059.907500", "163100.367500", "163100.827500", "163101.287500", "163101.747500", "163102.207500", "163102.667500", "163103.127500", "163103.587500", "163104.047500", "163104.507500", "163104.967500", "163105.427500", "163105.887500", "163106.347500", "163106.807500", "163107.267500", "163107.727500", "163108.187500", "163108.647500", "163109.107500", "163109.567500", "163110.027500", "163110.487500", "163110.947500", "163111.407500", "163111.867500", "163112.327500", "163112.787500", "163113.247500", "163113.707500", "163114.167500", "163114.627500", "163115.087500", "163115.547500", "163116.007500", "163116.467500", "163116.927500", "163117.387500", "163117.847500", "163118.307500", "163118.767500", "163119.227500", "163119.687500", "163120.147500", "163120.607500", "163121.067500", "163121.527500", "163121.987500", "163122.447500", "163122.907500", "163123.367500", "163123.827500", "163124.287500", "163124.747500", "163125.207500", "163125.667500", "163126.127500", "163126.587500", "163127.047500", "163127.507500", "163127.967500", "163128.427500", "163128.887500", "163129.347500", "163129.807500", "163130.267500", "163130.727500", "163131.187500", "163131.647500", "163132.107500", "163132.567500", "163133.027500", "163133.487500", "163133.947500", "163134.407500", "163134.867500", "163135.327500", "163135.787500", "163136.247500", "163136.707500", "163137.167500", "163137.627500", "163138.087500", "163138.547500", "163139.007500", "163139.467500", "163139.927500", "163140.387500", "163140.847500", "163141.307500", "163141.767500", "163142.227500", "163142.687500", "163143.147500", "163143.607500", "163144.067500", "163144.527500", "163144.987500", "163145.447500", "163145.907500", "163146.367500", "163146.827500", "163147.287500", "163147.747500", "163148.207500", "163148.667500", "163149.127500", "163149.587500", "163150.047500", "163150.507500", "163150.967500", "163151.427500", "163151.887500", "163152.347500", "163152.807500", "163153.267500", "163153.727500", "163154.187500", "163154.647500", "163155.107500", "163155.567500", "163156.027500", "163156.487500", "163156.947500", "163157.407500", "163157.867500", "163158.327500", "163158.787500", "163159.247500", "163159.707500", "163200.167500", "163200.627500", "163201.087500", "163201.547500", "163202.007500", "163202.467500", "163202.927500", "163203.387500", "163203.847500", "163204.307500", "163204.767500", "163205.227500", "163205.687500", "163206.147500", "163206.607500", "163207.067500", "163207.527500", "163207.987500", "163208.447500", "163208.907500", "163209.367500", "163209.827500", "163210.287500", "163210.747500", "163211.207500", "163211.667500", "163212.127500", "163212.587500", "163213.047500", "163213.507500", "163213.967500", "163214.427500", "163214.887500", "163215.347500", "163215.807500", "163216.267500", "163216.727500", "163217.187500", "163217.647500", "163218.107500", "163218.567500", "163219.027500", "163219.487500", "163219.947500", "163220.407500", "163220.867500", "163221.327500", "163221.787500", "163222.247500", "163222.707500", "163223.167500", "163223.627500", "163224.087500", "163224.547500", "163225.007500", "163225.467500", "163225.927500", "163226.387500", "163226.847500", "163227.307500", "163227.767500", "163228.227500", "163228.687500", "163229.147500", "163229.607500", "163230.067500", "163230.527500", "163230.987500", "163231.447500", "163231.907500", "163232.367500", "163232.827500", "163233.287500", "163233.747500", "163234.207500", "163234.667500", "163235.127500", "163235.587500", "163236.047500", "163236.507500", "163236.967500", "163237.427500", "163237.887500", "163238.347500", "163238.807500", "163239.267500", "163239.727500", "163240.187500", "163240.647500", "163241.107500", "163241.567500", "163242.027500", "163242.487500", "163242.947500", "163243.407500", "163243.867500", "163244.327500", "163244.787500", "163245.247500", "163245.707500", "163246.167500", "163246.627500", "163247.087500", "163247.547500", "163248.007500", "163248.467500", "163248.927500", "163249.387500", "163249.847500", "163250.307500", "163250.767500", "163251.227500", "163251.687500", "163252.147500", "163252.607500", "163253.067500", "163253.527500", "163253.987500", "163254.447500", "163254.907500", "163255.367500", "163255.827500", "163256.287500", "163256.747500", "163257.207500", "163257.667500", "163258.127500", "163258.587500", "163259.047500", "163259.507500", "163259.967500", "163300.427500", "163300.887500", "163301.347500", "163301.807500", "163302.267500", "163302.727500", "163303.187500", "163303.647500", "163304.107500", "163304.567500", "163305.027500", "163305.487500", "163305.947500", "163306.407500", "163306.867500", "163307.327500", "163307.787500", "163308.247500", "163308.707500", "163309.167500", "163309.627500", "163310.087500", "163310.547500", "163311.007500", "163311.467500", "163311.927500", "163312.387500", "163312.847500", "163313.307500", "163313.767500", "163314.227500", "163314.687500", "163315.147500", "163315.607500", "163316.067500", "163316.527500", "163316.987500", "163317.447500", "163317.907500", "163318.367500", "163318.827500", "163319.287500", "163319.747500", "163320.207500", "163320.667500", "163321.127500", "163321.587500", "163322.047500", "163322.507500", "163322.967500", "163323.427500", "163323.887500", "163324.347500", "163324.807500", "163325.267500", "163325.727500", "163326.187500", "163326.647500", "163327.107500", "163327.567500", "163328.027500", "163328.487500", "163328.947500", "163329.407500", "163329.867500", "163330.327500", "163330.787500", "163331.247500", "163331.707500", "163332.167500", "163332.627500", "163333.087500", "163333.547500", "163334.007500", "163334.467500", "163334.927500", "163335.387500", "163335.847500", "163336.307500", "163336.767500", "163337.227500", "163337.687500", "163338.147500", "163338.607500", "163339.067500", "163339.527500", "163339.987500", "163340.447500", "163340.907500", "163341.367500", "163341.827500", "163342.287500", "163342.747500", "163343.207500", "163343.667500", "163344.127500", "163344.587500", "163345.047500", "163345.507500", "163345.967500", "163346.427500", "163346.887500", "163347.347500", "163347.807500", "163348.267500", "163348.727500", "163349.187500", "163349.647500", "163350.107500", "163350.567500", "163351.027500", "163351.487500", "163351.947500", "163352.407500", "163352.867500", "163353.327500", "163353.787500", "163354.247500", "163354.707500", "163355.167500", "163355.627500", "163356.087500", "163356.547500", "163357.007500", "163357.467500", "163357.927500", "163358.387500", "163358.847500", "163359.307500", "163359.767500", "163400.227500", "163400.687500", "163401.147500", "163401.607500", "163402.067500", "163402.527500", "163402.987500", "163403.447500", "163403.907500", "163404.367500", "163404.827500", "163405.287500", "163405.747500", "163406.207500", "163406.667500", "163407.127500", "163407.587500", "163408.047500", "163408.507500", "163408.967500", "163409.427500", "163409.887500", "163410.347500", "163410.807500", "163411.267500", "163411.727500", "163412.187500", "163412.647500", "163413.107500", "163413.567500", "163414.027500", "163414.487500", "163414.947500", "163415.407500", "163415.867500", "163416.327500", "163416.787500", "163417.247500", "163417.707500", "163418.167500", "163418.627500", "163419.087500", "163419.547500", "163420.007500", "163420.467500", "163420.927500", "163421.387500", "163421.847500", "163422.307500", "163422.767500", "163423.227500", "163423.687500", "163424.147500", "163424.607500", "163425.067500", "163425.527500", "163425.987500", "163426.447500", "163426.907500", "163427.367500", "163427.827500", "163428.287500", "163428.747500", "163429.207500", "163429.667500", "163430.127500", "163430.587500", "163431.047500", "163431.507500", "163431.967500", "163432.427500", "163432.887500", "163433.347500", "163433.807500", "163434.267500", "163434.727500", "163435.187500", "163435.647500", "163436.107500", "163436.567500", "163437.027500", "163437.487500", "163437.947500", "163438.407500", "163438.867500", "163439.327500", "163439.787500", "163440.247500", "163440.707500", "163441.167500", "163441.627500", "163442.087500", "163442.547500", "163443.007500", "163443.467500", "163443.927500", "163444.387500", "163444.847500", "163445.307500", "163445.767500", "163446.227500", "163446.687500", "163447.147500", "163447.607500", "163448.067500", "163448.527500", "163448.987500", "163449.447500", "163449.907500", "163450.367500", "163450.827500", "163451.287500", "163451.747500", "163452.207500", "163452.667500", "163453.127500", "163453.587500", "163454.047500", "163454.507500", "163454.967500", "163455.427500", "163455.887500", "163456.347500", "163456.807500", "163457.267500", "163457.727500", "163458.187500", "163458.647500", "163459.107500", "163459.567500", "163500.027500", "163500.487500", "163500.947500", "163501.407500", "163501.867500", "163502.327500", "163502.787500", "163503.247500", "163503.707500", "163504.167500", "163504.627500", "163505.087500", "163505.547500", "163506.007500", "163506.467500", "163506.927500", "163507.387500", "163507.847500", "163508.307500", "163508.767500", "163509.227500", "163509.687500", "163510.147500", "163510.607500", "163511.067500", "163511.527500", "163511.987500", "163512.447500", "163512.907500", "163513.367500", "163513.827500", "163514.287500", "163514.747500", "163515.207500", "163515.667500", "163516.127500", "163516.587500", "163517.047500", "163517.507500", "163517.967500", "163518.427500", "163518.887500", "163519.347500", "163519.807500", "163520.267500", "163520.727500", "163521.187500", "163521.647500", "163522.107500", "163522.567500", "163523.027500", "163523.487500", "163523.947500", "163524.407500", "163524.867500", "163525.327500", "163525.787500", "163526.247500", "163526.707500", "163527.167500", "163527.627500", "163528.087500", "163528.547500", "163529.007500", "163529.467500", "163529.927500", "163530.387500", "163530.847500", "163531.307500", "163531.767500", "163532.227500", "163532.687500", "163533.147500", "163533.607500", "163534.067500", "163534.527500"],
