{
  "AcquisitionMatrixPE": 82,
  "AcquisitionNumber": 1,
  "AcquisitionTime": "15:39:17.350000",
  "BandwidthPerPixelPhaseEncode": 24.888,
  "BaseResolution": 82,
  "BodyPartExamined": "BRAIN",
  "ConsistencyInfo": "N4_VE11E_LATEST_20181129",
  "ConversionSoftware": "dcm2niix",
  "ConversionSoftwareVersion": "v1.0.20201102",
  "DerivedVendorReportedEchoSpacing": 0.00049,
  "DeviceSerialNumber": "66112",
  "DwellTime": 2e-06,
  "EchoTime": 0.0272,
  "EchoTrainLength": 82,
  "EffectiveEchoSpacing": 0.00049,
  "FlipAngle": 44,
  "ImageComments": "Unaliased MB8/PE3",
  "ImageOrientationPatientDICOM": [0.999583, -0.0159142, 0.0240831, 0.0165752, 0.999484, -0.0275038],
  "ImageType": [
    "ORIGINAL",
    "PRIMARY",
    "M",
    "MB",
    "ND",
    "NORM",
    "MOSAIC"
],
  "ImagingFrequency": 123.252,
  "InPlanePhaseEncodingDirectionDICOM": "COL",
  "InstitutionAddress": "Maynard 3,Hanover,NH,US,03755",
  "InstitutionName": "Dartmouth College - PBS",
  "InstitutionalDepartmentName": "Department",
  "MRAcquisitionType": "2D",
  "MagneticFieldStrength": 3,
  "Manufacturer": "Siemens",
  "ManufacturersModelName": "Prisma",
  "Modality": "MR",
  "MultibandAccelerationFactor": 8,
  "PartialFourier": 1,
  "PatientPosition": "HFS",
  "PercentPhaseFOV": 100,
  "PercentSampling": 100,
  "PhaseEncodingDirection": "j-",
  "PhaseEncodingSteps": 82,
  "PhaseResolution": 1,
  "PixelBandwidth": 3050,
  "ProcedureStepDescription": "Wager_Wager^1076_spacetop",
  "ProtocolName": "func_run-04_task-social_acq-ap-mb8",
  "PulseSequenceDetails": "%CustomerSeq%\\cmrr_mbep2d_bold",
  "ReceiveCoilActiveElements": "HEA;HEP",
  "ReceiveCoilName": "Head_32",
  "ReconMatrixPE": 82,
  "RepetitionTime": 0.46,
  "SAR": 0.118242,
  "ScanOptions": "FS",
  "ScanningSequence": "EP",
  "SequenceName": "epfid2d1_82",
  "SequenceVariant": "SK\\SS",
  "SeriesDescription": "func_run-04_task-social_acq-ap-mb8",
  "SeriesNumber": 26,
  "ShimSetting": [4139, -7718, -7266, 494, -149, 0, 45, 75],
  "SliceThickness": 2.7,
  "SliceTiming": [0, 0.2525, 0.0625, 0.315, 0.1275, 0.3775, 0.19, 0, 0.2525, 0.0625, 0.315, 0.1275, 0.3775, 0.19, 0, 0.2525, 0.0625, 0.315, 0.1275, 0.3775, 0.19, 0, 0.2525, 0.0625, 0.315, 0.1275, 0.3775, 0.19, 0, 0.2525, 0.0625, 0.315, 0.1275, 0.3775, 0.19, 0, 0.2525, 0.0625, 0.315, 0.1275, 0.3775, 0.19, 0, 0.2525, 0.0625, 0.315, 0.1275, 0.3775, 0.19, 0, 0.2525, 0.0625, 0.315, 0.1275, 0.3775, 0.19],
  "SoftwareVersions": "syngo MR E11",
  "SpacingBetweenSlices": 2.7,
  "StationName": "AWP66112",
  "TaskName": "social",
  "TotalReadoutTime": 0.03969,
  "TxRefAmp": 284.678,
  "WipMemBlock": "e89f7b67-7fec-43a2-ae72-e585dd50afc4||Sequence: R016 ve11e/master r/434b28f1; Aug  7 2019 18:53:46 by eja",
  "dcmmeta_affine": [
    [-2.6818089485168457, 0.04447013884782791, 0.06380907446146011, 105.98997497558594],
    [0.0426965206861496, 2.6815431118011475, -0.07530698925256729, -85.95524597167969],
    [0.0646132230758667, 0.07379056513309479, 2.698195219039917, -66.47270202636719],
    [0.0, 0.0, 0.0, 1.0]
],
  "dcmmeta_reorient_transform": [
    [0.0, -1.0, 0.0, 81.0],
    [1.0, 0.0, 0.0, 0.0],
    [0.0, 0.0, 1.0, 0.0],
    [0.0, 0.0, 0.0, 1.0]
],
  "dcmmeta_shape": [82, 82, 56, 872],
  "dcmmeta_slice_dim": 2,
  "dcmmeta_version": 0.6,
  "global": {
    "const": {
      "AccessionNumber": "A004016",
      "AcquisitionMatrix": [82, 0, 0, 82],
      "AngioFlag": "N",
      "BitsAllocated": 16,
      "BitsStored": 16,
      "BodyPartExamined": "BRAIN",
      "Columns": 656,
      "EchoNumbers": 1,
      "EchoTime": 27.2,
      "EchoTrainLength": 82,
      "FlipAngle": 44.0,
      "HighBit": 15,
      "ImageOrientationPatient": [0.99958328490107, -0.0159141576976, 0.02408310883506, 0.01657523333643, 0.99948426958545, -0.0275037541269],
      "ImagePositionPatient": [-892.03413619477, -888.59876217302, -57.86176886948],
      "ImageType": [
        "ORIGINAL",
        "PRIMARY",
        "M",
        "MB",
        "ND",
        "NORM",
        "MOSAIC"
],
      "ImagedNucleus": "1H",
      "ImagingFrequency": 123.252177,
      "InPlanePhaseEncodingDirection": "COL",
      "MRAcquisitionType": "2D",
      "MagneticFieldStrength": 3.0,
      "Manufacturer": "SIEMENS",
      "ManufacturerModelName": "Prisma",
      "Modality": "MR",
      "NumberOfAverages": 1.0,
      "NumberOfPhaseEncodingSteps": 82,
      "PercentPhaseFieldOfView": 100.0,
      "PercentSampling": 100.0,
      "PerformedProcedureStepStartTime": "141354.255000",
      "PhotometricInterpretation": "MONOCHROME2",
      "PixelBandwidth": 3050.0,
      "PixelRepresentation": 0,
      "PixelSpacing": [2.6829268932343, 2.6829268932343],
      "ProtocolName": "func_run-04_task-social_acq-ap-mb8",
      "RepetitionTime": 460.0,
      "Rows": 656,
      "SAR": 0.11824185577577,
      "SamplesPerPixel": 1,
      "ScanOptions": "FS",
      "ScanningSequence": "EP",
      "SequenceName": "epfid2d1_82",
      "SequenceVariant": [
        "SK",
        "SS"
],
      "SeriesDescription": "func_run-04_task-social_acq-ap-mb8",
      "SeriesNumber": 26,
      "SeriesTime": "153935.213000",
      "SliceLocation": -61.525989023434,
      "SliceThickness": 2.7000000476837,
      "SmallestImagePixelValue": 0,
      "SoftwareVersions": "syngo MR E11",
      "SpacingBetweenSlices": 2.7000000460056,
      "SpecificCharacterSet": "ISO_IR 100",
      "StudyID": "1",
      "StudyTime": "141354.204000",
      "TransmitCoilName": "Body",
      "VariableFlipAngleFlag": "N",
      "WindowCenterWidthExplanation": "Algo1"
    },
    "slices": {}
  },
  "time": {
    "samples": {
      "AcquisitionNumber": [1, 2, 3, 4, 5, 6, 7, 8, 9, 10, 11, 12, 13, 14, 15, 16, 17, 18, 19, 20, 21, 22, 23, 24, 25, 26, 27, 28, 29, 30, 31, 32, 33, 34, 35, 36, 37, 38, 39, 40, 41, 42, 43, 44, 45, 46, 47, 48, 49, 50, 51, 52, 53, 54, 55, 56, 57, 58, 59, 60, 61, 62, 63, 64, 65, 66, 67, 68, 69, 70, 71, 72, 73, 74, 75, 76, 77, 78, 79, 80, 81, 82, 83, 84, 85, 86, 87, 88, 89, 90, 91, 92, 93, 94, 95, 96, 97, 98, 99, 100, 101, 102, 103, 104, 105, 106, 107, 108, 109, 110, 111, 112, 113, 114, 115, 116, 117, 118, 119, 120, 121, 122, 123, 124, 125, 126, 127, 128, 129, 130, 131, 132, 133, 134, 135, 136, 137, 138, 139, 140, 141, 142, 143, 144, 145, 146, 147, 148, 149, 150, 151, 152, 153, 154, 155, 156, 157, 158, 159, 160, 161, 162, 163, 164, 165, 166, 167, 168, 169, 170, 171, 172, 173, 174, 175, 176, 177, 178, 179, 180, 181, 182, 183, 184, 185, 186, 187, 188, 189, 190, 191, 192, 193, 194, 195, 196, 197, 198, 199, 200, 201, 202, 203, 204, 205, 206, 207, 208, 209, 210, 211, 212, 213, 214, 215, 216, 217, 218, 219, 220, 221, 222, 223, 224, 225, 226, 227, 228, 229, 230, 231, 232, 233, 234, 235, 236, 237, 238, 239, 240, 241, 242, 243, 244, 245, 246, 247, 248, 249, 250, 251, 252, 253, 254, 255, 256, 257, 258, 259, 260, 261, 262, 263, 264, 265, 266, 267, 268, 269, 270, 271, 272, 273, 274, 275, 276, 277, 278, 279, 280, 281, 282, 283, 284, 285, 286, 287, 288, 289, 290, 291, 292, 293, 294, 295, 296, 297, 298, 299, 300, 301, 302, 303, 304, 305, 306, 307, 308, 309, 310, 311, 312, 313, 314, 315, 316, 317, 318, 319, 320, 321, 322, 323, 324, 325, 326, 327, 328, 329, 330, 331, 332, 333, 334, 335, 336, 337, 338, 339, 340, 341, 342, 343, 344, 345, 346, 347, 348, 349, 350, 351, 352, 353, 354, 355, 356, 357, 358, 359, 360, 361, 362, 363, 364, 365, 366, 367, 368, 369, 370, 371, 372, 373, 374, 375, 376, 377, 378, 379, 380, 381, 382, 383, 384, 385, 386, 387, 388, 389, 390, 391, 392, 393, 394, 395, 396, 397, 398, 399, 400, 401, 402, 403, 404, 405, 406, 407, 408, 409, 410, 411, 412, 413, 414, 415, 416, 417, 418, 419, 420, 421, 422, 423, 424, 425, 426, 427, 428, 429, 430, 431, 432, 433, 434, 435, 436, 437, 438, 439, 440, 441, 442, 443, 444, 445, 446, 447, 448, 449, 450, 451, 452, 453, 454, 455, 456, 457, 458, 459, 460, 461, 462, 463, 464, 465, 466, 467, 468, 469, 470, 471, 472, 473, 474, 475, 476, 477, 478, 479, 480, 481, 482, 483, 484, 485, 486, 487, 488, 489, 490, 491, 492, 493, 494, 495, 496, 497, 498, 499, 500, 501, 502, 503, 504, 505, 506, 507, 508, 509, 510, 511, 512, 513, 514, 515, 516, 517, 518, 519, 520, 521, 522, 523, 524, 525, 526, 527, 528, 529, 530, 531, 532, 533, 534, 535, 536, 537, 538, 539, 540, 541, 542, 543, 544, 545, 546, 547, 548, 549, 550, 551, 552, 553, 554, 555, 556, 557, 558, 559, 560, 561, 562, 563, 564, 565, 566, 567, 568, 569, 570, 571, 572, 573, 574, 575, 576, 577, 578, 579, 580, 581, 582, 583, 584, 585, 586, 587, 588, 589, 590, 591, 592, 593, 594, 595, 596, 597, 598, 599, 600, 601, 602, 603, 604, 605, 606, 607, 608, 609, 610, 611, 612, 613, 614, 615, 616, 617, 618, 619, 620, 621, 622, 623, 624, 625, 626, 627, 628, 629, 630, 631, 632, 633, 634, 635, 636, 637, 638, 639, 640, 641, 642, 643, 644, 645, 646, 647, 648, 649, 650, 651, 652, 653, 654, 655, 656, 657, 658, 659, 660, 661, 662, 663, 664, 665, 666, 667, 668, 669, 670, 671, 672, 673, 674, 675, 676, 677, 678, 679, 680, 681, 682, 683, 684, 685, 686, 687, 688, 689, 690, 691, 692, 693, 694, 695, 696, 697, 698, 699, 700, 701, 702, 703, 704, 705, 706, 707, 708, 709, 710, 711, 712, 713, 714, 715, 716, 717, 718, 719, 720, 721, 722, 723, 724, 725, 726, 727, 728, 729, 730, 731, 732, 733, 734, 735, 736, 737, 738, 739, 740, 741, 742, 743, 744, 745, 746, 747, 748, 749, 750, 751, 752, 753, 754, 755, 756, 757, 758, 759, 760, 761, 762, 763, 764, 765, 766, 767, 768, 769, 770, 771, 772, 773, 774, 775, 776, 777, 778, 779, 780, 781, 782, 783, 784, 785, 786, 787, 788, 789, 790, 791, 792, 793, 794, 795, 796, 797, 798, 799, 800, 801, 802, 803, 804, 805, 806, 807, 808, 809, 810, 811, 812, 813, 814, 815, 816, 817, 818, 819, 820, 821, 822, 823, 824, 825, 826, 827, 828, 829, 830, 831, 832, 833, 834, 835, 836, 837, 838, 839, 840, 841, 842, 843, 844, 845, 846, 847, 848, 849, 850, 851, 852, 853, 854, 855, 856, 857, 858, 859, 860, 861, 862, 863, 864, 865, 866, 867, 868, 869, 870, 871, 872],
      "AcquisitionTime": ["153917.350000", "153917.810000", "153918.270000", "153918.730000", "153919.190000", "153919.650000", "153920.110000", "153920.570000", "153921.030000", "153921.490000", "153921.950000", "153922.410000", "153922.870000", "153923.330000", "153923.790000", "153924.250000", "153924.710000", "153925.170000", "153925.630000", "153926.090000", "153926.550000", "153927.010000", "153927.470000", "153927.930000", "153928.390000", "153928.850000", "153929.310000", "153929.770000", "153930.230000", "153930.690000", "153931.150000", "153931.610000", "153932.070000", "153932.530000", "153932.990000", "153933.450000", "153933.910000", "153934.370000", "153934.830000", "153935.290000", "153935.750000", "153936.210000", "153936.670000", "153937.130000", "153937.590000", "153938.050000", "153938.510000", "153938.970000", "153939.430000", "153939.890000", "153940.350000", "153940.810000", "153941.270000", "153941.730000", "153942.190000", "153942.650000", "153943.110000", "153943.570000", "153944.030000", "153944.490000", "153944.950000", "153945.410000", "153945.870000", "153946.330000", "153946.790000", "153947.250000", "153947.710000", "153948.170000", "153948.630000", "153949.090000", "153949.550000", "153950.010000", "153950.470000", "153950.930000", "153951.390000", "153951.850000", "153952.310000", "153952.770000", "153953.230000", "153953.690000", "153954.150000", "153954.610000", "153955.070000", "153955.530000", "153955.990000", "153956.450000", "153956.910000", "153957.370000", "153957.830000", "153958.290000", "153958.750000", "153959.210000", "153959.670000", "154000.130000", "154000.590000", "154001.050000", "154001.510000", "154001.970000", "154002.430000", "154002.890000", "154003.350000", "154003.810000", "154004.270000", "154004.730000", "154005.190000", "154005.650000", "154006.110000", "154006.570000", "154007.030000", "154007.490000", "154007.950000", "154008.410000", "154008.870000", "154009.330000", "154009.790000", "154010.250000", "154010.710000", "154011.170000", "154011.630000", "154012.090000", "154012.550000", "154013.010000", "154013.470000", "154013.930000", "154014.390000", "154014.850000", "154015.310000", "154015.770000", "154016.230000", "154016.690000", "154017.150000", "154017.610000", "154018.070000", "154018.530000", "154018.990000", "154019.450000", "154019.910000", "154020.370000", "154020.830000", "154021.290000", "154021.750000", "154022.210000", "154022.670000", "154023.130000", "154023.590000", "154024.050000", "154024.510000", "154024.970000", "154025.430000", "154025.890000", "154026.350000", "154026.810000", "154027.270000", "154027.730000", "154028.190000", "154028.650000", "154029.110000", "154029.570000", "154030.030000", "154030.490000", "154030.950000", "154031.410000", "154031.870000", "154032.330000", "154032.790000", "154033.250000", "154033.710000", "154034.170000", "154034.630000", "154035.090000", "154035.550000", "154036.010000", "154036.470000", "154036.930000", "154037.390000", "154037.850000", "154038.310000", "154038.770000", "154039.230000", "154039.690000", "154040.150000", "154040.610000", "154041.070000", "154041.530000", "154041.990000", "154042.450000", "154042.910000", "154043.370000", "154043.830000", "154044.290000", "154044.750000", "154045.210000", "154045.670000", "154046.130000", "154046.590000", "154047.050000", "154047.510000", "154047.970000", "154048.430000", "154048.890000", "154049.350000", "154049.810000", "154050.270000", "154050.730000", "154051.190000", "154051.650000", "154052.110000", "154052.570000", "154053.030000", "154053.490000", "154053.950000", "154054.410000", "154054.870000", "154055.330000", "154055.790000", "154056.250000", "154056.710000", "154057.170000", "154057.630000", "154058.090000", "154058.550000", "154059.010000", "154059.470000", "154059.930000", "154100.390000", "154100.850000", "154101.310000", "154101.770000", "154102.230000", "154102.690000", "154103.150000", "154103.610000", "154104.070000", "154104.530000", "154104.990000", "154105.450000", "154105.910000", "154106.370000", "154106.830000", "154107.290000", "154107.750000", "154108.210000", "154108.670000", "154109.130000", "154109.590000", "154110.050000", "154110.510000", "154110.970000", "154111.430000", "154111.890000", "154112.350000", "154112.810000", "154113.270000", "154113.730000", "154114.190000", "154114.650000", "154115.110000", "154115.570000", "154116.030000", "154116.490000", "154116.950000", "154117.410000", "154117.870000", "154118.330000", "154118.790000", "154119.250000", "154119.710000", "154120.170000", "154120.630000", "154121.090000", "154121.550000", "154122.010000", "154122.470000", "154122.930000", "154123.390000", "154123.850000", "154124.310000", "154124.770000", "154125.230000", "154125.690000", "154126.150000", "154126.610000", "154127.070000", "154127.530000", "154127.990000", "154128.450000", "154128.910000", "154129.370000", "154129.830000", "154130.290000", "154130.750000", "154131.210000", "154131.670000", "154132.130000", "154132.590000", "154133.050000", "154133.510000", "154133.970000", "154134.430000", "154134.890000", "154135.350000", "154135.810000", "154136.270000", "154136.730000", "154137.190000", "154137.650000", "154138.110000", "154138.570000", "154139.030000", "154139.490000", "154139.950000", "154140.410000", "154140.870000", "154141.330000", "154141.790000", "154142.250000", "154142.710000", "154143.170000", "154143.630000", "154144.090000", "154144.550000", "154145.010000", "154145.470000", "154145.930000", "154146.390000", "154146.850000", "154147.310000", "154147.770000", "154148.230000", "154148.690000", "154149.150000", "154149.610000", "154150.070000", "154150.530000", "154150.990000", "154151.450000", "154151.910000", "154152.370000", "154152.830000", "154153.290000", "154153.750000", "154154.210000", "154154.670000", "154155.130000", "154155.590000", "154156.050000", "154156.510000", "154156.970000", "154157.430000", "154157.890000", "154158.350000", "154158.810000", "154159.270000", "154159.730000", "154200.190000", "154200.650000", "154201.110000", "154201.570000", "154202.030000", "154202.490000", "154202.950000", "154203.410000", "154203.870000", "154204.330000", "154204.790000", "154205.250000", "154205.710000", "154206.170000", "154206.630000", "154207.090000", "154207.550000", "154208.010000", "154208.470000", "154208.930000", "154209.390000", "154209.850000", "154210.310000", "154210.770000", "154211.230000", "154211.690000", "154212.150000", "154212.610000", "154213.070000", "154213.530000", "154213.990000", "154214.450000", "154214.910000", "154215.370000", "154215.830000", "154216.290000", "154216.750000", "154217.210000", "154217.670000", "154218.130000", "154218.590000", "154219.050000", "154219.510000", "154219.970000", "154220.430000", "154220.890000", "154221.350000", "154221.810000", "154222.270000", "154222.730000", "154223.190000", "154223.650000", "154224.110000", "154224.570000", "154225.030000", "154225.490000", "154225.950000", "154226.410000", "154226.870000", "154227.330000", "154227.790000", "154228.250000", "154228.710000", "154229.170000", "154229.630000", "154230.090000", "154230.550000", "154231.010000", "154231.470000", "154231.930000", "154232.390000", "154232.850000", "154233.310000", "154233.770000", "154234.230000", "154234.690000", "154235.150000", "154235.610000", "154236.070000", "154236.530000", "154236.990000", "154237.450000", "154237.910000", "154238.370000", "154238.830000", "154239.290000", "154239.750000", "154240.210000", "154240.670000", "154241.130000", "154241.590000", "154242.050000", "154242.510000", "154242.970000", "154243.430000", "154243.890000", "154244.350000", "154244.810000", "154245.270000", "154245.730000", "154246.190000", "154246.650000", "154247.110000", "154247.570000", "154248.030000", "154248.490000", "154248.950000", "154249.410000", "154249.870000", "154250.330000", "154250.790000", "154251.250000", "154251.710000", "154252.170000", "154252.630000", "154253.090000", "154253.550000", "154254.010000", "154254.470000", "154254.930000", "154255.390000", "154255.850000", "154256.310000", "154256.770000", "154257.230000", "154257.690000", "154258.150000", "154258.610000", "154259.070000", "154259.530000", "154259.990000", "154300.450000", "154300.910000", "154301.370000", "154301.830000", "154302.290000", "154302.750000", "154303.210000", "154303.670000", "154304.130000", "154304.590000", "154305.050000", "154305.510000", "154305.970000", "154306.430000", "154306.890000", "154307.350000", "154307.810000", "154308.270000", "154308.730000", "154309.190000", "154309.650000", "154310.110000", "154310.570000", "154311.030000", "154311.490000", "154311.950000", "154312.410000", "154312.870000", "154313.330000", "154313.790000", "154314.250000", "154314.710000", "154315.170000", "154315.630000", "154316.090000", "154316.550000", "154317.010000", "154317.470000", "154317.930000", "154318.390000", "154318.850000", "154319.310000", "154319.770000", "154320.230000", "154320.690000", "154321.150000", "154321.610000", "154322.070000", "154322.530000", "154322.990000", "154323.450000", "154323.910000", "154324.370000", "154324.830000", "154325.290000", "154325.750000", "154326.210000", "154326.670000", "154327.130000", "154327.590000", "154328.050000", "154328.510000", "154328.970000", "154329.430000", "154329.890000", "154330.350000", "154330.810000", "154331.270000", "154331.730000", "154332.190000", "154332.650000", "154333.110000", "154333.570000", "154334.030000", "154334.490000", "154334.950000", "154335.410000", "154335.870000", "154336.330000", "154336.790000", "154337.250000", "154337.710000", "154338.170000", "154338.630000", "154339.090000", "154339.550000", "154340.010000", "154340.470000", "154340.930000", "154341.390000", "154341.850000", "154342.310000", "154342.770000", "154343.230000", "154343.690000", "154344.150000", "154344.610000", "154345.070000", "154345.530000", "154345.990000", "154346.450000", "154346.910000", "154347.370000", "154347.830000", "154348.290000", "154348.750000", "154349.210000", "154349.670000", "154350.130000", "154350.590000", "154351.050000", "154351.510000", "154351.970000", "154352.430000", "154352.890000", "154353.350000", "154353.810000", "154354.270000", "154354.730000", "154355.190000", "154355.650000", "154356.110000", "154356.570000", "154357.030000", "154357.490000", "154357.950000", "154358.410000", "154358.870000", "154359.330000", "154359.790000", "154400.250000", "154400.710000", "154401.170000", "154401.630000", "154402.090000", "154402.550000", "154403.010000", "154403.470000", "154403.930000", "154404.390000", "154404.850000", "154405.310000", "154405.770000", "154406.230000", "154406.690000", "154407.150000", "154407.610000", "154408.070000", "154408.530000", "154408.990000", "154409.450000", "154409.910000", "154410.370000", "154410.830000", "154411.290000", "154411.750000", "154412.210000", "154412.670000", "154413.130000", "154413.590000", "154414.050000", "154414.510000", "154414.970000", "154415.430000", "154415.890000", "154416.350000", "154416.810000", "154417.270000", "154417.730000", "154418.190000", "154418.650000", "154419.110000", "154419.570000", "154420.030000", "154420.490000", "154420.950000", "154421.410000", "154421.870000", "154422.330000", "154422.790000", "154423.250000", "154423.710000", "154424.170000", "154424.630000", "154425.090000", "154425.550000", "154426.010000", "154426.470000", "154426.930000", "154427.390000", "154427.850000", "154428.310000", "154428.770000", "154429.230000", "154429.690000", "154430.150000", "154430.610000", "154431.070000", "154431.530000", "154431.990000", "154432.450000", "154432.910000", "154433.370000", "154433.830000", "154434.290000", "154434.750000", "154435.210000", "154435.670000", "154436.130000", "154436.590000", "154437.050000", "154437.510000", "154437.970000", "154438.430000", "154438.890000", "154439.350000", "154439.810000", "154440.270000", "154440.730000", "154441.190000", "154441.650000", "154442.110000", "154442.570000", "154443.030000", "154443.490000", "154443.950000", "154444.410000", "154444.870000", "154445.330000", "154445.790000", "154446.250000", "154446.710000", "154447.170000", "154447.630000", "154448.090000", "154448.550000", "154449.010000", "154449.470000", "154449.930000", "154450.390000", "154450.850000", "154451.310000", "154451.770000", "154452.230000", "154452.690000", "154453.150000", "154453.610000", "154454.070000", "154454.530000", "154454.990000", "154455.450000", "154455.910000", "154456.370000", "154456.830000", "154457.290000", "154457.750000", "154458.210000", "154458.670000", "154459.130000", "154459.590000", "154500.050000", "154500.510000", "154500.970000", "154501.430000", "154501.890000", "154502.350000", "154502.810000", "154503.270000", "154503.730000", "154504.190000", "154504.650000", "154505.110000", "154505.570000", "154506.030000", "154506.490000", "154506.950000", "154507.410000", "154507.870000", "154508.330000", "154508.790000", "154509.250000", "154509.710000", "154510.170000", "154510.630000", "154511.090000", "154511.550000", "154512.010000", "154512.470000", "154512.930000", "154513.390000", "154513.850000", "154514.310000", "154514.770000", "154515.230000", "154515.690000", "154516.150000", "154516.610000", "154517.070000", "154517.530000", "154517.990000", "154518.450000", "154518.910000", "154519.370000", "154519.830000", "154520.290000", "154520.750000", "154521.210000", "154521.670000", "154522.130000", "154522.590000", "154523.050000", "154523.510000", "154523.970000", "154524.430000", "154524.890000", "154525.350000", "154525.810000", "154526.270000", "154526.730000", "154527.190000", "154527.650000", "154528.110000", "154528.570000", "154529.030000", "154529.490000", "154529.950000", "154530.410000", "154530.870000", "154531.330000", "154531.790000", "154532.250000", "154532.710000", "154533.170000", "154533.630000", "154534.090000", "154534.550000", "154535.010000", "154535.470000", "154535.930000", "154536.390000", "154536.850000", "154537.310000", "154537.770000", "154538.230000", "154538.690000", "154539.150000", "154539.610000", "154540.070000", "154540.530000", "154540.990000", "154541.450000", "154541.910000", "154542.370000", "154542.830000", "154543.290000", "154543.750000", "154544.210000", "154544.670000", "154545.130000", "154545.590000", "154546.050000", "154546.510000", "154546.970000", "154547.430000", "154547.890000", "154548.350000", "154548.810000", "154549.270000", "154549.730000", "154550.190000", "154550.650000", "154551.110000", "154551.570000", "154552.030000", "154552.490000", "154552.950000", "154553.410000", "154553.870000", "154554.330000", "154554.790000", "154555.250000", "154555.710000", "154556.170000", "154556.630000", "154557.090000", "154557.550000", "154558.010000"],
