{
  "AcquisitionMatrixPE": 82,
  "AcquisitionNumber": 1,
  "AcquisitionTime": "15:32:10.285000",
  "BandwidthPerPixelPhaseEncode": 24.888,
  "BaseResolution": 82,
  "BodyPartExamined": "BRAIN",
  "ConsistencyInfo": "N4_VE11E_LATEST_20181129",
  "ConversionSoftware": "dcm2niix",
  "ConversionSoftwareVersion": "v1.0.20201102",
  "DerivedVendorReportedEchoSpacing": 0.00049,
  "DeviceSerialNumber": "66112",
  "DwellTime": 2e-06,
  "EchoTime": 0.0272,
  "EchoTrainLength": 82,
  "EffectiveEchoSpacing": 0.00049,
  "FlipAngle": 44,
  "ImageComments": "Unaliased MB8/PE3",
  "ImageOrientationPatientDICOM": [0.999583, -0.0159142, 0.0240831, 0.0165752, 0.999484, -0.0275038],
  "ImageType": [
    "ORIGINAL",
    "PRIMARY",
    "M",
    "MB",
    "ND",
    "NORM",
    "MOSAIC"
],
  "ImagingFrequency": 123.252,
  "InPlanePhaseEncodingDirectionDICOM": "COL",
  "InstitutionAddress": "Maynard 3,Hanover,NH,US,03755",
  "InstitutionName": "Dartmouth College - PBS",
  "InstitutionalDepartmentName": "Department",
  "MRAcquisitionType": "2D",
  "MagneticFieldStrength": 3,
  "Manufacturer": "Siemens",
  "ManufacturersModelName": "Prisma",
  "Modality": "MR",
  "MultibandAccelerationFactor": 8,
  "PartialFourier": 1,
  "PatientPosition": "HFS",
  "PercentPhaseFOV": 100,
  "PercentSampling": 100,
  "PhaseEncodingDirection": "j-",
  "PhaseEncodingSteps": 82,
  "PhaseResolution": 1,
  "PixelBandwidth": 3050,
  "ProcedureStepDescription": "Wager_Wager^1076_spacetop",
  "ProtocolName": "func_run-03_task-social_acq-ap-mb8",
  "PulseSequenceDetails": "%CustomerSeq%\\cmrr_mbep2d_bold",
  "ReceiveCoilActiveElements": "HEA;HEP",
  "ReceiveCoilName": "Head_32",
  "ReconMatrixPE": 82,
  "RepetitionTime": 0.46,
  "SAR": 0.118242,
  "ScanOptions": "FS",
  "ScanningSequence": "EP",
  "SequenceName": "epfid2d1_82",
  "SequenceVariant": "SK\\SS",
  "SeriesDescription": "func_run-03_task-social_acq-ap-mb8",
  "SeriesNumber": 24,
  "ShimSetting": [4139, -7718, -7266, 494, -149, 0, 45, 75],
  "SliceThickness": 2.7,
  "SliceTiming": [0, 0.25, 0.0625, 0.3125, 0.125, 0.3775, 0.1875, 0, 0.25, 0.0625, 0.3125, 0.125, 0.3775, 0.1875, 0, 0.25, 0.0625, 0.3125, 0.125, 0.3775, 0.1875, 0, 0.25, 0.0625, 0.3125, 0.125, 0.3775, 0.1875, 0, 0.25, 0.0625, 0.3125, 0.125, 0.3775, 0.1875, 0, 0.25, 0.0625, 0.3125, 0.125, 0.3775, 0.1875, 0, 0.25, 0.0625, 0.3125, 0.125, 0.3775, 0.1875, 0, 0.25, 0.0625, 0.3125, 0.125, 0.3775, 0.1875],
  "SoftwareVersions": "syngo MR E11",
  "SpacingBetweenSlices": 2.7,
  "StationName": "AWP66112",
  "TaskName": "social",
  "TotalReadoutTime": 0.03969,
  "TxRefAmp": 284.678,
  "WipMemBlock": "807d6477-198a-4bc2-a350-21fb9504049c||Sequence: R016 ve11e/master r/434b28f1; Aug  7 2019 18:53:46 by eja",
  "dcmmeta_affine": [
    [-2.6818089485168457, 0.04447013884782791, 0.06380907446146011, 105.98997497558594],
    [0.0426965206861496, 2.6815431118011475, -0.07530698925256729, -85.95524597167969],
    [0.0646132230758667, 0.07379056513309479, 2.698195219039917, -66.47270202636719],
    [0.0, 0.0, 0.0, 1.0]
],
  "dcmmeta_reorient_transform": [
    [0.0, -1.0, 0.0, 81.0],
    [1.0, 0.0, 0.0, 0.0],
    [0.0, 0.0, 1.0, 0.0],
    [0.0, 0.0, 0.0, 1.0]
],
  "dcmmeta_shape": [82, 82, 56, 872],
  "dcmmeta_slice_dim": 2,
  "dcmmeta_version": 0.6,
  "global": {
    "const": {
      "AccessionNumber": "A004016",
      "AcquisitionMatrix": [82, 0, 0, 82],
      "AngioFlag": "N",
      "BitsAllocated": 16,
      "BitsStored": 16,
      "BodyPartExamined": "BRAIN",
      "Columns": 656,
      "EchoNumbers": 1,
      "EchoTime": 27.2,
      "EchoTrainLength": 82,
      "FlipAngle": 44.0,
      "HighBit": 15,
      "ImageOrientationPatient": [0.99958328490107, -0.0159141576976, 0.02408310883506, 0.01657523333643, 0.99948426958545, -0.0275037541269],
      "ImagePositionPatient": [-892.03413619477, -888.59876217302, -57.86176886948],
      "ImageType": [
        "ORIGINAL",
        "PRIMARY",
        "M",
        "MB",
        "ND",
        "NORM",
        "MOSAIC"
],
      "ImagedNucleus": "1H",
      "ImagingFrequency": 123.252175,
      "InPlanePhaseEncodingDirection": "COL",
      "MRAcquisitionType": "2D",
      "MagneticFieldStrength": 3.0,
      "Manufacturer": "SIEMENS",
      "ManufacturerModelName": "Prisma",
      "Modality": "MR",
      "NumberOfAverages": 1.0,
      "NumberOfPhaseEncodingSteps": 82,
      "PercentPhaseFieldOfView": 100.0,
      "PercentSampling": 100.0,
      "PerformedProcedureStepStartTime": "141354.255000",
      "PhotometricInterpretation": "MONOCHROME2",
      "PixelBandwidth": 3050.0,
      "PixelRepresentation": 0,
      "PixelSpacing": [2.6829268932343, 2.6829268932343],
      "ProtocolName": "func_run-03_task-social_acq-ap-mb8",
      "RepetitionTime": 460.0,
      "Rows": 656,
      "SAR": 0.11824185577577,
      "SamplesPerPixel": 1,
      "ScanOptions": "FS",
      "ScanningSequence": "EP",
      "SequenceName": "epfid2d1_82",
      "SequenceVariant": [
        "SK",
        "SS"
],
      "SeriesDescription": "func_run-03_task-social_acq-ap-mb8",
      "SeriesNumber": 24,
      "SeriesTime": "153235.376000",
      "SliceLocation": -61.525989023434,
      "SliceThickness": 2.7000000476837,
      "SmallestImagePixelValue": 0,
      "SoftwareVersions": "syngo MR E11",
      "SpacingBetweenSlices": 2.7000000460056,
      "SpecificCharacterSet": "ISO_IR 100",
      "StudyID": "1",
      "StudyTime": "141354.204000",
      "TransmitCoilName": "Body",
      "VariableFlipAngleFlag": "N",
      "WindowCenterWidthExplanation": "Algo1"
    },
    "slices": {}
  },
  "time": {
    "samples": {
      "AcquisitionNumber": [1, 2, 3, 4, 5, 6, 7, 8, 9, 10, 11, 12, 13, 14, 15, 16, 17, 18, 19, 20, 21, 22, 23, 24, 25, 26, 27, 28, 29, 30, 31, 32, 33, 34, 35, 36, 37, 38, 39, 40, 41, 42, 43, 44, 45, 46, 47, 48, 49, 50, 51, 52, 53, 54, 55, 56, 57, 58, 59, 60, 61, 62, 63, 64, 65, 66, 67, 68, 69, 70, 71, 72, 73, 74, 75, 76, 77, 78, 79, 80, 81, 82, 83, 84, 85, 86, 87, 88, 89, 90, 91, 92, 93, 94, 95, 96, 97, 98, 99, 100, 101, 102, 103, 104, 105, 106, 107, 108, 109, 110, 111, 112, 113, 114, 115, 116, 117, 118, 119, 120, 121, 122, 123, 124, 125, 126, 127, 128, 129, 130, 131, 132, 133, 134, 135, 136, 137, 138, 139, 140, 141, 142, 143, 144, 145, 146, 147, 148, 149, 150, 151, 152, 153, 154, 155, 156, 157, 158, 159, 160, 161, 162, 163, 164, 165, 166, 167, 168, 169, 170, 171, 172, 173, 174, 175, 176, 177, 178, 179, 180, 181, 182, 183, 184, 185, 186, 187, 188, 189, 190, 191, 192, 193, 194, 195, 196, 197, 198, 199, 200, 201, 202, 203, 204, 205, 206, 207, 208, 209, 210, 211, 212, 213, 214, 215, 216, 217, 218, 219, 220, 221, 222, 223, 224, 225, 226, 227, 228, 229, 230, 231, 232, 233, 234, 235, 236, 237, 238, 239, 240, 241, 242, 243, 244, 245, 246, 247, 248, 249, 250, 251, 252, 253, 254, 255, 256, 257, 258, 259, 260, 261, 262, 263, 264, 265, 266, 267, 268, 269, 270, 271, 272, 273, 274, 275, 276, 277, 278, 279, 280, 281, 282, 283, 284, 285, 286, 287, 288, 289, 290, 291, 292, 293, 294, 295, 296, 297, 298, 299, 300, 301, 302, 303, 304, 305, 306, 307, 308, 309, 310, 311, 312, 313, 314, 315, 316, 317, 318, 319, 320, 321, 322, 323, 324, 325, 326, 327, 328, 329, 330, 331, 332, 333, 334, 335, 336, 337, 338, 339, 340, 341, 342, 343, 344, 345, 346, 347, 348, 349, 350, 351, 352, 353, 354, 355, 356, 357, 358, 359, 360, 361, 362, 363, 364, 365, 366, 367, 368, 369, 370, 371, 372, 373, 374, 375, 376, 377, 378, 379, 380, 381, 382, 383, 384, 385, 386, 387, 388, 389, 390, 391, 392, 393, 394, 395, 396, 397, 398, 399, 400, 401, 402, 403, 404, 405, 406, 407, 408, 409, 410, 411, 412, 413, 414, 415, 416, 417, 418, 419, 420, 421, 422, 423, 424, 425, 426, 427, 428, 429, 430, 431, 432, 433, 434, 435, 436, 437, 438, 439, 440, 441, 442, 443, 444, 445, 446, 447, 448, 449, 450, 451, 452, 453, 454, 455, 456, 457, 458, 459, 460, 461, 462, 463, 464, 465, 466, 467, 468, 469, 470, 471, 472, 473, 474, 475, 476, 477, 478, 479, 480, 481, 482, 483, 484, 485, 486, 487, 488, 489, 490, 491, 492, 493, 494, 495, 496, 497, 498, 499, 500, 501, 502, 503, 504, 505, 506, 507, 508, 509, 510, 511, 512, 513, 514, 515, 516, 517, 518, 519, 520, 521, 522, 523, 524, 525, 526, 527, 528, 529, 530, 531, 532, 533, 534, 535, 536, 537, 538, 539, 540, 541, 542, 543, 544, 545, 546, 547, 548, 549, 550, 551, 552, 553, 554, 555, 556, 557, 558, 559, 560, 561, 562, 563, 564, 565, 566, 567, 568, 569, 570, 571, 572, 573, 574, 575, 576, 577, 578, 579, 580, 581, 582, 583, 584, 585, 586, 587, 588, 589, 590, 591, 592, 593, 594, 595, 596, 597, 598, 599, 600, 601, 602, 603, 604, 605, 606, 607, 608, 609, 610, 611, 612, 613, 614, 615, 616, 617, 618, 619, 620, 621, 622, 623, 624, 625, 626, 627, 628, 629, 630, 631, 632, 633, 634, 635, 636, 637, 638, 639, 640, 641, 642, 643, 644, 645, 646, 647, 648, 649, 650, 651, 652, 653, 654, 655, 656, 657, 658, 659, 660, 661, 662, 663, 664, 665, 666, 667, 668, 669, 670, 671, 672, 673, 674, 675, 676, 677, 678, 679, 680, 681, 682, 683, 684, 685, 686, 687, 688, 689, 690, 691, 692, 693, 694, 695, 696, 697, 698, 699, 700, 701, 702, 703, 704, 705, 706, 707, 708, 709, 710, 711, 712, 713, 714, 715, 716, 717, 718, 719, 720, 721, 722, 723, 724, 725, 726, 727, 728, 729, 730, 731, 732, 733, 734, 735, 736, 737, 738, 739, 740, 741, 742, 743, 744, 745, 746, 747, 748, 749, 750, 751, 752, 753, 754, 755, 756, 757, 758, 759, 760, 761, 762, 763, 764, 765, 766, 767, 768, 769, 770, 771, 772, 773, 774, 775, 776, 777, 778, 779, 780, 781, 782, 783, 784, 785, 786, 787, 788, 789, 790, 791, 792, 793, 794, 795, 796, 797, 798, 799, 800, 801, 802, 803, 804, 805, 806, 807, 808, 809, 810, 811, 812, 813, 814, 815, 816, 817, 818, 819, 820, 821, 822, 823, 824, 825, 826, 827, 828, 829, 830, 831, 832, 833, 834, 835, 836, 837, 838, 839, 840, 841, 842, 843, 844, 845, 846, 847, 848, 849, 850, 851, 852, 853, 854, 855, 856, 857, 858, 859, 860, 861, 862, 863, 864, 865, 866, 867, 868, 869, 870, 871, 872],
      "AcquisitionTime": ["153210.285000", "153210.745000", "153211.205000", "153211.665000", "153212.125000", "153212.585000", "153213.045000", "153213.505000", "153213.965000", "153214.425000", "153214.885000", "153215.345000", "153215.805000", "153216.265000", "153216.725000", "153217.185000", "153217.645000", "153218.105000", "153218.565000", "153219.025000", "153219.485000", "153219.945000", "153220.405000", "153220.865000", "153221.325000", "153221.785000", "153222.245000", "153222.705000", "153223.165000", "153223.625000", "153224.085000", "153224.545000", "153225.005000", "153225.465000", "153225.925000", "153226.385000", "153226.845000", "153227.305000", "153227.765000", "153228.225000", "153228.685000", "153229.145000", "153229.605000", "153230.065000", "153230.525000", "153230.985000", "153231.445000", "153231.905000", "153232.365000", "153232.825000", "153233.285000", "153233.745000", "153234.205000", "153234.665000", "153235.125000", "153235.585000", "153236.045000", "153236.505000", "153236.965000", "153237.425000", "153237.885000", "153238.345000", "153238.805000", "153239.265000", "153239.725000", "153240.185000", "153240.645000", "153241.105000", "153241.565000", "153242.025000", "153242.485000", "153242.945000", "153243.405000", "153243.865000", "153244.325000", "153244.785000", "153245.245000", "153245.705000", "153246.165000", "153246.625000", "153247.085000", "153247.545000", "153248.005000", "153248.465000", "153248.925000", "153249.385000", "153249.845000", "153250.305000", "153250.765000", "153251.225000", "153251.685000", "153252.145000", "153252.605000", "153253.065000", "153253.525000", "153253.985000", "153254.445000", "153254.905000", "153255.365000", "153255.825000", "153256.285000", "153256.745000", "153257.205000", "153257.665000", "153258.125000", "153258.585000", "153259.045000", "153259.505000", "153259.965000", "153300.425000", "153300.885000", "153301.345000", "153301.805000", "153302.265000", "153302.725000", "153303.185000", "153303.645000", "153304.105000", "153304.565000", "153305.025000", "153305.485000", "153305.945000", "153306.405000", "153306.865000", "153307.325000", "153307.785000", "153308.245000", "153308.705000", "153309.165000", "153309.625000", "153310.085000", "153310.545000", "153311.005000", "153311.465000", "153311.925000", "153312.385000", "153312.845000", "153313.305000", "153313.765000", "153314.225000", "153314.685000", "153315.145000", "153315.605000", "153316.065000", "153316.525000", "153316.985000", "153317.445000", "153317.905000", "153318.365000", "153318.825000", "153319.285000", "153319.745000", "153320.205000", "153320.665000", "153321.125000", "153321.585000", "153322.045000", "153322.505000", "153322.965000", "153323.425000", "153323.885000", "153324.345000", "153324.805000", "153325.265000", "153325.725000", "153326.185000", "153326.645000", "153327.105000", "153327.565000", "153328.025000", "153328.485000", "153328.945000", "153329.405000", "153329.865000", "153330.325000", "153330.785000", "153331.245000", "153331.705000", "153332.165000", "153332.625000", "153333.085000", "153333.545000", "153334.005000", "153334.465000", "153334.925000", "153335.385000", "153335.845000", "153336.305000", "153336.765000", "153337.225000", "153337.685000", "153338.145000", "153338.605000", "153339.065000", "153339.525000", "153339.985000", "153340.445000", "153340.905000", "153341.365000", "153341.825000", "153342.285000", "153342.745000", "153343.205000", "153343.665000", "153344.125000", "153344.585000", "153345.045000", "153345.505000", "153345.965000", "153346.425000", "153346.885000", "153347.345000", "153347.805000", "153348.265000", "153348.725000", "153349.185000", "153349.645000", "153350.105000", "153350.565000", "153351.025000", "153351.485000", "153351.945000", "153352.405000", "153352.865000", "153353.325000", "153353.785000", "153354.245000", "153354.705000", "153355.165000", "153355.625000", "153356.085000", "153356.545000", "153357.005000", "153357.465000", "153357.925000", "153358.385000", "153358.845000", "153359.305000", "153359.765000", "153400.225000", "153400.685000", "153401.145000", "153401.605000", "153402.065000", "153402.525000", "153402.985000", "153403.445000", "153403.905000", "153404.365000", "153404.825000", "153405.285000", "153405.745000", "153406.205000", "153406.665000", "153407.125000", "153407.585000", "153408.045000", "153408.505000", "153408.965000", "153409.425000", "153409.885000", "153410.345000", "153410.805000", "153411.265000", "153411.725000", "153412.185000", "153412.645000", "153413.105000", "153413.565000", "153414.025000", "153414.485000", "153414.945000", "153415.405000", "153415.865000", "153416.325000", "153416.785000", "153417.245000", "153417.705000", "153418.165000", "153418.625000", "153419.085000", "153419.545000", "153420.005000", "153420.465000", "153420.925000", "153421.385000", "153421.845000", "153422.305000", "153422.765000", "153423.225000", "153423.685000", "153424.145000", "153424.605000", "153425.065000", "153425.525000", "153425.985000", "153426.445000", "153426.905000", "153427.365000", "153427.825000", "153428.285000", "153428.745000", "153429.205000", "153429.665000", "153430.125000", "153430.585000", "153431.045000", "153431.505000", "153431.965000", "153432.425000", "153432.885000", "153433.345000", "153433.805000", "153434.265000", "153434.725000", "153435.185000", "153435.645000", "153436.105000", "153436.565000", "153437.025000", "153437.485000", "153437.945000", "153438.405000", "153438.865000", "153439.325000", "153439.785000", "153440.245000", "153440.705000", "153441.165000", "153441.625000", "153442.085000", "153442.545000", "153443.005000", "153443.465000", "153443.925000", "153444.385000", "153444.845000", "153445.305000", "153445.765000", "153446.225000", "153446.685000", "153447.145000", "153447.605000", "153448.065000", "153448.525000", "153448.985000", "153449.445000", "153449.905000", "153450.365000", "153450.825000", "153451.285000", "153451.745000", "153452.205000", "153452.665000", "153453.125000", "153453.585000", "153454.045000", "153454.505000", "153454.965000", "153455.425000", "153455.885000", "153456.345000", "153456.805000", "153457.265000", "153457.725000", "153458.185000", "153458.645000", "153459.105000", "153459.565000", "153500.025000", "153500.485000", "153500.945000", "153501.405000", "153501.865000", "153502.325000", "153502.785000", "153503.245000", "153503.705000", "153504.165000", "153504.625000", "153505.085000", "153505.545000", "153506.005000", "153506.465000", "153506.925000", "153507.385000", "153507.845000", "153508.305000", "153508.765000", "153509.225000", "153509.685000", "153510.145000", "153510.605000", "153511.065000", "153511.525000", "153511.985000", "153512.445000", "153512.905000", "153513.365000", "153513.825000", "153514.285000", "153514.745000", "153515.205000", "153515.665000", "153516.125000", "153516.585000", "153517.045000", "153517.505000", "153517.965000", "153518.425000", "153518.885000", "153519.345000", "153519.805000", "153520.265000", "153520.725000", "153521.185000", "153521.645000", "153522.105000", "153522.565000", "153523.025000", "153523.485000", "153523.945000", "153524.405000", "153524.865000", "153525.325000", "153525.785000", "153526.245000", "153526.705000", "153527.165000", "153527.625000", "153528.085000", "153528.545000", "153529.005000", "153529.465000", "153529.925000", "153530.385000", "153530.845000", "153531.305000", "153531.765000", "153532.225000", "153532.685000", "153533.145000", "153533.605000", "153534.065000", "153534.525000", "153534.985000", "153535.445000", "153535.905000", "153536.365000", "153536.825000", "153537.285000", "153537.745000", "153538.205000", "153538.665000", "153539.125000", "153539.585000", "153540.045000", "153540.505000", "153540.965000", "153541.425000", "153541.885000", "153542.345000", "153542.805000", "153543.265000", "153543.725000", "153544.185000", "153544.645000", "153545.105000", "153545.565000", "153546.025000", "153546.485000", "153546.945000", "153547.405000", "153547.865000", "153548.325000", "153548.785000", "153549.245000", "153549.705000", "153550.165000", "153550.625000", "153551.085000", "153551.545000", "153552.005000", "153552.465000", "153552.925000", "153553.385000", "153553.845000", "153554.305000", "153554.765000", "153555.225000", "153555.685000", "153556.145000", "153556.605000", "153557.065000", "153557.525000", "153557.985000", "153558.445000", "153558.905000", "153559.365000", "153559.825000", "153600.285000", "153600.745000", "153601.205000", "153601.665000", "153602.125000", "153602.585000", "153603.045000", "153603.505000", "153603.965000", "153604.425000", "153604.885000", "153605.345000", "153605.805000", "153606.265000", "153606.725000", "153607.185000", "153607.645000", "153608.105000", "153608.565000", "153609.025000", "153609.485000", "153609.945000", "153610.405000", "153610.865000", "153611.325000", "153611.785000", "153612.245000", "153612.705000", "153613.165000", "153613.625000", "153614.085000", "153614.545000", "153615.005000", "153615.465000", "153615.925000", "153616.385000", "153616.845000", "153617.305000", "153617.765000", "153618.225000", "153618.685000", "153619.145000", "153619.605000", "153620.065000", "153620.525000", "153620.985000", "153621.445000", "153621.905000", "153622.365000", "153622.825000", "153623.285000", "153623.745000", "153624.205000", "153624.665000", "153625.125000", "153625.585000", "153626.045000", "153626.505000", "153626.965000", "153627.425000", "153627.885000", "153628.345000", "153628.805000", "153629.265000", "153629.725000", "153630.185000", "153630.645000", "153631.105000", "153631.565000", "153632.025000", "153632.485000", "153632.945000", "153633.405000", "153633.865000", "153634.325000", "153634.785000", "153635.245000", "153635.705000", "153636.165000", "153636.625000", "153637.085000", "153637.545000", "153638.005000", "153638.465000", "153638.925000", "153639.385000", "153639.845000", "153640.305000", "153640.765000", "153641.225000", "153641.685000", "153642.145000", "153642.605000", "153643.065000", "153643.525000", "153643.985000", "153644.445000", "153644.905000", "153645.365000", "153645.825000", "153646.285000", "153646.745000", "153647.205000", "153647.665000", "153648.125000", "153648.585000", "153649.045000", "153649.505000", "153649.965000", "153650.425000", "153650.885000", "153651.345000", "153651.805000", "153652.265000", "153652.725000", "153653.185000", "153653.645000", "153654.105000", "153654.565000", "153655.025000", "153655.485000", "153655.945000", "153656.405000", "153656.865000", "153657.325000", "153657.785000", "153658.245000", "153658.705000", "153659.165000", "153659.625000", "153700.085000", "153700.545000", "153701.005000", "153701.465000", "153701.925000", "153702.385000", "153702.845000", "153703.305000", "153703.765000", "153704.225000", "153704.685000", "153705.145000", "153705.605000", "153706.065000", "153706.525000", "153706.985000", "153707.445000", "153707.905000", "153708.365000", "153708.825000", "153709.285000", "153709.745000", "153710.205000", "153710.665000", "153711.125000", "153711.585000", "153712.045000", "153712.505000", "153712.965000", "153713.425000", "153713.885000", "153714.345000", "153714.805000", "153715.265000", "153715.725000", "153716.185000", "153716.645000", "153717.105000", "153717.565000", "153718.025000", "153718.485000", "153718.945000", "153719.405000", "153719.865000", "153720.325000", "153720.785000", "153721.245000", "153721.705000", "153722.165000", "153722.625000", "153723.085000", "153723.545000", "153724.005000", "153724.465000", "153724.925000", "153725.385000", "153725.845000", "153726.305000", "153726.765000", "153727.225000", "153727.685000", "153728.145000", "153728.605000", "153729.065000", "153729.525000", "153729.985000", "153730.445000", "153730.905000", "153731.365000", "153731.825000", "153732.285000", "153732.745000", "153733.205000", "153733.665000", "153734.125000", "153734.585000", "153735.045000", "153735.505000", "153735.965000", "153736.425000", "153736.885000", "153737.345000", "153737.805000", "153738.265000", "153738.725000", "153739.185000", "153739.645000", "153740.105000", "153740.565000", "153741.025000", "153741.485000", "153741.945000", "153742.405000", "153742.865000", "153743.325000", "153743.785000", "153744.245000", "153744.705000", "153745.165000", "153745.625000", "153746.085000", "153746.545000", "153747.005000", "153747.465000", "153747.925000", "153748.385000", "153748.845000", "153749.305000", "153749.765000", "153750.225000", "153750.685000", "153751.145000", "153751.605000", "153752.065000", "153752.525000", "153752.985000", "153753.445000", "153753.905000", "153754.365000", "153754.825000", "153755.285000", "153755.745000", "153756.205000", "153756.665000", "153757.125000", "153757.585000", "153758.045000", "153758.505000", "153758.965000", "153759.425000", "153759.885000", "153800.345000", "153800.805000", "153801.265000", "153801.725000", "153802.185000", "153802.645000", "153803.105000", "153803.565000", "153804.025000", "153804.485000", "153804.945000", "153805.405000", "153805.865000", "153806.325000", "153806.785000", "153807.245000", "153807.705000", "153808.165000", "153808.625000", "153809.085000", "153809.545000", "153810.005000", "153810.465000", "153810.925000", "153811.385000", "153811.845000", "153812.305000", "153812.765000", "153813.225000", "153813.685000", "153814.145000", "153814.605000", "153815.065000", "153815.525000", "153815.985000", "153816.445000", "153816.905000", "153817.365000", "153817.825000", "153818.285000", "153818.745000", "153819.205000", "153819.665000", "153820.125000", "153820.585000", "153821.045000", "153821.505000", "153821.965000", "153822.425000", "153822.885000", "153823.345000", "153823.805000", "153824.265000", "153824.725000", "153825.185000", "153825.645000", "153826.105000", "153826.565000", "153827.025000", "153827.485000", "153827.945000", "153828.405000", "153828.865000", "153829.325000", "153829.785000", "153830.245000", "153830.705000", "153831.165000", "153831.625000", "153832.085000", "153832.545000", "153833.005000", "153833.465000", "153833.925000", "153834.385000", "153834.845000", "153835.305000", "153835.765000", "153836.225000", "153836.685000", "153837.145000", "153837.605000", "153838.065000", "153838.525000", "153838.985000", "153839.445000", "153839.905000", "153840.365000", "153840.825000", "153841.285000", "153841.745000", "153842.205000", "153842.665000", "153843.125000", "153843.585000", "153844.045000", "153844.505000", "153844.965000", "153845.425000", "153845.885000", "153846.345000", "153846.805000", "153847.265000", "153847.725000", "153848.185000", "153848.645000", "153849.105000", "153849.565000", "153850.025000", "153850.485000", "153850.945000"],
