{
  "AcquisitionMatrixPE": 82,
  "AcquisitionNumber": 1,
  "AcquisitionTime": "14:27:33.562500",
  "BandwidthPerPixelPhaseEncode": 24.888,
  "BaseResolution": 82,
  "BodyPartExamined": "BRAIN",
  "ConsistencyInfo": "N4_VE11E_LATEST_20181129",
  "ConversionSoftware": "dcm2niix",
  "ConversionSoftwareVersion": "v1.0.20201102",
  "DerivedVendorReportedEchoSpacing": 0.00049,
  "DeviceSerialNumber": "66112",
  "DwellTime": 2e-06,
  "EchoTime": 0.0272,
  "EchoTrainLength": 82,
  "EffectiveEchoSpacing": 0.00049,
  "FlipAngle": 44,
  "ImageComments": "Unaliased MB8/PE3",
  "ImageOrientationPatientDICOM": [0.999764, -0.0157974, 0.0148904, 0.0164037, 0.999003, -0.0415093],
  "ImageType": [
    "ORIGINAL",
    "PRIMARY",
    "M",
    "MB",
    "ND",
    "NORM",
    "MOSAIC"
],
  "ImagingFrequency": 123.252,
  "InPlanePhaseEncodingDirectionDICOM": "COL",
  "InstitutionAddress": "Maynard 3,Hanover,NH,US,03755",
  "InstitutionName": "Dartmouth College - PBS",
  "InstitutionalDepartmentName": "Department",
  "MRAcquisitionType": "2D",
  "MagneticFieldStrength": 3,
  "Manufacturer": "Siemens",
  "ManufacturersModelName": "Prisma",
  "Modality": "MR",
  "MultibandAccelerationFactor": 8,
  "PartialFourier": 1,
  "PatientPosition": "HFS",
  "PercentPhaseFOV": 100,
  "PercentSampling": 100,
  "PhaseEncodingDirection": "j-",
  "PhaseEncodingSteps": 82,
  "PhaseResolution": 1,
  "PixelBandwidth": 3050,
  "ProcedureStepDescription": "Wager_Wager^1076_spacetop",
  "ProtocolName": "func_run-01_task-social_acq-ap-mb8",
  "PulseSequenceDetails": "%CustomerSeq%\\cmrr_mbep2d_bold",
  "ReceiveCoilActiveElements": "HEA;HEP",
  "ReceiveCoilName": "Head_32",
  "ReconMatrixPE": 82,
  "RepetitionTime": 0.46,
  "SAR": 0.118242,
  "ScanOptions": "FS",
  "ScanningSequence": "EP",
  "SequenceName": "epfid2d1_82",
  "SequenceVariant": "SK\\SS",
  "SeriesDescription": "func_run-01_task-social_acq-ap-mb8",
  "SeriesNumber": 8,
  "ShimSetting": [4139, -7717, -7266, 500, -149, 3, 43, 75],
  "SliceThickness": 2.7,
  "SliceTiming": [0, 0.25, 0.0625, 0.315, 0.125, 0.3775, 0.1875, 0, 0.25, 0.0625, 0.315, 0.125, 0.3775, 0.1875, 0, 0.25, 0.0625, 0.315, 0.125, 0.3775, 0.1875, 0, 0.25, 0.0625, 0.315, 0.125, 0.3775, 0.1875, 0, 0.25, 0.0625, 0.315, 0.125, 0.3775, 0.1875, 0, 0.25, 0.0625, 0.315, 0.125, 0.3775, 0.1875, 0, 0.25, 0.0625, 0.315, 0.125, 0.3775, 0.1875, 0, 0.25, 0.0625, 0.315, 0.125, 0.3775, 0.1875],
  "SoftwareVersions": "syngo MR E11",
  "SpacingBetweenSlices": 2.7,
  "StationName": "AWP66112",
  "TaskName": "social",
  "TotalReadoutTime": 0.03969,
  "TxRefAmp": 284.678,
  "WipMemBlock": "6c803314-7eed-48af-b34b-10fe3b3ba73f||Sequence: R016 ve11e/master r/434b28f1; Aug  7 2019 18:53:46 by eja",
  "dcmmeta_affine": [
    [-2.6822946071624756, 0.044009801000356674, 0.0383935309946537, 106.46531677246094],
    [0.04238337278366089, 2.680253267288208, -0.11270830780267715, -84.6819839477539],
    [0.03994987532496452, 0.11136653274297714, 2.697373151779175, -66.44702911376953],
    [0.0, 0.0, 0.0, 1.0]
],
  "dcmmeta_reorient_transform": [
    [0.0, -1.0, 0.0, 81.0],
    [1.0, 0.0, 0.0, 0.0],
    [0.0, 0.0, 1.0, 0.0],
    [0.0, 0.0, 0.0, 1.0]
],
  "dcmmeta_shape": [82, 82, 56, 872],
  "dcmmeta_slice_dim": 2,
  "dcmmeta_version": 0.6,
  "global": {
    "const": {
      "AccessionNumber": "A004016",
      "AcquisitionMatrix": [82, 0, 0, 82],
      "AngioFlag": "N",
      "BitsAllocated": 16,
      "BitsStored": 16,
      "BodyPartExamined": "BRAIN",
      "Columns": 656,
      "EchoNumbers": 1,
      "EchoTime": 27.2,
      "EchoTrainLength": 82,
      "FlipAngle": 44.0,
      "HighBit": 15,
      "ImageOrientationPatient": [0.9997643305858, -0.0157974382864, 0.01489040737894, 0.01640365223302, 0.99900345074796, -0.041509343371],
      "ImagePositionPatient": [-892.4794744803, -889.48717692059, -36.929759291416],
      "ImageType": [
        "ORIGINAL",
        "PRIMARY",
        "M",
        "MB",
        "ND",
        "NORM",
        "MOSAIC"
],
      "ImagedNucleus": "1H",
      "ImagingFrequency": 123.252166,
      "InPlanePhaseEncodingDirection": "COL",
      "MRAcquisitionType": "2D",
      "MagneticFieldStrength": 3.0,
      "Manufacturer": "SIEMENS",
      "ManufacturerModelName": "Prisma",
      "Modality": "MR",
      "NumberOfAverages": 1.0,
      "NumberOfPhaseEncodingSteps": 82,
      "PercentPhaseFieldOfView": 100.0,
      "PercentSampling": 100.0,
      "PerformedProcedureStepStartTime": "141354.255000",
      "PhotometricInterpretation": "MONOCHROME2",
      "PixelBandwidth": 3050.0,
      "PixelRepresentation": 0,
      "PixelSpacing": [2.6829268932343, 2.6829268932343],
      "ProtocolName": "func_run-01_task-social_acq-ap-mb8",
      "RepetitionTime": 460.0,
      "Rows": 656,
      "SAR": 0.11824185577577,
      "SamplesPerPixel": 1,
      "ScanOptions": "FS",
      "ScanningSequence": "EP",
      "SequenceName": "epfid2d1_82",
      "SequenceVariant": [
        "SK",
        "SS"
],
      "SeriesDescription": "func_run-01_task-social_acq-ap-mb8",
      "SeriesNumber": 8,
      "SeriesTime": "142755.367000",
      "SliceLocation": -61.333519243251,
      "SliceThickness": 2.7000000476837,
      "SmallestImagePixelValue": 0,
      "SoftwareVersions": "syngo MR E11",
      "SpacingBetweenSlices": 2.6999999576186,
      "SpecificCharacterSet": "ISO_IR 100",
      "StudyID": "1",
      "StudyTime": "141354.204000",
      "TransmitCoilName": "Body",
      "VariableFlipAngleFlag": "N",
      "WindowCenterWidthExplanation": "Algo1"
    },
    "slices": {}
  },
  "time": {
    "samples": {
      "AcquisitionNumber": [1, 2, 3, 4, 5, 6, 7, 8, 9, 10, 11, 12, 13, 14, 15, 16, 17, 18, 19, 20, 21, 22, 23, 24, 25, 26, 27, 28, 29, 30, 31, 32, 33, 34, 35, 36, 37, 38, 39, 40, 41, 42, 43, 44, 45, 46, 47, 48, 49, 50, 51, 52, 53, 54, 55, 56, 57, 58, 59, 60, 61, 62, 63, 64, 65, 66, 67, 68, 69, 70, 71, 72, 73, 74, 75, 76, 77, 78, 79, 80, 81, 82, 83, 84, 85, 86, 87, 88, 89, 90, 91, 92, 93, 94, 95, 96, 97, 98, 99, 100, 101, 102, 103, 104, 105, 106, 107, 108, 109, 110, 111, 112, 113, 114, 115, 116, 117, 118, 119, 120, 121, 122, 123, 124, 125, 126, 127, 128, 129, 130, 131, 132, 133, 134, 135, 136, 137, 138, 139, 140, 141, 142, 143, 144, 145, 146, 147, 148, 149, 150, 151, 152, 153, 154, 155, 156, 157, 158, 159, 160, 161, 162, 163, 164, 165, 166, 167, 168, 169, 170, 171, 172, 173, 174, 175, 176, 177, 178, 179, 180, 181, 182, 183, 184, 185, 186, 187, 188, 189, 190, 191, 192, 193, 194, 195, 196, 197, 198, 199, 200, 201, 202, 203, 204, 205, 206, 207, 208, 209, 210, 211, 212, 213, 214, 215, 216, 217, 218, 219, 220, 221, 222, 223, 224, 225, 226, 227, 228, 229, 230, 231, 232, 233, 234, 235, 236, 237, 238, 239, 240, 241, 242, 243, 244, 245, 246, 247, 248, 249, 250, 251, 252, 253, 254, 255, 256, 257, 258, 259, 260, 261, 262, 263, 264, 265, 266, 267, 268, 269, 270, 271, 272, 273, 274, 275, 276, 277, 278, 279, 280, 281, 282, 283, 284, 285, 286, 287, 288, 289, 290, 291, 292, 293, 294, 295, 296, 297, 298, 299, 300, 301, 302, 303, 304, 305, 306, 307, 308, 309, 310, 311, 312, 313, 314, 315, 316, 317, 318, 319, 320, 321, 322, 323, 324, 325, 326, 327, 328, 329, 330, 331, 332, 333, 334, 335, 336, 337, 338, 339, 340, 341, 342, 343, 344, 345, 346, 347, 348, 349, 350, 351, 352, 353, 354, 355, 356, 357, 358, 359, 360, 361, 362, 363, 364, 365, 366, 367, 368, 369, 370, 371, 372, 373, 374, 375, 376, 377, 378, 379, 380, 381, 382, 383, 384, 385, 386, 387, 388, 389, 390, 391, 392, 393, 394, 395, 396, 397, 398, 399, 400, 401, 402, 403, 404, 405, 406, 407, 408, 409, 410, 411, 412, 413, 414, 415, 416, 417, 418, 419, 420, 421, 422, 423, 424, 425, 426, 427, 428, 429, 430, 431, 432, 433, 434, 435, 436, 437, 438, 439, 440, 441, 442, 443, 444, 445, 446, 447, 448, 449, 450, 451, 452, 453, 454, 455, 456, 457, 458, 459, 460, 461, 462, 463, 464, 465, 466, 467, 468, 469, 470, 471, 472, 473, 474, 475, 476, 477, 478, 479, 480, 481, 482, 483, 484, 485, 486, 487, 488, 489, 490, 491, 492, 493, 494, 495, 496, 497, 498, 499, 500, 501, 502, 503, 504, 505, 506, 507, 508, 509, 510, 511, 512, 513, 514, 515, 516, 517, 518, 519, 520, 521, 522, 523, 524, 525, 526, 527, 528, 529, 530, 531, 532, 533, 534, 535, 536, 537, 538, 539, 540, 541, 542, 543, 544, 545, 546, 547, 548, 549, 550, 551, 552, 553, 554, 555, 556, 557, 558, 559, 560, 561, 562, 563, 564, 565, 566, 567, 568, 569, 570, 571, 572, 573, 574, 575, 576, 577, 578, 579, 580, 581, 582, 583, 584, 585, 586, 587, 588, 589, 590, 591, 592, 593, 594, 595, 596, 597, 598, 599, 600, 601, 602, 603, 604, 605, 606, 607, 608, 609, 610, 611, 612, 613, 614, 615, 616, 617, 618, 619, 620, 621, 622, 623, 624, 625, 626, 627, 628, 629, 630, 631, 632, 633, 634, 635, 636, 637, 638, 639, 640, 641, 642, 643, 644, 645, 646, 647, 648, 649, 650, 651, 652, 653, 654, 655, 656, 657, 658, 659, 660, 661, 662, 663, 664, 665, 666, 667, 668, 669, 670, 671, 672, 673, 674, 675, 676, 677, 678, 679, 680, 681, 682, 683, 684, 685, 686, 687, 688, 689, 690, 691, 692, 693, 694, 695, 696, 697, 698, 699, 700, 701, 702, 703, 704, 705, 706, 707, 708, 709, 710, 711, 712, 713, 714, 715, 716, 717, 718, 719, 720, 721, 722, 723, 724, 725, 726, 727, 728, 729, 730, 731, 732, 733, 734, 735, 736, 737, 738, 739, 740, 741, 742, 743, 744, 745, 746, 747, 748, 749, 750, 751, 752, 753, 754, 755, 756, 757, 758, 759, 760, 761, 762, 763, 764, 765, 766, 767, 768, 769, 770, 771, 772, 773, 774, 775, 776, 777, 778, 779, 780, 781, 782, 783, 784, 785, 786, 787, 788, 789, 790, 791, 792, 793, 794, 795, 796, 797, 798, 799, 800, 801, 802, 803, 804, 805, 806, 807, 808, 809, 810, 811, 812, 813, 814, 815, 816, 817, 818, 819, 820, 821, 822, 823, 824, 825, 826, 827, 828, 829, 830, 831, 832, 833, 834, 835, 836, 837, 838, 839, 840, 841, 842, 843, 844, 845, 846, 847, 848, 849, 850, 851, 852, 853, 854, 855, 856, 857, 858, 859, 860, 861, 862, 863, 864, 865, 866, 867, 868, 869, 870, 871, 872],
      "AcquisitionTime": ["142733.562500", "142734.022500", "142734.482500", "142734.942500", "142735.402500", "142735.862500", "142736.322500", "142736.782500", "142737.242500", "142737.702500", "142738.162500", "142738.622500", "142739.082500", "142739.542500", "142740.002500", "142740.462500", "142740.922500", "142741.382500", "142741.842500", "142742.302500", "142742.762500", "142743.222500", "142743.682500", "142744.142500", "142744.602500", "142745.062500", "142745.522500", "142745.982500", "142746.442500", "142746.902500", "142747.362500", "142747.822500", "142748.282500", "142748.742500", "142749.202500", "142749.662500", "142750.122500", "142750.582500", "142751.042500", "142751.502500", "142751.962500", "142752.422500", "142752.882500", "142753.342500", "142753.802500", "142754.262500", "142754.722500", "142755.182500", "142755.642500", "142756.102500", "142756.562500", "142757.022500", "142757.482500", "142757.942500", "142758.402500", "142758.862500", "142759.322500", "142759.782500", "142800.242500", "142800.702500", "142801.162500", "142801.622500", "142802.082500", "142802.542500", "142803.002500", "142803.462500", "142803.922500", "142804.382500", "142804.842500", "142805.302500", "142805.762500", "142806.222500", "142806.682500", "142807.142500", "142807.602500", "142808.062500", "142808.522500", "142808.982500", "142809.442500", "142809.902500", "142810.362500", "142810.822500", "142811.282500", "142811.742500", "142812.202500", "142812.662500", "142813.122500", "142813.582500", "142814.042500", "142814.502500", "142814.962500", "142815.422500", "142815.882500", "142816.342500", "142816.802500", "142817.262500", "142817.722500", "142818.182500", "142818.642500", "142819.102500", "142819.562500", "142820.022500", "142820.482500", "142820.942500", "142821.402500", "142821.862500", "142822.322500", "142822.782500", "142823.242500", "142823.702500", "142824.162500", "142824.622500", "142825.082500", "142825.542500", "142826.002500", "142826.462500", "142826.922500", "142827.382500", "142827.842500", "142828.302500", "142828.762500", "142829.222500", "142829.682500", "142830.142500", "142830.602500", "142831.062500", "142831.522500", "142831.982500", "142832.442500", "142832.902500", "142833.362500", "142833.822500", "142834.282500", "142834.742500", "142835.202500", "142835.662500", "142836.122500", "142836.582500", "142837.042500", "142837.502500", "142837.962500", "142838.422500", "142838.882500", "142839.342500", "142839.802500", "142840.262500", "142840.722500", "142841.182500", "142841.642500", "142842.102500", "142842.562500", "142843.022500", "142843.482500", "142843.942500", "142844.402500", "142844.862500", "142845.322500", "142845.782500", "142846.242500", "142846.702500", "142847.162500", "142847.622500", "142848.082500", "142848.542500", "142849.002500", "142849.462500", "142849.922500", "142850.382500", "142850.842500", "142851.302500", "142851.762500", "142852.222500", "142852.682500", "142853.142500", "142853.602500", "142854.062500", "142854.522500", "142854.982500", "142855.442500", "142855.902500", "142856.362500", "142856.822500", "142857.282500", "142857.742500", "142858.202500", "142858.662500", "142859.122500", "142859.582500", "142900.042500", "142900.502500", "142900.962500", "142901.422500", "142901.882500", "142902.342500", "142902.802500", "142903.262500", "142903.722500", "142904.182500", "142904.642500", "142905.102500", "142905.562500", "142906.022500", "142906.482500", "142906.942500", "142907.402500", "142907.862500", "142908.322500", "142908.782500", "142909.242500", "142909.702500", "142910.162500", "142910.622500", "142911.082500", "142911.542500", "142912.002500", "142912.462500", "142912.922500", "142913.382500", "142913.842500", "142914.302500", "142914.762500", "142915.222500", "142915.682500", "142916.142500", "142916.602500", "142917.062500", "142917.522500", "142917.982500", "142918.442500", "142918.902500", "142919.362500", "142919.822500", "142920.282500", "142920.742500", "142921.202500", "142921.662500", "142922.122500", "142922.582500", "142923.042500", "142923.502500", "142923.962500", "142924.422500", "142924.882500", "142925.342500", "142925.802500", "142926.262500", "142926.722500", "142927.182500", "142927.642500", "142928.102500", "142928.562500", "142929.022500", "142929.482500", "142929.942500", "142930.402500", "142930.862500", "142931.322500", "142931.782500", "142932.242500", "142932.702500", "142933.162500", "142933.622500", "142934.082500", "142934.542500", "142935.002500", "142935.462500", "142935.922500", "142936.382500", "142936.842500", "142937.302500", "142937.762500", "142938.222500", "142938.682500", "142939.142500", "142939.602500", "142940.062500", "142940.522500", "142940.982500", "142941.442500", "142941.902500", "142942.362500", "142942.822500", "142943.282500", "142943.742500", "142944.202500", "142944.662500", "142945.122500", "142945.582500", "142946.042500", "142946.502500", "142946.962500", "142947.422500", "142947.882500", "142948.342500", "142948.802500", "142949.262500", "142949.722500", "142950.182500", "142950.642500", "142951.102500", "142951.562500", "142952.022500", "142952.482500", "142952.942500", "142953.402500", "142953.862500", "142954.322500", "142954.782500", "142955.242500", "142955.702500", "142956.162500", "142956.622500", "142957.082500", "142957.542500", "142958.002500", "142958.462500", "142958.922500", "142959.382500", "142959.842500", "143000.302500", "143000.762500", "143001.222500", "143001.682500", "143002.142500", "143002.602500", "143003.062500", "143003.522500", "143003.982500", "143004.442500", "143004.902500", "143005.362500", "143005.822500", "143006.282500", "143006.742500", "143007.202500", "143007.662500", "143008.122500", "143008.582500", "143009.042500", "143009.502500", "143009.962500", "143010.422500", "143010.882500", "143011.342500", "143011.802500", "143012.262500", "143012.722500", "143013.182500", "143013.642500", "143014.102500", "143014.562500", "143015.022500", "143015.482500", "143015.942500", "143016.402500", "143016.862500", "143017.322500", "143017.782500", "143018.242500", "143018.702500", "143019.162500", "143019.622500", "143020.082500", "143020.542500", "143021.002500", "143021.462500", "143021.922500", "143022.382500", "143022.842500", "143023.302500", "143023.762500", "143024.222500", "143024.682500", "143025.142500", "143025.602500", "143026.062500", "143026.522500", "143026.982500", "143027.442500", "143027.902500", "143028.362500", "143028.822500", "143029.282500", "143029.742500", "143030.202500", "143030.662500", "143031.122500", "143031.582500", "143032.042500", "143032.502500", "143032.962500", "143033.422500", "143033.882500", "143034.342500", "143034.802500", "143035.262500", "143035.722500", "143036.182500", "143036.642500", "143037.102500", "143037.562500", "143038.022500", "143038.482500", "143038.942500", "143039.402500", "143039.862500", "143040.322500", "143040.782500", "143041.242500", "143041.702500", "143042.162500", "143042.622500", "143043.082500", "143043.542500", "143044.002500", "143044.462500", "143044.922500", "143045.382500", "143045.842500", "143046.302500", "143046.762500", "143047.222500", "143047.682500", "143048.142500", "143048.602500", "143049.062500", "143049.522500", "143049.982500", "143050.442500", "143050.902500", "143051.362500", "143051.822500", "143052.282500", "143052.742500", "143053.202500", "143053.662500", "143054.122500", "143054.582500", "143055.042500", "143055.502500", "143055.962500", "143056.422500", "143056.882500", "143057.342500", "143057.802500", "143058.262500", "143058.722500", "143059.182500", "143059.642500", "143100.102500", "143100.562500", "143101.022500", "143101.482500", "143101.942500", "143102.402500", "143102.862500", "143103.322500", "143103.782500", "143104.242500", "143104.702500", "143105.162500", "143105.622500", "143106.082500", "143106.542500", "143107.002500", "143107.462500", "143107.922500", "143108.382500", "143108.842500", "143109.302500", "143109.762500", "143110.222500", "143110.682500", "143111.142500", "143111.602500", "143112.062500", "143112.522500", "143112.982500", "143113.442500", "143113.902500", "143114.362500", "143114.822500", "143115.282500", "143115.742500", "143116.202500", "143116.662500", "143117.122500", "143117.582500", "143118.042500", "143118.502500", "143118.962500", "143119.422500", "143119.882500", "143120.342500", "143120.802500", "143121.262500", "143121.722500", "143122.182500", "143122.642500", "143123.102500", "143123.562500", "143124.022500", "143124.482500", "143124.942500", "143125.402500", "143125.862500", "143126.322500", "143126.782500", "143127.242500", "143127.702500", "143128.162500", "143128.622500", "143129.082500", "143129.542500", "143130.002500", "143130.462500", "143130.922500", "143131.382500", "143131.842500", "143132.302500", "143132.762500", "143133.222500", "143133.682500", "143134.142500", "143134.602500", "143135.062500", "143135.522500", "143135.982500", "143136.442500", "143136.902500", "143137.362500", "143137.822500", "143138.282500", "143138.742500", "143139.202500", "143139.662500", "143140.122500", "143140.582500", "143141.042500", "143141.502500", "143141.962500", "143142.422500", "143142.882500", "143143.342500", "143143.802500", "143144.262500", "143144.722500", "143145.182500", "143145.642500", "143146.102500", "143146.562500", "143147.022500", "143147.482500", "143147.942500", "143148.402500", "143148.862500", "143149.322500", "143149.782500", "143150.242500", "143150.702500", "143151.162500", "143151.622500", "143152.082500", "143152.542500", "143153.002500", "143153.462500", "143153.922500", "143154.382500", "143154.842500", "143155.302500", "143155.762500", "143156.222500", "143156.682500", "143157.142500", "143157.602500", "143158.062500", "143158.522500", "143158.982500", "143159.442500", "143159.902500", "143200.362500", "143200.822500", "143201.282500", "143201.742500", "143202.202500", "143202.662500", "143203.122500", "143203.582500", "143204.042500", "143204.502500", "143204.962500", "143205.422500", "143205.882500", "143206.342500", "143206.802500", "143207.262500", "143207.722500", "143208.182500", "143208.642500", "143209.102500", "143209.562500", "143210.022500", "143210.482500", "143210.942500", "143211.402500", "143211.862500", "143212.322500", "143212.782500", "143213.242500", "143213.702500", "143214.162500", "143214.622500", "143215.082500", "143215.542500", "143216.002500", "143216.462500", "143216.922500", "143217.382500", "143217.842500", "143218.302500", "143218.762500", "143219.222500", "143219.682500", "143220.142500", "143220.602500", "143221.062500", "143221.522500", "143221.982500", "143222.442500", "143222.902500", "143223.362500", "143223.822500", "143224.282500", "143224.742500", "143225.202500", "143225.662500", "143226.122500", "143226.582500", "143227.042500", "143227.502500", "143227.962500", "143228.422500", "143228.882500", "143229.342500", "143229.802500", "143230.262500", "143230.722500", "143231.182500", "143231.642500", "143232.102500", "143232.562500", "143233.022500", "143233.482500", "143233.942500", "143234.402500", "143234.862500", "143235.322500", "143235.782500", "143236.242500", "143236.702500", "143237.162500", "143237.622500", "143238.082500", "143238.542500", "143239.002500", "143239.462500", "143239.922500", "143240.382500", "143240.842500", "143241.302500", "143241.762500", "143242.222500", "143242.682500", "143243.142500", "143243.602500", "143244.062500", "143244.522500", "143244.982500", "143245.442500", "143245.902500", "143246.362500", "143246.822500", "143247.282500", "143247.742500", "143248.202500", "143248.662500", "143249.122500", "143249.582500", "143250.042500", "143250.502500", "143250.962500", "143251.422500", "143251.882500", "143252.342500", "143252.802500", "143253.262500", "143253.722500", "143254.182500", "143254.642500", "143255.102500", "143255.562500", "143256.022500", "143256.482500", "143256.942500", "143257.402500", "143257.862500", "143258.322500", "143258.782500", "143259.242500", "143259.702500", "143300.162500", "143300.622500", "143301.082500", "143301.542500", "143302.002500", "143302.462500", "143302.922500", "143303.382500", "143303.842500", "143304.302500", "143304.762500", "143305.222500", "143305.682500", "143306.142500", "143306.602500", "143307.062500", "143307.522500", "143307.982500", "143308.442500", "143308.902500", "143309.362500", "143309.822500", "143310.282500", "143310.742500", "143311.202500", "143311.662500", "143312.122500", "143312.582500", "143313.042500", "143313.502500", "143313.962500", "143314.422500", "143314.882500", "143315.342500", "143315.802500", "143316.262500", "143316.722500", "143317.182500", "143317.642500", "143318.102500", "143318.562500", "143319.022500", "143319.482500", "143319.942500", "143320.402500", "143320.862500", "143321.322500", "143321.782500", "143322.242500", "143322.702500", "143323.162500", "143323.622500", "143324.082500", "143324.542500", "143325.002500", "143325.462500", "143325.922500", "143326.382500", "143326.842500", "143327.302500", "143327.762500", "143328.222500", "143328.682500", "143329.142500", "143329.602500", "143330.062500", "143330.522500", "143330.982500", "143331.442500", "143331.902500", "143332.362500", "143332.822500", "143333.282500", "143333.742500", "143334.202500", "143334.662500", "143335.122500", "143335.582500", "143336.042500", "143336.502500", "143336.962500", "143337.422500", "143337.882500", "143338.342500", "143338.802500", "143339.262500", "143339.722500", "143340.182500", "143340.642500", "143341.102500", "143341.562500", "143342.022500", "143342.482500", "143342.942500", "143343.402500", "143343.862500", "143344.322500", "143344.782500", "143345.242500", "143345.702500", "143346.162500", "143346.622500", "143347.082500", "143347.542500", "143348.002500", "143348.462500", "143348.922500", "143349.382500", "143349.842500", "143350.302500", "143350.762500", "143351.222500", "143351.682500", "143352.142500", "143352.602500", "143353.062500", "143353.522500", "143353.982500", "143354.442500", "143354.902500", "143355.362500", "143355.822500", "143356.282500", "143356.742500", "143357.202500", "143357.662500", "143358.122500", "143358.582500", "143359.042500", "143359.502500", "143359.962500", "143400.422500", "143400.882500", "143401.342500", "143401.802500", "143402.262500", "143402.722500", "143403.182500", "143403.642500", "143404.102500", "143404.562500", "143405.022500", "143405.482500", "143405.942500", "143406.402500", "143406.862500", "143407.322500", "143407.782500", "143408.242500", "143408.702500", "143409.162500", "143409.622500", "143410.082500", "143410.542500", "143411.002500", "143411.462500", "143411.922500", "143412.382500", "143412.842500", "143413.302500", "143413.762500", "143414.222500"],
