{
  "AcquisitionMatrixPE": 82,
  "AcquisitionNumber": 1,
  "AcquisitionTime": "15:38:18.540000",
  "BandwidthPerPixelPhaseEncode": 24.888,
  "BaseResolution": 82,
  "BodyPartExamined": "BRAIN",
  "ConsistencyInfo": "N4_VE11E_LATEST_20181129",
  "ConversionSoftware": "dcm2niix",
  "ConversionSoftwareVersion": "v1.0.20201102",
  "DerivedVendorReportedEchoSpacing": 0.00049,
  "DeviceSerialNumber": "66112",
  "DwellTime": 2e-06,
  "EchoTime": 0.0272,
  "EchoTrainLength": 82,
  "EffectiveEchoSpacing": 0.00049,
  "FlipAngle": 44,
  "ImageComments": "Unaliased MB8/PE3",
  "ImageOrientationPatientDICOM": [0.999752, 0.020132, -0.00951115, -0.0218146, 0.971181, -0.237342],
  "ImageType": [
    "ORIGINAL",
    "PRIMARY",
    "M",
    "MB",
    "ND",
    "NORM",
    "MOSAIC"
],
  "ImagingFrequency": 123.259,
  "InPlanePhaseEncodingDirectionDICOM": "COL",
  "InstitutionAddress": "Maynard 3,Hanover,NH,US,03755",
  "InstitutionName": "Dartmouth College - PBS",
  "InstitutionalDepartmentName": "Department",
  "MRAcquisitionType": "2D",
  "MagneticFieldStrength": 3,
  "Manufacturer": "Siemens",
  "ManufacturersModelName": "Prisma",
  "Modality": "MR",
  "MultibandAccelerationFactor": 8,
  "PartialFourier": 1,
  "PatientPosition": "HFS",
  "PercentPhaseFOV": 100,
  "PercentSampling": 100,
  "PhaseEncodingDirection": "j-",
  "PhaseEncodingSteps": 82,
  "PhaseResolution": 1,
  "PixelBandwidth": 3050,
  "ProcedureStepDescription": "Wager_Wager^1076_spacetop",
  "ProtocolName": "func_run-03_task-social_acq-ap-mb8",
  "PulseSequenceDetails": "%CustomerSeq%\\cmrr_mbep2d_bold",
  "ReceiveCoilActiveElements": "HEA;HEP",
  "ReceiveCoilName": "Head_32",
  "ReconMatrixPE": 82,
  "RepetitionTime": 0.46,
  "SAR": 0.113129,
  "ScanOptions": "FS",
  "ScanningSequence": "EP",
  "SequenceName": "epfid2d1_82",
  "SequenceVariant": "SK\\SS",
  "SeriesDescription": "func_run-03_task-social_acq-ap-mb8",
  "SeriesNumber": 22,
  "ShimSetting": [4223, -7720, -7266, 232, -193, -83, -118, 105],
  "SliceThickness": 2.7,
  "SliceTiming": [0, 0.25, 0.0625, 0.315, 0.125, 0.3775, 0.1875, 0, 0.25, 0.0625, 0.315, 0.125, 0.3775, 0.1875, 0, 0.25, 0.0625, 0.315, 0.125, 0.3775, 0.1875, 0, 0.25, 0.0625, 0.315, 0.125, 0.3775, 0.1875, 0, 0.25, 0.0625, 0.315, 0.125, 0.3775, 0.1875, 0, 0.25, 0.0625, 0.315, 0.125, 0.3775, 0.1875, 0, 0.25, 0.0625, 0.315, 0.125, 0.3775, 0.1875, 0, 0.25, 0.0625, 0.315, 0.125, 0.3775, 0.1875],
  "SoftwareVersions": "syngo MR E11",
  "SpacingBetweenSlices": 2.7,
  "StationName": "AWP66112",
  "TaskName": "social",
  "TotalReadoutTime": 0.03969,
  "TxRefAmp": 268.45,
  "WipMemBlock": "ecfc9229-2e7a-478c-9041-8c835cc5e5ac||Sequence: R016 ve11e/master r/434b28f1; Aug  7 2019 18:53:46 by eja",
  "dcmmeta_affine": [
    [-2.6822617053985596, -0.058527007699012756, -0.01203901320695877, 115.17770385742188],
    [-0.05401265621185303, 2.6056084632873535, -0.641223669052124, -75.16514587402344],
    [-0.025517724454402924, 0.6367701888084412, 2.622725009918213, -118.92366027832031],
    [0.0, 0.0, 0.0, 1.0]
],
  "dcmmeta_reorient_transform": [
    [0.0, -1.0, 0.0, 81.0],
    [1.0, 0.0, 0.0, 0.0],
    [0.0, 0.0, 1.0, 0.0],
    [0.0, 0.0, 0.0, 1.0]
],
  "dcmmeta_shape": [82, 82, 56, 872],
  "dcmmeta_slice_dim": 2,
  "dcmmeta_version": 0.6,
  "global": {
    "const": {
      "AccessionNumber": "A004366",
      "AcquisitionMatrix": [82, 0, 0, 82],
      "AngioFlag": "N",
      "BitsAllocated": 16,
      "BitsStored": 16,
      "BodyPartExamined": "BRAIN",
      "Columns": 656,
      "EchoNumbers": 1,
      "EchoTime": 27.2,
      "EchoTrainLength": 82,
      "FlipAngle": 44.0,
      "HighBit": 15,
      "ImageOrientationPatient": [0.99975208976323, 0.02013198967146, -0.0095111516616, -0.021814611636, 0.97118128326099, -0.2373416056293],
      "ImagePositionPatient": [-863.4488907257, -899.20037413588, 122.73135475189],
      "ImageType": [
        "ORIGINAL",
        "PRIMARY",
        "M",
        "MB",
        "ND",
        "NORM",
        "MOSAIC"
],
      "ImagedNucleus": "1H",
      "ImagingFrequency": 123.259145,
      "InPlanePhaseEncodingDirection": "COL",
      "MRAcquisitionType": "2D",
      "MagneticFieldStrength": 3.0,
      "Manufacturer": "SIEMENS",
      "ManufacturerModelName": "Prisma",
      "Modality": "MR",
      "NumberOfAverages": 1.0,
      "NumberOfPhaseEncodingSteps": 82,
      "PercentPhaseFieldOfView": 100.0,
      "PercentSampling": 100.0,
      "PerformedProcedureStepStartTime": "143920.337000",
      "PhotometricInterpretation": "MONOCHROME2",
      "PixelBandwidth": 3050.0,
      "PixelRepresentation": 0,
      "PixelSpacing": [2.6829268932343, 2.6829268932343],
      "ProtocolName": "func_run-03_task-social_acq-ap-mb8",
      "RepetitionTime": 460.0,
      "Rows": 656,
      "SAR": 0.1131286192436,
      "SamplesPerPixel": 1,
      "ScanOptions": "FS",
      "ScanningSequence": "EP",
      "SequenceName": "epfid2d1_82",
      "SequenceVariant": [
        "SK",
        "SS"
],
      "SeriesDescription": "func_run-03_task-social_acq-ap-mb8",
      "SeriesNumber": 22,
      "SeriesTime": "153833.052000",
      "SliceLocation": -98.182601748355,
      "SliceThickness": 2.7000000476837,
      "SmallestImagePixelValue": 0,
      "SoftwareVersions": "syngo MR E11",
      "SpacingBetweenSlices": 2.6999999619481,
      "SpecificCharacterSet": "ISO_IR 100",
      "StudyID": "1",
      "StudyTime": "143920.266000",
      "TransmitCoilName": "Body",
      "VariableFlipAngleFlag": "N",
      "WindowCenterWidthExplanation": "Algo1"
    },
    "slices": {}
  },
  "time": {
    "samples": {
      "AcquisitionNumber": [1, 2, 3, 4, 5, 6, 7, 8, 9, 10, 11, 12, 13, 14, 15, 16, 17, 18, 19, 20, 21, 22, 23, 24, 25, 26, 27, 28, 29, 30, 31, 32, 33, 34, 35, 36, 37, 38, 39, 40, 41, 42, 43, 44, 45, 46, 47, 48, 49, 50, 51, 52, 53, 54, 55, 56, 57, 58, 59, 60, 61, 62, 63, 64, 65, 66, 67, 68, 69, 70, 71, 72, 73, 74, 75, 76, 77, 78, 79, 80, 81, 82, 83, 84, 85, 86, 87, 88, 89, 90, 91, 92, 93, 94, 95, 96, 97, 98, 99, 100, 101, 102, 103, 104, 105, 106, 107, 108, 109, 110, 111, 112, 113, 114, 115, 116, 117, 118, 119, 120, 121, 122, 123, 124, 125, 126, 127, 128, 129, 130, 131, 132, 133, 134, 135, 136, 137, 138, 139, 140, 141, 142, 143, 144, 145, 146, 147, 148, 149, 150, 151, 152, 153, 154, 155, 156, 157, 158, 159, 160, 161, 162, 163, 164, 165, 166, 167, 168, 169, 170, 171, 172, 173, 174, 175, 176, 177, 178, 179, 180, 181, 182, 183, 184, 185, 186, 187, 188, 189, 190, 191, 192, 193, 194, 195, 196, 197, 198, 199, 200, 201, 202, 203, 204, 205, 206, 207, 208, 209, 210, 211, 212, 213, 214, 215, 216, 217, 218, 219, 220, 221, 222, 223, 224, 225, 226, 227, 228, 229, 230, 231, 232, 233, 234, 235, 236, 237, 238, 239, 240, 241, 242, 243, 244, 245, 246, 247, 248, 249, 250, 251, 252, 253, 254, 255, 256, 257, 258, 259, 260, 261, 262, 263, 264, 265, 266, 267, 268, 269, 270, 271, 272, 273, 274, 275, 276, 277, 278, 279, 280, 281, 282, 283, 284, 285, 286, 287, 288, 289, 290, 291, 292, 293, 294, 295, 296, 297, 298, 299, 300, 301, 302, 303, 304, 305, 306, 307, 308, 309, 310, 311, 312, 313, 314, 315, 316, 317, 318, 319, 320, 321, 322, 323, 324, 325, 326, 327, 328, 329, 330, 331, 332, 333, 334, 335, 336, 337, 338, 339, 340, 341, 342, 343, 344, 345, 346, 347, 348, 349, 350, 351, 352, 353, 354, 355, 356, 357, 358, 359, 360, 361, 362, 363, 364, 365, 366, 367, 368, 369, 370, 371, 372, 373, 374, 375, 376, 377, 378, 379, 380, 381, 382, 383, 384, 385, 386, 387, 388, 389, 390, 391, 392, 393, 394, 395, 396, 397, 398, 399, 400, 401, 402, 403, 404, 405, 406, 407, 408, 409, 410, 411, 412, 413, 414, 415, 416, 417, 418, 419, 420, 421, 422, 423, 424, 425, 426, 427, 428, 429, 430, 431, 432, 433, 434, 435, 436, 437, 438, 439, 440, 441, 442, 443, 444, 445, 446, 447, 448, 449, 450, 451, 452, 453, 454, 455, 456, 457, 458, 459, 460, 461, 462, 463, 464, 465, 466, 467, 468, 469, 470, 471, 472, 473, 474, 475, 476, 477, 478, 479, 480, 481, 482, 483, 484, 485, 486, 487, 488, 489, 490, 491, 492, 493, 494, 495, 496, 497, 498, 499, 500, 501, 502, 503, 504, 505, 506, 507, 508, 509, 510, 511, 512, 513, 514, 515, 516, 517, 518, 519, 520, 521, 522, 523, 524, 525, 526, 527, 528, 529, 530, 531, 532, 533, 534, 535, 536, 537, 538, 539, 540, 541, 542, 543, 544, 545, 546, 547, 548, 549, 550, 551, 552, 553, 554, 555, 556, 557, 558, 559, 560, 561, 562, 563, 564, 565, 566, 567, 568, 569, 570, 571, 572, 573, 574, 575, 576, 577, 578, 579, 580, 581, 582, 583, 584, 585, 586, 587, 588, 589, 590, 591, 592, 593, 594, 595, 596, 597, 598, 599, 600, 601, 602, 603, 604, 605, 606, 607, 608, 609, 610, 611, 612, 613, 614, 615, 616, 617, 618, 619, 620, 621, 622, 623, 624, 625, 626, 627, 628, 629, 630, 631, 632, 633, 634, 635, 636, 637, 638, 639, 640, 641, 642, 643, 644, 645, 646, 647, 648, 649, 650, 651, 652, 653, 654, 655, 656, 657, 658, 659, 660, 661, 662, 663, 664, 665, 666, 667, 668, 669, 670, 671, 672, 673, 674, 675, 676, 677, 678, 679, 680, 681, 682, 683, 684, 685, 686, 687, 688, 689, 690, 691, 692, 693, 694, 695, 696, 697, 698, 699, 700, 701, 702, 703, 704, 705, 706, 707, 708, 709, 710, 711, 712, 713, 714, 715, 716, 717, 718, 719, 720, 721, 722, 723, 724, 725, 726, 727, 728, 729, 730, 731, 732, 733, 734, 735, 736, 737, 738, 739, 740, 741, 742, 743, 744, 745, 746, 747, 748, 749, 750, 751, 752, 753, 754, 755, 756, 757, 758, 759, 760, 761, 762, 763, 764, 765, 766, 767, 768, 769, 770, 771, 772, 773, 774, 775, 776, 777, 778, 779, 780, 781, 782, 783, 784, 785, 786, 787, 788, 789, 790, 791, 792, 793, 794, 795, 796, 797, 798, 799, 800, 801, 802, 803, 804, 805, 806, 807, 808, 809, 810, 811, 812, 813, 814, 815, 816, 817, 818, 819, 820, 821, 822, 823, 824, 825, 826, 827, 828, 829, 830, 831, 832, 833, 834, 835, 836, 837, 838, 839, 840, 841, 842, 843, 844, 845, 846, 847, 848, 849, 850, 851, 852, 853, 854, 855, 856, 857, 858, 859, 860, 861, 862, 863, 864, 865, 866, 867, 868, 869, 870, 871, 872],
      "AcquisitionTime": ["153818.540000", "153819.000000", "153819.460000", "153819.920000", "153820.380000", "153820.840000", "153821.300000", "153821.760000", "153822.220000", "153822.680000", "153823.140000", "153823.600000", "153824.060000", "153824.520000", "153824.980000", "153825.440000", "153825.900000", "153826.360000", "153826.820000", "153827.280000", "153827.740000", "153828.200000", "153828.660000", "153829.120000", "153829.580000", "153830.040000", "153830.500000", "153830.960000", "153831.420000", "153831.880000", "153832.340000", "153832.800000", "153833.260000", "153833.720000", "153834.180000", "153834.640000", "153835.100000", "153835.560000", "153836.020000", "153836.480000", "153836.940000", "153837.400000", "153837.860000", "153838.320000", "153838.780000", "153839.240000", "153839.700000", "153840.160000", "153840.620000", "153841.080000", "153841.540000", "153842.000000", "153842.460000", "153842.920000", "153843.380000", "153843.840000", "153844.300000", "153844.760000", "153845.220000", "153845.680000", "153846.140000", "153846.600000", "153847.060000", "153847.520000", "153847.980000", "153848.440000", "153848.900000", "153849.360000", "153849.820000", "153850.280000", "153850.740000", "153851.200000", "153851.660000", "153852.120000", "153852.580000", "153853.040000", "153853.500000", "153853.960000", "153854.420000", "153854.880000", "153855.340000", "153855.800000", "153856.260000", "153856.720000", "153857.180000", "153857.640000", "153858.100000", "153858.560000", "153859.020000", "153859.480000", "153859.940000", "153900.400000", "153900.860000", "153901.320000", "153901.780000", "153902.240000", "153902.700000", "153903.160000", "153903.620000", "153904.080000", "153904.540000", "153905.000000", "153905.460000", "153905.920000", "153906.380000", "153906.840000", "153907.300000", "153907.760000", "153908.220000", "153908.680000", "153909.140000", "153909.600000", "153910.060000", "153910.520000", "153910.980000", "153911.440000", "153911.900000", "153912.360000", "153912.820000", "153913.280000", "153913.740000", "153914.200000", "153914.660000", "153915.120000", "153915.580000", "153916.040000", "153916.500000", "153916.960000", "153917.420000", "153917.880000", "153918.340000", "153918.800000", "153919.260000", "153919.720000", "153920.180000", "153920.640000", "153921.100000", "153921.560000", "153922.020000", "153922.480000", "153922.940000", "153923.400000", "153923.860000", "153924.320000", "153924.780000", "153925.240000", "153925.700000", "153926.160000", "153926.620000", "153927.080000", "153927.540000", "153928.000000", "153928.460000", "153928.920000", "153929.380000", "153929.840000", "153930.300000", "153930.760000", "153931.220000", "153931.680000", "153932.140000", "153932.600000", "153933.060000", "153933.520000", "153933.980000", "153934.440000", "153934.900000", "153935.360000", "153935.820000", "153936.280000", "153936.740000", "153937.200000", "153937.660000", "153938.120000", "153938.580000", "153939.040000", "153939.500000", "153939.960000", "153940.420000", "153940.880000", "153941.340000", "153941.800000", "153942.260000", "153942.720000", "153943.180000", "153943.640000", "153944.100000", "153944.560000", "153945.020000", "153945.480000", "153945.940000", "153946.400000", "153946.860000", "153947.320000", "153947.780000", "153948.240000", "153948.700000", "153949.160000", "153949.620000", "153950.080000", "153950.540000", "153951.000000", "153951.460000", "153951.920000", "153952.380000", "153952.840000", "153953.300000", "153953.760000", "153954.220000", "153954.680000", "153955.140000", "153955.600000", "153956.060000", "153956.520000", "153956.980000", "153957.440000", "153957.900000", "153958.360000", "153958.820000", "153959.280000", "153959.740000", "154000.200000", "154000.660000", "154001.120000", "154001.580000", "154002.040000", "154002.500000", "154002.960000", "154003.420000", "154003.880000", "154004.340000", "154004.800000", "154005.260000", "154005.720000", "154006.180000", "154006.640000", "154007.100000", "154007.560000", "154008.020000", "154008.480000", "154008.940000", "154009.400000", "154009.860000", "154010.320000", "154010.780000", "154011.240000", "154011.700000", "154012.160000", "154012.620000", "154013.080000", "154013.540000", "154014.000000", "154014.460000", "154014.920000", "154015.380000", "154015.840000", "154016.300000", "154016.760000", "154017.220000", "154017.680000", "154018.140000", "154018.600000", "154019.060000", "154019.520000", "154019.980000", "154020.440000", "154020.900000", "154021.360000", "154021.820000", "154022.280000", "154022.740000", "154023.200000", "154023.660000", "154024.120000", "154024.580000", "154025.040000", "154025.500000", "154025.960000", "154026.420000", "154026.880000", "154027.340000", "154027.800000", "154028.260000", "154028.720000", "154029.180000", "154029.640000", "154030.100000", "154030.560000", "154031.020000", "154031.480000", "154031.940000", "154032.400000", "154032.860000", "154033.320000", "154033.780000", "154034.240000", "154034.700000", "154035.160000", "154035.620000", "154036.080000", "154036.540000", "154037.000000", "154037.460000", "154037.920000", "154038.380000", "154038.840000", "154039.300000", "154039.760000", "154040.220000", "154040.680000", "154041.140000", "154041.600000", "154042.060000", "154042.520000", "154042.980000", "154043.440000", "154043.900000", "154044.360000", "154044.820000", "154045.280000", "154045.740000", "154046.200000", "154046.660000", "154047.120000", "154047.580000", "154048.040000", "154048.500000", "154048.960000", "154049.420000", "154049.880000", "154050.340000", "154050.800000", "154051.260000", "154051.720000", "154052.180000", "154052.640000", "154053.100000", "154053.560000", "154054.020000", "154054.480000", "154054.940000", "154055.400000", "154055.860000", "154056.320000", "154056.780000", "154057.240000", "154057.700000", "154058.160000", "154058.620000", "154059.080000", "154059.540000", "154100.000000", "154100.460000", "154100.920000", "154101.380000", "154101.840000", "154102.300000", "154102.760000", "154103.220000", "154103.680000", "154104.140000", "154104.600000", "154105.060000", "154105.520000", "154105.980000", "154106.440000", "154106.900000", "154107.360000", "154107.820000", "154108.280000", "154108.740000", "154109.200000", "154109.660000", "154110.120000", "154110.580000", "154111.040000", "154111.500000", "154111.960000", "154112.420000", "154112.880000", "154113.340000", "154113.800000", "154114.260000", "154114.720000", "154115.180000", "154115.640000", "154116.100000", "154116.560000", "154117.020000", "154117.480000", "154117.940000", "154118.400000", "154118.860000", "154119.320000", "154119.780000", "154120.240000", "154120.700000", "154121.160000", "154121.620000", "154122.080000", "154122.540000", "154123.000000", "154123.460000", "154123.920000", "154124.380000", "154124.840000", "154125.300000", "154125.760000", "154126.220000", "154126.680000", "154127.140000", "154127.600000", "154128.060000", "154128.520000", "154128.980000", "154129.440000", "154129.900000", "154130.360000", "154130.820000", "154131.280000", "154131.740000", "154132.200000", "154132.660000", "154133.120000", "154133.580000", "154134.040000", "154134.500000", "154134.960000", "154135.420000", "154135.880000", "154136.340000", "154136.800000", "154137.260000", "154137.720000", "154138.180000", "154138.640000", "154139.100000", "154139.560000", "154140.020000", "154140.480000", "154140.940000", "154141.400000", "154141.860000", "154142.320000", "154142.780000", "154143.240000", "154143.700000", "154144.160000", "154144.620000", "154145.080000", "154145.540000", "154146.000000", "154146.460000", "154146.920000", "154147.380000", "154147.840000", "154148.300000", "154148.760000", "154149.220000", "154149.680000", "154150.140000", "154150.600000", "154151.060000", "154151.520000", "154151.980000", "154152.440000", "154152.900000", "154153.360000", "154153.820000", "154154.280000", "154154.740000", "154155.200000", "154155.660000", "154156.120000", "154156.580000", "154157.040000", "154157.500000", "154157.960000", "154158.420000", "154158.880000", "154159.340000", "154159.800000", "154200.260000", "154200.720000", "154201.180000", "154201.640000", "154202.100000", "154202.560000", "154203.020000", "154203.480000", "154203.940000", "154204.400000", "154204.860000", "154205.320000", "154205.780000", "154206.240000", "154206.700000", "154207.160000", "154207.620000", "154208.080000", "154208.540000", "154209.000000", "154209.460000", "154209.920000", "154210.380000", "154210.840000", "154211.300000", "154211.760000", "154212.220000", "154212.680000", "154213.140000", "154213.600000", "154214.060000", "154214.520000", "154214.980000", "154215.440000", "154215.900000", "154216.360000", "154216.820000", "154217.280000", "154217.740000", "154218.200000", "154218.660000", "154219.120000", "154219.580000", "154220.040000", "154220.500000", "154220.960000", "154221.420000", "154221.880000", "154222.340000", "154222.800000", "154223.260000", "154223.720000", "154224.180000", "154224.640000", "154225.100000", "154225.560000", "154226.020000", "154226.480000", "154226.940000", "154227.400000", "154227.860000", "154228.320000", "154228.780000", "154229.240000", "154229.700000", "154230.160000", "154230.620000", "154231.080000", "154231.540000", "154232.000000", "154232.460000", "154232.920000", "154233.380000", "154233.840000", "154234.300000", "154234.760000", "154235.220000", "154235.680000", "154236.140000", "154236.600000", "154237.060000", "154237.520000", "154237.980000", "154238.440000", "154238.900000", "154239.360000", "154239.820000", "154240.280000", "154240.740000", "154241.200000", "154241.660000", "154242.120000", "154242.580000", "154243.040000", "154243.500000", "154243.960000", "154244.420000", "154244.880000", "154245.340000", "154245.800000", "154246.260000", "154246.720000", "154247.180000", "154247.640000", "154248.100000", "154248.560000", "154249.020000", "154249.480000", "154249.940000", "154250.400000", "154250.860000", "154251.320000", "154251.780000", "154252.240000", "154252.700000", "154253.160000", "154253.620000", "154254.080000", "154254.540000", "154255.000000", "154255.460000", "154255.920000", "154256.380000", "154256.840000", "154257.300000", "154257.760000", "154258.220000", "154258.680000", "154259.140000", "154259.600000", "154300.060000", "154300.520000", "154300.980000", "154301.440000", "154301.900000", "154302.360000", "154302.820000", "154303.280000", "154303.740000", "154304.200000", "154304.660000", "154305.120000", "154305.580000", "154306.040000", "154306.500000", "154306.960000", "154307.420000", "154307.880000", "154308.340000", "154308.800000", "154309.260000", "154309.720000", "154310.180000", "154310.640000", "154311.100000", "154311.560000", "154312.020000", "154312.480000", "154312.940000", "154313.400000", "154313.860000", "154314.320000", "154314.780000", "154315.240000", "154315.700000", "154316.160000", "154316.620000", "154317.080000", "154317.540000", "154318.000000", "154318.460000", "154318.920000", "154319.380000", "154319.840000", "154320.300000", "154320.760000", "154321.220000", "154321.680000", "154322.140000", "154322.600000", "154323.060000", "154323.520000", "154323.980000", "154324.440000", "154324.900000", "154325.360000", "154325.820000", "154326.280000", "154326.740000", "154327.200000", "154327.660000", "154328.120000", "154328.580000", "154329.040000", "154329.500000", "154329.960000", "154330.420000", "154330.880000", "154331.340000", "154331.800000", "154332.260000", "154332.720000", "154333.180000", "154333.640000", "154334.100000", "154334.560000", "154335.020000", "154335.480000", "154335.940000", "154336.400000", "154336.860000", "154337.320000", "154337.780000", "154338.240000", "154338.700000", "154339.160000", "154339.620000", "154340.080000", "154340.540000", "154341.000000", "154341.460000", "154341.920000", "154342.380000", "154342.840000", "154343.300000", "154343.760000", "154344.220000", "154344.680000", "154345.140000", "154345.600000", "154346.060000", "154346.520000", "154346.980000", "154347.440000", "154347.900000", "154348.360000", "154348.820000", "154349.280000", "154349.740000", "154350.200000", "154350.660000", "154351.120000", "154351.580000", "154352.040000", "154352.500000", "154352.960000", "154353.420000", "154353.880000", "154354.340000", "154354.800000", "154355.260000", "154355.720000", "154356.180000", "154356.640000", "154357.100000", "154357.560000", "154358.020000", "154358.480000", "154358.940000", "154359.400000", "154359.860000", "154400.320000", "154400.780000", "154401.240000", "154401.700000", "154402.160000", "154402.620000", "154403.080000", "154403.540000", "154404.000000", "154404.460000", "154404.920000", "154405.380000", "154405.840000", "154406.300000", "154406.760000", "154407.220000", "154407.680000", "154408.140000", "154408.600000", "154409.060000", "154409.520000", "154409.980000", "154410.440000", "154410.900000", "154411.360000", "154411.820000", "154412.280000", "154412.740000", "154413.200000", "154413.660000", "154414.120000", "154414.580000", "154415.040000", "154415.500000", "154415.960000", "154416.420000", "154416.880000", "154417.340000", "154417.800000", "154418.260000", "154418.720000", "154419.180000", "154419.640000", "154420.100000", "154420.560000", "154421.020000", "154421.480000", "154421.940000", "154422.400000", "154422.860000", "154423.320000", "154423.780000", "154424.240000", "154424.700000", "154425.160000", "154425.620000", "154426.080000", "154426.540000", "154427.000000", "154427.460000", "154427.920000", "154428.380000", "154428.840000", "154429.300000", "154429.760000", "154430.220000", "154430.680000", "154431.140000", "154431.600000", "154432.060000", "154432.520000", "154432.980000", "154433.440000", "154433.900000", "154434.360000", "154434.820000", "154435.280000", "154435.740000", "154436.200000", "154436.660000", "154437.120000", "154437.580000", "154438.040000", "154438.500000", "154438.960000", "154439.420000", "154439.880000", "154440.340000", "154440.800000", "154441.260000", "154441.720000", "154442.180000", "154442.640000", "154443.100000", "154443.560000", "154444.020000", "154444.480000", "154444.940000", "154445.400000", "154445.860000", "154446.320000", "154446.780000", "154447.240000", "154447.700000", "154448.160000", "154448.620000", "154449.080000", "154449.540000", "154450.000000", "154450.460000", "154450.920000", "154451.380000", "154451.840000", "154452.300000", "154452.760000", "154453.220000", "154453.680000", "154454.140000", "154454.600000", "154455.060000", "154455.520000", "154455.980000", "154456.440000", "154456.900000", "154457.360000", "154457.820000", "154458.280000", "154458.740000", "154459.200000"],
