{
  "AcquisitionMatrixPE": 82,
  "AcquisitionNumber": 1,
  "AcquisitionTime": "15:24:4.280000",
  "BandwidthPerPixelPhaseEncode": 24.888,
  "BaseResolution": 82,
  "BodyPartExamined": "BRAIN",
  "ConsistencyInfo": "N4_VE11E_LATEST_20181129",
  "ConversionSoftware": "dcm2niix",
  "ConversionSoftwareVersion": "v1.0.20201102",
  "DerivedVendorReportedEchoSpacing": 0.00049,
  "DeviceSerialNumber": "66112",
  "DwellTime": 2e-06,
  "EchoTime": 0.0272,
  "EchoTrainLength": 82,
  "EffectiveEchoSpacing": 0.00049,
  "FlipAngle": 44,
  "ImageComments": "Unaliased MB8/PE3",
  "ImageOrientationPatientDICOM": [0.999752, 0.020132, -0.00951115, -0.0218146, 0.971181, -0.237342],
  "ImageType": [
    "ORIGINAL",
    "PRIMARY",
    "M",
    "MB",
    "ND",
    "NORM",
    "MOSAIC"
],
  "ImagingFrequency": 123.259,
  "InPlanePhaseEncodingDirectionDICOM": "COL",
  "InstitutionAddress": "Maynard 3,Hanover,NH,US,03755",
  "InstitutionName": "Dartmouth College - PBS",
  "InstitutionalDepartmentName": "Department",
  "MRAcquisitionType": "2D",
  "MagneticFieldStrength": 3,
  "Manufacturer": "Siemens",
  "ManufacturersModelName": "Prisma",
  "Modality": "MR",
  "MultibandAccelerationFactor": 8,
  "PartialFourier": 1,
  "PatientPosition": "HFS",
  "PercentPhaseFOV": 100,
  "PercentSampling": 100,
  "PhaseEncodingDirection": "j-",
  "PhaseEncodingSteps": 82,
  "PhaseResolution": 1,
  "PixelBandwidth": 3050,
  "ProcedureStepDescription": "Wager_Wager^1076_spacetop",
  "ProtocolName": "func_run-01_task-social_acq-ap-mb8",
  "PulseSequenceDetails": "%CustomerSeq%\\cmrr_mbep2d_bold",
  "ReceiveCoilActiveElements": "HEA;HEP",
  "ReceiveCoilName": "Head_32",
  "ReconMatrixPE": 82,
  "RepetitionTime": 0.46,
  "SAR": 0.113129,
  "ScanOptions": "FS",
  "ScanningSequence": "EP",
  "SequenceName": "epfid2d1_82",
  "SequenceVariant": "SK\\SS",
  "SeriesDescription": "func_run-01_task-social_acq-ap-mb8",
  "SeriesNumber": 18,
  "ShimSetting": [4223, -7720, -7266, 232, -193, -83, -118, 105],
  "SliceThickness": 2.7,
  "SliceTiming": [0, 0.2525, 0.065, 0.315, 0.1275, 0.3775, 0.19, 0, 0.2525, 0.065, 0.315, 0.1275, 0.3775, 0.19, 0, 0.2525, 0.065, 0.315, 0.1275, 0.3775, 0.19, 0, 0.2525, 0.065, 0.315, 0.1275, 0.3775, 0.19, 0, 0.2525, 0.065, 0.315, 0.1275, 0.3775, 0.19, 0, 0.2525, 0.065, 0.315, 0.1275, 0.3775, 0.19, 0, 0.2525, 0.065, 0.315, 0.1275, 0.3775, 0.19, 0, 0.2525, 0.065, 0.315, 0.1275, 0.3775, 0.19],
  "SoftwareVersions": "syngo MR E11",
  "SpacingBetweenSlices": 2.7,
  "StationName": "AWP66112",
  "TaskName": "social",
  "TotalReadoutTime": 0.03969,
  "TxRefAmp": 268.45,
  "WipMemBlock": "efb5c20b-99f8-42b4-909f-8506ca89972d||Sequence: R016 ve11e/master r/434b28f1; Aug  7 2019 18:53:46 by eja",
  "dcmmeta_affine": [
    [-2.6822617053985596, -0.058527007699012756, -0.01203901320695877, 115.17770385742188],
    [-0.05401265621185303, 2.6056084632873535, -0.641223669052124, -75.16514587402344],
    [-0.025517724454402924, 0.6367701888084412, 2.622725009918213, -118.92366027832031],
    [0.0, 0.0, 0.0, 1.0]
],
  "dcmmeta_reorient_transform": [
    [0.0, -1.0, 0.0, 81.0],
    [1.0, 0.0, 0.0, 0.0],
    [0.0, 0.0, 1.0, 0.0],
    [0.0, 0.0, 0.0, 1.0]
],
  "dcmmeta_shape": [82, 82, 56, 872],
  "dcmmeta_slice_dim": 2,
  "dcmmeta_version": 0.6,
  "global": {
    "const": {
      "AccessionNumber": "A004366",
      "AcquisitionMatrix": [82, 0, 0, 82],
      "AngioFlag": "N",
      "BitsAllocated": 16,
      "BitsStored": 16,
      "BodyPartExamined": "BRAIN",
      "Columns": 656,
      "EchoNumbers": 1,
      "EchoTime": 27.2,
      "EchoTrainLength": 82,
      "FlipAngle": 44.0,
      "HighBit": 15,
      "ImageOrientationPatient": [0.99975208976323, 0.02013198967146, -0.0095111516616, -0.021814611636, 0.97118128326099, -0.2373416056293],
      "ImagePositionPatient": [-863.4488907257, -899.20037413588, 122.73135475189],
      "ImageType": [
        "ORIGINAL",
        "PRIMARY",
        "M",
        "MB",
        "ND",
        "NORM",
        "MOSAIC"
],
      "ImagedNucleus": "1H",
      "ImagingFrequency": 123.25914,
      "InPlanePhaseEncodingDirection": "COL",
      "MRAcquisitionType": "2D",
      "MagneticFieldStrength": 3.0,
      "Manufacturer": "SIEMENS",
      "ManufacturerModelName": "Prisma",
      "Modality": "MR",
      "NumberOfAverages": 1.0,
      "NumberOfPhaseEncodingSteps": 82,
      "PercentPhaseFieldOfView": 100.0,
      "PercentSampling": 100.0,
      "PerformedProcedureStepStartTime": "143920.337000",
      "PhotometricInterpretation": "MONOCHROME2",
      "PixelBandwidth": 3050.0,
      "PixelRepresentation": 0,
      "PixelSpacing": [2.6829268932343, 2.6829268932343],
      "ProtocolName": "func_run-01_task-social_acq-ap-mb8",
      "RepetitionTime": 460.0,
      "Rows": 656,
      "SAR": 0.1131286192436,
      "SamplesPerPixel": 1,
      "ScanOptions": "FS",
      "ScanningSequence": "EP",
      "SequenceName": "epfid2d1_82",
      "SequenceVariant": [
        "SK",
        "SS"
],
      "SeriesDescription": "func_run-01_task-social_acq-ap-mb8",
      "SeriesNumber": 18,
      "SeriesTime": "152433.160000",
      "SliceLocation": -98.182601748355,
      "SliceThickness": 2.7000000476837,
      "SmallestImagePixelValue": 0,
      "SoftwareVersions": "syngo MR E11",
      "SpacingBetweenSlices": 2.6999999619481,
      "SpecificCharacterSet": "ISO_IR 100",
      "StudyID": "1",
      "StudyTime": "143920.266000",
      "TransmitCoilName": "Body",
      "VariableFlipAngleFlag": "N",
      "WindowCenterWidthExplanation": "Algo1"
    },
    "slices": {}
  },
  "time": {
    "samples": {
      "AcquisitionNumber": [1, 2, 3, 4, 5, 6, 7, 8, 9, 10, 11, 12, 13, 14, 15, 16, 17, 18, 19, 20, 21, 22, 23, 24, 25, 26, 27, 28, 29, 30, 31, 32, 33, 34, 35, 36, 37, 38, 39, 40, 41, 42, 43, 44, 45, 46, 47, 48, 49, 50, 51, 52, 53, 54, 55, 56, 57, 58, 59, 60, 61, 62, 63, 64, 65, 66, 67, 68, 69, 70, 71, 72, 73, 74, 75, 76, 77, 78, 79, 80, 81, 82, 83, 84, 85, 86, 87, 88, 89, 90, 91, 92, 93, 94, 95, 96, 97, 98, 99, 100, 101, 102, 103, 104, 105, 106, 107, 108, 109, 110, 111, 112, 113, 114, 115, 116, 117, 118, 119, 120, 121, 122, 123, 124, 125, 126, 127, 128, 129, 130, 131, 132, 133, 134, 135, 136, 137, 138, 139, 140, 141, 142, 143, 144, 145, 146, 147, 148, 149, 150, 151, 152, 153, 154, 155, 156, 157, 158, 159, 160, 161, 162, 163, 164, 165, 166, 167, 168, 169, 170, 171, 172, 173, 174, 175, 176, 177, 178, 179, 180, 181, 182, 183, 184, 185, 186, 187, 188, 189, 190, 191, 192, 193, 194, 195, 196, 197, 198, 199, 200, 201, 202, 203, 204, 205, 206, 207, 208, 209, 210, 211, 212, 213, 214, 215, 216, 217, 218, 219, 220, 221, 222, 223, 224, 225, 226, 227, 228, 229, 230, 231, 232, 233, 234, 235, 236, 237, 238, 239, 240, 241, 242, 243, 244, 245, 246, 247, 248, 249, 250, 251, 252, 253, 254, 255, 256, 257, 258, 259, 260, 261, 262, 263, 264, 265, 266, 267, 268, 269, 270, 271, 272, 273, 274, 275, 276, 277, 278, 279, 280, 281, 282, 283, 284, 285, 286, 287, 288, 289, 290, 291, 292, 293, 294, 295, 296, 297, 298, 299, 300, 301, 302, 303, 304, 305, 306, 307, 308, 309, 310, 311, 312, 313, 314, 315, 316, 317, 318, 319, 320, 321, 322, 323, 324, 325, 326, 327, 328, 329, 330, 331, 332, 333, 334, 335, 336, 337, 338, 339, 340, 341, 342, 343, 344, 345, 346, 347, 348, 349, 350, 351, 352, 353, 354, 355, 356, 357, 358, 359, 360, 361, 362, 363, 364, 365, 366, 367, 368, 369, 370, 371, 372, 373, 374, 375, 376, 377, 378, 379, 380, 381, 382, 383, 384, 385, 386, 387, 388, 389, 390, 391, 392, 393, 394, 395, 396, 397, 398, 399, 400, 401, 402, 403, 404, 405, 406, 407, 408, 409, 410, 411, 412, 413, 414, 415, 416, 417, 418, 419, 420, 421, 422, 423, 424, 425, 426, 427, 428, 429, 430, 431, 432, 433, 434, 435, 436, 437, 438, 439, 440, 441, 442, 443, 444, 445, 446, 447, 448, 449, 450, 451, 452, 453, 454, 455, 456, 457, 458, 459, 460, 461, 462, 463, 464, 465, 466, 467, 468, 469, 470, 471, 472, 473, 474, 475, 476, 477, 478, 479, 480, 481, 482, 483, 484, 485, 486, 487, 488, 489, 490, 491, 492, 493, 494, 495, 496, 497, 498, 499, 500, 501, 502, 503, 504, 505, 506, 507, 508, 509, 510, 511, 512, 513, 514, 515, 516, 517, 518, 519, 520, 521, 522, 523, 524, 525, 526, 527, 528, 529, 530, 531, 532, 533, 534, 535, 536, 537, 538, 539, 540, 541, 542, 543, 544, 545, 546, 547, 548, 549, 550, 551, 552, 553, 554, 555, 556, 557, 558, 559, 560, 561, 562, 563, 564, 565, 566, 567, 568, 569, 570, 571, 572, 573, 574, 575, 576, 577, 578, 579, 580, 581, 582, 583, 584, 585, 586, 587, 588, 589, 590, 591, 592, 593, 594, 595, 596, 597, 598, 599, 600, 601, 602, 603, 604, 605, 606, 607, 608, 609, 610, 611, 612, 613, 614, 615, 616, 617, 618, 619, 620, 621, 622, 623, 624, 625, 626, 627, 628, 629, 630, 631, 632, 633, 634, 635, 636, 637, 638, 639, 640, 641, 642, 643, 644, 645, 646, 647, 648, 649, 650, 651, 652, 653, 654, 655, 656, 657, 658, 659, 660, 661, 662, 663, 664, 665, 666, 667, 668, 669, 670, 671, 672, 673, 674, 675, 676, 677, 678, 679, 680, 681, 682, 683, 684, 685, 686, 687, 688, 689, 690, 691, 692, 693, 694, 695, 696, 697, 698, 699, 700, 701, 702, 703, 704, 705, 706, 707, 708, 709, 710, 711, 712, 713, 714, 715, 716, 717, 718, 719, 720, 721, 722, 723, 724, 725, 726, 727, 728, 729, 730, 731, 732, 733, 734, 735, 736, 737, 738, 739, 740, 741, 742, 743, 744, 745, 746, 747, 748, 749, 750, 751, 752, 753, 754, 755, 756, 757, 758, 759, 760, 761, 762, 763, 764, 765, 766, 767, 768, 769, 770, 771, 772, 773, 774, 775, 776, 777, 778, 779, 780, 781, 782, 783, 784, 785, 786, 787, 788, 789, 790, 791, 792, 793, 794, 795, 796, 797, 798, 799, 800, 801, 802, 803, 804, 805, 806, 807, 808, 809, 810, 811, 812, 813, 814, 815, 816, 817, 818, 819, 820, 821, 822, 823, 824, 825, 826, 827, 828, 829, 830, 831, 832, 833, 834, 835, 836, 837, 838, 839, 840, 841, 842, 843, 844, 845, 846, 847, 848, 849, 850, 851, 852, 853, 854, 855, 856, 857, 858, 859, 860, 861, 862, 863, 864, 865, 866, 867, 868, 869, 870, 871, 872],
      "AcquisitionTime": ["152404.280000", "152404.740000", "152405.200000", "152405.660000", "152406.120000", "152406.580000", "152407.040000", "152407.500000", "152407.960000", "152408.420000", "152408.880000", "152409.340000", "152409.800000", "152410.260000", "152410.720000", "152411.180000", "152411.640000", "152412.100000", "152412.560000", "152413.020000", "152413.480000", "152413.940000", "152414.400000", "152414.860000", "152415.320000", "152415.780000", "152416.240000", "152416.700000", "152417.160000", "152417.620000", "152418.080000", "152418.540000", "152419.000000", "152419.460000", "152419.920000", "152420.380000", "152420.840000", "152421.300000", "152421.760000", "152422.220000", "152422.680000", "152423.140000", "152423.600000", "152424.060000", "152424.520000", "152424.980000", "152425.440000", "152425.900000", "152426.360000", "152426.820000", "152427.280000", "152427.740000", "152428.200000", "152428.660000", "152429.120000", "152429.580000", "152430.040000", "152430.500000", "152430.960000", "152431.420000", "152431.880000", "152432.340000", "152432.800000", "152433.260000", "152433.720000", "152434.180000", "152434.640000", "152435.100000", "152435.560000", "152436.020000", "152436.480000", "152436.940000", "152437.400000", "152437.860000", "152438.320000", "152438.780000", "152439.240000", "152439.700000", "152440.160000", "152440.620000", "152441.080000", "152441.540000", "152442.000000", "152442.460000", "152442.920000", "152443.380000", "152443.840000", "152444.300000", "152444.760000", "152445.220000", "152445.680000", "152446.140000", "152446.600000", "152447.060000", "152447.520000", "152447.980000", "152448.440000", "152448.900000", "152449.360000", "152449.820000", "152450.280000", "152450.740000", "152451.200000", "152451.660000", "152452.120000", "152452.580000", "152453.040000", "152453.500000", "152453.960000", "152454.420000", "152454.880000", "152455.340000", "152455.800000", "152456.260000", "152456.720000", "152457.180000", "152457.640000", "152458.100000", "152458.560000", "152459.020000", "152459.480000", "152459.940000", "152500.400000", "152500.860000", "152501.320000", "152501.780000", "152502.240000", "152502.700000", "152503.160000", "152503.620000", "152504.080000", "152504.540000", "152505.000000", "152505.460000", "152505.920000", "152506.380000", "152506.840000", "152507.300000", "152507.760000", "152508.220000", "152508.680000", "152509.140000", "152509.600000", "152510.060000", "152510.520000", "152510.980000", "152511.440000", "152511.900000", "152512.360000", "152512.820000", "152513.280000", "152513.740000", "152514.200000", "152514.660000", "152515.120000", "152515.580000", "152516.040000", "152516.500000", "152516.960000", "152517.420000", "152517.880000", "152518.340000", "152518.800000", "152519.260000", "152519.720000", "152520.180000", "152520.640000", "152521.100000", "152521.560000", "152522.020000", "152522.480000", "152522.940000", "152523.400000", "152523.860000", "152524.320000", "152524.780000", "152525.240000", "152525.700000", "152526.160000", "152526.620000", "152527.080000", "152527.540000", "152528.000000", "152528.460000", "152528.920000", "152529.380000", "152529.840000", "152530.300000", "152530.760000", "152531.220000", "152531.680000", "152532.140000", "152532.600000", "152533.060000", "152533.520000", "152533.980000", "152534.440000", "152534.900000", "152535.360000", "152535.820000", "152536.280000", "152536.740000", "152537.200000", "152537.660000", "152538.120000", "152538.580000", "152539.040000", "152539.500000", "152539.960000", "152540.420000", "152540.880000", "152541.340000", "152541.800000", "152542.260000", "152542.720000", "152543.180000", "152543.640000", "152544.100000", "152544.560000", "152545.020000", "152545.480000", "152545.940000", "152546.400000", "152546.860000", "152547.320000", "152547.780000", "152548.240000", "152548.700000", "152549.160000", "152549.620000", "152550.080000", "152550.540000", "152551.000000", "152551.460000", "152551.920000", "152552.380000", "152552.840000", "152553.300000", "152553.760000", "152554.220000", "152554.680000", "152555.140000", "152555.600000", "152556.060000", "152556.520000", "152556.980000", "152557.440000", "152557.900000", "152558.360000", "152558.820000", "152559.280000", "152559.740000", "152600.200000", "152600.660000", "152601.120000", "152601.580000", "152602.040000", "152602.500000", "152602.960000", "152603.420000", "152603.880000", "152604.340000", "152604.800000", "152605.260000", "152605.720000", "152606.180000", "152606.640000", "152607.100000", "152607.560000", "152608.020000", "152608.480000", "152608.940000", "152609.400000", "152609.860000", "152610.320000", "152610.780000", "152611.240000", "152611.700000", "152612.160000", "152612.620000", "152613.080000", "152613.540000", "152614.000000", "152614.460000", "152614.920000", "152615.380000", "152615.840000", "152616.300000", "152616.760000", "152617.220000", "152617.680000", "152618.140000", "152618.600000", "152619.060000", "152619.520000", "152619.980000", "152620.440000", "152620.900000", "152621.360000", "152621.820000", "152622.280000", "152622.740000", "152623.200000", "152623.660000", "152624.120000", "152624.580000", "152625.040000", "152625.500000", "152625.960000", "152626.420000", "152626.880000", "152627.340000", "152627.800000", "152628.260000", "152628.720000", "152629.180000", "152629.640000", "152630.100000", "152630.560000", "152631.020000", "152631.480000", "152631.940000", "152632.400000", "152632.860000", "152633.320000", "152633.780000", "152634.240000", "152634.700000", "152635.160000", "152635.620000", "152636.080000", "152636.540000", "152637.000000", "152637.460000", "152637.920000", "152638.380000", "152638.840000", "152639.300000", "152639.760000", "152640.220000", "152640.680000", "152641.140000", "152641.600000", "152642.060000", "152642.520000", "152642.980000", "152643.440000", "152643.900000", "152644.360000", "152644.820000", "152645.280000", "152645.740000", "152646.200000", "152646.660000", "152647.120000", "152647.580000", "152648.040000", "152648.500000", "152648.960000", "152649.420000", "152649.880000", "152650.340000", "152650.800000", "152651.260000", "152651.720000", "152652.180000", "152652.640000", "152653.100000", "152653.560000", "152654.020000", "152654.480000", "152654.940000", "152655.400000", "152655.860000", "152656.320000", "152656.780000", "152657.240000", "152657.700000", "152658.160000", "152658.620000", "152659.080000", "152659.540000", "152700.000000", "152700.460000", "152700.920000", "152701.380000", "152701.840000", "152702.300000", "152702.760000", "152703.220000", "152703.680000", "152704.140000", "152704.600000", "152705.060000", "152705.520000", "152705.980000", "152706.440000", "152706.900000", "152707.360000", "152707.820000", "152708.280000", "152708.740000", "152709.200000", "152709.660000", "152710.120000", "152710.580000", "152711.040000", "152711.500000", "152711.960000", "152712.420000", "152712.880000", "152713.340000", "152713.800000", "152714.260000", "152714.720000", "152715.180000", "152715.640000", "152716.100000", "152716.560000", "152717.020000", "152717.480000", "152717.940000", "152718.400000", "152718.860000", "152719.320000", "152719.780000", "152720.240000", "152720.700000", "152721.160000", "152721.620000", "152722.080000", "152722.540000", "152723.000000", "152723.460000", "152723.920000", "152724.380000", "152724.840000", "152725.300000", "152725.760000", "152726.220000", "152726.680000", "152727.140000", "152727.600000", "152728.060000", "152728.520000", "152728.980000", "152729.440000", "152729.900000", "152730.360000", "152730.820000", "152731.280000", "152731.740000", "152732.200000", "152732.660000", "152733.120000", "152733.580000", "152734.040000", "152734.500000", "152734.960000", "152735.420000", "152735.880000", "152736.340000", "152736.800000", "152737.260000", "152737.720000", "152738.180000", "152738.640000", "152739.100000", "152739.560000", "152740.020000", "152740.480000", "152740.940000", "152741.400000", "152741.860000", "152742.320000", "152742.780000", "152743.240000", "152743.700000", "152744.160000", "152744.620000", "152745.080000", "152745.540000", "152746.000000", "152746.460000", "152746.920000", "152747.380000", "152747.840000", "152748.300000", "152748.760000", "152749.220000", "152749.680000", "152750.140000", "152750.600000", "152751.060000", "152751.520000", "152751.980000", "152752.440000", "152752.900000", "152753.360000", "152753.820000", "152754.280000", "152754.740000", "152755.200000", "152755.660000", "152756.120000", "152756.580000", "152757.040000", "152757.500000", "152757.960000", "152758.420000", "152758.880000", "152759.340000", "152759.800000", "152800.260000", "152800.720000", "152801.180000", "152801.640000", "152802.100000", "152802.560000", "152803.020000", "152803.480000", "152803.940000", "152804.400000", "152804.860000", "152805.320000", "152805.780000", "152806.240000", "152806.700000", "152807.160000", "152807.620000", "152808.080000", "152808.540000", "152809.000000", "152809.460000", "152809.920000", "152810.380000", "152810.840000", "152811.300000", "152811.760000", "152812.220000", "152812.680000", "152813.140000", "152813.600000", "152814.060000", "152814.520000", "152814.980000", "152815.440000", "152815.900000", "152816.360000", "152816.820000", "152817.280000", "152817.740000", "152818.200000", "152818.660000", "152819.120000", "152819.580000", "152820.040000", "152820.500000", "152820.960000", "152821.420000", "152821.880000", "152822.340000", "152822.800000", "152823.260000", "152823.720000", "152824.180000", "152824.640000", "152825.100000", "152825.560000", "152826.020000", "152826.480000", "152826.940000", "152827.400000", "152827.860000", "152828.320000", "152828.780000", "152829.240000", "152829.700000", "152830.160000", "152830.620000", "152831.080000", "152831.540000", "152832.000000", "152832.460000", "152832.920000", "152833.380000", "152833.840000", "152834.300000", "152834.760000", "152835.220000", "152835.680000", "152836.140000", "152836.600000", "152837.060000", "152837.520000", "152837.980000", "152838.440000", "152838.900000", "152839.360000", "152839.820000", "152840.280000", "152840.740000", "152841.200000", "152841.660000", "152842.120000", "152842.580000", "152843.040000", "152843.500000", "152843.960000", "152844.420000", "152844.880000", "152845.340000", "152845.800000", "152846.260000", "152846.720000", "152847.180000", "152847.640000", "152848.100000", "152848.560000", "152849.020000", "152849.480000", "152849.940000", "152850.400000", "152850.860000", "152851.320000", "152851.780000", "152852.240000", "152852.700000", "152853.160000", "152853.620000", "152854.080000", "152854.540000", "152855.000000", "152855.460000", "152855.920000", "152856.380000", "152856.840000", "152857.300000", "152857.760000", "152858.220000", "152858.680000", "152859.140000", "152859.600000", "152900.060000", "152900.520000", "152900.980000", "152901.440000", "152901.900000", "152902.360000", "152902.820000", "152903.280000", "152903.740000", "152904.200000", "152904.660000", "152905.120000", "152905.580000", "152906.040000", "152906.500000", "152906.960000", "152907.420000", "152907.880000", "152908.340000", "152908.800000", "152909.260000", "152909.720000", "152910.180000", "152910.640000", "152911.100000", "152911.560000", "152912.020000", "152912.480000", "152912.940000", "152913.400000", "152913.860000", "152914.320000", "152914.780000", "152915.240000", "152915.700000", "152916.160000", "152916.620000", "152917.080000", "152917.540000", "152918.000000", "152918.460000", "152918.920000", "152919.380000", "152919.840000", "152920.300000", "152920.760000", "152921.220000", "152921.680000", "152922.140000", "152922.600000", "152923.060000", "152923.520000", "152923.980000", "152924.440000", "152924.900000", "152925.360000", "152925.820000", "152926.280000", "152926.740000", "152927.200000", "152927.660000", "152928.120000", "152928.580000", "152929.040000", "152929.500000", "152929.960000", "152930.420000", "152930.880000", "152931.340000", "152931.800000", "152932.260000", "152932.720000", "152933.180000", "152933.640000", "152934.100000", "152934.560000", "152935.020000", "152935.480000", "152935.940000", "152936.400000", "152936.860000", "152937.320000", "152937.780000", "152938.240000", "152938.700000", "152939.160000", "152939.620000", "152940.080000", "152940.540000", "152941.000000", "152941.460000", "152941.920000", "152942.380000", "152942.840000", "152943.300000", "152943.760000", "152944.220000", "152944.680000", "152945.140000", "152945.600000", "152946.060000", "152946.520000", "152946.980000", "152947.440000", "152947.900000", "152948.360000", "152948.820000", "152949.280000", "152949.740000", "152950.200000", "152950.660000", "152951.120000", "152951.580000", "152952.040000", "152952.500000", "152952.960000", "152953.420000", "152953.880000", "152954.340000", "152954.800000", "152955.260000", "152955.720000", "152956.180000", "152956.640000", "152957.100000", "152957.560000", "152958.020000", "152958.480000", "152958.940000", "152959.400000", "152959.860000", "153000.320000", "153000.780000", "153001.240000", "153001.700000", "153002.160000", "153002.620000", "153003.080000", "153003.540000", "153004.000000", "153004.460000", "153004.920000", "153005.380000", "153005.840000", "153006.300000", "153006.760000", "153007.220000", "153007.680000", "153008.140000", "153008.600000", "153009.060000", "153009.520000", "153009.980000", "153010.440000", "153010.900000", "153011.360000", "153011.820000", "153012.280000", "153012.740000", "153013.200000", "153013.660000", "153014.120000", "153014.580000", "153015.040000", "153015.500000", "153015.960000", "153016.420000", "153016.880000", "153017.340000", "153017.800000", "153018.260000", "153018.720000", "153019.180000", "153019.640000", "153020.100000", "153020.560000", "153021.020000", "153021.480000", "153021.940000", "153022.400000", "153022.860000", "153023.320000", "153023.780000", "153024.240000", "153024.700000", "153025.160000", "153025.620000", "153026.080000", "153026.540000", "153027.000000", "153027.460000", "153027.920000", "153028.380000", "153028.840000", "153029.300000", "153029.760000", "153030.220000", "153030.680000", "153031.140000", "153031.600000", "153032.060000", "153032.520000", "153032.980000", "153033.440000", "153033.900000", "153034.360000", "153034.820000", "153035.280000", "153035.740000", "153036.200000", "153036.660000", "153037.120000", "153037.580000", "153038.040000", "153038.500000", "153038.960000", "153039.420000", "153039.880000", "153040.340000", "153040.800000", "153041.260000", "153041.720000", "153042.180000", "153042.640000", "153043.100000", "153043.560000", "153044.020000", "153044.480000", "153044.940000"],
