{
  "AcquisitionMatrixPE": 82,
  "AcquisitionNumber": 1,
  "AcquisitionTime": "15:52:26.452500",
  "BandwidthPerPixelPhaseEncode": 24.888,
  "BaseResolution": 82,
  "BodyPartExamined": "BRAIN",
  "ConsistencyInfo": "N4_VE11E_LATEST_20181129",
  "ConversionSoftware": "dcm2niix",
  "ConversionSoftwareVersion": "v1.0.20201102",
  "DerivedVendorReportedEchoSpacing": 0.00049,
  "DeviceSerialNumber": "66112",
  "DwellTime": 2e-06,
  "EchoTime": 0.0272,
  "EchoTrainLength": 82,
  "EffectiveEchoSpacing": 0.00049,
  "FlipAngle": 44,
  "ImageComments": "Unaliased MB8/PE3",
  "ImageOrientationPatientDICOM": [0.999752, 0.020132, -0.00951115, -0.0218146, 0.971181, -0.237342],
  "ImageType": [
    "ORIGINAL",
    "PRIMARY",
    "M",
    "MB",
    "ND",
    "NORM",
    "MOSAIC"
],
  "ImagingFrequency": 123.259,
  "InPlanePhaseEncodingDirectionDICOM": "COL",
  "InstitutionAddress": "Maynard 3,Hanover,NH,US,03755",
  "InstitutionName": "Dartmouth College - PBS",
  "InstitutionalDepartmentName": "Department",
  "MRAcquisitionType": "2D",
  "MagneticFieldStrength": 3,
  "Manufacturer": "Siemens",
  "ManufacturersModelName": "Prisma",
  "Modality": "MR",
  "MultibandAccelerationFactor": 8,
  "PartialFourier": 1,
  "PatientPosition": "HFS",
  "PercentPhaseFOV": 100,
  "PercentSampling": 100,
  "PhaseEncodingDirection": "j-",
  "PhaseEncodingSteps": 82,
  "PhaseResolution": 1,
  "PixelBandwidth": 3050,
  "ProcedureStepDescription": "Wager_Wager^1076_spacetop",
  "ProtocolName": "func_run-05_task-social_acq-ap-mb8",
  "PulseSequenceDetails": "%CustomerSeq%\\cmrr_mbep2d_bold",
  "ReceiveCoilActiveElements": "HEA;HEP",
  "ReceiveCoilName": "Head_32",
  "ReconMatrixPE": 82,
  "RepetitionTime": 0.46,
  "SAR": 0.113129,
  "ScanOptions": "FS",
  "ScanningSequence": "EP",
  "SequenceName": "epfid2d1_82",
  "SequenceVariant": "SK\\SS",
  "SeriesDescription": "func_run-05_task-social_acq-ap-mb8",
  "SeriesNumber": 26,
  "ShimSetting": [4223, -7720, -7266, 232, -193, -83, -118, 105],
  "SliceThickness": 2.7,
  "SliceTiming": [0, 0.25, 0.0625, 0.3125, 0.125, 0.375, 0.1875, 0, 0.25, 0.0625, 0.3125, 0.125, 0.375, 0.1875, 0, 0.25, 0.0625, 0.3125, 0.125, 0.375, 0.1875, 0, 0.25, 0.0625, 0.3125, 0.125, 0.375, 0.1875, 0, 0.25, 0.0625, 0.3125, 0.125, 0.375, 0.1875, 0, 0.25, 0.0625, 0.3125, 0.125, 0.375, 0.1875, 0, 0.25, 0.0625, 0.3125, 0.125, 0.375, 0.1875, 0, 0.25, 0.0625, 0.3125, 0.125, 0.375, 0.1875],
  "SoftwareVersions": "syngo MR E11",
  "SpacingBetweenSlices": 2.7,
  "StationName": "AWP66112",
  "TaskName": "social",
  "TotalReadoutTime": 0.03969,
  "TxRefAmp": 268.45,
  "WipMemBlock": "63946451-5cc6-44db-8755-ca5d710b385e||Sequence: R016 ve11e/master r/434b28f1; Aug  7 2019 18:53:46 by eja",
  "dcmmeta_affine": [
    [-2.6822617053985596, -0.058527007699012756, -0.01203901320695877, 115.17770385742188],
    [-0.05401265621185303, 2.6056084632873535, -0.641223669052124, -75.16514587402344],
    [-0.025517724454402924, 0.6367701888084412, 2.622725009918213, -118.92366027832031],
    [0.0, 0.0, 0.0, 1.0]
],
  "dcmmeta_reorient_transform": [
    [0.0, -1.0, 0.0, 81.0],
    [1.0, 0.0, 0.0, 0.0],
    [0.0, 0.0, 1.0, 0.0],
    [0.0, 0.0, 0.0, 1.0]
],
  "dcmmeta_shape": [82, 82, 56, 872],
  "dcmmeta_slice_dim": 2,
  "dcmmeta_version": 0.6,
  "global": {
    "const": {
      "AccessionNumber": "A004366",
      "AcquisitionMatrix": [82, 0, 0, 82],
      "AngioFlag": "N",
      "BitsAllocated": 16,
      "BitsStored": 16,
      "BodyPartExamined": "BRAIN",
      "Columns": 656,
      "EchoNumbers": 1,
      "EchoTime": 27.2,
      "EchoTrainLength": 82,
      "FlipAngle": 44.0,
      "HighBit": 15,
      "ImageOrientationPatient": [0.99975208976323, 0.02013198967146, -0.0095111516616, -0.021814611636, 0.97118128326099, -0.2373416056293],
      "ImagePositionPatient": [-863.4488907257, -899.20037413588, 122.73135475189],
      "ImageType": [
        "ORIGINAL",
        "PRIMARY",
        "M",
        "MB",
        "ND",
        "NORM",
        "MOSAIC"
],
      "ImagedNucleus": "1H",
      "ImagingFrequency": 123.259145,
      "InPlanePhaseEncodingDirection": "COL",
      "MRAcquisitionType": "2D",
      "MagneticFieldStrength": 3.0,
      "Manufacturer": "SIEMENS",
      "ManufacturerModelName": "Prisma",
      "Modality": "MR",
      "NumberOfAverages": 1.0,
      "NumberOfPhaseEncodingSteps": 82,
      "PercentPhaseFieldOfView": 100.0,
      "PercentSampling": 100.0,
      "PerformedProcedureStepStartTime": "143920.337000",
      "PhotometricInterpretation": "MONOCHROME2",
      "PixelBandwidth": 3050.0,
      "PixelRepresentation": 0,
      "PixelSpacing": [2.6829268932343, 2.6829268932343],
      "ProtocolName": "func_run-05_task-social_acq-ap-mb8",
      "RepetitionTime": 460.0,
      "Rows": 656,
      "SAR": 0.1131286192436,
      "SamplesPerPixel": 1,
      "ScanOptions": "FS",
      "ScanningSequence": "EP",
      "SequenceName": "epfid2d1_82",
      "SequenceVariant": [
        "SK",
        "SS"
],
      "SeriesDescription": "func_run-05_task-social_acq-ap-mb8",
      "SeriesNumber": 26,
      "SeriesTime": "155252.980000",
      "SliceLocation": -98.182601748355,
      "SliceThickness": 2.7000000476837,
      "SmallestImagePixelValue": 0,
      "SoftwareVersions": "syngo MR E11",
      "SpacingBetweenSlices": 2.6999999619481,
      "SpecificCharacterSet": "ISO_IR 100",
      "StudyID": "1",
      "StudyTime": "143920.266000",
      "TransmitCoilName": "Body",
      "VariableFlipAngleFlag": "N",
      "WindowCenterWidthExplanation": "Algo1"
    },
    "slices": {}
  },
  "time": {
    "samples": {
      "AcquisitionNumber": [1, 2, 3, 4, 5, 6, 7, 8, 9, 10, 11, 12, 13, 14, 15, 16, 17, 18, 19, 20, 21, 22, 23, 24, 25, 26, 27, 28, 29, 30, 31, 32, 33, 34, 35, 36, 37, 38, 39, 40, 41, 42, 43, 44, 45, 46, 47, 48, 49, 50, 51, 52, 53, 54, 55, 56, 57, 58, 59, 60, 61, 62, 63, 64, 65, 66, 67, 68, 69, 70, 71, 72, 73, 74, 75, 76, 77, 78, 79, 80, 81, 82, 83, 84, 85, 86, 87, 88, 89, 90, 91, 92, 93, 94, 95, 96, 97, 98, 99, 100, 101, 102, 103, 104, 105, 106, 107, 108, 109, 110, 111, 112, 113, 114, 115, 116, 117, 118, 119, 120, 121, 122, 123, 124, 125, 126, 127, 128, 129, 130, 131, 132, 133, 134, 135, 136, 137, 138, 139, 140, 141, 142, 143, 144, 145, 146, 147, 148, 149, 150, 151, 152, 153, 154, 155, 156, 157, 158, 159, 160, 161, 162, 163, 164, 165, 166, 167, 168, 169, 170, 171, 172, 173, 174, 175, 176, 177, 178, 179, 180, 181, 182, 183, 184, 185, 186, 187, 188, 189, 190, 191, 192, 193, 194, 195, 196, 197, 198, 199, 200, 201, 202, 203, 204, 205, 206, 207, 208, 209, 210, 211, 212, 213, 214, 215, 216, 217, 218, 219, 220, 221, 222, 223, 224, 225, 226, 227, 228, 229, 230, 231, 232, 233, 234, 235, 236, 237, 238, 239, 240, 241, 242, 243, 244, 245, 246, 247, 248, 249, 250, 251, 252, 253, 254, 255, 256, 257, 258, 259, 260, 261, 262, 263, 264, 265, 266, 267, 268, 269, 270, 271, 272, 273, 274, 275, 276, 277, 278, 279, 280, 281, 282, 283, 284, 285, 286, 287, 288, 289, 290, 291, 292, 293, 294, 295, 296, 297, 298, 299, 300, 301, 302, 303, 304, 305, 306, 307, 308, 309, 310, 311, 312, 313, 314, 315, 316, 317, 318, 319, 320, 321, 322, 323, 324, 325, 326, 327, 328, 329, 330, 331, 332, 333, 334, 335, 336, 337, 338, 339, 340, 341, 342, 343, 344, 345, 346, 347, 348, 349, 350, 351, 352, 353, 354, 355, 356, 357, 358, 359, 360, 361, 362, 363, 364, 365, 366, 367, 368, 369, 370, 371, 372, 373, 374, 375, 376, 377, 378, 379, 380, 381, 382, 383, 384, 385, 386, 387, 388, 389, 390, 391, 392, 393, 394, 395, 396, 397, 398, 399, 400, 401, 402, 403, 404, 405, 406, 407, 408, 409, 410, 411, 412, 413, 414, 415, 416, 417, 418, 419, 420, 421, 422, 423, 424, 425, 426, 427, 428, 429, 430, 431, 432, 433, 434, 435, 436, 437, 438, 439, 440, 441, 442, 443, 444, 445, 446, 447, 448, 449, 450, 451, 452, 453, 454, 455, 456, 457, 458, 459, 460, 461, 462, 463, 464, 465, 466, 467, 468, 469, 470, 471, 472, 473, 474, 475, 476, 477, 478, 479, 480, 481, 482, 483, 484, 485, 486, 487, 488, 489, 490, 491, 492, 493, 494, 495, 496, 497, 498, 499, 500, 501, 502, 503, 504, 505, 506, 507, 508, 509, 510, 511, 512, 513, 514, 515, 516, 517, 518, 519, 520, 521, 522, 523, 524, 525, 526, 527, 528, 529, 530, 531, 532, 533, 534, 535, 536, 537, 538, 539, 540, 541, 542, 543, 544, 545, 546, 547, 548, 549, 550, 551, 552, 553, 554, 555, 556, 557, 558, 559, 560, 561, 562, 563, 564, 565, 566, 567, 568, 569, 570, 571, 572, 573, 574, 575, 576, 577, 578, 579, 580, 581, 582, 583, 584, 585, 586, 587, 588, 589, 590, 591, 592, 593, 594, 595, 596, 597, 598, 599, 600, 601, 602, 603, 604, 605, 606, 607, 608, 609, 610, 611, 612, 613, 614, 615, 616, 617, 618, 619, 620, 621, 622, 623, 624, 625, 626, 627, 628, 629, 630, 631, 632, 633, 634, 635, 636, 637, 638, 639, 640, 641, 642, 643, 644, 645, 646, 647, 648, 649, 650, 651, 652, 653, 654, 655, 656, 657, 658, 659, 660, 661, 662, 663, 664, 665, 666, 667, 668, 669, 670, 671, 672, 673, 674, 675, 676, 677, 678, 679, 680, 681, 682, 683, 684, 685, 686, 687, 688, 689, 690, 691, 692, 693, 694, 695, 696, 697, 698, 699, 700, 701, 702, 703, 704, 705, 706, 707, 708, 709, 710, 711, 712, 713, 714, 715, 716, 717, 718, 719, 720, 721, 722, 723, 724, 725, 726, 727, 728, 729, 730, 731, 732, 733, 734, 735, 736, 737, 738, 739, 740, 741, 742, 743, 744, 745, 746, 747, 748, 749, 750, 751, 752, 753, 754, 755, 756, 757, 758, 759, 760, 761, 762, 763, 764, 765, 766, 767, 768, 769, 770, 771, 772, 773, 774, 775, 776, 777, 778, 779, 780, 781, 782, 783, 784, 785, 786, 787, 788, 789, 790, 791, 792, 793, 794, 795, 796, 797, 798, 799, 800, 801, 802, 803, 804, 805, 806, 807, 808, 809, 810, 811, 812, 813, 814, 815, 816, 817, 818, 819, 820, 821, 822, 823, 824, 825, 826, 827, 828, 829, 830, 831, 832, 833, 834, 835, 836, 837, 838, 839, 840, 841, 842, 843, 844, 845, 846, 847, 848, 849, 850, 851, 852, 853, 854, 855, 856, 857, 858, 859, 860, 861, 862, 863, 864, 865, 866, 867, 868, 869, 870, 871, 872],
      "AcquisitionTime": ["155226.452500", "155226.912500", "155227.372500", "155227.832500", "155228.292500", "155228.752500", "155229.212500", "155229.672500", "155230.132500", "155230.592500", "155231.052500", "155231.512500", "155231.972500", "155232.432500", "155232.892500", "155233.352500", "155233.812500", "155234.272500", "155234.732500", "155235.192500", "155235.652500", "155236.112500", "155236.572500", "155237.032500", "155237.492500", "155237.952500", "155238.412500", "155238.872500", "155239.332500", "155239.792500", "155240.252500", "155240.712500", "155241.172500", "155241.632500", "155242.092500", "155242.552500", "155243.012500", "155243.472500", "155243.932500", "155244.392500", "155244.852500", "155245.312500", "155245.772500", "155246.232500", "155246.692500", "155247.152500", "155247.612500", "155248.072500", "155248.532500", "155248.992500", "155249.452500", "155249.912500", "155250.372500", "155250.832500", "155251.292500", "155251.752500", "155252.212500", "155252.672500", "155253.132500", "155253.592500", "155254.052500", "155254.512500", "155254.972500", "155255.432500", "155255.892500", "155256.352500", "155256.812500", "155257.272500", "155257.732500", "155258.192500", "155258.652500", "155259.112500", "155259.572500", "155300.032500", "155300.492500", "155300.952500", "155301.412500", "155301.872500", "155302.332500", "155302.792500", "155303.252500", "155303.712500", "155304.172500", "155304.632500", "155305.092500", "155305.552500", "155306.012500", "155306.472500", "155306.932500", "155307.392500", "155307.852500", "155308.312500", "155308.772500", "155309.232500", "155309.692500", "155310.152500", "155310.612500", "155311.072500", "155311.532500", "155311.992500", "155312.452500", "155312.912500", "155313.372500", "155313.832500", "155314.292500", "155314.752500", "155315.212500", "155315.672500", "155316.132500", "155316.592500", "155317.052500", "155317.512500", "155317.972500", "155318.432500", "155318.892500", "155319.352500", "155319.812500", "155320.272500", "155320.732500", "155321.192500", "155321.652500", "155322.112500", "155322.572500", "155323.032500", "155323.492500", "155323.952500", "155324.412500", "155324.872500", "155325.332500", "155325.792500", "155326.252500", "155326.712500", "155327.172500", "155327.632500", "155328.092500", "155328.552500", "155329.012500", "155329.472500", "155329.932500", "155330.392500", "155330.852500", "155331.312500", "155331.772500", "155332.232500", "155332.692500", "155333.152500", "155333.612500", "155334.072500", "155334.532500", "155334.992500", "155335.452500", "155335.912500", "155336.372500", "155336.832500", "155337.292500", "155337.752500", "155338.212500", "155338.672500", "155339.132500", "155339.592500", "155340.052500", "155340.512500", "155340.972500", "155341.432500", "155341.892500", "155342.352500", "155342.812500", "155343.272500", "155343.732500", "155344.192500", "155344.652500", "155345.112500", "155345.572500", "155346.032500", "155346.492500", "155346.952500", "155347.412500", "155347.872500", "155348.332500", "155348.792500", "155349.252500", "155349.712500", "155350.172500", "155350.632500", "155351.092500", "155351.552500", "155352.012500", "155352.472500", "155352.932500", "155353.392500", "155353.852500", "155354.312500", "155354.772500", "155355.232500", "155355.692500", "155356.152500", "155356.612500", "155357.072500", "155357.532500", "155357.992500", "155358.452500", "155358.912500", "155359.372500", "155359.832500", "155400.292500", "155400.752500", "155401.212500", "155401.672500", "155402.132500", "155402.592500", "155403.052500", "155403.512500", "155403.972500", "155404.432500", "155404.892500", "155405.352500", "155405.812500", "155406.272500", "155406.732500", "155407.192500", "155407.652500", "155408.112500", "155408.572500", "155409.032500", "155409.492500", "155409.952500", "155410.412500", "155410.872500", "155411.332500", "155411.792500", "155412.252500", "155412.712500", "155413.172500", "155413.632500", "155414.092500", "155414.552500", "155415.012500", "155415.472500", "155415.932500", "155416.392500", "155416.852500", "155417.312500", "155417.772500", "155418.232500", "155418.692500", "155419.152500", "155419.612500", "155420.072500", "155420.532500", "155420.992500", "155421.452500", "155421.912500", "155422.372500", "155422.832500", "155423.292500", "155423.752500", "155424.212500", "155424.672500", "155425.132500", "155425.592500", "155426.052500", "155426.512500", "155426.972500", "155427.432500", "155427.892500", "155428.352500", "155428.812500", "155429.272500", "155429.732500", "155430.192500", "155430.652500", "155431.112500", "155431.572500", "155432.032500", "155432.492500", "155432.952500", "155433.412500", "155433.872500", "155434.332500", "155434.792500", "155435.252500", "155435.712500", "155436.172500", "155436.632500", "155437.092500", "155437.552500", "155438.012500", "155438.472500", "155438.932500", "155439.392500", "155439.852500", "155440.312500", "155440.772500", "155441.232500", "155441.692500", "155442.152500", "155442.612500", "155443.072500", "155443.532500", "155443.992500", "155444.452500", "155444.912500", "155445.372500", "155445.832500", "155446.292500", "155446.752500", "155447.212500", "155447.672500", "155448.132500", "155448.592500", "155449.052500", "155449.512500", "155449.972500", "155450.432500", "155450.892500", "155451.352500", "155451.812500", "155452.272500", "155452.732500", "155453.192500", "155453.652500", "155454.112500", "155454.572500", "155455.032500", "155455.492500", "155455.952500", "155456.412500", "155456.872500", "155457.332500", "155457.792500", "155458.252500", "155458.712500", "155459.172500", "155459.632500", "155500.092500", "155500.552500", "155501.012500", "155501.472500", "155501.932500", "155502.392500", "155502.852500", "155503.312500", "155503.772500", "155504.232500", "155504.692500", "155505.152500", "155505.612500", "155506.072500", "155506.532500", "155506.992500", "155507.452500", "155507.912500", "155508.372500", "155508.832500", "155509.292500", "155509.752500", "155510.212500", "155510.672500", "155511.132500", "155511.592500", "155512.052500", "155512.512500", "155512.972500", "155513.432500", "155513.892500", "155514.352500", "155514.812500", "155515.272500", "155515.732500", "155516.192500", "155516.652500", "155517.112500", "155517.572500", "155518.032500", "155518.492500", "155518.952500", "155519.412500", "155519.872500", "155520.332500", "155520.792500", "155521.252500", "155521.712500", "155522.172500", "155522.632500", "155523.092500", "155523.552500", "155524.012500", "155524.472500", "155524.932500", "155525.392500", "155525.852500", "155526.312500", "155526.772500", "155527.232500", "155527.692500", "155528.152500", "155528.612500", "155529.072500", "155529.532500", "155529.992500", "155530.452500", "155530.912500", "155531.372500", "155531.832500", "155532.292500", "155532.752500", "155533.212500", "155533.672500", "155534.132500", "155534.592500", "155535.052500", "155535.512500", "155535.972500", "155536.432500", "155536.892500", "155537.352500", "155537.812500", "155538.272500", "155538.732500", "155539.192500", "155539.652500", "155540.112500", "155540.572500", "155541.032500", "155541.492500", "155541.952500", "155542.412500", "155542.872500", "155543.332500", "155543.792500", "155544.252500", "155544.712500", "155545.172500", "155545.632500", "155546.092500", "155546.552500", "155547.012500", "155547.472500", "155547.932500", "155548.392500", "155548.852500", "155549.312500", "155549.772500", "155550.232500", "155550.692500", "155551.152500", "155551.612500", "155552.072500", "155552.532500", "155552.992500", "155553.452500", "155553.912500", "155554.372500", "155554.832500", "155555.292500", "155555.752500", "155556.212500", "155556.672500", "155557.132500", "155557.592500", "155558.052500", "155558.512500", "155558.972500", "155559.432500", "155559.892500", "155600.352500", "155600.812500", "155601.272500", "155601.732500", "155602.192500", "155602.652500", "155603.112500", "155603.572500", "155604.032500", "155604.492500", "155604.952500", "155605.412500", "155605.872500", "155606.332500", "155606.792500", "155607.252500", "155607.712500", "155608.172500", "155608.632500", "155609.092500", "155609.552500", "155610.012500", "155610.472500", "155610.932500", "155611.392500", "155611.852500", "155612.312500", "155612.772500", "155613.232500", "155613.692500", "155614.152500", "155614.612500", "155615.072500", "155615.532500", "155615.992500", "155616.452500", "155616.912500", "155617.372500", "155617.832500", "155618.292500", "155618.752500", "155619.212500", "155619.672500", "155620.132500", "155620.592500", "155621.052500", "155621.512500", "155621.972500", "155622.432500", "155622.892500", "155623.352500", "155623.812500", "155624.272500", "155624.732500", "155625.192500", "155625.652500", "155626.112500", "155626.572500", "155627.032500", "155627.492500", "155627.952500", "155628.412500", "155628.872500", "155629.332500", "155629.792500", "155630.252500", "155630.712500", "155631.172500", "155631.632500", "155632.092500", "155632.552500", "155633.012500", "155633.472500", "155633.932500", "155634.392500", "155634.852500", "155635.312500", "155635.772500", "155636.232500", "155636.692500", "155637.152500", "155637.612500", "155638.072500", "155638.532500", "155638.992500", "155639.452500", "155639.912500", "155640.372500", "155640.832500", "155641.292500", "155641.752500", "155642.212500", "155642.672500", "155643.132500", "155643.592500", "155644.052500", "155644.512500", "155644.972500", "155645.432500", "155645.892500", "155646.352500", "155646.812500", "155647.272500", "155647.732500", "155648.192500", "155648.652500", "155649.112500", "155649.572500", "155650.032500", "155650.492500", "155650.952500", "155651.412500", "155651.872500", "155652.332500", "155652.792500", "155653.252500", "155653.712500", "155654.172500", "155654.632500", "155655.092500", "155655.552500", "155656.012500", "155656.472500", "155656.932500", "155657.392500", "155657.852500", "155658.312500", "155658.772500", "155659.232500", "155659.692500", "155700.152500", "155700.612500", "155701.072500", "155701.532500", "155701.992500", "155702.452500", "155702.912500", "155703.372500", "155703.832500", "155704.292500", "155704.752500", "155705.212500", "155705.672500", "155706.132500", "155706.592500", "155707.052500", "155707.512500", "155707.972500", "155708.432500", "155708.892500", "155709.352500", "155709.812500", "155710.272500", "155710.732500", "155711.192500", "155711.652500", "155712.112500", "155712.572500", "155713.032500", "155713.492500", "155713.952500", "155714.412500", "155714.872500", "155715.332500", "155715.792500", "155716.252500", "155716.712500", "155717.172500", "155717.632500", "155718.092500", "155718.552500", "155719.012500", "155719.472500", "155719.932500", "155720.392500", "155720.852500", "155721.312500", "155721.772500", "155722.232500", "155722.692500", "155723.152500", "155723.612500", "155724.072500", "155724.532500", "155724.992500", "155725.452500", "155725.912500", "155726.372500", "155726.832500", "155727.292500", "155727.752500", "155728.212500", "155728.672500", "155729.132500", "155729.592500", "155730.052500", "155730.512500", "155730.972500", "155731.432500", "155731.892500", "155732.352500", "155732.812500", "155733.272500", "155733.732500", "155734.192500", "155734.652500", "155735.112500", "155735.572500", "155736.032500", "155736.492500", "155736.952500", "155737.412500", "155737.872500", "155738.332500", "155738.792500", "155739.252500", "155739.712500", "155740.172500", "155740.632500", "155741.092500", "155741.552500", "155742.012500", "155742.472500", "155742.932500", "155743.392500", "155743.852500", "155744.312500", "155744.772500", "155745.232500", "155745.692500", "155746.152500", "155746.612500", "155747.072500", "155747.532500", "155747.992500", "155748.452500", "155748.912500", "155749.372500", "155749.832500", "155750.292500", "155750.752500", "155751.212500", "155751.672500", "155752.132500", "155752.592500", "155753.052500", "155753.512500", "155753.972500", "155754.432500", "155754.892500", "155755.352500", "155755.812500", "155756.272500", "155756.732500", "155757.192500", "155757.652500", "155758.112500", "155758.572500", "155759.032500", "155759.492500", "155759.952500", "155800.412500", "155800.872500", "155801.332500", "155801.792500", "155802.252500", "155802.712500", "155803.172500", "155803.632500", "155804.092500", "155804.552500", "155805.012500", "155805.472500", "155805.932500", "155806.392500", "155806.852500", "155807.312500", "155807.772500", "155808.232500", "155808.692500", "155809.152500", "155809.612500", "155810.072500", "155810.532500", "155810.992500", "155811.452500", "155811.912500", "155812.372500", "155812.832500", "155813.292500", "155813.752500", "155814.212500", "155814.672500", "155815.132500", "155815.592500", "155816.052500", "155816.512500", "155816.972500", "155817.432500", "155817.892500", "155818.352500", "155818.812500", "155819.272500", "155819.732500", "155820.192500", "155820.652500", "155821.112500", "155821.572500", "155822.032500", "155822.492500", "155822.952500", "155823.412500", "155823.872500", "155824.332500", "155824.792500", "155825.252500", "155825.712500", "155826.172500", "155826.632500", "155827.092500", "155827.552500", "155828.012500", "155828.472500", "155828.932500", "155829.392500", "155829.852500", "155830.312500", "155830.772500", "155831.232500", "155831.692500", "155832.152500", "155832.612500", "155833.072500", "155833.532500", "155833.992500", "155834.452500", "155834.912500", "155835.372500", "155835.832500", "155836.292500", "155836.752500", "155837.212500", "155837.672500", "155838.132500", "155838.592500", "155839.052500", "155839.512500", "155839.972500", "155840.432500", "155840.892500", "155841.352500", "155841.812500", "155842.272500", "155842.732500", "155843.192500", "155843.652500", "155844.112500", "155844.572500", "155845.032500", "155845.492500", "155845.952500", "155846.412500", "155846.872500", "155847.332500", "155847.792500", "155848.252500", "155848.712500", "155849.172500", "155849.632500", "155850.092500", "155850.552500", "155851.012500", "155851.472500", "155851.932500", "155852.392500", "155852.852500", "155853.312500", "155853.772500", "155854.232500", "155854.692500", "155855.152500", "155855.612500", "155856.072500", "155856.532500", "155856.992500", "155857.452500", "155857.912500", "155858.372500", "155858.832500", "155859.292500", "155859.752500", "155900.212500", "155900.672500", "155901.132500", "155901.592500", "155902.052500", "155902.512500", "155902.972500", "155903.432500", "155903.892500", "155904.352500", "155904.812500", "155905.272500", "155905.732500", "155906.192500", "155906.652500", "155907.112500"],
