{
  "AcquisitionMatrixPE": 82,
  "AcquisitionNumber": 1,
  "AcquisitionTime": "19:21:33.330000",
  "BandwidthPerPixelPhaseEncode": 24.888,
  "BaseResolution": 82,
  "BodyPartExamined": "BRAIN",
  "ConsistencyInfo": "N4_VE11E_LATEST_20181129",
  "ConversionSoftware": "dcm2niix",
  "ConversionSoftwareVersion": "v1.0.20201102",
  "DerivedVendorReportedEchoSpacing": 0.00049,
  "DeviceSerialNumber": "66112",
  "DwellTime": 2e-06,
  "EchoTime": 0.0272,
  "EchoTrainLength": 82,
  "EffectiveEchoSpacing": 0.00049,
  "FlipAngle": 44,
  "ImageComments": "Unaliased MB8/PE3",
  "ImageOrientationPatientDICOM": [0.999221, -0.0110893, 0.0378745, 0.0137782, 0.997346, -0.0714895],
  "ImageType": [
    "ORIGINAL",
    "PRIMARY",
    "M",
    "MB",
    "ND",
    "NORM",
    "MOSAIC"
],
  "ImagingFrequency": 123.252,
  "InPlanePhaseEncodingDirectionDICOM": "COL",
  "InstitutionAddress": "Maynard 3,Hanover,NH,US,03755",
  "InstitutionName": "Dartmouth College - PBS",
  "InstitutionalDepartmentName": "Department",
  "MRAcquisitionType": "2D",
  "MagneticFieldStrength": 3,
  "Manufacturer": "Siemens",
  "ManufacturersModelName": "Prisma",
  "Modality": "MR",
  "MultibandAccelerationFactor": 8,
  "PartialFourier": 1,
  "PatientPosition": "HFS",
  "PercentPhaseFOV": 100,
  "PercentSampling": 100,
  "PhaseEncodingDirection": "j-",
  "PhaseEncodingSteps": 82,
  "PhaseResolution": 1,
  "PixelBandwidth": 3050,
  "ProcedureStepDescription": "Wager_Wager^1076_spacetop",
  "ProtocolName": "func_run-02_task-social_acq-ap-mb8",
  "PulseSequenceDetails": "%CustomerSeq%\\cmrr_mbep2d_bold",
  "ReceiveCoilActiveElements": "HEA;HEP",
  "ReceiveCoilName": "Head_32",
  "ReconMatrixPE": 82,
  "RepetitionTime": 0.46,
  "SAR": 0.104278,
  "ScanOptions": "FS",
  "ScanningSequence": "EP",
  "SequenceName": "epfid2d1_82",
  "SequenceVariant": "SK\\SS",
  "SeriesDescription": "func_run-02_task-social_acq-ap-mb8",
  "SeriesNumber": 14,
  "ShimSetting": [4195, -7700, -7250, 553, 62, -177, -75, 43],
  "SliceThickness": 2.7,
  "SliceTiming": [0, 0.25, 0.0625, 0.3125, 0.125, 0.375, 0.1875, 0, 0.25, 0.0625, 0.3125, 0.125, 0.375, 0.1875, 0, 0.25, 0.0625, 0.3125, 0.125, 0.375, 0.1875, 0, 0.25, 0.0625, 0.3125, 0.125, 0.375, 0.1875, 0, 0.25, 0.0625, 0.3125, 0.125, 0.375, 0.1875, 0, 0.25, 0.0625, 0.3125, 0.125, 0.375, 0.1875, 0, 0.25, 0.0625, 0.3125, 0.125, 0.375, 0.1875, 0, 0.25, 0.0625, 0.3125, 0.125, 0.375, 0.1875],
  "SoftwareVersions": "syngo MR E11",
  "SpacingBetweenSlices": 2.7,
  "StationName": "AWP66112",
  "TaskName": "social",
  "TotalReadoutTime": 0.03969,
  "TxRefAmp": 265.197,
  "WipMemBlock": "1a99fc1e-ed1a-41fb-bdcf-a56890c0a9a6||Sequence: R016 ve11e/master r/434b28f1; Aug  7 2019 18:53:46 by eja",
  "dcmmeta_affine": [
    [-2.6808369159698486, 0.03696594759821892, 0.09984917938709259, 107.17920684814453],
    [0.029751742258667946, 2.675806999206543, -0.1942802369594574, -88.2806396484375],
    [0.10161439329385757, 0.19180108606815338, 2.6911494731903076, -84.10594940185547],
    [0.0, 0.0, 0.0, 1.0]
],
  "dcmmeta_reorient_transform": [
    [0.0, -1.0, 0.0, 81.0],
    [1.0, 0.0, 0.0, 0.0],
    [0.0, 0.0, 1.0, 0.0],
    [0.0, 0.0, 0.0, 1.0]
],
  "dcmmeta_shape": [82, 82, 56, 872],
  "dcmmeta_slice_dim": 2,
  "dcmmeta_version": 0.6,
  "global": {
    "const": {
      "AccessionNumber": "A003892",
      "AcquisitionMatrix": [82, 0, 0, 82],
      "AngioFlag": "N",
      "BitsAllocated": 16,
      "BitsStored": 16,
      "BodyPartExamined": "BRAIN",
      "Columns": 656,
      "EchoNumbers": 1,
      "EchoTime": 27.2,
      "EchoTrainLength": 82,
      "FlipAngle": 44.0,
      "HighBit": 15,
      "ImageOrientationPatient": [0.99922097322701, -0.0110892857828, 0.0378744558257, 0.01377821608987, 0.99734618526009, -0.0714894922945],
      "ImagePositionPatient": [-890.18284360949, -887.87755257491, -42.686482656271],
      "ImageType": [
        "ORIGINAL",
        "PRIMARY",
        "M",
        "MB",
        "ND",
        "NORM",
        "MOSAIC"
],
      "ImagedNucleus": "1H",
      "ImagingFrequency": 123.252183,
      "InPlanePhaseEncodingDirection": "COL",
      "MRAcquisitionType": "2D",
      "MagneticFieldStrength": 3.0,
      "Manufacturer": "SIEMENS",
      "ManufacturerModelName": "Prisma",
      "Modality": "MR",
      "NumberOfAverages": 1.0,
      "NumberOfPhaseEncodingSteps": 82,
      "PercentPhaseFieldOfView": 100.0,
      "PercentSampling": 100.0,
      "PerformedProcedureStepStartTime": "185032.760000",
      "PhotometricInterpretation": "MONOCHROME2",
      "PixelBandwidth": 3050.0,
      "PixelRepresentation": 0,
      "PixelSpacing": [2.6829268932343, 2.6829268932343],
      "ProtocolName": "func_run-02_task-social_acq-ap-mb8",
      "RepetitionTime": 460.0,
      "Rows": 656,
      "SAR": 0.10427811521165,
      "SamplesPerPixel": 1,
      "ScanOptions": "FS",
      "ScanningSequence": "EP",
      "SequenceName": "epfid2d1_82",
      "SequenceVariant": [
        "SK",
        "SS"
],
      "SeriesDescription": "func_run-02_task-social_acq-ap-mb8",
      "SeriesNumber": 14,
      "SeriesTime": "192155.361000",
      "SliceLocation": -73.514347858801,
      "SliceThickness": 2.7000000476837,
      "SmallestImagePixelValue": 0,
      "SoftwareVersions": "syngo MR E11",
      "SpacingBetweenSlices": 2.7000000421973,
      "SpecificCharacterSet": "ISO_IR 100",
      "StudyID": "1",
      "StudyTime": "185032.695000",
      "TransmitCoilName": "Body",
      "VariableFlipAngleFlag": "N",
      "WindowCenterWidthExplanation": "Algo1"
    },
    "slices": {}
  },
  "time": {
    "samples": {
      "AcquisitionNumber": [1, 2, 3, 4, 5, 6, 7, 8, 9, 10, 11, 12, 13, 14, 15, 16, 17, 18, 19, 20, 21, 22, 23, 24, 25, 26, 27, 28, 29, 30, 31, 32, 33, 34, 35, 36, 37, 38, 39, 40, 41, 42, 43, 44, 45, 46, 47, 48, 49, 50, 51, 52, 53, 54, 55, 56, 57, 58, 59, 60, 61, 62, 63, 64, 65, 66, 67, 68, 69, 70, 71, 72, 73, 74, 75, 76, 77, 78, 79, 80, 81, 82, 83, 84, 85, 86, 87, 88, 89, 90, 91, 92, 93, 94, 95, 96, 97, 98, 99, 100, 101, 102, 103, 104, 105, 106, 107, 108, 109, 110, 111, 112, 113, 114, 115, 116, 117, 118, 119, 120, 121, 122, 123, 124, 125, 126, 127, 128, 129, 130, 131, 132, 133, 134, 135, 136, 137, 138, 139, 140, 141, 142, 143, 144, 145, 146, 147, 148, 149, 150, 151, 152, 153, 154, 155, 156, 157, 158, 159, 160, 161, 162, 163, 164, 165, 166, 167, 168, 169, 170, 171, 172, 173, 174, 175, 176, 177, 178, 179, 180, 181, 182, 183, 184, 185, 186, 187, 188, 189, 190, 191, 192, 193, 194, 195, 196, 197, 198, 199, 200, 201, 202, 203, 204, 205, 206, 207, 208, 209, 210, 211, 212, 213, 214, 215, 216, 217, 218, 219, 220, 221, 222, 223, 224, 225, 226, 227, 228, 229, 230, 231, 232, 233, 234, 235, 236, 237, 238, 239, 240, 241, 242, 243, 244, 245, 246, 247, 248, 249, 250, 251, 252, 253, 254, 255, 256, 257, 258, 259, 260, 261, 262, 263, 264, 265, 266, 267, 268, 269, 270, 271, 272, 273, 274, 275, 276, 277, 278, 279, 280, 281, 282, 283, 284, 285, 286, 287, 288, 289, 290, 291, 292, 293, 294, 295, 296, 297, 298, 299, 300, 301, 302, 303, 304, 305, 306, 307, 308, 309, 310, 311, 312, 313, 314, 315, 316, 317, 318, 319, 320, 321, 322, 323, 324, 325, 326, 327, 328, 329, 330, 331, 332, 333, 334, 335, 336, 337, 338, 339, 340, 341, 342, 343, 344, 345, 346, 347, 348, 349, 350, 351, 352, 353, 354, 355, 356, 357, 358, 359, 360, 361, 362, 363, 364, 365, 366, 367, 368, 369, 370, 371, 372, 373, 374, 375, 376, 377, 378, 379, 380, 381, 382, 383, 384, 385, 386, 387, 388, 389, 390, 391, 392, 393, 394, 395, 396, 397, 398, 399, 400, 401, 402, 403, 404, 405, 406, 407, 408, 409, 410, 411, 412, 413, 414, 415, 416, 417, 418, 419, 420, 421, 422, 423, 424, 425, 426, 427, 428, 429, 430, 431, 432, 433, 434, 435, 436, 437, 438, 439, 440, 441, 442, 443, 444, 445, 446, 447, 448, 449, 450, 451, 452, 453, 454, 455, 456, 457, 458, 459, 460, 461, 462, 463, 464, 465, 466, 467, 468, 469, 470, 471, 472, 473, 474, 475, 476, 477, 478, 479, 480, 481, 482, 483, 484, 485, 486, 487, 488, 489, 490, 491, 492, 493, 494, 495, 496, 497, 498, 499, 500, 501, 502, 503, 504, 505, 506, 507, 508, 509, 510, 511, 512, 513, 514, 515, 516, 517, 518, 519, 520, 521, 522, 523, 524, 525, 526, 527, 528, 529, 530, 531, 532, 533, 534, 535, 536, 537, 538, 539, 540, 541, 542, 543, 544, 545, 546, 547, 548, 549, 550, 551, 552, 553, 554, 555, 556, 557, 558, 559, 560, 561, 562, 563, 564, 565, 566, 567, 568, 569, 570, 571, 572, 573, 574, 575, 576, 577, 578, 579, 580, 581, 582, 583, 584, 585, 586, 587, 588, 589, 590, 591, 592, 593, 594, 595, 596, 597, 598, 599, 600, 601, 602, 603, 604, 605, 606, 607, 608, 609, 610, 611, 612, 613, 614, 615, 616, 617, 618, 619, 620, 621, 622, 623, 624, 625, 626, 627, 628, 629, 630, 631, 632, 633, 634, 635, 636, 637, 638, 639, 640, 641, 642, 643, 644, 645, 646, 647, 648, 649, 650, 651, 652, 653, 654, 655, 656, 657, 658, 659, 660, 661, 662, 663, 664, 665, 666, 667, 668, 669, 670, 671, 672, 673, 674, 675, 676, 677, 678, 679, 680, 681, 682, 683, 684, 685, 686, 687, 688, 689, 690, 691, 692, 693, 694, 695, 696, 697, 698, 699, 700, 701, 702, 703, 704, 705, 706, 707, 708, 709, 710, 711, 712, 713, 714, 715, 716, 717, 718, 719, 720, 721, 722, 723, 724, 725, 726, 727, 728, 729, 730, 731, 732, 733, 734, 735, 736, 737, 738, 739, 740, 741, 742, 743, 744, 745, 746, 747, 748, 749, 750, 751, 752, 753, 754, 755, 756, 757, 758, 759, 760, 761, 762, 763, 764, 765, 766, 767, 768, 769, 770, 771, 772, 773, 774, 775, 776, 777, 778, 779, 780, 781, 782, 783, 784, 785, 786, 787, 788, 789, 790, 791, 792, 793, 794, 795, 796, 797, 798, 799, 800, 801, 802, 803, 804, 805, 806, 807, 808, 809, 810, 811, 812, 813, 814, 815, 816, 817, 818, 819, 820, 821, 822, 823, 824, 825, 826, 827, 828, 829, 830, 831, 832, 833, 834, 835, 836, 837, 838, 839, 840, 841, 842, 843, 844, 845, 846, 847, 848, 849, 850, 851, 852, 853, 854, 855, 856, 857, 858, 859, 860, 861, 862, 863, 864, 865, 866, 867, 868, 869, 870, 871, 872],
      "AcquisitionTime": ["192133.330000", "192133.790000", "192134.250000", "192134.710000", "192135.170000", "192135.630000", "192136.090000", "192136.550000", "192137.010000", "192137.470000", "192137.930000", "192138.390000", "192138.850000", "192139.310000", "192139.770000", "192140.230000", "192140.690000", "192141.150000", "192141.610000", "192142.070000", "192142.530000", "192142.990000", "192143.450000", "192143.910000", "192144.370000", "192144.830000", "192145.290000", "192145.750000", "192146.210000", "192146.670000", "192147.130000", "192147.590000", "192148.050000", "192148.510000", "192148.970000", "192149.430000", "192149.890000", "192150.350000", "192150.810000", "192151.270000", "192151.730000", "192152.190000", "192152.650000", "192153.110000", "192153.570000", "192154.030000", "192154.490000", "192154.950000", "192155.410000", "192155.870000", "192156.330000", "192156.790000", "192157.250000", "192157.710000", "192158.170000", "192158.630000", "192159.090000", "192159.550000", "192200.010000", "192200.470000", "192200.930000", "192201.390000", "192201.850000", "192202.310000", "192202.770000", "192203.230000", "192203.690000", "192204.150000", "192204.610000", "192205.070000", "192205.530000", "192205.990000", "192206.450000", "192206.910000", "192207.370000", "192207.830000", "192208.290000", "192208.750000", "192209.210000", "192209.670000", "192210.130000", "192210.590000", "192211.050000", "192211.510000", "192211.970000", "192212.430000", "192212.890000", "192213.350000", "192213.810000", "192214.270000", "192214.730000", "192215.190000", "192215.650000", "192216.110000", "192216.570000", "192217.030000", "192217.490000", "192217.950000", "192218.410000", "192218.870000", "192219.330000", "192219.790000", "192220.250000", "192220.710000", "192221.170000", "192221.630000", "192222.090000", "192222.550000", "192223.010000", "192223.470000", "192223.930000", "192224.390000", "192224.850000", "192225.310000", "192225.770000", "192226.230000", "192226.690000", "192227.150000", "192227.610000", "192228.070000", "192228.530000", "192228.990000", "192229.450000", "192229.910000", "192230.370000", "192230.830000", "192231.290000", "192231.750000", "192232.210000", "192232.670000", "192233.130000", "192233.590000", "192234.050000", "192234.510000", "192234.970000", "192235.430000", "192235.890000", "192236.350000", "192236.810000", "192237.270000", "192237.730000", "192238.190000", "192238.650000", "192239.110000", "192239.570000", "192240.030000", "192240.490000", "192240.950000", "192241.410000", "192241.870000", "192242.330000", "192242.790000", "192243.250000", "192243.710000", "192244.170000", "192244.630000", "192245.090000", "192245.550000", "192246.010000", "192246.470000", "192246.930000", "192247.390000", "192247.850000", "192248.310000", "192248.770000", "192249.230000", "192249.690000", "192250.150000", "192250.610000", "192251.070000", "192251.530000", "192251.990000", "192252.450000", "192252.910000", "192253.370000", "192253.830000", "192254.290000", "192254.750000", "192255.210000", "192255.670000", "192256.130000", "192256.590000", "192257.050000", "192257.510000", "192257.970000", "192258.430000", "192258.890000", "192259.350000", "192259.810000", "192300.270000", "192300.730000", "192301.190000", "192301.650000", "192302.110000", "192302.570000", "192303.030000", "192303.490000", "192303.950000", "192304.410000", "192304.870000", "192305.330000", "192305.790000", "192306.250000", "192306.710000", "192307.170000", "192307.630000", "192308.090000", "192308.550000", "192309.010000", "192309.470000", "192309.930000", "192310.390000", "192310.850000", "192311.310000", "192311.770000", "192312.230000", "192312.690000", "192313.150000", "192313.610000", "192314.070000", "192314.530000", "192314.990000", "192315.450000", "192315.910000", "192316.370000", "192316.830000", "192317.290000", "192317.750000", "192318.210000", "192318.670000", "192319.130000", "192319.590000", "192320.050000", "192320.510000", "192320.970000", "192321.430000", "192321.890000", "192322.350000", "192322.810000", "192323.270000", "192323.730000", "192324.190000", "192324.650000", "192325.110000", "192325.570000", "192326.030000", "192326.490000", "192326.950000", "192327.410000", "192327.870000", "192328.330000", "192328.790000", "192329.250000", "192329.710000", "192330.170000", "192330.630000", "192331.090000", "192331.550000", "192332.010000", "192332.470000", "192332.930000", "192333.390000", "192333.850000", "192334.310000", "192334.770000", "192335.230000", "192335.690000", "192336.150000", "192336.610000", "192337.070000", "192337.530000", "192337.990000", "192338.450000", "192338.910000", "192339.370000", "192339.830000", "192340.290000", "192340.750000", "192341.210000", "192341.670000", "192342.130000", "192342.590000", "192343.050000", "192343.510000", "192343.970000", "192344.430000", "192344.890000", "192345.350000", "192345.810000", "192346.270000", "192346.730000", "192347.190000", "192347.650000", "192348.110000", "192348.570000", "192349.030000", "192349.490000", "192349.950000", "192350.410000", "192350.870000", "192351.330000", "192351.790000", "192352.250000", "192352.710000", "192353.170000", "192353.630000", "192354.090000", "192354.550000", "192355.010000", "192355.470000", "192355.930000", "192356.390000", "192356.850000", "192357.310000", "192357.770000", "192358.230000", "192358.690000", "192359.150000", "192359.610000", "192400.070000", "192400.530000", "192400.990000", "192401.450000", "192401.910000", "192402.370000", "192402.830000", "192403.290000", "192403.750000", "192404.210000", "192404.670000", "192405.130000", "192405.590000", "192406.050000", "192406.510000", "192406.970000", "192407.430000", "192407.890000", "192408.350000", "192408.810000", "192409.270000", "192409.730000", "192410.190000", "192410.650000", "192411.110000", "192411.570000", "192412.030000", "192412.490000", "192412.950000", "192413.410000", "192413.870000", "192414.330000", "192414.790000", "192415.250000", "192415.710000", "192416.170000", "192416.630000", "192417.090000", "192417.550000", "192418.010000", "192418.470000", "192418.930000", "192419.390000", "192419.850000", "192420.310000", "192420.770000", "192421.230000", "192421.690000", "192422.150000", "192422.610000", "192423.070000", "192423.530000", "192423.990000", "192424.450000", "192424.910000", "192425.370000", "192425.830000", "192426.290000", "192426.750000", "192427.210000", "192427.670000", "192428.130000", "192428.590000", "192429.050000", "192429.510000", "192429.970000", "192430.430000", "192430.890000", "192431.350000", "192431.810000", "192432.270000", "192432.730000", "192433.190000", "192433.650000", "192434.110000", "192434.570000", "192435.030000", "192435.490000", "192435.950000", "192436.410000", "192436.870000", "192437.330000", "192437.790000", "192438.250000", "192438.710000", "192439.170000", "192439.630000", "192440.090000", "192440.550000", "192441.010000", "192441.470000", "192441.930000", "192442.390000", "192442.850000", "192443.310000", "192443.770000", "192444.230000", "192444.690000", "192445.150000", "192445.610000", "192446.070000", "192446.530000", "192446.990000", "192447.450000", "192447.910000", "192448.370000", "192448.830000", "192449.290000", "192449.750000", "192450.210000", "192450.670000", "192451.130000", "192451.590000", "192452.050000", "192452.510000", "192452.970000", "192453.430000", "192453.890000", "192454.350000", "192454.810000", "192455.270000", "192455.730000", "192456.190000", "192456.650000", "192457.110000", "192457.570000", "192458.030000", "192458.490000", "192458.950000", "192459.410000", "192459.870000", "192500.330000", "192500.790000", "192501.250000", "192501.710000", "192502.170000", "192502.630000", "192503.090000", "192503.550000", "192504.010000", "192504.470000", "192504.930000", "192505.390000", "192505.850000", "192506.310000", "192506.770000", "192507.230000", "192507.690000", "192508.150000", "192508.610000", "192509.070000", "192509.530000", "192509.990000", "192510.450000", "192510.910000", "192511.370000", "192511.830000", "192512.290000", "192512.750000", "192513.210000", "192513.670000", "192514.130000", "192514.590000", "192515.050000", "192515.510000", "192515.970000", "192516.430000", "192516.890000", "192517.350000", "192517.810000", "192518.270000", "192518.730000", "192519.190000", "192519.650000", "192520.110000", "192520.570000", "192521.030000", "192521.490000", "192521.950000", "192522.410000", "192522.870000", "192523.330000", "192523.790000", "192524.250000", "192524.710000", "192525.170000", "192525.630000", "192526.090000", "192526.550000", "192527.010000", "192527.470000", "192527.930000", "192528.390000", "192528.850000", "192529.310000", "192529.770000", "192530.230000", "192530.690000", "192531.150000", "192531.610000", "192532.070000", "192532.530000", "192532.990000", "192533.450000", "192533.910000", "192534.370000", "192534.830000", "192535.290000", "192535.750000", "192536.210000", "192536.670000", "192537.130000", "192537.590000", "192538.050000", "192538.510000", "192538.970000", "192539.430000", "192539.890000", "192540.350000", "192540.810000", "192541.270000", "192541.730000", "192542.190000", "192542.650000", "192543.110000", "192543.570000", "192544.030000", "192544.490000", "192544.950000", "192545.410000", "192545.870000", "192546.330000", "192546.790000", "192547.250000", "192547.710000", "192548.170000", "192548.630000", "192549.090000", "192549.550000", "192550.010000", "192550.470000", "192550.930000", "192551.390000", "192551.850000", "192552.310000", "192552.770000", "192553.230000", "192553.690000", "192554.150000", "192554.610000", "192555.070000", "192555.530000", "192555.990000", "192556.450000", "192556.910000", "192557.370000", "192557.830000", "192558.290000", "192558.750000", "192559.210000", "192559.670000", "192600.130000", "192600.590000", "192601.050000", "192601.510000", "192601.970000", "192602.430000", "192602.890000", "192603.350000", "192603.810000", "192604.270000", "192604.730000", "192605.190000", "192605.650000", "192606.110000", "192606.570000", "192607.030000", "192607.490000", "192607.950000", "192608.410000", "192608.870000", "192609.330000", "192609.790000", "192610.250000", "192610.710000", "192611.170000", "192611.630000", "192612.090000", "192612.550000", "192613.010000", "192613.470000", "192613.930000", "192614.390000", "192614.850000", "192615.310000", "192615.770000", "192616.230000", "192616.690000", "192617.150000", "192617.610000", "192618.070000", "192618.530000", "192618.990000", "192619.450000", "192619.910000", "192620.370000", "192620.830000", "192621.290000", "192621.750000", "192622.210000", "192622.670000", "192623.130000", "192623.590000", "192624.050000", "192624.510000", "192624.970000", "192625.430000", "192625.890000", "192626.350000", "192626.810000", "192627.270000", "192627.730000", "192628.190000", "192628.650000", "192629.110000", "192629.570000", "192630.030000", "192630.490000", "192630.950000", "192631.410000", "192631.870000", "192632.330000", "192632.790000", "192633.250000", "192633.710000", "192634.170000", "192634.630000", "192635.090000", "192635.550000", "192636.010000", "192636.470000", "192636.930000", "192637.390000", "192637.850000", "192638.310000", "192638.770000", "192639.230000", "192639.690000", "192640.150000", "192640.610000", "192641.070000", "192641.530000", "192641.990000", "192642.450000", "192642.910000", "192643.370000", "192643.830000", "192644.290000", "192644.750000", "192645.210000", "192645.670000", "192646.130000", "192646.590000", "192647.050000", "192647.510000", "192647.970000", "192648.430000", "192648.890000", "192649.350000", "192649.810000", "192650.270000", "192650.730000", "192651.190000", "192651.650000", "192652.110000", "192652.570000", "192653.030000", "192653.490000", "192653.950000", "192654.410000", "192654.870000", "192655.330000", "192655.790000", "192656.250000", "192656.710000", "192657.170000", "192657.630000", "192658.090000", "192658.550000", "192659.010000", "192659.470000", "192659.930000", "192700.390000", "192700.850000", "192701.310000", "192701.770000", "192702.230000", "192702.690000", "192703.150000", "192703.610000", "192704.070000", "192704.530000", "192704.990000", "192705.450000", "192705.910000", "192706.370000", "192706.830000", "192707.290000", "192707.750000", "192708.210000", "192708.670000", "192709.130000", "192709.590000", "192710.050000", "192710.510000", "192710.970000", "192711.430000", "192711.890000", "192712.350000", "192712.810000", "192713.270000", "192713.730000", "192714.190000", "192714.650000", "192715.110000", "192715.570000", "192716.030000", "192716.490000", "192716.950000", "192717.410000", "192717.870000", "192718.330000", "192718.790000", "192719.250000", "192719.710000", "192720.170000", "192720.630000", "192721.090000", "192721.550000", "192722.010000", "192722.470000", "192722.930000", "192723.390000", "192723.850000", "192724.310000", "192724.770000", "192725.230000", "192725.690000", "192726.150000", "192726.610000", "192727.070000", "192727.530000", "192727.990000", "192728.450000", "192728.910000", "192729.370000", "192729.830000", "192730.290000", "192730.750000", "192731.210000", "192731.670000", "192732.130000", "192732.590000", "192733.050000", "192733.510000", "192733.970000", "192734.430000", "192734.890000", "192735.350000", "192735.810000", "192736.270000", "192736.730000", "192737.190000", "192737.650000", "192738.110000", "192738.570000", "192739.030000", "192739.490000", "192739.950000", "192740.410000", "192740.870000", "192741.330000", "192741.790000", "192742.250000", "192742.710000", "192743.170000", "192743.630000", "192744.090000", "192744.550000", "192745.010000", "192745.470000", "192745.930000", "192746.390000", "192746.850000", "192747.310000", "192747.770000", "192748.230000", "192748.690000", "192749.150000", "192749.610000", "192750.070000", "192750.530000", "192750.990000", "192751.450000", "192751.910000", "192752.370000", "192752.830000", "192753.290000", "192753.750000", "192754.210000", "192754.670000", "192755.130000", "192755.590000", "192756.050000", "192756.510000", "192756.970000", "192757.430000", "192757.890000", "192758.350000", "192758.810000", "192759.270000", "192759.730000", "192800.190000", "192800.650000", "192801.110000", "192801.570000", "192802.030000", "192802.490000", "192802.950000", "192803.410000", "192803.870000", "192804.330000", "192804.790000", "192805.250000", "192805.710000", "192806.170000", "192806.630000", "192807.090000", "192807.550000", "192808.010000", "192808.470000", "192808.930000", "192809.390000", "192809.850000", "192810.310000", "192810.770000", "192811.230000", "192811.690000", "192812.150000", "192812.610000", "192813.070000", "192813.530000", "192813.990000"],
