{
  "AcquisitionMatrixPE": 82,
  "AcquisitionNumber": 1,
  "AcquisitionTime": "19:51:29.192500",
  "BandwidthPerPixelPhaseEncode": 24.888,
  "BaseResolution": 82,
  "BodyPartExamined": "BRAIN",
  "ConsistencyInfo": "N4_VE11E_LATEST_20181129",
  "ConversionSoftware": "dcm2niix",
  "ConversionSoftwareVersion": "v1.0.20201102",
  "DerivedVendorReportedEchoSpacing": 0.00049,
  "DeviceSerialNumber": "66112",
  "DwellTime": 2e-06,
  "EchoTime": 0.0272,
  "EchoTrainLength": 82,
  "EffectiveEchoSpacing": 0.00049,
  "FlipAngle": 44,
  "ImageComments": "Unaliased MB8/PE3",
  "ImageOrientationPatientDICOM": [0.999221, -0.0110893, 0.0378745, 0.0137782, 0.997346, -0.0714895],
  "ImageType": [
    "ORIGINAL",
    "PRIMARY",
    "M",
    "MB",
    "ND",
    "NORM",
    "MOSAIC"
],
  "ImagingFrequency": 123.252,
  "InPlanePhaseEncodingDirectionDICOM": "COL",
  "InstitutionAddress": "Maynard 3,Hanover,NH,US,03755",
  "InstitutionName": "Dartmouth College - PBS",
  "InstitutionalDepartmentName": "Department",
  "MRAcquisitionType": "2D",
  "MagneticFieldStrength": 3,
  "Manufacturer": "Siemens",
  "ManufacturersModelName": "Prisma",
  "Modality": "MR",
  "MultibandAccelerationFactor": 8,
  "PartialFourier": 1,
  "PatientPosition": "HFS",
  "PercentPhaseFOV": 100,
  "PercentSampling": 100,
  "PhaseEncodingDirection": "j-",
  "PhaseEncodingSteps": 82,
  "PhaseResolution": 1,
  "PixelBandwidth": 3050,
  "ProcedureStepDescription": "Wager_Wager^1076_spacetop",
  "ProtocolName": "func_run-06_task-social_acq-ap-mb8",
  "PulseSequenceDetails": "%CustomerSeq%\\cmrr_mbep2d_bold",
  "ReceiveCoilActiveElements": "HEA;HEP",
  "ReceiveCoilName": "Head_32",
  "ReconMatrixPE": 82,
  "RepetitionTime": 0.46,
  "SAR": 0.104278,
  "ScanOptions": "FS",
  "ScanningSequence": "EP",
  "SequenceName": "epfid2d1_82",
  "SequenceVariant": "SK\\SS",
  "SeriesDescription": "func_run-06_task-social_acq-ap-mb8",
  "SeriesNumber": 22,
  "ShimSetting": [4195, -7700, -7250, 553, 62, -177, -75, 43],
  "SliceThickness": 2.7,
  "SliceTiming": [0, 0.25, 0.0625, 0.3125, 0.125, 0.3775, 0.1875, 0, 0.25, 0.0625, 0.3125, 0.125, 0.3775, 0.1875, 0, 0.25, 0.0625, 0.3125, 0.125, 0.3775, 0.1875, 0, 0.25, 0.0625, 0.3125, 0.125, 0.3775, 0.1875, 0, 0.25, 0.0625, 0.3125, 0.125, 0.3775, 0.1875, 0, 0.25, 0.0625, 0.3125, 0.125, 0.3775, 0.1875, 0, 0.25, 0.0625, 0.3125, 0.125, 0.3775, 0.1875, 0, 0.25, 0.0625, 0.3125, 0.125, 0.3775, 0.1875],
  "SoftwareVersions": "syngo MR E11",
  "SpacingBetweenSlices": 2.7,
  "StationName": "AWP66112",
  "TaskName": "social",
  "TotalReadoutTime": 0.03969,
  "TxRefAmp": 265.197,
  "WipMemBlock": "60ff7932-a05f-4001-8509-02c3caf6d2e8||Sequence: R016 ve11e/master r/434b28f1; Aug  7 2019 18:53:46 by eja",
  "dcmmeta_affine": [
    [-2.6808369159698486, 0.03696594759821892, 0.09984917938709259, 107.17920684814453],
    [0.029751742258667946, 2.675806999206543, -0.1942802369594574, -88.2806396484375],
    [0.10161439329385757, 0.19180108606815338, 2.6911494731903076, -84.10594940185547],
    [0.0, 0.0, 0.0, 1.0]
],
  "dcmmeta_reorient_transform": [
    [0.0, -1.0, 0.0, 81.0],
    [1.0, 0.0, 0.0, 0.0],
    [0.0, 0.0, 1.0, 0.0],
    [0.0, 0.0, 0.0, 1.0]
],
  "dcmmeta_shape": [82, 82, 56, 872],
  "dcmmeta_slice_dim": 2,
  "dcmmeta_version": 0.6,
  "global": {
    "const": {
      "AccessionNumber": "A003892",
      "AcquisitionMatrix": [82, 0, 0, 82],
      "AngioFlag": "N",
      "BitsAllocated": 16,
      "BitsStored": 16,
      "BodyPartExamined": "BRAIN",
      "Columns": 656,
      "EchoNumbers": 1,
      "EchoTime": 27.2,
      "EchoTrainLength": 82,
      "FlipAngle": 44.0,
      "HighBit": 15,
      "ImageOrientationPatient": [0.99922097322701, -0.0110892857828, 0.0378744558257, 0.01377821608987, 0.99734618526009, -0.0714894922945],
      "ImagePositionPatient": [-890.18284360949, -887.87755257491, -42.686482656271],
      "ImageType": [
        "ORIGINAL",
        "PRIMARY",
        "M",
        "MB",
        "ND",
        "NORM",
        "MOSAIC"
],
      "ImagedNucleus": "1H",
      "ImagingFrequency": 123.252198,
      "InPlanePhaseEncodingDirection": "COL",
      "MRAcquisitionType": "2D",
      "MagneticFieldStrength": 3.0,
      "Manufacturer": "SIEMENS",
      "ManufacturerModelName": "Prisma",
      "Modality": "MR",
      "NumberOfAverages": 1.0,
      "NumberOfPhaseEncodingSteps": 82,
      "PercentPhaseFieldOfView": 100.0,
      "PercentSampling": 100.0,
      "PerformedProcedureStepStartTime": "185032.760000",
      "PhotometricInterpretation": "MONOCHROME2",
      "PixelBandwidth": 3050.0,
      "PixelRepresentation": 0,
      "PixelSpacing": [2.6829268932343, 2.6829268932343],
      "ProtocolName": "func_run-06_task-social_acq-ap-mb8",
      "RepetitionTime": 460.0,
      "Rows": 656,
      "SAR": 0.10427811521165,
      "SamplesPerPixel": 1,
      "ScanOptions": "FS",
      "ScanningSequence": "EP",
      "SequenceName": "epfid2d1_82",
      "SequenceVariant": [
        "SK",
        "SS"
],
      "SeriesDescription": "func_run-06_task-social_acq-ap-mb8",
      "SeriesNumber": 22,
      "SeriesTime": "195155.446000",
      "SliceLocation": -73.514347858801,
      "SliceThickness": 2.7000000476837,
      "SmallestImagePixelValue": 0,
      "SoftwareVersions": "syngo MR E11",
      "SpacingBetweenSlices": 2.7000000421973,
      "SpecificCharacterSet": "ISO_IR 100",
      "StudyID": "1",
      "StudyTime": "185032.695000",
      "TransmitCoilName": "Body",
      "VariableFlipAngleFlag": "N",
      "WindowCenterWidthExplanation": "Algo1"
    },
    "slices": {}
  },
  "time": {
    "samples": {
      "AcquisitionNumber": [1, 2, 3, 4, 5, 6, 7, 8, 9, 10, 11, 12, 13, 14, 15, 16, 17, 18, 19, 20, 21, 22, 23, 24, 25, 26, 27, 28, 29, 30, 31, 32, 33, 34, 35, 36, 37, 38, 39, 40, 41, 42, 43, 44, 45, 46, 47, 48, 49, 50, 51, 52, 53, 54, 55, 56, 57, 58, 59, 60, 61, 62, 63, 64, 65, 66, 67, 68, 69, 70, 71, 72, 73, 74, 75, 76, 77, 78, 79, 80, 81, 82, 83, 84, 85, 86, 87, 88, 89, 90, 91, 92, 93, 94, 95, 96, 97, 98, 99, 100, 101, 102, 103, 104, 105, 106, 107, 108, 109, 110, 111, 112, 113, 114, 115, 116, 117, 118, 119, 120, 121, 122, 123, 124, 125, 126, 127, 128, 129, 130, 131, 132, 133, 134, 135, 136, 137, 138, 139, 140, 141, 142, 143, 144, 145, 146, 147, 148, 149, 150, 151, 152, 153, 154, 155, 156, 157, 158, 159, 160, 161, 162, 163, 164, 165, 166, 167, 168, 169, 170, 171, 172, 173, 174, 175, 176, 177, 178, 179, 180, 181, 182, 183, 184, 185, 186, 187, 188, 189, 190, 191, 192, 193, 194, 195, 196, 197, 198, 199, 200, 201, 202, 203, 204, 205, 206, 207, 208, 209, 210, 211, 212, 213, 214, 215, 216, 217, 218, 219, 220, 221, 222, 223, 224, 225, 226, 227, 228, 229, 230, 231, 232, 233, 234, 235, 236, 237, 238, 239, 240, 241, 242, 243, 244, 245, 246, 247, 248, 249, 250, 251, 252, 253, 254, 255, 256, 257, 258, 259, 260, 261, 262, 263, 264, 265, 266, 267, 268, 269, 270, 271, 272, 273, 274, 275, 276, 277, 278, 279, 280, 281, 282, 283, 284, 285, 286, 287, 288, 289, 290, 291, 292, 293, 294, 295, 296, 297, 298, 299, 300, 301, 302, 303, 304, 305, 306, 307, 308, 309, 310, 311, 312, 313, 314, 315, 316, 317, 318, 319, 320, 321, 322, 323, 324, 325, 326, 327, 328, 329, 330, 331, 332, 333, 334, 335, 336, 337, 338, 339, 340, 341, 342, 343, 344, 345, 346, 347, 348, 349, 350, 351, 352, 353, 354, 355, 356, 357, 358, 359, 360, 361, 362, 363, 364, 365, 366, 367, 368, 369, 370, 371, 372, 373, 374, 375, 376, 377, 378, 379, 380, 381, 382, 383, 384, 385, 386, 387, 388, 389, 390, 391, 392, 393, 394, 395, 396, 397, 398, 399, 400, 401, 402, 403, 404, 405, 406, 407, 408, 409, 410, 411, 412, 413, 414, 415, 416, 417, 418, 419, 420, 421, 422, 423, 424, 425, 426, 427, 428, 429, 430, 431, 432, 433, 434, 435, 436, 437, 438, 439, 440, 441, 442, 443, 444, 445, 446, 447, 448, 449, 450, 451, 452, 453, 454, 455, 456, 457, 458, 459, 460, 461, 462, 463, 464, 465, 466, 467, 468, 469, 470, 471, 472, 473, 474, 475, 476, 477, 478, 479, 480, 481, 482, 483, 484, 485, 486, 487, 488, 489, 490, 491, 492, 493, 494, 495, 496, 497, 498, 499, 500, 501, 502, 503, 504, 505, 506, 507, 508, 509, 510, 511, 512, 513, 514, 515, 516, 517, 518, 519, 520, 521, 522, 523, 524, 525, 526, 527, 528, 529, 530, 531, 532, 533, 534, 535, 536, 537, 538, 539, 540, 541, 542, 543, 544, 545, 546, 547, 548, 549, 550, 551, 552, 553, 554, 555, 556, 557, 558, 559, 560, 561, 562, 563, 564, 565, 566, 567, 568, 569, 570, 571, 572, 573, 574, 575, 576, 577, 578, 579, 580, 581, 582, 583, 584, 585, 586, 587, 588, 589, 590, 591, 592, 593, 594, 595, 596, 597, 598, 599, 600, 601, 602, 603, 604, 605, 606, 607, 608, 609, 610, 611, 612, 613, 614, 615, 616, 617, 618, 619, 620, 621, 622, 623, 624, 625, 626, 627, 628, 629, 630, 631, 632, 633, 634, 635, 636, 637, 638, 639, 640, 641, 642, 643, 644, 645, 646, 647, 648, 649, 650, 651, 652, 653, 654, 655, 656, 657, 658, 659, 660, 661, 662, 663, 664, 665, 666, 667, 668, 669, 670, 671, 672, 673, 674, 675, 676, 677, 678, 679, 680, 681, 682, 683, 684, 685, 686, 687, 688, 689, 690, 691, 692, 693, 694, 695, 696, 697, 698, 699, 700, 701, 702, 703, 704, 705, 706, 707, 708, 709, 710, 711, 712, 713, 714, 715, 716, 717, 718, 719, 720, 721, 722, 723, 724, 725, 726, 727, 728, 729, 730, 731, 732, 733, 734, 735, 736, 737, 738, 739, 740, 741, 742, 743, 744, 745, 746, 747, 748, 749, 750, 751, 752, 753, 754, 755, 756, 757, 758, 759, 760, 761, 762, 763, 764, 765, 766, 767, 768, 769, 770, 771, 772, 773, 774, 775, 776, 777, 778, 779, 780, 781, 782, 783, 784, 785, 786, 787, 788, 789, 790, 791, 792, 793, 794, 795, 796, 797, 798, 799, 800, 801, 802, 803, 804, 805, 806, 807, 808, 809, 810, 811, 812, 813, 814, 815, 816, 817, 818, 819, 820, 821, 822, 823, 824, 825, 826, 827, 828, 829, 830, 831, 832, 833, 834, 835, 836, 837, 838, 839, 840, 841, 842, 843, 844, 845, 846, 847, 848, 849, 850, 851, 852, 853, 854, 855, 856, 857, 858, 859, 860, 861, 862, 863, 864, 865, 866, 867, 868, 869, 870, 871, 872],
      "AcquisitionTime": ["195129.192500", "195129.652500", "195130.112500", "195130.572500", "195131.032500", "195131.492500", "195131.952500", "195132.412500", "195132.872500", "195133.332500", "195133.792500", "195134.252500", "195134.712500", "195135.172500", "195135.632500", "195136.092500", "195136.552500", "195137.012500", "195137.472500", "195137.932500", "195138.392500", "195138.852500", "195139.312500", "195139.772500", "195140.232500", "195140.692500", "195141.152500", "195141.612500", "195142.072500", "195142.532500", "195142.992500", "195143.452500", "195143.912500", "195144.372500", "195144.832500", "195145.292500", "195145.752500", "195146.212500", "195146.672500", "195147.132500", "195147.592500", "195148.052500", "195148.512500", "195148.972500", "195149.432500", "195149.892500", "195150.352500", "195150.812500", "195151.272500", "195151.732500", "195152.192500", "195152.652500", "195153.112500", "195153.572500", "195154.032500", "195154.492500", "195154.952500", "195155.412500", "195155.872500", "195156.332500", "195156.792500", "195157.252500", "195157.712500", "195158.172500", "195158.632500", "195159.092500", "195159.552500", "195200.012500", "195200.472500", "195200.932500", "195201.392500", "195201.852500", "195202.312500", "195202.772500", "195203.232500", "195203.692500", "195204.152500", "195204.612500", "195205.072500", "195205.532500", "195205.992500", "195206.452500", "195206.912500", "195207.372500", "195207.832500", "195208.292500", "195208.752500", "195209.212500", "195209.672500", "195210.132500", "195210.592500", "195211.052500", "195211.512500", "195211.972500", "195212.432500", "195212.892500", "195213.352500", "195213.812500", "195214.272500", "195214.732500", "195215.192500", "195215.652500", "195216.112500", "195216.572500", "195217.032500", "195217.492500", "195217.952500", "195218.412500", "195218.872500", "195219.332500", "195219.792500", "195220.252500", "195220.712500", "195221.172500", "195221.632500", "195222.092500", "195222.552500", "195223.012500", "195223.472500", "195223.932500", "195224.392500", "195224.852500", "195225.312500", "195225.772500", "195226.232500", "195226.692500", "195227.152500", "195227.612500", "195228.072500", "195228.532500", "195228.992500", "195229.452500", "195229.912500", "195230.372500", "195230.832500", "195231.292500", "195231.752500", "195232.212500", "195232.672500", "195233.132500", "195233.592500", "195234.052500", "195234.512500", "195234.972500", "195235.432500", "195235.892500", "195236.352500", "195236.812500", "195237.272500", "195237.732500", "195238.192500", "195238.652500", "195239.112500", "195239.572500", "195240.032500", "195240.492500", "195240.952500", "195241.412500", "195241.872500", "195242.332500", "195242.792500", "195243.252500", "195243.712500", "195244.172500", "195244.632500", "195245.092500", "195245.552500", "195246.012500", "195246.472500", "195246.932500", "195247.392500", "195247.852500", "195248.312500", "195248.772500", "195249.232500", "195249.692500", "195250.152500", "195250.612500", "195251.072500", "195251.532500", "195251.992500", "195252.452500", "195252.912500", "195253.372500", "195253.832500", "195254.292500", "195254.752500", "195255.212500", "195255.672500", "195256.132500", "195256.592500", "195257.052500", "195257.512500", "195257.972500", "195258.432500", "195258.892500", "195259.352500", "195259.812500", "195300.272500", "195300.732500", "195301.192500", "195301.652500", "195302.112500", "195302.572500", "195303.032500", "195303.492500", "195303.952500", "195304.412500", "195304.872500", "195305.332500", "195305.792500", "195306.252500", "195306.712500", "195307.172500", "195307.632500", "195308.092500", "195308.552500", "195309.012500", "195309.472500", "195309.932500", "195310.392500", "195310.852500", "195311.312500", "195311.772500", "195312.232500", "195312.692500", "195313.152500", "195313.612500", "195314.072500", "195314.532500", "195314.992500", "195315.452500", "195315.912500", "195316.372500", "195316.832500", "195317.292500", "195317.752500", "195318.212500", "195318.672500", "195319.132500", "195319.592500", "195320.052500", "195320.512500", "195320.972500", "195321.432500", "195321.892500", "195322.352500", "195322.812500", "195323.272500", "195323.732500", "195324.192500", "195324.652500", "195325.112500", "195325.572500", "195326.032500", "195326.492500", "195326.952500", "195327.412500", "195327.872500", "195328.332500", "195328.792500", "195329.252500", "195329.712500", "195330.172500", "195330.632500", "195331.092500", "195331.552500", "195332.012500", "195332.472500", "195332.932500", "195333.392500", "195333.852500", "195334.312500", "195334.772500", "195335.232500", "195335.692500", "195336.152500", "195336.612500", "195337.072500", "195337.532500", "195337.992500", "195338.452500", "195338.912500", "195339.372500", "195339.832500", "195340.292500", "195340.752500", "195341.212500", "195341.672500", "195342.132500", "195342.592500", "195343.052500", "195343.512500", "195343.972500", "195344.432500", "195344.892500", "195345.352500", "195345.812500", "195346.272500", "195346.732500", "195347.192500", "195347.652500", "195348.112500", "195348.572500", "195349.032500", "195349.492500", "195349.952500", "195350.412500", "195350.872500", "195351.332500", "195351.792500", "195352.252500", "195352.712500", "195353.172500", "195353.632500", "195354.092500", "195354.552500", "195355.012500", "195355.472500", "195355.932500", "195356.392500", "195356.852500", "195357.312500", "195357.772500", "195358.232500", "195358.692500", "195359.152500", "195359.612500", "195400.072500", "195400.532500", "195400.992500", "195401.452500", "195401.912500", "195402.372500", "195402.832500", "195403.292500", "195403.752500", "195404.212500", "195404.672500", "195405.132500", "195405.592500", "195406.052500", "195406.512500", "195406.972500", "195407.432500", "195407.892500", "195408.352500", "195408.812500", "195409.272500", "195409.732500", "195410.192500", "195410.652500", "195411.112500", "195411.572500", "195412.032500", "195412.492500", "195412.952500", "195413.412500", "195413.872500", "195414.332500", "195414.792500", "195415.252500", "195415.712500", "195416.172500", "195416.632500", "195417.092500", "195417.552500", "195418.012500", "195418.472500", "195418.932500", "195419.392500", "195419.852500", "195420.312500", "195420.772500", "195421.232500", "195421.692500", "195422.152500", "195422.612500", "195423.072500", "195423.532500", "195423.992500", "195424.452500", "195424.912500", "195425.372500", "195425.832500", "195426.292500", "195426.752500", "195427.212500", "195427.672500", "195428.132500", "195428.592500", "195429.052500", "195429.512500", "195429.972500", "195430.432500", "195430.892500", "195431.352500", "195431.812500", "195432.272500", "195432.732500", "195433.192500", "195433.652500", "195434.112500", "195434.572500", "195435.032500", "195435.492500", "195435.952500", "195436.412500", "195436.872500", "195437.332500", "195437.792500", "195438.252500", "195438.712500", "195439.172500", "195439.632500", "195440.092500", "195440.552500", "195441.012500", "195441.472500", "195441.932500", "195442.392500", "195442.852500", "195443.312500", "195443.772500", "195444.232500", "195444.692500", "195445.152500", "195445.612500", "195446.072500", "195446.532500", "195446.992500", "195447.452500", "195447.912500", "195448.372500", "195448.832500", "195449.292500", "195449.752500", "195450.212500", "195450.672500", "195451.132500", "195451.592500", "195452.052500", "195452.512500", "195452.972500", "195453.432500", "195453.892500", "195454.352500", "195454.812500", "195455.272500", "195455.732500", "195456.192500", "195456.652500", "195457.112500", "195457.572500", "195458.032500", "195458.492500", "195458.952500", "195459.412500", "195459.872500", "195500.332500", "195500.792500", "195501.252500", "195501.712500", "195502.172500", "195502.632500", "195503.092500", "195503.552500", "195504.012500", "195504.472500", "195504.932500", "195505.392500", "195505.852500", "195506.312500", "195506.772500", "195507.232500", "195507.692500", "195508.152500", "195508.612500", "195509.072500", "195509.532500", "195509.992500", "195510.452500", "195510.912500", "195511.372500", "195511.832500", "195512.292500", "195512.752500", "195513.212500", "195513.672500", "195514.132500", "195514.592500", "195515.052500", "195515.512500", "195515.972500", "195516.432500", "195516.892500", "195517.352500", "195517.812500", "195518.272500", "195518.732500", "195519.192500", "195519.652500", "195520.112500", "195520.572500", "195521.032500", "195521.492500", "195521.952500", "195522.412500", "195522.872500", "195523.332500", "195523.792500", "195524.252500", "195524.712500", "195525.172500", "195525.632500", "195526.092500", "195526.552500", "195527.012500", "195527.472500", "195527.932500", "195528.392500", "195528.852500", "195529.312500", "195529.772500", "195530.232500", "195530.692500", "195531.152500", "195531.612500", "195532.072500", "195532.532500", "195532.992500", "195533.452500", "195533.912500", "195534.372500", "195534.832500", "195535.292500", "195535.752500", "195536.212500", "195536.672500", "195537.132500", "195537.592500", "195538.052500", "195538.512500", "195538.972500", "195539.432500", "195539.892500", "195540.352500", "195540.812500", "195541.272500", "195541.732500", "195542.192500", "195542.652500", "195543.112500", "195543.572500", "195544.032500", "195544.492500", "195544.952500", "195545.412500", "195545.872500", "195546.332500", "195546.792500", "195547.252500", "195547.712500", "195548.172500", "195548.632500", "195549.092500", "195549.552500", "195550.012500", "195550.472500", "195550.932500", "195551.392500", "195551.852500", "195552.312500", "195552.772500", "195553.232500", "195553.692500", "195554.152500", "195554.612500", "195555.072500", "195555.532500", "195555.992500", "195556.452500", "195556.912500", "195557.372500", "195557.832500", "195558.292500", "195558.752500", "195559.212500", "195559.672500", "195600.132500", "195600.592500", "195601.052500", "195601.512500", "195601.972500", "195602.432500", "195602.892500", "195603.352500", "195603.812500", "195604.272500", "195604.732500", "195605.192500", "195605.652500", "195606.112500", "195606.572500", "195607.032500", "195607.492500", "195607.952500", "195608.412500", "195608.872500", "195609.332500", "195609.792500", "195610.252500", "195610.712500", "195611.172500", "195611.632500", "195612.092500", "195612.552500", "195613.012500", "195613.472500", "195613.932500", "195614.392500", "195614.852500", "195615.312500", "195615.772500", "195616.232500", "195616.692500", "195617.152500", "195617.612500", "195618.072500", "195618.532500", "195618.992500", "195619.452500", "195619.912500", "195620.372500", "195620.832500", "195621.292500", "195621.752500", "195622.212500", "195622.672500", "195623.132500", "195623.592500", "195624.052500", "195624.512500", "195624.972500", "195625.432500", "195625.892500", "195626.352500", "195626.812500", "195627.272500", "195627.732500", "195628.192500", "195628.652500", "195629.112500", "195629.572500", "195630.032500", "195630.492500", "195630.952500", "195631.412500", "195631.872500", "195632.332500", "195632.792500", "195633.252500", "195633.712500", "195634.172500", "195634.632500", "195635.092500", "195635.552500", "195636.012500", "195636.472500", "195636.932500", "195637.392500", "195637.852500", "195638.312500", "195638.772500", "195639.232500", "195639.692500", "195640.152500", "195640.612500", "195641.072500", "195641.532500", "195641.992500", "195642.452500", "195642.912500", "195643.372500", "195643.832500", "195644.292500", "195644.752500", "195645.212500", "195645.672500", "195646.132500", "195646.592500", "195647.052500", "195647.512500", "195647.972500", "195648.432500", "195648.892500", "195649.352500", "195649.812500", "195650.272500", "195650.732500", "195651.192500", "195651.652500", "195652.112500", "195652.572500", "195653.032500", "195653.492500", "195653.952500", "195654.412500", "195654.872500", "195655.332500", "195655.792500", "195656.252500", "195656.712500", "195657.172500", "195657.632500", "195658.092500", "195658.552500", "195659.012500", "195659.472500", "195659.932500", "195700.392500", "195700.852500", "195701.312500", "195701.772500", "195702.232500", "195702.692500", "195703.152500", "195703.612500", "195704.072500", "195704.532500", "195704.992500", "195705.452500", "195705.912500", "195706.372500", "195706.832500", "195707.292500", "195707.752500", "195708.212500", "195708.672500", "195709.132500", "195709.592500", "195710.052500", "195710.512500", "195710.972500", "195711.432500", "195711.892500", "195712.352500", "195712.812500", "195713.272500", "195713.732500", "195714.192500", "195714.652500", "195715.112500", "195715.572500", "195716.032500", "195716.492500", "195716.952500", "195717.412500", "195717.872500", "195718.332500", "195718.792500", "195719.252500", "195719.712500", "195720.172500", "195720.632500", "195721.092500", "195721.552500", "195722.012500", "195722.472500", "195722.932500", "195723.392500", "195723.852500", "195724.312500", "195724.772500", "195725.232500", "195725.692500", "195726.152500", "195726.612500", "195727.072500", "195727.532500", "195727.992500", "195728.452500", "195728.912500", "195729.372500", "195729.832500", "195730.292500", "195730.752500", "195731.212500", "195731.672500", "195732.132500", "195732.592500", "195733.052500", "195733.512500", "195733.972500", "195734.432500", "195734.892500", "195735.352500", "195735.812500", "195736.272500", "195736.732500", "195737.192500", "195737.652500", "195738.112500", "195738.572500", "195739.032500", "195739.492500", "195739.952500", "195740.412500", "195740.872500", "195741.332500", "195741.792500", "195742.252500", "195742.712500", "195743.172500", "195743.632500", "195744.092500", "195744.552500", "195745.012500", "195745.472500", "195745.932500", "195746.392500", "195746.852500", "195747.312500", "195747.772500", "195748.232500", "195748.692500", "195749.152500", "195749.612500", "195750.072500", "195750.532500", "195750.992500", "195751.452500", "195751.912500", "195752.372500", "195752.832500", "195753.292500", "195753.752500", "195754.212500", "195754.672500", "195755.132500", "195755.592500", "195756.052500", "195756.512500", "195756.972500", "195757.432500", "195757.892500", "195758.352500", "195758.812500", "195759.272500", "195759.732500", "195800.192500", "195800.652500", "195801.112500", "195801.572500", "195802.032500", "195802.492500", "195802.952500", "195803.412500", "195803.872500", "195804.332500", "195804.792500", "195805.252500", "195805.712500", "195806.172500", "195806.632500", "195807.092500", "195807.552500", "195808.012500", "195808.472500", "195808.932500", "195809.392500", "195809.852500"],
