{
  "AcquisitionMatrixPE": 82,
  "AcquisitionNumber": 1,
  "AcquisitionTime": "19:35:39.280000",
  "BandwidthPerPixelPhaseEncode": 24.888,
  "BaseResolution": 82,
  "BodyPartExamined": "BRAIN",
  "ConsistencyInfo": "N4_VE11E_LATEST_20181129",
  "ConversionSoftware": "dcm2niix",
  "ConversionSoftwareVersion": "v1.0.20201102",
  "DerivedVendorReportedEchoSpacing": 0.00049,
  "DeviceSerialNumber": "66112",
  "DwellTime": 2e-06,
  "EchoTime": 0.0272,
  "EchoTrainLength": 82,
  "EffectiveEchoSpacing": 0.00049,
  "FlipAngle": 44,
  "ImageComments": "Unaliased MB8/PE3",
  "ImageOrientationPatientDICOM": [0.999221, -0.0110893, 0.0378745, 0.0137782, 0.997346, -0.0714895],
  "ImageType": [
    "ORIGINAL",
    "PRIMARY",
    "M",
    "MB",
    "ND",
    "NORM",
    "MOSAIC"
],
  "ImagingFrequency": 123.252,
  "InPlanePhaseEncodingDirectionDICOM": "COL",
  "InstitutionAddress": "Maynard 3,Hanover,NH,US,03755",
  "InstitutionName": "Dartmouth College - PBS",
  "InstitutionalDepartmentName": "Department",
  "MRAcquisitionType": "2D",
  "MagneticFieldStrength": 3,
  "Manufacturer": "Siemens",
  "ManufacturersModelName": "Prisma",
  "Modality": "MR",
  "MultibandAccelerationFactor": 8,
  "PartialFourier": 1,
  "PatientPosition": "HFS",
  "PercentPhaseFOV": 100,
  "PercentSampling": 100,
  "PhaseEncodingDirection": "j-",
  "PhaseEncodingSteps": 82,
  "PhaseResolution": 1,
  "PixelBandwidth": 3050,
  "ProcedureStepDescription": "Wager_Wager^1076_spacetop",
  "ProtocolName": "func_run-04_task-social_acq-ap-mb8",
  "PulseSequenceDetails": "%CustomerSeq%\\cmrr_mbep2d_bold",
  "ReceiveCoilActiveElements": "HEA;HEP",
  "ReceiveCoilName": "Head_32",
  "ReconMatrixPE": 82,
  "RepetitionTime": 0.46,
  "SAR": 0.104278,
  "ScanOptions": "FS",
  "ScanningSequence": "EP",
  "SequenceName": "epfid2d1_82",
  "SequenceVariant": "SK\\SS",
  "SeriesDescription": "func_run-04_task-social_acq-ap-mb8",
  "SeriesNumber": 18,
  "ShimSetting": [4195, -7700, -7250, 553, 62, -177, -75, 43],
  "SliceThickness": 2.7,
  "SliceTiming": [0, 0.2525, 0.065, 0.315, 0.1275, 0.3775, 0.19, 0, 0.2525, 0.065, 0.315, 0.1275, 0.3775, 0.19, 0, 0.2525, 0.065, 0.315, 0.1275, 0.3775, 0.19, 0, 0.2525, 0.065, 0.315, 0.1275, 0.3775, 0.19, 0, 0.2525, 0.065, 0.315, 0.1275, 0.3775, 0.19, 0, 0.2525, 0.065, 0.315, 0.1275, 0.3775, 0.19, 0, 0.2525, 0.065, 0.315, 0.1275, 0.3775, 0.19, 0, 0.2525, 0.065, 0.315, 0.1275, 0.3775, 0.19],
  "SoftwareVersions": "syngo MR E11",
  "SpacingBetweenSlices": 2.7,
  "StationName": "AWP66112",
  "TaskName": "social",
  "TotalReadoutTime": 0.03969,
  "TxRefAmp": 265.197,
  "WipMemBlock": "56350ce5-75b4-49c1-a318-8d28530739c6||Sequence: R016 ve11e/master r/434b28f1; Aug  7 2019 18:53:46 by eja",
  "dcmmeta_affine": [
    [-2.6808369159698486, 0.03696594759821892, 0.09984917938709259, 107.17920684814453],
    [0.029751742258667946, 2.675806999206543, -0.1942802369594574, -88.2806396484375],
    [0.10161439329385757, 0.19180108606815338, 2.6911494731903076, -84.10594940185547],
    [0.0, 0.0, 0.0, 1.0]
],
  "dcmmeta_reorient_transform": [
    [0.0, -1.0, 0.0, 81.0],
    [1.0, 0.0, 0.0, 0.0],
    [0.0, 0.0, 1.0, 0.0],
    [0.0, 0.0, 0.0, 1.0]
],
  "dcmmeta_shape": [82, 82, 56, 872],
  "dcmmeta_slice_dim": 2,
  "dcmmeta_version": 0.6,
  "global": {
    "const": {
      "AccessionNumber": "A003892",
      "AcquisitionMatrix": [82, 0, 0, 82],
      "AngioFlag": "N",
      "BitsAllocated": 16,
      "BitsStored": 16,
      "BodyPartExamined": "BRAIN",
      "Columns": 656,
      "EchoNumbers": 1,
      "EchoTime": 27.2,
      "EchoTrainLength": 82,
      "FlipAngle": 44.0,
      "HighBit": 15,
      "ImageOrientationPatient": [0.99922097322701, -0.0110892857828, 0.0378744558257, 0.01377821608987, 0.99734618526009, -0.0714894922945],
      "ImagePositionPatient": [-890.18284360949, -887.87755257491, -42.686482656271],
      "ImageType": [
        "ORIGINAL",
        "PRIMARY",
        "M",
        "MB",
        "ND",
        "NORM",
        "MOSAIC"
],
      "ImagedNucleus": "1H",
      "ImagingFrequency": 123.252192,
      "InPlanePhaseEncodingDirection": "COL",
      "MRAcquisitionType": "2D",
      "MagneticFieldStrength": 3.0,
      "Manufacturer": "SIEMENS",
      "ManufacturerModelName": "Prisma",
      "Modality": "MR",
      "NumberOfAverages": 1.0,
      "NumberOfPhaseEncodingSteps": 82,
      "PercentPhaseFieldOfView": 100.0,
      "PercentSampling": 100.0,
      "PerformedProcedureStepStartTime": "185032.760000",
      "PhotometricInterpretation": "MONOCHROME2",
      "PixelBandwidth": 3050.0,
      "PixelRepresentation": 0,
      "PixelSpacing": [2.6829268932343, 2.6829268932343],
      "ProtocolName": "func_run-04_task-social_acq-ap-mb8",
      "RepetitionTime": 460.0,
      "Rows": 656,
      "SAR": 0.10427811521165,
      "SamplesPerPixel": 1,
      "ScanOptions": "FS",
      "ScanningSequence": "EP",
      "SequenceName": "epfid2d1_82",
      "SequenceVariant": [
        "SK",
        "SS"
],
      "SeriesDescription": "func_run-04_task-social_acq-ap-mb8",
      "SeriesNumber": 18,
      "SeriesTime": "193555.536000",
      "SliceLocation": -73.514347858801,
      "SliceThickness": 2.7000000476837,
      "SmallestImagePixelValue": 0,
      "SoftwareVersions": "syngo MR E11",
      "SpacingBetweenSlices": 2.7000000421973,
      "SpecificCharacterSet": "ISO_IR 100",
      "StudyID": "1",
      "StudyTime": "185032.695000",
      "TransmitCoilName": "Body",
      "VariableFlipAngleFlag": "N",
      "WindowCenterWidthExplanation": "Algo1"
    },
    "slices": {}
  },
  "time": {
    "samples": {
      "AcquisitionNumber": [1, 2, 3, 4, 5, 6, 7, 8, 9, 10, 11, 12, 13, 14, 15, 16, 17, 18, 19, 20, 21, 22, 23, 24, 25, 26, 27, 28, 29, 30, 31, 32, 33, 34, 35, 36, 37, 38, 39, 40, 41, 42, 43, 44, 45, 46, 47, 48, 49, 50, 51, 52, 53, 54, 55, 56, 57, 58, 59, 60, 61, 62, 63, 64, 65, 66, 67, 68, 69, 70, 71, 72, 73, 74, 75, 76, 77, 78, 79, 80, 81, 82, 83, 84, 85, 86, 87, 88, 89, 90, 91, 92, 93, 94, 95, 96, 97, 98, 99, 100, 101, 102, 103, 104, 105, 106, 107, 108, 109, 110, 111, 112, 113, 114, 115, 116, 117, 118, 119, 120, 121, 122, 123, 124, 125, 126, 127, 128, 129, 130, 131, 132, 133, 134, 135, 136, 137, 138, 139, 140, 141, 142, 143, 144, 145, 146, 147, 148, 149, 150, 151, 152, 153, 154, 155, 156, 157, 158, 159, 160, 161, 162, 163, 164, 165, 166, 167, 168, 169, 170, 171, 172, 173, 174, 175, 176, 177, 178, 179, 180, 181, 182, 183, 184, 185, 186, 187, 188, 189, 190, 191, 192, 193, 194, 195, 196, 197, 198, 199, 200, 201, 202, 203, 204, 205, 206, 207, 208, 209, 210, 211, 212, 213, 214, 215, 216, 217, 218, 219, 220, 221, 222, 223, 224, 225, 226, 227, 228, 229, 230, 231, 232, 233, 234, 235, 236, 237, 238, 239, 240, 241, 242, 243, 244, 245, 246, 247, 248, 249, 250, 251, 252, 253, 254, 255, 256, 257, 258, 259, 260, 261, 262, 263, 264, 265, 266, 267, 268, 269, 270, 271, 272, 273, 274, 275, 276, 277, 278, 279, 280, 281, 282, 283, 284, 285, 286, 287, 288, 289, 290, 291, 292, 293, 294, 295, 296, 297, 298, 299, 300, 301, 302, 303, 304, 305, 306, 307, 308, 309, 310, 311, 312, 313, 314, 315, 316, 317, 318, 319, 320, 321, 322, 323, 324, 325, 326, 327, 328, 329, 330, 331, 332, 333, 334, 335, 336, 337, 338, 339, 340, 341, 342, 343, 344, 345, 346, 347, 348, 349, 350, 351, 352, 353, 354, 355, 356, 357, 358, 359, 360, 361, 362, 363, 364, 365, 366, 367, 368, 369, 370, 371, 372, 373, 374, 375, 376, 377, 378, 379, 380, 381, 382, 383, 384, 385, 386, 387, 388, 389, 390, 391, 392, 393, 394, 395, 396, 397, 398, 399, 400, 401, 402, 403, 404, 405, 406, 407, 408, 409, 410, 411, 412, 413, 414, 415, 416, 417, 418, 419, 420, 421, 422, 423, 424, 425, 426, 427, 428, 429, 430, 431, 432, 433, 434, 435, 436, 437, 438, 439, 440, 441, 442, 443, 444, 445, 446, 447, 448, 449, 450, 451, 452, 453, 454, 455, 456, 457, 458, 459, 460, 461, 462, 463, 464, 465, 466, 467, 468, 469, 470, 471, 472, 473, 474, 475, 476, 477, 478, 479, 480, 481, 482, 483, 484, 485, 486, 487, 488, 489, 490, 491, 492, 493, 494, 495, 496, 497, 498, 499, 500, 501, 502, 503, 504, 505, 506, 507, 508, 509, 510, 511, 512, 513, 514, 515, 516, 517, 518, 519, 520, 521, 522, 523, 524, 525, 526, 527, 528, 529, 530, 531, 532, 533, 534, 535, 536, 537, 538, 539, 540, 541, 542, 543, 544, 545, 546, 547, 548, 549, 550, 551, 552, 553, 554, 555, 556, 557, 558, 559, 560, 561, 562, 563, 564, 565, 566, 567, 568, 569, 570, 571, 572, 573, 574, 575, 576, 577, 578, 579, 580, 581, 582, 583, 584, 585, 586, 587, 588, 589, 590, 591, 592, 593, 594, 595, 596, 597, 598, 599, 600, 601, 602, 603, 604, 605, 606, 607, 608, 609, 610, 611, 612, 613, 614, 615, 616, 617, 618, 619, 620, 621, 622, 623, 624, 625, 626, 627, 628, 629, 630, 631, 632, 633, 634, 635, 636, 637, 638, 639, 640, 641, 642, 643, 644, 645, 646, 647, 648, 649, 650, 651, 652, 653, 654, 655, 656, 657, 658, 659, 660, 661, 662, 663, 664, 665, 666, 667, 668, 669, 670, 671, 672, 673, 674, 675, 676, 677, 678, 679, 680, 681, 682, 683, 684, 685, 686, 687, 688, 689, 690, 691, 692, 693, 694, 695, 696, 697, 698, 699, 700, 701, 702, 703, 704, 705, 706, 707, 708, 709, 710, 711, 712, 713, 714, 715, 716, 717, 718, 719, 720, 721, 722, 723, 724, 725, 726, 727, 728, 729, 730, 731, 732, 733, 734, 735, 736, 737, 738, 739, 740, 741, 742, 743, 744, 745, 746, 747, 748, 749, 750, 751, 752, 753, 754, 755, 756, 757, 758, 759, 760, 761, 762, 763, 764, 765, 766, 767, 768, 769, 770, 771, 772, 773, 774, 775, 776, 777, 778, 779, 780, 781, 782, 783, 784, 785, 786, 787, 788, 789, 790, 791, 792, 793, 794, 795, 796, 797, 798, 799, 800, 801, 802, 803, 804, 805, 806, 807, 808, 809, 810, 811, 812, 813, 814, 815, 816, 817, 818, 819, 820, 821, 822, 823, 824, 825, 826, 827, 828, 829, 830, 831, 832, 833, 834, 835, 836, 837, 838, 839, 840, 841, 842, 843, 844, 845, 846, 847, 848, 849, 850, 851, 852, 853, 854, 855, 856, 857, 858, 859, 860, 861, 862, 863, 864, 865, 866, 867, 868, 869, 870, 871, 872],
      "AcquisitionTime": ["193539.280000", "193539.740000", "193540.200000", "193540.660000", "193541.120000", "193541.580000", "193542.040000", "193542.500000", "193542.960000", "193543.420000", "193543.880000", "193544.340000", "193544.800000", "193545.260000", "193545.720000", "193546.180000", "193546.640000", "193547.100000", "193547.560000", "193548.020000", "193548.480000", "193548.940000", "193549.400000", "193549.860000", "193550.320000", "193550.780000", "193551.240000", "193551.700000", "193552.160000", "193552.620000", "193553.080000", "193553.540000", "193554.000000", "193554.460000", "193554.920000", "193555.380000", "193555.840000", "193556.300000", "193556.760000", "193557.220000", "193557.680000", "193558.140000", "193558.600000", "193559.060000", "193559.520000", "193559.980000", "193600.440000", "193600.900000", "193601.360000", "193601.820000", "193602.280000", "193602.740000", "193603.200000", "193603.660000", "193604.120000", "193604.580000", "193605.040000", "193605.500000", "193605.960000", "193606.420000", "193606.880000", "193607.340000", "193607.800000", "193608.260000", "193608.720000", "193609.180000", "193609.640000", "193610.100000", "193610.560000", "193611.020000", "193611.480000", "193611.940000", "193612.400000", "193612.860000", "193613.320000", "193613.780000", "193614.240000", "193614.700000", "193615.160000", "193615.620000", "193616.080000", "193616.540000", "193617.000000", "193617.460000", "193617.920000", "193618.380000", "193618.840000", "193619.300000", "193619.760000", "193620.220000", "193620.680000", "193621.140000", "193621.600000", "193622.060000", "193622.520000", "193622.980000", "193623.440000", "193623.900000", "193624.360000", "193624.820000", "193625.280000", "193625.740000", "193626.200000", "193626.660000", "193627.120000", "193627.580000", "193628.040000", "193628.500000", "193628.960000", "193629.420000", "193629.880000", "193630.340000", "193630.800000", "193631.260000", "193631.720000", "193632.180000", "193632.640000", "193633.100000", "193633.560000", "193634.020000", "193634.480000", "193634.940000", "193635.400000", "193635.860000", "193636.320000", "193636.780000", "193637.240000", "193637.700000", "193638.160000", "193638.620000", "193639.080000", "193639.540000", "193640.000000", "193640.460000", "193640.920000", "193641.380000", "193641.840000", "193642.300000", "193642.760000", "193643.220000", "193643.680000", "193644.140000", "193644.600000", "193645.060000", "193645.520000", "193645.980000", "193646.440000", "193646.900000", "193647.360000", "193647.820000", "193648.280000", "193648.740000", "193649.200000", "193649.660000", "193650.120000", "193650.580000", "193651.040000", "193651.500000", "193651.960000", "193652.420000", "193652.880000", "193653.340000", "193653.800000", "193654.260000", "193654.720000", "193655.180000", "193655.640000", "193656.100000", "193656.560000", "193657.020000", "193657.480000", "193657.940000", "193658.400000", "193658.860000", "193659.320000", "193659.780000", "193700.240000", "193700.700000", "193701.160000", "193701.620000", "193702.080000", "193702.540000", "193703.000000", "193703.460000", "193703.920000", "193704.380000", "193704.840000", "193705.300000", "193705.760000", "193706.220000", "193706.680000", "193707.140000", "193707.600000", "193708.060000", "193708.520000", "193708.980000", "193709.440000", "193709.900000", "193710.360000", "193710.820000", "193711.280000", "193711.740000", "193712.200000", "193712.660000", "193713.120000", "193713.580000", "193714.040000", "193714.500000", "193714.960000", "193715.420000", "193715.880000", "193716.340000", "193716.800000", "193717.260000", "193717.720000", "193718.180000", "193718.640000", "193719.100000", "193719.560000", "193720.020000", "193720.480000", "193720.940000", "193721.400000", "193721.860000", "193722.320000", "193722.780000", "193723.240000", "193723.700000", "193724.160000", "193724.620000", "193725.080000", "193725.540000", "193726.000000", "193726.460000", "193726.920000", "193727.380000", "193727.840000", "193728.300000", "193728.760000", "193729.220000", "193729.680000", "193730.140000", "193730.600000", "193731.060000", "193731.520000", "193731.980000", "193732.440000", "193732.900000", "193733.360000", "193733.820000", "193734.280000", "193734.740000", "193735.200000", "193735.660000", "193736.120000", "193736.580000", "193737.040000", "193737.500000", "193737.960000", "193738.420000", "193738.880000", "193739.340000", "193739.800000", "193740.260000", "193740.720000", "193741.180000", "193741.640000", "193742.100000", "193742.560000", "193743.020000", "193743.480000", "193743.940000", "193744.400000", "193744.860000", "193745.320000", "193745.780000", "193746.240000", "193746.700000", "193747.160000", "193747.620000", "193748.080000", "193748.540000", "193749.000000", "193749.460000", "193749.920000", "193750.380000", "193750.840000", "193751.300000", "193751.760000", "193752.220000", "193752.680000", "193753.140000", "193753.600000", "193754.060000", "193754.520000", "193754.980000", "193755.440000", "193755.900000", "193756.360000", "193756.820000", "193757.280000", "193757.740000", "193758.200000", "193758.660000", "193759.120000", "193759.580000", "193800.040000", "193800.500000", "193800.960000", "193801.420000", "193801.880000", "193802.340000", "193802.800000", "193803.260000", "193803.720000", "193804.180000", "193804.640000", "193805.100000", "193805.560000", "193806.020000", "193806.480000", "193806.940000", "193807.400000", "193807.860000", "193808.320000", "193808.780000", "193809.240000", "193809.700000", "193810.160000", "193810.620000", "193811.080000", "193811.540000", "193812.000000", "193812.460000", "193812.920000", "193813.380000", "193813.840000", "193814.300000", "193814.760000", "193815.220000", "193815.680000", "193816.140000", "193816.600000", "193817.060000", "193817.520000", "193817.980000", "193818.440000", "193818.900000", "193819.360000", "193819.820000", "193820.280000", "193820.740000", "193821.200000", "193821.660000", "193822.120000", "193822.580000", "193823.040000", "193823.500000", "193823.960000", "193824.420000", "193824.880000", "193825.340000", "193825.800000", "193826.260000", "193826.720000", "193827.180000", "193827.640000", "193828.100000", "193828.560000", "193829.020000", "193829.480000", "193829.940000", "193830.400000", "193830.860000", "193831.320000", "193831.780000", "193832.240000", "193832.700000", "193833.160000", "193833.620000", "193834.080000", "193834.540000", "193835.000000", "193835.460000", "193835.920000", "193836.380000", "193836.840000", "193837.300000", "193837.760000", "193838.220000", "193838.680000", "193839.140000", "193839.600000", "193840.060000", "193840.520000", "193840.980000", "193841.440000", "193841.900000", "193842.360000", "193842.820000", "193843.280000", "193843.740000", "193844.200000", "193844.660000", "193845.120000", "193845.580000", "193846.040000", "193846.500000", "193846.960000", "193847.420000", "193847.880000", "193848.340000", "193848.800000", "193849.260000", "193849.720000", "193850.180000", "193850.640000", "193851.100000", "193851.560000", "193852.020000", "193852.480000", "193852.940000", "193853.400000", "193853.860000", "193854.320000", "193854.780000", "193855.240000", "193855.700000", "193856.160000", "193856.620000", "193857.080000", "193857.540000", "193858.000000", "193858.460000", "193858.920000", "193859.380000", "193859.840000", "193900.300000", "193900.760000", "193901.220000", "193901.680000", "193902.140000", "193902.600000", "193903.060000", "193903.520000", "193903.980000", "193904.440000", "193904.900000", "193905.360000", "193905.820000", "193906.280000", "193906.740000", "193907.200000", "193907.660000", "193908.120000", "193908.580000", "193909.040000", "193909.500000", "193909.960000", "193910.420000", "193910.880000", "193911.340000", "193911.800000", "193912.260000", "193912.720000", "193913.180000", "193913.640000", "193914.100000", "193914.560000", "193915.020000", "193915.480000", "193915.940000", "193916.400000", "193916.860000", "193917.320000", "193917.780000", "193918.240000", "193918.700000", "193919.160000", "193919.620000", "193920.080000", "193920.540000", "193921.000000", "193921.460000", "193921.920000", "193922.380000", "193922.840000", "193923.300000", "193923.760000", "193924.220000", "193924.680000", "193925.140000", "193925.600000", "193926.060000", "193926.520000", "193926.980000", "193927.440000", "193927.900000", "193928.360000", "193928.820000", "193929.280000", "193929.740000", "193930.200000", "193930.660000", "193931.120000", "193931.580000", "193932.040000", "193932.500000", "193932.960000", "193933.420000", "193933.880000", "193934.340000", "193934.800000", "193935.260000", "193935.720000", "193936.180000", "193936.640000", "193937.100000", "193937.560000", "193938.020000", "193938.480000", "193938.940000", "193939.400000", "193939.860000", "193940.320000", "193940.780000", "193941.240000", "193941.700000", "193942.160000", "193942.620000", "193943.080000", "193943.540000", "193944.000000", "193944.460000", "193944.920000", "193945.380000", "193945.840000", "193946.300000", "193946.760000", "193947.220000", "193947.680000", "193948.140000", "193948.600000", "193949.060000", "193949.520000", "193949.980000", "193950.440000", "193950.900000", "193951.360000", "193951.820000", "193952.280000", "193952.740000", "193953.200000", "193953.660000", "193954.120000", "193954.580000", "193955.040000", "193955.500000", "193955.960000", "193956.420000", "193956.880000", "193957.340000", "193957.800000", "193958.260000", "193958.720000", "193959.180000", "193959.640000", "194000.100000", "194000.560000", "194001.020000", "194001.480000", "194001.940000", "194002.400000", "194002.860000", "194003.320000", "194003.780000", "194004.240000", "194004.700000", "194005.160000", "194005.620000", "194006.080000", "194006.540000", "194007.000000", "194007.460000", "194007.920000", "194008.380000", "194008.840000", "194009.300000", "194009.760000", "194010.220000", "194010.680000", "194011.140000", "194011.600000", "194012.060000", "194012.520000", "194012.980000", "194013.440000", "194013.900000", "194014.360000", "194014.820000", "194015.280000", "194015.740000", "194016.200000", "194016.660000", "194017.120000", "194017.580000", "194018.040000", "194018.500000", "194018.960000", "194019.420000", "194019.880000", "194020.340000", "194020.800000", "194021.260000", "194021.720000", "194022.180000", "194022.640000", "194023.100000", "194023.560000", "194024.020000", "194024.480000", "194024.940000", "194025.400000", "194025.860000", "194026.320000", "194026.780000", "194027.240000", "194027.700000", "194028.160000", "194028.620000", "194029.080000", "194029.540000", "194030.000000", "194030.460000", "194030.920000", "194031.380000", "194031.840000", "194032.300000", "194032.760000", "194033.220000", "194033.680000", "194034.140000", "194034.600000", "194035.060000", "194035.520000", "194035.980000", "194036.440000", "194036.900000", "194037.360000", "194037.820000", "194038.280000", "194038.740000", "194039.200000", "194039.660000", "194040.120000", "194040.580000", "194041.040000", "194041.500000", "194041.960000", "194042.420000", "194042.880000", "194043.340000", "194043.800000", "194044.260000", "194044.720000", "194045.180000", "194045.640000", "194046.100000", "194046.560000", "194047.020000", "194047.480000", "194047.940000", "194048.400000", "194048.860000", "194049.320000", "194049.780000", "194050.240000", "194050.700000", "194051.160000", "194051.620000", "194052.080000", "194052.540000", "194053.000000", "194053.460000", "194053.920000", "194054.380000", "194054.840000", "194055.300000", "194055.760000", "194056.220000", "194056.680000", "194057.140000", "194057.600000", "194058.060000", "194058.520000", "194058.980000", "194059.440000", "194059.900000", "194100.360000", "194100.820000", "194101.280000", "194101.740000", "194102.200000", "194102.660000", "194103.120000", "194103.580000", "194104.040000", "194104.500000", "194104.960000", "194105.420000", "194105.880000", "194106.340000", "194106.800000", "194107.260000", "194107.720000", "194108.180000", "194108.640000", "194109.100000", "194109.560000", "194110.020000", "194110.480000", "194110.940000", "194111.400000", "194111.860000", "194112.320000", "194112.780000", "194113.240000", "194113.700000", "194114.160000", "194114.620000", "194115.080000", "194115.540000", "194116.000000", "194116.460000", "194116.920000", "194117.380000", "194117.840000", "194118.300000", "194118.760000", "194119.220000", "194119.680000", "194120.140000", "194120.600000", "194121.060000", "194121.520000", "194121.980000", "194122.440000", "194122.900000", "194123.360000", "194123.820000", "194124.280000", "194124.740000", "194125.200000", "194125.660000", "194126.120000", "194126.580000", "194127.040000", "194127.500000", "194127.960000", "194128.420000", "194128.880000", "194129.340000", "194129.800000", "194130.260000", "194130.720000", "194131.180000", "194131.640000", "194132.100000", "194132.560000", "194133.020000", "194133.480000", "194133.940000", "194134.400000", "194134.860000", "194135.320000", "194135.780000", "194136.240000", "194136.700000", "194137.160000", "194137.620000", "194138.080000", "194138.540000", "194139.000000", "194139.460000", "194139.920000", "194140.380000", "194140.840000", "194141.300000", "194141.760000", "194142.220000", "194142.680000", "194143.140000", "194143.600000", "194144.060000", "194144.520000", "194144.980000", "194145.440000", "194145.900000", "194146.360000", "194146.820000", "194147.280000", "194147.740000", "194148.200000", "194148.660000", "194149.120000", "194149.580000", "194150.040000", "194150.500000", "194150.960000", "194151.420000", "194151.880000", "194152.340000", "194152.800000", "194153.260000", "194153.720000", "194154.180000", "194154.640000", "194155.100000", "194155.560000", "194156.020000", "194156.480000", "194156.940000", "194157.400000", "194157.860000", "194158.320000", "194158.780000", "194159.240000", "194159.700000", "194200.160000", "194200.620000", "194201.080000", "194201.540000", "194202.000000", "194202.460000", "194202.920000", "194203.380000", "194203.840000", "194204.300000", "194204.760000", "194205.220000", "194205.680000", "194206.140000", "194206.600000", "194207.060000", "194207.520000", "194207.980000", "194208.440000", "194208.900000", "194209.360000", "194209.820000", "194210.280000", "194210.740000", "194211.200000", "194211.660000", "194212.120000", "194212.580000", "194213.040000", "194213.500000", "194213.960000", "194214.420000", "194214.880000", "194215.340000", "194215.800000", "194216.260000", "194216.720000", "194217.180000", "194217.640000", "194218.100000", "194218.560000", "194219.020000", "194219.480000", "194219.940000"],
