{
  "AcquisitionMatrixPE": 82,
  "AcquisitionNumber": 1,
  "AcquisitionTime": "20:00:37.322500",
  "BandwidthPerPixelPhaseEncode": 24.888,
  "BaseResolution": 82,
  "BodyPartExamined": "BRAIN",
  "ConsistencyInfo": "N4_VE11E_LATEST_20181129",
  "ConversionSoftware": "dcm2niix",
  "ConversionSoftwareVersion": "v1.0.20201102",
  "DerivedVendorReportedEchoSpacing": 0.00049,
  "DeviceSerialNumber": "66112",
  "DwellTime": 2e-06,
  "EchoTime": 0.0272,
  "EchoTrainLength": 82,
  "EffectiveEchoSpacing": 0.00049,
  "FlipAngle": 44,
  "ImageComments": "Unaliased MB8/PE3",
  "ImageOrientationPatientDICOM": [0.998208, -0.0180438, 0.0570616, 0.0221296, 0.997173, -0.0718009],
  "ImageType": [
    "ORIGINAL",
    "PRIMARY",
    "M",
    "MB",
    "ND",
    "NORM",
    "MOSAIC"
],
  "ImagingFrequency": 123.252,
  "InPlanePhaseEncodingDirectionDICOM": "COL",
  "InstitutionAddress": "Maynard 3,Hanover,NH,US,03755",
  "InstitutionName": "Dartmouth College - PBS",
  "InstitutionalDepartmentName": "Department",
  "MRAcquisitionType": "2D",
  "MagneticFieldStrength": 3,
  "Manufacturer": "Siemens",
  "ManufacturersModelName": "Prisma",
  "Modality": "MR",
  "MultibandAccelerationFactor": 8,
  "PartialFourier": 1,
  "PatientPosition": "HFS",
  "PercentPhaseFOV": 100,
  "PercentSampling": 100,
  "PhaseEncodingDirection": "j-",
  "PhaseEncodingSteps": 82,
  "PhaseResolution": 1,
  "PixelBandwidth": 3050,
  "ProcedureStepDescription": "Wager_Wager^1076_spacetop",
  "ProtocolName": "func_run-01_task-alignvideo_acq-ap-mb8",
  "PulseSequenceDetails": "%CustomerSeq%\\cmrr_mbep2d_bold",
  "ReceiveCoilActiveElements": "HEA;HEP",
  "ReceiveCoilName": "Head_32",
  "ReconMatrixPE": 82,
  "RepetitionTime": 0.46,
  "SAR": 0.1044,
  "ScanOptions": "FS",
  "ScanningSequence": "EP",
  "SequenceName": "epfid2d1_82",
  "SequenceVariant": "SK\\SS",
  "SeriesDescription": "func_run-01_task-alignvideo_acq-ap-mb8",
  "SeriesNumber": 30,
  "ShimSetting": [4195, -7699, -7249, 556, 63, -176, -75, 44],
  "SliceThickness": 2.7,
  "SliceTiming": [0, 0.2525, 0.065, 0.315, 0.1275, 0.3775, 0.19, 0, 0.2525, 0.065, 0.315, 0.1275, 0.3775, 0.19, 0, 0.2525, 0.065, 0.315, 0.1275, 0.3775, 0.19, 0, 0.2525, 0.065, 0.315, 0.1275, 0.3775, 0.19, 0, 0.2525, 0.065, 0.315, 0.1275, 0.3775, 0.19, 0, 0.2525, 0.065, 0.315, 0.1275, 0.3775, 0.19, 0, 0.2525, 0.065, 0.315, 0.1275, 0.3775, 0.19, 0, 0.2525, 0.065, 0.315, 0.1275, 0.3775, 0.19],
  "SoftwareVersions": "syngo MR E11",
  "SpacingBetweenSlices": 2.7,
  "StationName": "AWP66112",
  "TaskName": "alignvideo",
  "TotalReadoutTime": 0.03969,
  "TxRefAmp": 265.197,
  "WipMemBlock": "0f0cf666-b806-41f1-abc6-1e564b5cf48e||Sequence: R016 ve11e/master r/434b28f1; Aug  7 2019 18:53:46 by eja",
  "dcmmeta_affine": [
    [-2.6781179904937744, 0.05937206372618675, 0.15013280510902405, 104.65628814697266],
    [0.0484103299677372, 2.6753435134887695, -0.1969243437051773, -85.7148666381836],
    [0.15309208631515503, 0.19263653457164764, 2.6886208057403564, -85.60945892333984],
    [0.0, 0.0, 0.0, 1.0]
],
  "dcmmeta_reorient_transform": [
    [0.0, -1.0, 0.0, 81.0],
    [1.0, 0.0, 0.0, 0.0],
    [0.0, 0.0, 1.0, 0.0],
    [0.0, 0.0, 0.0, 1.0]
],
  "dcmmeta_shape": [82, 82, 56, 1073],
  "dcmmeta_slice_dim": 2,
  "dcmmeta_version": 0.6,
  "global": {
    "const": {
      "AccessionNumber": "A003892",
      "AcquisitionMatrix": [82, 0, 0, 82],
      "AngioFlag": "N",
      "BitsAllocated": 16,
      "BitsStored": 16,
      "BodyPartExamined": "BRAIN",
      "Columns": 656,
      "EchoNumbers": 1,
      "EchoTime": 27.2,
      "EchoTrainLength": 82,
      "FlipAngle": 44.0,
      "HighBit": 15,
      "ImageOrientationPatient": [0.99820759054488, -0.0180438504181, 0.05706159514665, 0.02212958715974, 0.9971734624217, -0.0718008858863],
      "ImagePositionPatient": [-895.12507459866, -884.91777814175, -58.656643993665],
      "ImageType": [
        "ORIGINAL",
        "PRIMARY",
        "M",
        "MB",
        "ND",
        "NORM",
        "MOSAIC"
],
      "ImagedNucleus": "1H",
      "ImagingFrequency": 123.252196,
      "InPlanePhaseEncodingDirection": "COL",
      "MRAcquisitionType": "2D",
      "MagneticFieldStrength": 3.0,
      "Manufacturer": "SIEMENS",
      "ManufacturerModelName": "Prisma",
      "Modality": "MR",
      "NumberOfAverages": 1.0,
      "NumberOfPhaseEncodingSteps": 82,
      "PercentPhaseFieldOfView": 100.0,
      "PercentSampling": 100.0,
      "PerformedProcedureStepStartTime": "185032.760000",
      "PhotometricInterpretation": "MONOCHROME2",
      "PixelBandwidth": 3050.0,
      "PixelRepresentation": 0,
      "PixelSpacing": [2.6829268932343, 2.6829268932343],
      "ProtocolName": "func_run-01_task-alignvideo_acq-ap-mb8",
      "RepetitionTime": 460.0,
      "Rows": 656,
      "SAR": 0.10439972350578,
      "SamplesPerPixel": 1,
      "ScanOptions": "FS",
      "ScanningSequence": "EP",
      "SequenceName": "epfid2d1_82",
      "SequenceVariant": [
        "SK",
        "SS"
],
      "SeriesDescription": "func_run-01_task-alignvideo_acq-ap-mb8",
      "SeriesNumber": 30,
      "SeriesTime": "200055.530000",
      "SliceLocation": -73.177654451883,
      "SliceThickness": 2.7000000476837,
      "SmallestImagePixelValue": 0,
      "SoftwareVersions": "syngo MR E11",
      "SpacingBetweenSlices": 2.700000048836,
      "SpecificCharacterSet": "ISO_IR 100",
      "StudyID": "1",
      "StudyTime": "185032.695000",
      "TransmitCoilName": "Body",
      "VariableFlipAngleFlag": "N",
      "WindowCenterWidthExplanation": "Algo1"
    },
    "slices": {}
  },
  "time": {
    "samples": {
      "AcquisitionNumber": [1, 2, 3, 4, 5, 6, 7, 8, 9, 10, 11, 12, 13, 14, 15, 16, 17, 18, 19, 20, 21, 22, 23, 24, 25, 26, 27, 28, 29, 30, 31, 32, 33, 34, 35, 36, 37, 38, 39, 40, 41, 42, 43, 44, 45, 46, 47, 48, 49, 50, 51, 52, 53, 54, 55, 56, 57, 58, 59, 60, 61, 62, 63, 64, 65, 66, 67, 68, 69, 70, 71, 72, 73, 74, 75, 76, 77, 78, 79, 80, 81, 82, 83, 84, 85, 86, 87, 88, 89, 90, 91, 92, 93, 94, 95, 96, 97, 98, 99, 100, 101, 102, 103, 104, 105, 106, 107, 108, 109, 110, 111, 112, 113, 114, 115, 116, 117, 118, 119, 120, 121, 122, 123, 124, 125, 126, 127, 128, 129, 130, 131, 132, 133, 134, 135, 136, 137, 138, 139, 140, 141, 142, 143, 144, 145, 146, 147, 148, 149, 150, 151, 152, 153, 154, 155, 156, 157, 158, 159, 160, 161, 162, 163, 164, 165, 166, 167, 168, 169, 170, 171, 172, 173, 174, 175, 176, 177, 178, 179, 180, 181, 182, 183, 184, 185, 186, 187, 188, 189, 190, 191, 192, 193, 194, 195, 196, 197, 198, 199, 200, 201, 202, 203, 204, 205, 206, 207, 208, 209, 210, 211, 212, 213, 214, 215, 216, 217, 218, 219, 220, 221, 222, 223, 224, 225, 226, 227, 228, 229, 230, 231, 232, 233, 234, 235, 236, 237, 238, 239, 240, 241, 242, 243, 244, 245, 246, 247, 248, 249, 250, 251, 252, 253, 254, 255, 256, 257, 258, 259, 260, 261, 262, 263, 264, 265, 266, 267, 268, 269, 270, 271, 272, 273, 274, 275, 276, 277, 278, 279, 280, 281, 282, 283, 284, 285, 286, 287, 288, 289, 290, 291, 292, 293, 294, 295, 296, 297, 298, 299, 300, 301, 302, 303, 304, 305, 306, 307, 308, 309, 310, 311, 312, 313, 314, 315, 316, 317, 318, 319, 320, 321, 322, 323, 324, 325, 326, 327, 328, 329, 330, 331, 332, 333, 334, 335, 336, 337, 338, 339, 340, 341, 342, 343, 344, 345, 346, 347, 348, 349, 350, 351, 352, 353, 354, 355, 356, 357, 358, 359, 360, 361, 362, 363, 364, 365, 366, 367, 368, 369, 370, 371, 372, 373, 374, 375, 376, 377, 378, 379, 380, 381, 382, 383, 384, 385, 386, 387, 388, 389, 390, 391, 392, 393, 394, 395, 396, 397, 398, 399, 400, 401, 402, 403, 404, 405, 406, 407, 408, 409, 410, 411, 412, 413, 414, 415, 416, 417, 418, 419, 420, 421, 422, 423, 424, 425, 426, 427, 428, 429, 430, 431, 432, 433, 434, 435, 436, 437, 438, 439, 440, 441, 442, 443, 444, 445, 446, 447, 448, 449, 450, 451, 452, 453, 454, 455, 456, 457, 458, 459, 460, 461, 462, 463, 464, 465, 466, 467, 468, 469, 470, 471, 472, 473, 474, 475, 476, 477, 478, 479, 480, 481, 482, 483, 484, 485, 486, 487, 488, 489, 490, 491, 492, 493, 494, 495, 496, 497, 498, 499, 500, 501, 502, 503, 504, 505, 506, 507, 508, 509, 510, 511, 512, 513, 514, 515, 516, 517, 518, 519, 520, 521, 522, 523, 524, 525, 526, 527, 528, 529, 530, 531, 532, 533, 534, 535, 536, 537, 538, 539, 540, 541, 542, 543, 544, 545, 546, 547, 548, 549, 550, 551, 552, 553, 554, 555, 556, 557, 558, 559, 560, 561, 562, 563, 564, 565, 566, 567, 568, 569, 570, 571, 572, 573, 574, 575, 576, 577, 578, 579, 580, 581, 582, 583, 584, 585, 586, 587, 588, 589, 590, 591, 592, 593, 594, 595, 596, 597, 598, 599, 600, 601, 602, 603, 604, 605, 606, 607, 608, 609, 610, 611, 612, 613, 614, 615, 616, 617, 618, 619, 620, 621, 622, 623, 624, 625, 626, 627, 628, 629, 630, 631, 632, 633, 634, 635, 636, 637, 638, 639, 640, 641, 642, 643, 644, 645, 646, 647, 648, 649, 650, 651, 652, 653, 654, 655, 656, 657, 658, 659, 660, 661, 662, 663, 664, 665, 666, 667, 668, 669, 670, 671, 672, 673, 674, 675, 676, 677, 678, 679, 680, 681, 682, 683, 684, 685, 686, 687, 688, 689, 690, 691, 692, 693, 694, 695, 696, 697, 698, 699, 700, 701, 702, 703, 704, 705, 706, 707, 708, 709, 710, 711, 712, 713, 714, 715, 716, 717, 718, 719, 720, 721, 722, 723, 724, 725, 726, 727, 728, 729, 730, 731, 732, 733, 734, 735, 736, 737, 738, 739, 740, 741, 742, 743, 744, 745, 746, 747, 748, 749, 750, 751, 752, 753, 754, 755, 756, 757, 758, 759, 760, 761, 762, 763, 764, 765, 766, 767, 768, 769, 770, 771, 772, 773, 774, 775, 776, 777, 778, 779, 780, 781, 782, 783, 784, 785, 786, 787, 788, 789, 790, 791, 792, 793, 794, 795, 796, 797, 798, 799, 800, 801, 802, 803, 804, 805, 806, 807, 808, 809, 810, 811, 812, 813, 814, 815, 816, 817, 818, 819, 820, 821, 822, 823, 824, 825, 826, 827, 828, 829, 830, 831, 832, 833, 834, 835, 836, 837, 838, 839, 840, 841, 842, 843, 844, 845, 846, 847, 848, 849, 850, 851, 852, 853, 854, 855, 856, 857, 858, 859, 860, 861, 862, 863, 864, 865, 866, 867, 868, 869, 870, 871, 872, 873, 874, 875, 876, 877, 878, 879, 880, 881, 882, 883, 884, 885, 886, 887, 888, 889, 890, 891, 892, 893, 894, 895, 896, 897, 898, 899, 900, 901, 902, 903, 904, 905, 906, 907, 908, 909, 910, 911, 912, 913, 914, 915, 916, 917, 918, 919, 920, 921, 922, 923, 924, 925, 926, 927, 928, 929, 930, 931, 932, 933, 934, 935, 936, 937, 938, 939, 940, 941, 942, 943, 944, 945, 946, 947, 948, 949, 950, 951, 952, 953, 954, 955, 956, 957, 958, 959, 960, 961, 962, 963, 964, 965, 966, 967, 968, 969, 970, 971, 972, 973, 974, 975, 976, 977, 978, 979, 980, 981, 982, 983, 984, 985, 986, 987, 988, 989, 990, 991, 992, 993, 994, 995, 996, 997, 998, 999, 1000, 1001, 1002, 1003, 1004, 1005, 1006, 1007, 1008, 1009, 1010, 1011, 1012, 1013, 1014, 1015, 1016, 1017, 1018, 1019, 1020, 1021, 1022, 1023, 1024, 1025, 1026, 1027, 1028, 1029, 1030, 1031, 1032, 1033, 1034, 1035, 1036, 1037, 1038, 1039, 1040, 1041, 1042, 1043, 1044, 1045, 1046, 1047, 1048, 1049, 1050, 1051, 1052, 1053, 1054, 1055, 1056, 1057, 1058, 1059, 1060, 1061, 1062, 1063, 1064, 1065, 1066, 1067, 1068, 1069, 1070, 1071, 1072, 1073],
      "AcquisitionTime": ["200037.322500", "200037.782500", "200038.242500", "200038.702500", "200039.162500", "200039.622500", "200040.082500", "200040.542500", "200041.002500", "200041.462500", "200041.922500", "200042.382500", "200042.842500", "200043.302500", "200043.762500", "200044.222500", "200044.682500", "200045.142500", "200045.602500", "200046.062500", "200046.522500", "200046.982500", "200047.442500", "200047.902500", "200048.362500", "200048.822500", "200049.282500", "200049.742500", "200050.202500", "200050.662500", "200051.122500", "200051.582500", "200052.042500", "200052.502500", "200052.962500", "200053.422500", "200053.882500", "200054.342500", "200054.802500", "200055.262500", "200055.722500", "200056.182500", "200056.642500", "200057.102500", "200057.562500", "200058.022500", "200058.482500", "200058.942500", "200059.402500", "200059.862500", "200100.322500", "200100.782500", "200101.242500", "200101.702500", "200102.162500", "200102.622500", "200103.082500", "200103.542500", "200104.002500", "200104.462500", "200104.922500", "200105.382500", "200105.842500", "200106.302500", "200106.762500", "200107.222500", "200107.682500", "200108.142500", "200108.602500", "200109.062500", "200109.522500", "200109.982500", "200110.442500", "200110.902500", "200111.362500", "200111.822500", "200112.282500", "200112.742500", "200113.202500", "200113.662500", "200114.122500", "200114.582500", "200115.042500", "200115.502500", "200115.962500", "200116.422500", "200116.882500", "200117.342500", "200117.802500", "200118.262500", "200118.722500", "200119.182500", "200119.642500", "200120.102500", "200120.562500", "200121.022500", "200121.482500", "200121.942500", "200122.402500", "200122.862500", "200123.322500", "200123.782500", "200124.242500", "200124.702500", "200125.162500", "200125.622500", "200126.082500", "200126.542500", "200127.002500", "200127.462500", "200127.922500", "200128.382500", "200128.842500", "200129.302500", "200129.762500", "200130.222500", "200130.682500", "200131.142500", "200131.602500", "200132.062500", "200132.522500", "200132.982500", "200133.442500", "200133.902500", "200134.362500", "200134.822500", "200135.282500", "200135.742500", "200136.202500", "200136.662500", "200137.122500", "200137.582500", "200138.042500", "200138.502500", "200138.962500", "200139.422500", "200139.882500", "200140.342500", "200140.802500", "200141.262500", "200141.722500", "200142.182500", "200142.642500", "200143.102500", "200143.562500", "200144.022500", "200144.482500", "200144.942500", "200145.402500", "200145.862500", "200146.322500", "200146.782500", "200147.242500", "200147.702500", "200148.162500", "200148.622500", "200149.082500", "200149.542500", "200150.002500", "200150.462500", "200150.922500", "200151.382500", "200151.842500", "200152.302500", "200152.762500", "200153.222500", "200153.682500", "200154.142500", "200154.602500", "200155.062500", "200155.522500", "200155.982500", "200156.442500", "200156.902500", "200157.362500", "200157.822500", "200158.282500", "200158.742500", "200159.202500", "200159.662500", "200200.122500", "200200.582500", "200201.042500", "200201.502500", "200201.962500", "200202.422500", "200202.882500", "200203.342500", "200203.802500", "200204.262500", "200204.722500", "200205.182500", "200205.642500", "200206.102500", "200206.562500", "200207.022500", "200207.482500", "200207.942500", "200208.402500", "200208.862500", "200209.322500", "200209.782500", "200210.242500", "200210.702500", "200211.162500", "200211.622500", "200212.082500", "200212.542500", "200213.002500", "200213.462500", "200213.922500", "200214.382500", "200214.842500", "200215.302500", "200215.762500", "200216.222500", "200216.682500", "200217.142500", "200217.602500", "200218.062500", "200218.522500", "200218.982500", "200219.442500", "200219.902500", "200220.362500", "200220.822500", "200221.282500", "200221.742500", "200222.202500", "200222.662500", "200223.122500", "200223.582500", "200224.042500", "200224.502500", "200224.962500", "200225.422500", "200225.882500", "200226.342500", "200226.802500", "200227.262500", "200227.722500", "200228.182500", "200228.642500", "200229.102500", "200229.562500", "200230.022500", "200230.482500", "200230.942500", "200231.402500", "200231.862500", "200232.322500", "200232.782500", "200233.242500", "200233.702500", "200234.162500", "200234.622500", "200235.082500", "200235.542500", "200236.002500", "200236.462500", "200236.922500", "200237.382500", "200237.842500", "200238.302500", "200238.762500", "200239.222500", "200239.682500", "200240.142500", "200240.602500", "200241.062500", "200241.522500", "200241.982500", "200242.442500", "200242.902500", "200243.362500", "200243.822500", "200244.282500", "200244.742500", "200245.202500", "200245.662500", "200246.122500", "200246.582500", "200247.042500", "200247.502500", "200247.962500", "200248.422500", "200248.882500", "200249.342500", "200249.802500", "200250.262500", "200250.722500", "200251.182500", "200251.642500", "200252.102500", "200252.562500", "200253.022500", "200253.482500", "200253.942500", "200254.402500", "200254.862500", "200255.322500", "200255.782500", "200256.242500", "200256.702500", "200257.162500", "200257.622500", "200258.082500", "200258.542500", "200259.002500", "200259.462500", "200259.922500", "200300.382500", "200300.842500", "200301.302500", "200301.762500", "200302.222500", "200302.682500", "200303.142500", "200303.602500", "200304.062500", "200304.522500", "200304.982500", "200305.442500", "200305.902500", "200306.362500", "200306.822500", "200307.282500", "200307.742500", "200308.202500", "200308.662500", "200309.122500", "200309.582500", "200310.042500", "200310.502500", "200310.962500", "200311.422500", "200311.882500", "200312.342500", "200312.802500", "200313.262500", "200313.722500", "200314.182500", "200314.642500", "200315.102500", "200315.562500", "200316.022500", "200316.482500", "200316.942500", "200317.402500", "200317.862500", "200318.322500", "200318.782500", "200319.242500", "200319.702500", "200320.162500", "200320.622500", "200321.082500", "200321.542500", "200322.002500", "200322.462500", "200322.922500", "200323.382500", "200323.842500", "200324.302500", "200324.762500", "200325.222500", "200325.682500", "200326.142500", "200326.602500", "200327.062500", "200327.522500", "200327.982500", "200328.442500", "200328.902500", "200329.362500", "200329.822500", "200330.282500", "200330.742500", "200331.202500", "200331.662500", "200332.122500", "200332.582500", "200333.042500", "200333.502500", "200333.962500", "200334.422500", "200334.882500", "200335.342500", "200335.802500", "200336.262500", "200336.722500", "200337.182500", "200337.642500", "200338.102500", "200338.562500", "200339.022500", "200339.482500", "200339.942500", "200340.402500", "200340.862500", "200341.322500", "200341.782500", "200342.242500", "200342.702500", "200343.162500", "200343.622500", "200344.082500", "200344.542500", "200345.002500", "200345.462500", "200345.922500", "200346.382500", "200346.842500", "200347.302500", "200347.762500", "200348.222500", "200348.682500", "200349.142500", "200349.602500", "200350.062500", "200350.522500", "200350.982500", "200351.442500", "200351.902500", "200352.362500", "200352.822500", "200353.282500", "200353.742500", "200354.202500", "200354.662500", "200355.122500", "200355.582500", "200356.042500", "200356.502500", "200356.962500", "200357.422500", "200357.882500", "200358.342500", "200358.802500", "200359.262500", "200359.722500", "200400.182500", "200400.642500", "200401.102500", "200401.562500", "200402.022500", "200402.482500", "200402.942500", "200403.402500", "200403.862500", "200404.322500", "200404.782500", "200405.242500", "200405.702500", "200406.162500", "200406.622500", "200407.082500", "200407.542500", "200408.002500", "200408.462500", "200408.922500", "200409.382500", "200409.842500", "200410.302500", "200410.762500", "200411.222500", "200411.682500", "200412.142500", "200412.602500", "200413.062500", "200413.522500", "200413.982500", "200414.442500", "200414.902500", "200415.362500", "200415.822500", "200416.282500", "200416.742500", "200417.202500", "200417.662500", "200418.122500", "200418.582500", "200419.042500", "200419.502500", "200419.962500", "200420.422500", "200420.882500", "200421.342500", "200421.802500", "200422.262500", "200422.722500", "200423.182500", "200423.642500", "200424.102500", "200424.562500", "200425.022500", "200425.482500", "200425.942500", "200426.402500", "200426.862500", "200427.322500", "200427.782500", "200428.242500", "200428.702500", "200429.162500", "200429.622500", "200430.082500", "200430.542500", "200431.002500", "200431.462500", "200431.922500", "200432.382500", "200432.842500", "200433.302500", "200433.762500", "200434.222500", "200434.682500", "200435.142500", "200435.602500", "200436.062500", "200436.522500", "200436.982500", "200437.442500", "200437.902500", "200438.362500", "200438.822500", "200439.282500", "200439.742500", "200440.202500", "200440.662500", "200441.122500", "200441.582500", "200442.042500", "200442.502500", "200442.962500", "200443.422500", "200443.882500", "200444.342500", "200444.802500", "200445.262500", "200445.722500", "200446.182500", "200446.642500", "200447.102500", "200447.562500", "200448.022500", "200448.482500", "200448.942500", "200449.402500", "200449.862500", "200450.322500", "200450.782500", "200451.242500", "200451.702500", "200452.162500", "200452.622500", "200453.082500", "200453.542500", "200454.002500", "200454.462500", "200454.922500", "200455.382500", "200455.842500", "200456.302500", "200456.762500", "200457.222500", "200457.682500", "200458.142500", "200458.602500", "200459.062500", "200459.522500", "200459.982500", "200500.442500", "200500.902500", "200501.362500", "200501.822500", "200502.282500", "200502.742500", "200503.202500", "200503.662500", "200504.122500", "200504.582500", "200505.042500", "200505.502500", "200505.962500", "200506.422500", "200506.882500", "200507.342500", "200507.802500", "200508.262500", "200508.722500", "200509.182500", "200509.642500", "200510.102500", "200510.562500", "200511.022500", "200511.482500", "200511.942500", "200512.402500", "200512.862500", "200513.322500", "200513.782500", "200514.242500", "200514.702500", "200515.162500", "200515.622500", "200516.082500", "200516.542500", "200517.002500", "200517.462500", "200517.922500", "200518.382500", "200518.842500", "200519.302500", "200519.762500", "200520.222500", "200520.682500", "200521.142500", "200521.602500", "200522.062500", "200522.522500", "200522.982500", "200523.442500", "200523.902500", "200524.362500", "200524.822500", "200525.282500", "200525.742500", "200526.202500", "200526.662500", "200527.122500", "200527.582500", "200528.042500", "200528.502500", "200528.962500", "200529.422500", "200529.882500", "200530.342500", "200530.802500", "200531.262500", "200531.722500", "200532.182500", "200532.642500", "200533.102500", "200533.562500", "200534.022500", "200534.482500", "200534.942500", "200535.402500", "200535.862500", "200536.322500", "200536.782500", "200537.242500", "200537.702500", "200538.162500", "200538.622500", "200539.082500", "200539.542500", "200540.002500", "200540.462500", "200540.922500", "200541.382500", "200541.842500", "200542.302500", "200542.762500", "200543.222500", "200543.682500", "200544.142500", "200544.602500", "200545.062500", "200545.522500", "200545.982500", "200546.442500", "200546.902500", "200547.362500", "200547.822500", "200548.282500", "200548.742500", "200549.202500", "200549.662500", "200550.122500", "200550.582500", "200551.042500", "200551.502500", "200551.962500", "200552.422500", "200552.882500", "200553.342500", "200553.802500", "200554.262500", "200554.722500", "200555.182500", "200555.642500", "200556.102500", "200556.562500", "200557.022500", "200557.482500", "200557.942500", "200558.402500", "200558.862500", "200559.322500", "200559.782500", "200600.242500", "200600.702500", "200601.162500", "200601.622500", "200602.082500", "200602.542500", "200603.002500", "200603.462500", "200603.922500", "200604.382500", "200604.842500", "200605.302500", "200605.762500", "200606.222500", "200606.682500", "200607.142500", "200607.602500", "200608.062500", "200608.522500", "200608.982500", "200609.442500", "200609.902500", "200610.362500", "200610.822500", "200611.282500", "200611.742500", "200612.202500", "200612.662500", "200613.122500", "200613.582500", "200614.042500", "200614.502500", "200614.962500", "200615.422500", "200615.882500", "200616.342500", "200616.802500", "200617.262500", "200617.722500", "200618.182500", "200618.642500", "200619.102500", "200619.562500", "200620.022500", "200620.482500", "200620.942500", "200621.402500", "200621.862500", "200622.322500", "200622.782500", "200623.242500", "200623.702500", "200624.162500", "200624.622500", "200625.082500", "200625.542500", "200626.002500", "200626.462500", "200626.922500", "200627.382500", "200627.842500", "200628.302500", "200628.762500", "200629.222500", "200629.682500", "200630.142500", "200630.602500", "200631.062500", "200631.522500", "200631.982500", "200632.442500", "200632.902500", "200633.362500", "200633.822500", "200634.282500", "200634.742500", "200635.202500", "200635.662500", "200636.122500", "200636.582500", "200637.042500", "200637.502500", "200637.962500", "200638.422500", "200638.882500", "200639.342500", "200639.802500", "200640.262500", "200640.722500", "200641.182500", "200641.642500", "200642.102500", "200642.562500", "200643.022500", "200643.482500", "200643.942500", "200644.402500", "200644.862500", "200645.322500", "200645.782500", "200646.242500", "200646.702500", "200647.162500", "200647.622500", "200648.082500", "200648.542500", "200649.002500", "200649.462500", "200649.922500", "200650.382500", "200650.842500", "200651.302500", "200651.762500", "200652.222500", "200652.682500", "200653.142500", "200653.602500", "200654.062500", "200654.522500", "200654.982500", "200655.442500", "200655.902500", "200656.362500", "200656.822500", "200657.282500", "200657.742500", "200658.202500", "200658.662500", "200659.122500", "200659.582500", "200700.042500", "200700.502500", "200700.962500", "200701.422500", "200701.882500", "200702.342500", "200702.802500", "200703.262500", "200703.722500", "200704.182500", "200704.642500", "200705.102500", "200705.562500", "200706.022500", "200706.482500", "200706.942500", "200707.402500", "200707.862500", "200708.322500", "200708.782500", "200709.242500", "200709.702500", "200710.162500", "200710.622500", "200711.082500", "200711.542500", "200712.002500", "200712.462500", "200712.922500", "200713.382500", "200713.842500", "200714.302500", "200714.762500", "200715.222500", "200715.682500", "200716.142500", "200716.602500", "200717.062500", "200717.522500", "200717.982500", "200718.442500", "200718.902500", "200719.362500", "200719.822500", "200720.282500", "200720.742500", "200721.202500", "200721.662500", "200722.122500", "200722.582500", "200723.042500", "200723.502500", "200723.962500", "200724.422500", "200724.882500", "200725.342500", "200725.802500", "200726.262500", "200726.722500", "200727.182500", "200727.642500", "200728.102500", "200728.562500", "200729.022500", "200729.482500", "200729.942500", "200730.402500", "200730.862500", "200731.322500", "200731.782500", "200732.242500", "200732.702500", "200733.162500", "200733.622500", "200734.082500", "200734.542500", "200735.002500", "200735.462500", "200735.922500", "200736.382500", "200736.842500", "200737.302500", "200737.762500", "200738.222500", "200738.682500", "200739.142500", "200739.602500", "200740.062500", "200740.522500", "200740.982500", "200741.442500", "200741.902500", "200742.362500", "200742.822500", "200743.282500", "200743.742500", "200744.202500", "200744.662500", "200745.122500", "200745.582500", "200746.042500", "200746.502500", "200746.962500", "200747.422500", "200747.882500", "200748.342500", "200748.802500", "200749.262500", "200749.722500", "200750.182500", "200750.642500", "200751.102500", "200751.562500", "200752.022500", "200752.482500", "200752.942500", "200753.402500", "200753.862500", "200754.322500", "200754.782500", "200755.242500", "200755.702500", "200756.162500", "200756.622500", "200757.082500", "200757.542500", "200758.002500", "200758.462500", "200758.922500", "200759.382500", "200759.842500", "200800.302500", "200800.762500", "200801.222500", "200801.682500", "200802.142500", "200802.602500", "200803.062500", "200803.522500", "200803.982500", "200804.442500", "200804.902500", "200805.362500", "200805.822500", "200806.282500", "200806.742500", "200807.202500", "200807.662500", "200808.122500", "200808.582500", "200809.042500", "200809.502500", "200809.962500", "200810.422500", "200810.882500", "200811.342500", "200811.802500", "200812.262500", "200812.722500", "200813.182500", "200813.642500", "200814.102500", "200814.562500", "200815.022500", "200815.482500", "200815.942500", "200816.402500", "200816.862500", "200817.322500", "200817.782500", "200818.242500", "200818.702500", "200819.162500", "200819.622500", "200820.082500", "200820.542500", "200821.002500", "200821.462500", "200821.922500", "200822.382500", "200822.842500", "200823.302500", "200823.762500", "200824.222500", "200824.682500", "200825.142500", "200825.602500", "200826.062500", "200826.522500", "200826.982500", "200827.442500", "200827.902500", "200828.362500", "200828.822500", "200829.282500", "200829.742500", "200830.202500", "200830.662500", "200831.122500", "200831.582500", "200832.042500", "200832.502500", "200832.962500", "200833.422500", "200833.882500", "200834.342500", "200834.802500", "200835.262500", "200835.722500", "200836.182500", "200836.642500", "200837.102500", "200837.562500", "200838.022500", "200838.482500", "200838.942500", "200839.402500", "200839.862500", "200840.322500", "200840.782500", "200841.242500", "200841.702500", "200842.162500", "200842.622500", "200843.082500", "200843.542500", "200844.002500", "200844.462500", "200844.922500", "200845.382500", "200845.842500", "200846.302500", "200846.762500", "200847.222500", "200847.682500", "200848.142500", "200848.602500", "200849.062500", "200849.522500", "200849.982500", "200850.442500"],
