{
  "AcquisitionMatrixPE": 82,
  "AcquisitionNumber": 1,
  "AcquisitionTime": "19:28:34.887500",
  "BandwidthPerPixelPhaseEncode": 24.888,
  "BaseResolution": 82,
  "BodyPartExamined": "BRAIN",
  "ConsistencyInfo": "N4_VE11E_LATEST_20181129",
  "ConversionSoftware": "dcm2niix",
  "ConversionSoftwareVersion": "v1.0.20201102",
  "DerivedVendorReportedEchoSpacing": 0.00049,
  "DeviceSerialNumber": "66112",
  "DwellTime": 2e-06,
  "EchoTime": 0.0272,
  "EchoTrainLength": 82,
  "EffectiveEchoSpacing": 0.00049,
  "FlipAngle": 44,
  "ImageComments": "Unaliased MB8/PE3",
  "ImageOrientationPatientDICOM": [0.999221, -0.0110893, 0.0378745, 0.0137782, 0.997346, -0.0714895],
  "ImageType": [
    "ORIGINAL",
    "PRIMARY",
    "M",
    "MB",
    "ND",
    "NORM",
    "MOSAIC"
],
  "ImagingFrequency": 123.252,
  "InPlanePhaseEncodingDirectionDICOM": "COL",
  "InstitutionAddress": "Maynard 3,Hanover,NH,US,03755",
  "InstitutionName": "Dartmouth College - PBS",
  "InstitutionalDepartmentName": "Department",
  "MRAcquisitionType": "2D",
  "MagneticFieldStrength": 3,
  "Manufacturer": "Siemens",
  "ManufacturersModelName": "Prisma",
  "Modality": "MR",
  "MultibandAccelerationFactor": 8,
  "PartialFourier": 1,
  "PatientPosition": "HFS",
  "PercentPhaseFOV": 100,
  "PercentSampling": 100,
  "PhaseEncodingDirection": "j-",
  "PhaseEncodingSteps": 82,
  "PhaseResolution": 1,
  "PixelBandwidth": 3050,
  "ProcedureStepDescription": "Wager_Wager^1076_spacetop",
  "ProtocolName": "func_run-03_task-social_acq-ap-mb8",
  "PulseSequenceDetails": "%CustomerSeq%\\cmrr_mbep2d_bold",
  "ReceiveCoilActiveElements": "HEA;HEP",
  "ReceiveCoilName": "Head_32",
  "ReconMatrixPE": 82,
  "RepetitionTime": 0.46,
  "SAR": 0.104278,
  "ScanOptions": "FS",
  "ScanningSequence": "EP",
  "SequenceName": "epfid2d1_82",
  "SequenceVariant": "SK\\SS",
  "SeriesDescription": "func_run-03_task-social_acq-ap-mb8",
  "SeriesNumber": 16,
  "ShimSetting": [4195, -7700, -7250, 553, 62, -177, -75, 43],
  "SliceThickness": 2.7,
  "SliceTiming": [0, 0.2525, 0.0625, 0.315, 0.125, 0.3775, 0.19, 0, 0.2525, 0.0625, 0.315, 0.125, 0.3775, 0.19, 0, 0.2525, 0.0625, 0.315, 0.125, 0.3775, 0.19, 0, 0.2525, 0.0625, 0.315, 0.125, 0.3775, 0.19, 0, 0.2525, 0.0625, 0.315, 0.125, 0.3775, 0.19, 0, 0.2525, 0.0625, 0.315, 0.125, 0.3775, 0.19, 0, 0.2525, 0.0625, 0.315, 0.125, 0.3775, 0.19, 0, 0.2525, 0.0625, 0.315, 0.125, 0.3775, 0.19],
  "SoftwareVersions": "syngo MR E11",
  "SpacingBetweenSlices": 2.7,
  "StationName": "AWP66112",
  "TaskName": "social",
  "TotalReadoutTime": 0.03969,
  "TxRefAmp": 265.197,
  "WipMemBlock": "2507ec26-187c-4ba6-ba9e-8f6a6486a7d4||Sequence: R016 ve11e/master r/434b28f1; Aug  7 2019 18:53:46 by eja",
  "dcmmeta_affine": [
    [-2.6808369159698486, 0.03696594759821892, 0.09984917938709259, 107.17920684814453],
    [0.029751742258667946, 2.675806999206543, -0.1942802369594574, -88.2806396484375],
    [0.10161439329385757, 0.19180108606815338, 2.6911494731903076, -84.10594940185547],
    [0.0, 0.0, 0.0, 1.0]
],
  "dcmmeta_reorient_transform": [
    [0.0, -1.0, 0.0, 81.0],
    [1.0, 0.0, 0.0, 0.0],
    [0.0, 0.0, 1.0, 0.0],
    [0.0, 0.0, 0.0, 1.0]
],
  "dcmmeta_shape": [82, 82, 56, 872],
  "dcmmeta_slice_dim": 2,
  "dcmmeta_version": 0.6,
  "global": {
    "const": {
      "AccessionNumber": "A003892",
      "AcquisitionMatrix": [82, 0, 0, 82],
      "AngioFlag": "N",
      "BitsAllocated": 16,
      "BitsStored": 16,
      "BodyPartExamined": "BRAIN",
      "Columns": 656,
      "EchoNumbers": 1,
      "EchoTime": 27.2,
      "EchoTrainLength": 82,
      "FlipAngle": 44.0,
      "HighBit": 15,
      "ImageOrientationPatient": [0.99922097322701, -0.0110892857828, 0.0378744558257, 0.01377821608987, 0.99734618526009, -0.0714894922945],
      "ImagePositionPatient": [-890.18284360949, -887.87755257491, -42.686482656271],
      "ImageType": [
        "ORIGINAL",
        "PRIMARY",
        "M",
        "MB",
        "ND",
        "NORM",
        "MOSAIC"
],
      "ImagedNucleus": "1H",
      "ImagingFrequency": 123.25219,
      "InPlanePhaseEncodingDirection": "COL",
      "MRAcquisitionType": "2D",
      "MagneticFieldStrength": 3.0,
      "Manufacturer": "SIEMENS",
      "ManufacturerModelName": "Prisma",
      "Modality": "MR",
      "NumberOfAverages": 1.0,
      "NumberOfPhaseEncodingSteps": 82,
      "PercentPhaseFieldOfView": 100.0,
      "PercentSampling": 100.0,
      "PerformedProcedureStepStartTime": "185032.760000",
      "PhotometricInterpretation": "MONOCHROME2",
      "PixelBandwidth": 3050.0,
      "PixelRepresentation": 0,
      "PixelSpacing": [2.6829268932343, 2.6829268932343],
      "ProtocolName": "func_run-03_task-social_acq-ap-mb8",
      "RepetitionTime": 460.0,
      "Rows": 656,
      "SAR": 0.10427811521165,
      "SamplesPerPixel": 1,
      "ScanOptions": "FS",
      "ScanningSequence": "EP",
      "SequenceName": "epfid2d1_82",
      "SequenceVariant": [
        "SK",
        "SS"
],
      "SeriesDescription": "func_run-03_task-social_acq-ap-mb8",
      "SeriesNumber": 16,
      "SeriesTime": "192855.459000",
      "SliceLocation": -73.514347858801,
      "SliceThickness": 2.7000000476837,
      "SmallestImagePixelValue": 0,
      "SoftwareVersions": "syngo MR E11",
      "SpacingBetweenSlices": 2.7000000421973,
      "SpecificCharacterSet": "ISO_IR 100",
      "StudyID": "1",
      "StudyTime": "185032.695000",
      "TransmitCoilName": "Body",
      "VariableFlipAngleFlag": "N",
      "WindowCenterWidthExplanation": "Algo1"
    },
    "slices": {}
  },
  "time": {
    "samples": {
      "AcquisitionNumber": [1, 2, 3, 4, 5, 6, 7, 8, 9, 10, 11, 12, 13, 14, 15, 16, 17, 18, 19, 20, 21, 22, 23, 24, 25, 26, 27, 28, 29, 30, 31, 32, 33, 34, 35, 36, 37, 38, 39, 40, 41, 42, 43, 44, 45, 46, 47, 48, 49, 50, 51, 52, 53, 54, 55, 56, 57, 58, 59, 60, 61, 62, 63, 64, 65, 66, 67, 68, 69, 70, 71, 72, 73, 74, 75, 76, 77, 78, 79, 80, 81, 82, 83, 84, 85, 86, 87, 88, 89, 90, 91, 92, 93, 94, 95, 96, 97, 98, 99, 100, 101, 102, 103, 104, 105, 106, 107, 108, 109, 110, 111, 112, 113, 114, 115, 116, 117, 118, 119, 120, 121, 122, 123, 124, 125, 126, 127, 128, 129, 130, 131, 132, 133, 134, 135, 136, 137, 138, 139, 140, 141, 142, 143, 144, 145, 146, 147, 148, 149, 150, 151, 152, 153, 154, 155, 156, 157, 158, 159, 160, 161, 162, 163, 164, 165, 166, 167, 168, 169, 170, 171, 172, 173, 174, 175, 176, 177, 178, 179, 180, 181, 182, 183, 184, 185, 186, 187, 188, 189, 190, 191, 192, 193, 194, 195, 196, 197, 198, 199, 200, 201, 202, 203, 204, 205, 206, 207, 208, 209, 210, 211, 212, 213, 214, 215, 216, 217, 218, 219, 220, 221, 222, 223, 224, 225, 226, 227, 228, 229, 230, 231, 232, 233, 234, 235, 236, 237, 238, 239, 240, 241, 242, 243, 244, 245, 246, 247, 248, 249, 250, 251, 252, 253, 254, 255, 256, 257, 258, 259, 260, 261, 262, 263, 264, 265, 266, 267, 268, 269, 270, 271, 272, 273, 274, 275, 276, 277, 278, 279, 280, 281, 282, 283, 284, 285, 286, 287, 288, 289, 290, 291, 292, 293, 294, 295, 296, 297, 298, 299, 300, 301, 302, 303, 304, 305, 306, 307, 308, 309, 310, 311, 312, 313, 314, 315, 316, 317, 318, 319, 320, 321, 322, 323, 324, 325, 326, 327, 328, 329, 330, 331, 332, 333, 334, 335, 336, 337, 338, 339, 340, 341, 342, 343, 344, 345, 346, 347, 348, 349, 350, 351, 352, 353, 354, 355, 356, 357, 358, 359, 360, 361, 362, 363, 364, 365, 366, 367, 368, 369, 370, 371, 372, 373, 374, 375, 376, 377, 378, 379, 380, 381, 382, 383, 384, 385, 386, 387, 388, 389, 390, 391, 392, 393, 394, 395, 396, 397, 398, 399, 400, 401, 402, 403, 404, 405, 406, 407, 408, 409, 410, 411, 412, 413, 414, 415, 416, 417, 418, 419, 420, 421, 422, 423, 424, 425, 426, 427, 428, 429, 430, 431, 432, 433, 434, 435, 436, 437, 438, 439, 440, 441, 442, 443, 444, 445, 446, 447, 448, 449, 450, 451, 452, 453, 454, 455, 456, 457, 458, 459, 460, 461, 462, 463, 464, 465, 466, 467, 468, 469, 470, 471, 472, 473, 474, 475, 476, 477, 478, 479, 480, 481, 482, 483, 484, 485, 486, 487, 488, 489, 490, 491, 492, 493, 494, 495, 496, 497, 498, 499, 500, 501, 502, 503, 504, 505, 506, 507, 508, 509, 510, 511, 512, 513, 514, 515, 516, 517, 518, 519, 520, 521, 522, 523, 524, 525, 526, 527, 528, 529, 530, 531, 532, 533, 534, 535, 536, 537, 538, 539, 540, 541, 542, 543, 544, 545, 546, 547, 548, 549, 550, 551, 552, 553, 554, 555, 556, 557, 558, 559, 560, 561, 562, 563, 564, 565, 566, 567, 568, 569, 570, 571, 572, 573, 574, 575, 576, 577, 578, 579, 580, 581, 582, 583, 584, 585, 586, 587, 588, 589, 590, 591, 592, 593, 594, 595, 596, 597, 598, 599, 600, 601, 602, 603, 604, 605, 606, 607, 608, 609, 610, 611, 612, 613, 614, 615, 616, 617, 618, 619, 620, 621, 622, 623, 624, 625, 626, 627, 628, 629, 630, 631, 632, 633, 634, 635, 636, 637, 638, 639, 640, 641, 642, 643, 644, 645, 646, 647, 648, 649, 650, 651, 652, 653, 654, 655, 656, 657, 658, 659, 660, 661, 662, 663, 664, 665, 666, 667, 668, 669, 670, 671, 672, 673, 674, 675, 676, 677, 678, 679, 680, 681, 682, 683, 684, 685, 686, 687, 688, 689, 690, 691, 692, 693, 694, 695, 696, 697, 698, 699, 700, 701, 702, 703, 704, 705, 706, 707, 708, 709, 710, 711, 712, 713, 714, 715, 716, 717, 718, 719, 720, 721, 722, 723, 724, 725, 726, 727, 728, 729, 730, 731, 732, 733, 734, 735, 736, 737, 738, 739, 740, 741, 742, 743, 744, 745, 746, 747, 748, 749, 750, 751, 752, 753, 754, 755, 756, 757, 758, 759, 760, 761, 762, 763, 764, 765, 766, 767, 768, 769, 770, 771, 772, 773, 774, 775, 776, 777, 778, 779, 780, 781, 782, 783, 784, 785, 786, 787, 788, 789, 790, 791, 792, 793, 794, 795, 796, 797, 798, 799, 800, 801, 802, 803, 804, 805, 806, 807, 808, 809, 810, 811, 812, 813, 814, 815, 816, 817, 818, 819, 820, 821, 822, 823, 824, 825, 826, 827, 828, 829, 830, 831, 832, 833, 834, 835, 836, 837, 838, 839, 840, 841, 842, 843, 844, 845, 846, 847, 848, 849, 850, 851, 852, 853, 854, 855, 856, 857, 858, 859, 860, 861, 862, 863, 864, 865, 866, 867, 868, 869, 870, 871, 872],
      "AcquisitionTime": ["192834.887500", "192835.347500", "192835.807500", "192836.267500", "192836.727500", "192837.187500", "192837.647500", "192838.107500", "192838.567500", "192839.027500", "192839.487500", "192839.947500", "192840.407500", "192840.867500", "192841.327500", "192841.787500", "192842.247500", "192842.707500", "192843.167500", "192843.627500", "192844.087500", "192844.547500", "192845.007500", "192845.467500", "192845.927500", "192846.387500", "192846.847500", "192847.307500", "192847.767500", "192848.227500", "192848.687500", "192849.147500", "192849.607500", "192850.067500", "192850.527500", "192850.987500", "192851.447500", "192851.907500", "192852.367500", "192852.827500", "192853.287500", "192853.747500", "192854.207500", "192854.667500", "192855.127500", "192855.587500", "192856.047500", "192856.507500", "192856.967500", "192857.427500", "192857.887500", "192858.347500", "192858.807500", "192859.267500", "192859.727500", "192900.187500", "192900.647500", "192901.107500", "192901.567500", "192902.027500", "192902.487500", "192902.947500", "192903.407500", "192903.867500", "192904.327500", "192904.787500", "192905.247500", "192905.707500", "192906.167500", "192906.627500", "192907.087500", "192907.547500", "192908.007500", "192908.467500", "192908.927500", "192909.387500", "192909.847500", "192910.307500", "192910.767500", "192911.227500", "192911.687500", "192912.147500", "192912.607500", "192913.067500", "192913.527500", "192913.987500", "192914.447500", "192914.907500", "192915.367500", "192915.827500", "192916.287500", "192916.747500", "192917.207500", "192917.667500", "192918.127500", "192918.587500", "192919.047500", "192919.507500", "192919.967500", "192920.427500", "192920.887500", "192921.347500", "192921.807500", "192922.267500", "192922.727500", "192923.187500", "192923.647500", "192924.107500", "192924.567500", "192925.027500", "192925.487500", "192925.947500", "192926.407500", "192926.867500", "192927.327500", "192927.787500", "192928.247500", "192928.707500", "192929.167500", "192929.627500", "192930.087500", "192930.547500", "192931.007500", "192931.467500", "192931.927500", "192932.387500", "192932.847500", "192933.307500", "192933.767500", "192934.227500", "192934.687500", "192935.147500", "192935.607500", "192936.067500", "192936.527500", "192936.987500", "192937.447500", "192937.907500", "192938.367500", "192938.827500", "192939.287500", "192939.747500", "192940.207500", "192940.667500", "192941.127500", "192941.587500", "192942.047500", "192942.507500", "192942.967500", "192943.427500", "192943.887500", "192944.347500", "192944.807500", "192945.267500", "192945.727500", "192946.187500", "192946.647500", "192947.107500", "192947.567500", "192948.027500", "192948.487500", "192948.947500", "192949.407500", "192949.867500", "192950.327500", "192950.787500", "192951.247500", "192951.707500", "192952.167500", "192952.627500", "192953.087500", "192953.547500", "192954.007500", "192954.467500", "192954.927500", "192955.387500", "192955.847500", "192956.307500", "192956.767500", "192957.227500", "192957.687500", "192958.147500", "192958.607500", "192959.067500", "192959.527500", "192959.987500", "193000.447500", "193000.907500", "193001.367500", "193001.827500", "193002.287500", "193002.747500", "193003.207500", "193003.667500", "193004.127500", "193004.587500", "193005.047500", "193005.507500", "193005.967500", "193006.427500", "193006.887500", "193007.347500", "193007.807500", "193008.267500", "193008.727500", "193009.187500", "193009.647500", "193010.107500", "193010.567500", "193011.027500", "193011.487500", "193011.947500", "193012.407500", "193012.867500", "193013.327500", "193013.787500", "193014.247500", "193014.707500", "193015.167500", "193015.627500", "193016.087500", "193016.547500", "193017.007500", "193017.467500", "193017.927500", "193018.387500", "193018.847500", "193019.307500", "193019.767500", "193020.227500", "193020.687500", "193021.147500", "193021.607500", "193022.067500", "193022.527500", "193022.987500", "193023.447500", "193023.907500", "193024.367500", "193024.827500", "193025.287500", "193025.747500", "193026.207500", "193026.667500", "193027.127500", "193027.587500", "193028.047500", "193028.507500", "193028.967500", "193029.427500", "193029.887500", "193030.347500", "193030.807500", "193031.267500", "193031.727500", "193032.187500", "193032.647500", "193033.107500", "193033.567500", "193034.027500", "193034.487500", "193034.947500", "193035.407500", "193035.867500", "193036.327500", "193036.787500", "193037.247500", "193037.707500", "193038.167500", "193038.627500", "193039.087500", "193039.547500", "193040.007500", "193040.467500", "193040.927500", "193041.387500", "193041.847500", "193042.307500", "193042.767500", "193043.227500", "193043.687500", "193044.147500", "193044.607500", "193045.067500", "193045.527500", "193045.987500", "193046.447500", "193046.907500", "193047.367500", "193047.827500", "193048.287500", "193048.747500", "193049.207500", "193049.667500", "193050.127500", "193050.587500", "193051.047500", "193051.507500", "193051.967500", "193052.427500", "193052.887500", "193053.347500", "193053.807500", "193054.267500", "193054.727500", "193055.187500", "193055.647500", "193056.107500", "193056.567500", "193057.027500", "193057.487500", "193057.947500", "193058.407500", "193058.867500", "193059.327500", "193059.787500", "193100.247500", "193100.707500", "193101.167500", "193101.627500", "193102.087500", "193102.547500", "193103.007500", "193103.467500", "193103.927500", "193104.387500", "193104.847500", "193105.307500", "193105.767500", "193106.227500", "193106.687500", "193107.147500", "193107.607500", "193108.067500", "193108.527500", "193108.987500", "193109.447500", "193109.907500", "193110.367500", "193110.827500", "193111.287500", "193111.747500", "193112.207500", "193112.667500", "193113.127500", "193113.587500", "193114.047500", "193114.507500", "193114.967500", "193115.427500", "193115.887500", "193116.347500", "193116.807500", "193117.267500", "193117.727500", "193118.187500", "193118.647500", "193119.107500", "193119.567500", "193120.027500", "193120.487500", "193120.947500", "193121.407500", "193121.867500", "193122.327500", "193122.787500", "193123.247500", "193123.707500", "193124.167500", "193124.627500", "193125.087500", "193125.547500", "193126.007500", "193126.467500", "193126.927500", "193127.387500", "193127.847500", "193128.307500", "193128.767500", "193129.227500", "193129.687500", "193130.147500", "193130.607500", "193131.067500", "193131.527500", "193131.987500", "193132.447500", "193132.907500", "193133.367500", "193133.827500", "193134.287500", "193134.747500", "193135.207500", "193135.667500", "193136.127500", "193136.587500", "193137.047500", "193137.507500", "193137.967500", "193138.427500", "193138.887500", "193139.347500", "193139.807500", "193140.267500", "193140.727500", "193141.187500", "193141.647500", "193142.107500", "193142.567500", "193143.027500", "193143.487500", "193143.947500", "193144.407500", "193144.867500", "193145.327500", "193145.787500", "193146.247500", "193146.707500", "193147.167500", "193147.627500", "193148.087500", "193148.547500", "193149.007500", "193149.467500", "193149.927500", "193150.387500", "193150.847500", "193151.307500", "193151.767500", "193152.227500", "193152.687500", "193153.147500", "193153.607500", "193154.067500", "193154.527500", "193154.987500", "193155.447500", "193155.907500", "193156.367500", "193156.827500", "193157.287500", "193157.747500", "193158.207500", "193158.667500", "193159.127500", "193159.587500", "193200.047500", "193200.507500", "193200.967500", "193201.427500", "193201.887500", "193202.347500", "193202.807500", "193203.267500", "193203.727500", "193204.187500", "193204.647500", "193205.107500", "193205.567500", "193206.027500", "193206.487500", "193206.947500", "193207.407500", "193207.867500", "193208.327500", "193208.787500", "193209.247500", "193209.707500", "193210.167500", "193210.627500", "193211.087500", "193211.547500", "193212.007500", "193212.467500", "193212.927500", "193213.387500", "193213.847500", "193214.307500", "193214.767500", "193215.227500", "193215.687500", "193216.147500", "193216.607500", "193217.067500", "193217.527500", "193217.987500", "193218.447500", "193218.907500", "193219.367500", "193219.827500", "193220.287500", "193220.747500", "193221.207500", "193221.667500", "193222.127500", "193222.587500", "193223.047500", "193223.507500", "193223.967500", "193224.427500", "193224.887500", "193225.347500", "193225.807500", "193226.267500", "193226.727500", "193227.187500", "193227.647500", "193228.107500", "193228.567500", "193229.027500", "193229.487500", "193229.947500", "193230.407500", "193230.867500", "193231.327500", "193231.787500", "193232.247500", "193232.707500", "193233.167500", "193233.627500", "193234.087500", "193234.547500", "193235.007500", "193235.467500", "193235.927500", "193236.387500", "193236.847500", "193237.307500", "193237.767500", "193238.227500", "193238.687500", "193239.147500", "193239.607500", "193240.067500", "193240.527500", "193240.987500", "193241.447500", "193241.907500", "193242.367500", "193242.827500", "193243.287500", "193243.747500", "193244.207500", "193244.667500", "193245.127500", "193245.587500", "193246.047500", "193246.507500", "193246.967500", "193247.427500", "193247.887500", "193248.347500", "193248.807500", "193249.267500", "193249.727500", "193250.187500", "193250.647500", "193251.107500", "193251.567500", "193252.027500", "193252.487500", "193252.947500", "193253.407500", "193253.867500", "193254.327500", "193254.787500", "193255.247500", "193255.707500", "193256.167500", "193256.627500", "193257.087500", "193257.547500", "193258.007500", "193258.467500", "193258.927500", "193259.387500", "193259.847500", "193300.307500", "193300.767500", "193301.227500", "193301.687500", "193302.147500", "193302.607500", "193303.067500", "193303.527500", "193303.987500", "193304.447500", "193304.907500", "193305.367500", "193305.827500", "193306.287500", "193306.747500", "193307.207500", "193307.667500", "193308.127500", "193308.587500", "193309.047500", "193309.507500", "193309.967500", "193310.427500", "193310.887500", "193311.347500", "193311.807500", "193312.267500", "193312.727500", "193313.187500", "193313.647500", "193314.107500", "193314.567500", "193315.027500", "193315.487500", "193315.947500", "193316.407500", "193316.867500", "193317.327500", "193317.787500", "193318.247500", "193318.707500", "193319.167500", "193319.627500", "193320.087500", "193320.547500", "193321.007500", "193321.467500", "193321.927500", "193322.387500", "193322.847500", "193323.307500", "193323.767500", "193324.227500", "193324.687500", "193325.147500", "193325.607500", "193326.067500", "193326.527500", "193326.987500", "193327.447500", "193327.907500", "193328.367500", "193328.827500", "193329.287500", "193329.747500", "193330.207500", "193330.667500", "193331.127500", "193331.587500", "193332.047500", "193332.507500", "193332.967500", "193333.427500", "193333.887500", "193334.347500", "193334.807500", "193335.267500", "193335.727500", "193336.187500", "193336.647500", "193337.107500", "193337.567500", "193338.027500", "193338.487500", "193338.947500", "193339.407500", "193339.867500", "193340.327500", "193340.787500", "193341.247500", "193341.707500", "193342.167500", "193342.627500", "193343.087500", "193343.547500", "193344.007500", "193344.467500", "193344.927500", "193345.387500", "193345.847500", "193346.307500", "193346.767500", "193347.227500", "193347.687500", "193348.147500", "193348.607500", "193349.067500", "193349.527500", "193349.987500", "193350.447500", "193350.907500", "193351.367500", "193351.827500", "193352.287500", "193352.747500", "193353.207500", "193353.667500", "193354.127500", "193354.587500", "193355.047500", "193355.507500", "193355.967500", "193356.427500", "193356.887500", "193357.347500", "193357.807500", "193358.267500", "193358.727500", "193359.187500", "193359.647500", "193400.107500", "193400.567500", "193401.027500", "193401.487500", "193401.947500", "193402.407500", "193402.867500", "193403.327500", "193403.787500", "193404.247500", "193404.707500", "193405.167500", "193405.627500", "193406.087500", "193406.547500", "193407.007500", "193407.467500", "193407.927500", "193408.387500", "193408.847500", "193409.307500", "193409.767500", "193410.227500", "193410.687500", "193411.147500", "193411.607500", "193412.067500", "193412.527500", "193412.987500", "193413.447500", "193413.907500", "193414.367500", "193414.827500", "193415.287500", "193415.747500", "193416.207500", "193416.667500", "193417.127500", "193417.587500", "193418.047500", "193418.507500", "193418.967500", "193419.427500", "193419.887500", "193420.347500", "193420.807500", "193421.267500", "193421.727500", "193422.187500", "193422.647500", "193423.107500", "193423.567500", "193424.027500", "193424.487500", "193424.947500", "193425.407500", "193425.867500", "193426.327500", "193426.787500", "193427.247500", "193427.707500", "193428.167500", "193428.627500", "193429.087500", "193429.547500", "193430.007500", "193430.467500", "193430.927500", "193431.387500", "193431.847500", "193432.307500", "193432.767500", "193433.227500", "193433.687500", "193434.147500", "193434.607500", "193435.067500", "193435.527500", "193435.987500", "193436.447500", "193436.907500", "193437.367500", "193437.827500", "193438.287500", "193438.747500", "193439.207500", "193439.667500", "193440.127500", "193440.587500", "193441.047500", "193441.507500", "193441.967500", "193442.427500", "193442.887500", "193443.347500", "193443.807500", "193444.267500", "193444.727500", "193445.187500", "193445.647500", "193446.107500", "193446.567500", "193447.027500", "193447.487500", "193447.947500", "193448.407500", "193448.867500", "193449.327500", "193449.787500", "193450.247500", "193450.707500", "193451.167500", "193451.627500", "193452.087500", "193452.547500", "193453.007500", "193453.467500", "193453.927500", "193454.387500", "193454.847500", "193455.307500", "193455.767500", "193456.227500", "193456.687500", "193457.147500", "193457.607500", "193458.067500", "193458.527500", "193458.987500", "193459.447500", "193459.907500", "193500.367500", "193500.827500", "193501.287500", "193501.747500", "193502.207500", "193502.667500", "193503.127500", "193503.587500", "193504.047500", "193504.507500", "193504.967500", "193505.427500", "193505.887500", "193506.347500", "193506.807500", "193507.267500", "193507.727500", "193508.187500", "193508.647500", "193509.107500", "193509.567500", "193510.027500", "193510.487500", "193510.947500", "193511.407500", "193511.867500", "193512.327500", "193512.787500", "193513.247500", "193513.707500", "193514.167500", "193514.627500", "193515.087500", "193515.547500"],
