{
  "AcquisitionMatrixPE": 140,
  "AcquisitionNumber": 1,
  "AcquisitionTime": "10:02:48.095000",
  "BandwidthPerPixelPhaseEncode": 10.352,
  "BaseResolution": 140,
  "BodyPartExamined": "BRAIN",
  "ConsistencyInfo": "N4_VE11C_LATEST_20160120",
  "ConversionSoftware": "dcm2niix",
  "ConversionSoftwareVersion": "v1.0.20201102",
  "DerivedVendorReportedEchoSpacing": 0.000689998,
  "DeviceSerialNumber": "66112",
  "DiffusionScheme": "Monopolar",
  "DwellTime": 2.1e-06,
  "EchoTime": 0.0884,
  "EchoTrainLength": 105,
  "EffectiveEchoSpacing": 0.000689998,
  "FlipAngle": 90,
  "ImageComments": "Unaliased MB3/PE3 SENSE1",
  "ImageOrientationPatientDICOM": [0.997015, -0.0503703, 0.0585213, 0.0308099, 0.954491, 0.296645],
  "ImageType": [
    "ORIGINAL",
    "PRIMARY",
    "DIFFUSION",
    "NONE",
    "MB",
    "ND",
    "MOSAIC"
],
  "ImagingFrequency": 123.252,
  "InPlanePhaseEncodingDirectionDICOM": "COL",
  "InstitutionAddress": "Maynard 3,Hanover,NH,US,03755",
  "InstitutionName": "Dartmouth College - PBS",
  "InstitutionalDepartmentName": "Department",
  "MRAcquisitionType": "2D",
  "MagneticFieldStrength": 3,
  "Manufacturer": "Siemens",
  "ManufacturersModelName": "Prisma",
  "Modality": "MR",
  "MultibandAccelerationFactor": 3,
  "PartialFourier": 0.75,
  "PatientPosition": "HFS",
  "PercentPhaseFOV": 100,
  "PercentSampling": 100,
  "PhaseEncodingDirection": "j-",
  "PhaseEncodingSteps": 105,
  "PhaseResolution": 1,
  "PixelBandwidth": 1700,
  "ProcedureStepDescription": "Wager_Wager^1076_spacetop",
  "ProtocolName": "dwi_acq-96dir-6b0-mb",
  "PulseSequenceDetails": "%CustomerSeq%\\cmrr_mbep2d_diff",
  "ReceiveCoilActiveElements": "HEA;HEP",
  "ReceiveCoilName": "Head_32",
  "ReconMatrixPE": 140,
  "RepetitionTime": 4.11,
  "SAR": 0.219521,
  "ScanOptions": "PFP\\FS",
  "ScanningSequence": "EP",
  "SequenceName": "ep_b5#1",
  "SequenceVariant": "SK\\SS",
  "SeriesDescription": "dwi_acq-96dir-6b0-mb",
  "SeriesNumber": 8,
  "ShimSetting": [4165, -7775, -7224, 559, -64, -238, 123, 58],
  "SliceThickness": 1.7,
  "SliceTiming": [0, 2.12, 0.15, 2.2725, 0.3025, 2.4225, 0.455, 2.575, 0.605, 2.725, 0.7575, 2.8775, 0.9075, 3.03, 1.06, 3.18, 1.21, 3.3325, 1.3625, 3.4825, 1.515, 3.635, 1.665, 3.7875, 1.8175, 3.9375, 1.9675, 0, 2.12, 0.15, 2.2725, 0.3025, 2.4225, 0.455, 2.575, 0.605, 2.725, 0.7575, 2.8775, 0.9075, 3.03, 1.06, 3.18, 1.21, 3.3325, 1.3625, 3.4825, 1.515, 3.635, 1.665, 3.7875, 1.8175, 3.9375, 1.9675, 0, 2.12, 0.15, 2.2725, 0.3025, 2.4225, 0.455, 2.575, 0.605, 2.725, 0.7575, 2.8775, 0.9075, 3.03, 1.06, 3.18, 1.21, 3.3325, 1.3625, 3.4825, 1.515, 3.635, 1.665, 3.7875, 1.8175, 3.9375, 1.9675],
  "SoftwareVersions": "syngo MR E11",
  "SpacingBetweenSlices": 1.7,
  "StationName": "AWP66112",
  "TotalReadoutTime": 0.0959097,
  "TxRefAmp": 245.349,
  "WipMemBlock": "da262a9f-f280-4279-92ca-86634a5e701b||Sequence: R016 ve11c/master r/e634e98; Dec 19 2017 11:11:25 by eja",
  "dcmmeta_affine": [
    [-1.7091678380966187, 0.052817005664110184, 0.12036029249429703, 116.89177703857422],
    [0.08634911477565765, 1.6362698078155518, 0.4997258186340332, -109.23202514648438],
    [0.10032228380441666, -0.50853431224823, 1.620428204536438, -16.51791000366211],
    [0.0, 0.0, 0.0, 1.0]
],
  "dcmmeta_reorient_transform": [
    [0.0, -1.0, 0.0, 139.0],
    [1.0, 0.0, 0.0, 0.0],
    [0.0, 0.0, 1.0, 0.0],
    [0.0, 0.0, 0.0, 1.0]
],
  "dcmmeta_shape": [140, 140, 81, 103],
  "dcmmeta_slice_dim": 2,
  "dcmmeta_version": 0.6,
  "global": {
    "const": {
      "AccessionNumber": "A003533",
      "AcquisitionMatrix": [140, 0, 0, 140],
      "AngioFlag": "N",
      "BitsAllocated": 16,
      "BitsStored": 16,
      "BodyPartExamined": "BRAIN",
      "Columns": 1260,
      "EchoNumbers": 1,
      "EchoTime": 88.4,
      "EchoTrainLength": 105,
      "FlipAngle": 90.0,
      "HighBit": 15,
      "ImageOrientationPatient": [0.99701458614074, -0.0503703169639, 0.05852133108162, 0.03080991886977, 0.95449069717231, 0.29664500317847],
      "ImagePositionPatient": [-1110.944875426, -986.16504622701, -428.16386188295],
      "ImageType": [
        "ORIGINAL",
        "PRIMARY",
        "DIFFUSION",
        "NONE",
        "MB",
        "ND",
        "MOSAIC"
],
      "ImagedNucleus": "1H",
      "ImagingFrequency": 123.252105,
      "InPlanePhaseEncodingDirection": "COL",
      "MRAcquisitionType": "2D",
      "MagneticFieldStrength": 3.0,
      "Manufacturer": "SIEMENS",
      "ManufacturerModelName": "Prisma",
      "Modality": "MR",
      "NumberOfAverages": 1.0,
      "NumberOfPhaseEncodingSteps": 105,
      "PercentPhaseFieldOfView": 100.0,
      "PercentSampling": 100.0,
      "PerformedProcedureStepStartTime": "082552.983000",
      "PhotometricInterpretation": "MONOCHROME2",
      "PixelBandwidth": 1700.0,
      "PixelRepresentation": 0,
      "PixelSpacing": [1.7142857313156, 1.7142857313156],
      "ProtocolName": "dwi_acq-96dir-6b0-mb",
      "RepetitionTime": 4110.0,
      "Rows": 1260,
      "SAR": 0.21952129490247,
      "SamplesPerPixel": 1,
      "ScanOptions": [
        "PFP",
        "FS"
],
      "ScanningSequence": "EP",
      "SequenceVariant": [
        "SK",
        "SS"
],
      "SeriesDescription": "dwi_acq-96dir-6b0-mb",
      "SeriesNumber": 8,
      "SeriesTime": "100423.484000",
      "SliceLocation": -39.578248749317,
      "SliceThickness": 1.7000000476837,
      "SmallestImagePixelValue": 0,
      "SoftwareVersions": "syngo MR E11",
      "SpacingBetweenSlices": 1.7000000294545,
      "SpecificCharacterSet": "ISO_IR 100",
      "StudyID": "1",
      "StudyTime": "082552.898000",
      "TransmitCoilName": "Body",
      "VariableFlipAngleFlag": "N",
      "WindowCenterWidthExplanation": "Algo1",
      "dBdt": 0.0},
    "slices": {}
  },
  "time": {
    "samples": {
      "AcquisitionNumber": [1, 2, 3, 4, 5, 6, 7, 8, 9, 10, 11, 12, 13, 14, 15, 16, 17, 18, 19, 20, 21, 22, 23, 24, 25, 26, 27, 28, 29, 30, 31, 32, 33, 34, 35, 36, 37, 38, 39, 40, 41, 42, 43, 44, 45, 46, 47, 48, 49, 50, 51, 52, 53, 54, 55, 56, 57, 58, 59, 60, 61, 62, 63, 64, 65, 66, 67, 68, 69, 70, 71, 72, 73, 74, 75, 76, 77, 78, 79, 80, 81, 82, 83, 84, 85, 86, 87, 88, 89, 90, 91, 92, 93, 94, 95, 96, 97, 98, 99, 100, 101, 102, 103],
      "AcquisitionTime": ["100248.095000", "100252.205000", "100256.315000", "100300.425000", "100304.535000", "100308.645000", "100312.755000", "100316.865000", "100320.975000", "100325.085000", "100329.195000", "100333.305000", "100337.415000", "100341.525000", "100345.635000", "100349.745000", "100353.855000", "100357.965000", "100402.075000", "100406.185000", "100410.295000", "100414.405000", "100418.515000", "100422.625000", "100426.735000", "100430.845000", "100434.955000", "100439.065000", "100443.175000", "100447.285000", "100451.395000", "100455.505000", "100459.615000", "100503.725000", "100507.835000", "100511.945000", "100516.055000", "100520.165000", "100524.275000", "100528.385000", "100532.495000", "100536.605000", "100540.715000", "100544.825000", "100548.935000", "100553.045000", "100557.155000", "100601.265000", "100605.375000", "100609.485000", "100613.595000", "100617.705000", "100621.815000", "100625.925000", "100630.035000", "100634.145000", "100638.255000", "100642.365000", "100646.475000", "100650.585000", "100654.695000", "100658.805000", "100702.915000", "100707.025000", "100711.135000", "100715.245000", "100719.355000", "100723.465000", "100727.575000", "100731.685000", "100735.795000", "100739.905000", "100744.015000", "100748.125000", "100752.235000", "100756.345000", "100800.455000", "100804.565000", "100808.675000", "100812.785000", "100816.895000", "100821.005000", "100825.115000", "100829.225000", "100833.335000", "100837.445000", "100841.555000", "100845.665000", "100849.775000", "100853.885000", "100857.995000", "100902.105000", "100906.215000", "100910.325000", "100914.435000", "100918.545000", "100922.655000", "100926.765000", "100930.875000", "100934.985000", "100939.095000", "100943.205000", "100947.315000"],
      "ContentTime": ["100423.489000", "100423.493000", "100423.496000", "100423.505000", "100423.508000", "100423.511000", "100423.515000", "100423.518000", "100423.522000", "100423.526000", "100423.529000", "100423.532000", "100423.535000", "100423.539000", "100423.542000", "100423.545000", "100423.548000", "100423.552000", "100423.555000", "100423.558000", "100423.561000", "100423.565000", "100423.568000", "100603.472000", "100603.476000", "100603.479000", "100603.483000", "100603.486000", "100603.489000", "100603.492000", "100603.496000", "100603.499000", "100603.502000", "100603.506000", "100603.509000", "100603.512000", "100603.516000", "100603.519000", "100603.522000", "100603.525000", "100603.528000", "100603.532000", "100603.535000", "100603.538000", "100603.542000", "100603.545000", "100603.548000", "100743.472000", "100743.476000", "100743.479000", "100743.482000", "100743.486000", "100743.489000", "100743.492000", "100743.496000", "100743.499000", "100743.502000", "100743.506000", "100743.509000", "100743.512000", "100743.515000", "100743.519000", "100743.528000", "100743.531000", "100743.535000", "100743.538000", "100743.541000", "100743.545000", "100743.548000", "100743.551000", "100743.554000", "100903.471000", "100903.475000", "100903.478000", "100903.481000", "100903.485000", "100903.488000", "100903.491000", "100903.495000", "100903.498000", "100903.501000", "100903.505000", "100903.508000", "100903.511000", "100903.514000", "100903.518000", "100903.521000", "100903.524000", "100903.528000", "100903.531000", "100903.534000", "100952.175000", "100952.178000", "100952.183000", "100952.187000", "100952.191000", "100952.195000", "100952.198000", "100952.202000", "100952.205000", "100952.209000", "100952.212000", "100952.215000"],
      "InstanceCreationTime": ["100423.489000", "100423.493000", "100423.496000", "100423.505000", "100423.508000", "100423.511000", "100423.515000", "100423.518000", "100423.522000", "100423.526000", "100423.529000", "100423.532000", "100423.535000", "100423.539000", "100423.542000", "100423.545000", "100423.548000", "100423.552000", "100423.555000", "100423.558000", "100423.561000", "100423.565000", "100423.568000", "100603.472000", "100603.476000", "100603.479000", "100603.483000", "100603.486000", "100603.489000", "100603.492000", "100603.496000", "100603.499000", "100603.502000", "100603.506000", "100603.509000", "100603.512000", "100603.516000", "100603.519000", "100603.522000", "100603.525000", "100603.528000", "100603.532000", "100603.535000", "100603.538000", "100603.542000", "100603.545000", "100603.548000", "100743.472000", "100743.476000", "100743.479000", "100743.482000", "100743.486000", "100743.489000", "100743.492000", "100743.496000", "100743.499000", "100743.502000", "100743.506000", "100743.509000", "100743.512000", "100743.515000", "100743.519000", "100743.528000", "100743.531000", "100743.535000", "100743.538000", "100743.541000", "100743.545000", "100743.548000", "100743.551000", "100743.554000", "100903.471000", "100903.475000", "100903.478000", "100903.481000", "100903.485000", "100903.488000", "100903.491000", "100903.495000", "100903.498000", "100903.501000", "100903.505000", "100903.508000", "100903.511000", "100903.514000", "100903.518000", "100903.521000", "100903.524000", "100903.528000", "100903.531000", "100903.534000", "100952.175000", "100952.178000", "100952.183000", "100952.187000", "100952.191000", "100952.195000", "100952.198000", "100952.202000", "100952.205000", "100952.209000", "100952.212000", "100952.215000"],
      "InstanceNumber": [1, 2, 3, 4, 5, 6, 7, 8, 9, 10, 11, 12, 13, 14, 15, 16, 17, 18, 19, 20, 21, 22, 23, 24, 25, 26, 27, 28, 29, 30, 31, 32, 33, 34, 35, 36, 37, 38, 39, 40, 41, 42, 43, 44, 45, 46, 47, 48, 49, 50, 51, 52, 53, 54, 55, 56, 57, 58, 59, 60, 61, 62, 63, 64, 65, 66, 67, 68, 69, 70, 71, 72, 73, 74, 75, 76, 77, 78, 79, 80, 81, 82, 83, 84, 85, 86, 87, 88, 89, 90, 91, 92, 93, 94, 95, 96, 97, 98, 99, 100, 101, 102, 103],
      "LargestImagePixelValue": [65535, 65535, 43251, 45192, 47297, 47539, 43641, 43642, 65535, 29503, 32075, 32159, 31495, 32055, 30882, 35367, 29553, 33546, 30495, 33905, 29860, 30040, 32413, 31110, 65535, 15327, 17673, 19015, 15677, 19326, 18216, 14491, 18829, 15944, 16841, 17238, 15937, 16249, 16698, 15179, 65535, 10671, 10514, 12106, 10782, 10478, 9352, 10397, 9934, 9740, 10842, 10603, 9839, 11629, 10765, 9558, 9974, 9233, 11060, 10710, 8359, 11084, 9604, 8555, 8780, 10518, 10216, 9631, 9949, 11210, 11094, 9775, 10392, 65535, 10927, 9730, 10197, 8221, 9978, 9880, 9671, 11269, 9476, 10399, 9998, 10634, 10528, 10685, 10470, 11811, 11352, 9403, 10565, 9990, 10433, 10805, 8863, 9486, 10997, 8484, 10014, 9373, 65535],
      "SequenceName": [
 "ep_b5#1",
 "ep_b5#1",
 "ep_b500#2",
 "ep_b500#3",
 "ep_b500#4",
 "ep_b505#5",
 "ep_b495#6",
 "ep_b500#7",
 "ep_b5#8",
 "ep_b1000#9",
 "ep_b1005#10",
 "ep_b1000#11",
 "ep_b1005#12",
 "ep_b995#13",
 "ep_b995#14",
 "ep_b1005#15",
 "ep_b1000#16",
 "ep_b1000#17",
 "ep_b995#18",
 "ep_b1000#19",
 "ep_b995#20",
 "ep_b1000#21",
 "ep_b1005#22",
 "ep_b1005#23",
 "ep_b5#24",
 "ep_b2000#25",
 "ep_b2000#26",
 "ep_b1995#27",
 "ep_b1995#28",
 "ep_b2005#29",
 "ep_b2010#30",
 "ep_b2005#31",
 "ep_b2005#32",
 "ep_b1995#33",
 "ep_b1990#34",
 "ep_b1995#35",
 "ep_b2005#36",
 "ep_b2000#37",
 "ep_b2010#38",
 "ep_b2000#39",
 "ep_b5#40",
 "ep_b3000#41",
 "ep_b3005#42",
 "ep_b3010#43",
 "ep_b3010#44",
 "ep_b2995#45",
 "ep_b2995#46",
 "ep_b2990#47",
 "ep_b3000#48",
 "ep_b3000#49",
 "ep_b2990#50",
 "ep_b2990#51",
 "ep_b2995#52",
 "ep_b2995#53",
 "ep_b3010#54",
 "ep_b3000#55",
 "ep_b2995#56",
 "ep_b3000#57",
 "ep_b2990#58",
 "ep_b2990#59",
 "ep_b3000#60",
 "ep_b2990#61",
 "ep_b2990#62",
 "ep_b2995#63",
 "ep_b3005#64",
 "ep_b3010#65",
 "ep_b3000#66",
 "ep_b3005#67",
 "ep_b3010#68",
 "ep_b3005#69",
 "ep_b3005#70",
 "ep_b3010#71",
 "ep_b2990#72",
 "ep_b5#73",
 "ep_b3010#74",
 "ep_b3000#75",
 "ep_b3005#76",
 "ep_b3005#77",
 "ep_b2995#78",
 "ep_b3000#79",
 "ep_b2995#80",
 "ep_b3010#81",
 "ep_b3010#82",
 "ep_b3005#83",
 "ep_b3000#84",
 "ep_b3000#85",
 "ep_b3005#86",
 "ep_b3010#87",
 "ep_b2990#88",
 "ep_b3010#89",
 "ep_b2990#90",
 "ep_b2995#91",
 "ep_b2995#92",
 "ep_b2995#93",
 "ep_b3005#94",
 "ep_b3005#95",
 "ep_b2995#96",
 "ep_b3000#97",
 "ep_b2990#98",
 "ep_b3000#99",
 "ep_b3000#100",
 "ep_b2995#101",
 "ep_b5#102"
],
      "WindowCenter": [11150.0, 11143.0, 8051.0, 8079.0, 8102.0, 8050.0, 8130.0, 8111.0, 11164.0, 6150.0, 6147.0, 6185.0, 6125.0, 6184.0, 6172.0, 6185.0, 6211.0, 6216.0, 6190.0, 6186.0, 6235.0, 6138.0, 6171.0, 6185.0, 11176.0, 3851.0, 3891.0, 3893.0, 3972.0, 3879.0, 3886.0, 3831.0, 3892.0, 3921.0, 3944.0, 3912.0, 3798.0, 3892.0, 3878.0, 3849.0, 11155.0, 2680.0, 2684.0, 2740.0, 2689.0, 2704.0, 2702.0, 2711.0, 2663.0, 2601.0, 2669.0, 2684.0, 2679.0, 2735.0, 2712.0, 2627.0, 2659.0, 2657.0, 2757.0, 2689.0, 2616.0, 2698.0, 2731.0, 2674.0, 2656.0, 2711.0, 2648.0, 2671.0, 2656.0, 2689.0, 2674.0, 2712.0, 2734.0, 11136.0, 2674.0, 2711.0, 2614.0, 2589.0, 2646.0, 2659.0, 2594.0, 2662.0, 2662.0, 2621.0, 2655.0, 2666.0, 2654.0, 2626.0, 2658.0, 2689.0, 2701.0, 2655.0, 2668.0, 2698.0, 2656.0, 2689.0, 2704.0, 2651.0, 2712.0, 2590.0, 2644.0, 2697.0, 11162.0],
      "WindowWidth": [25318.0, 25295.0, 17161.0, 17202.0, 17231.0, 17151.0, 17331.0, 17286.0, 25371.0, 13214.0, 13219.0, 13267.0, 13176.0, 13287.0, 13263.0, 13258.0, 13339.0, 13327.0, 13287.0, 13242.0, 13381.0, 13192.0, 13260.0, 13256.0, 25409.0, 8736.0, 8787.0, 8781.0, 8950.0, 8754.0, 8775.0, 8704.0, 8791.0, 8856.0, 8902.0, 8833.0, 8631.0, 8785.0, 8773.0, 8728.0, 25344.0, 6447.0, 6428.0, 6532.0, 6426.0, 6490.0, 6505.0, 6489.0, 6400.0, 6299.0, 6373.0, 6405.0, 6474.0, 6553.0, 6511.0, 6344.0, 6424.0, 6403.0, 6561.0, 6429.0, 6358.0, 6447.0, 6549.0, 6477.0, 6432.0, 6500.0, 6375.0, 6436.0, 6395.0, 6451.0, 6422.0, 6509.0, 6528.0, 25285.0, 6395.0, 6517.0, 6288.0, 6305.0, 6348.0, 6390.0, 6265.0, 6360.0, 6419.0, 6316.0, 6408.0, 6419.0, 6358.0, 6297.0, 6368.0, 6399.0, 6467.0, 6391.0, 6384.0, 6491.0, 6378.0, 6456.0, 6511.0, 6386.0, 6471.0, 6276.0, 6388.0, 6517.0, 25388.0]
    },
    "slices": {}
  }
}