{
  "AcquisitionMatrixPE": 140,
  "AcquisitionNumber": 1,
  "AcquisitionTime": "15:46:45.065000",
  "BandwidthPerPixelPhaseEncode": 10.352,
  "BaseResolution": 140,
  "BodyPartExamined": "BRAIN",
  "ConsistencyInfo": "N4_VE11E_LATEST_20181129",
  "ConversionSoftware": "dcm2niix",
  "ConversionSoftwareVersion": "v1.0.20201102",
  "DerivedVendorReportedEchoSpacing": 0.000689998,
  "DeviceSerialNumber": "66112",
  "DiffusionScheme": "Monopolar",
  "DwellTime": 2.1e-06,
  "EchoTime": 0.0884,
  "EchoTrainLength": 105,
  "EffectiveEchoSpacing": 0.000689998,
  "FlipAngle": 90,
  "ImageComments": "Unaliased MB3/PE3 SENSE1",
  "ImageOrientationPatientDICOM": [0.999478, 0.0217656, 0.0238606, -0.0259977, 0.98055, 0.194542],
  "ImageType": [
    "ORIGINAL",
    "PRIMARY",
    "DIFFUSION",
    "NONE",
    "MB",
    "ND",
    "MOSAIC"
],
  "ImagingFrequency": 123.252,
  "InPlanePhaseEncodingDirectionDICOM": "COL",
  "InstitutionAddress": "Maynard 3,Hanover,NH,US,03755",
  "InstitutionName": "Dartmouth College - PBS",
  "InstitutionalDepartmentName": "Department",
  "MRAcquisitionType": "2D",
  "MagneticFieldStrength": 3,
  "Manufacturer": "Siemens",
  "ManufacturersModelName": "Prisma",
  "Modality": "MR",
  "MultibandAccelerationFactor": 3,
  "PartialFourier": 0.75,
  "PatientPosition": "HFS",
  "PercentPhaseFOV": 100,
  "PercentSampling": 100,
  "PhaseEncodingDirection": "j-",
  "PhaseEncodingSteps": 105,
  "PhaseResolution": 1,
  "PixelBandwidth": 1700,
  "ProcedureStepDescription": "Wager_Wager^1076_spacetop",
  "ProtocolName": "dwi_acq-96dir-6b0-mb",
  "PulseSequenceDetails": "%CustomerSeq%\\cmrr_mbep2d_diff",
  "ReceiveCoilActiveElements": "HEA;HEP",
  "ReceiveCoilName": "Head_32",
  "ReconMatrixPE": 140,
  "RepetitionTime": 4.11,
  "SAR": 0.21205,
  "ScanOptions": "PFP\\FS",
  "ScanningSequence": "EP",
  "SequenceName": "ep_b5#1",
  "SequenceVariant": "SK\\SS",
  "SeriesDescription": "dwi_acq-96dir-6b0-mb",
  "SeriesNumber": 8,
  "ShimSetting": [4155, -7758, -7253, 572, -57, -102, 89, 46],
  "SliceThickness": 1.7,
  "SliceTiming": [0, 2.1225, 0.1525, 2.2725, 0.3025, 2.425, 0.455, 2.575, 0.6075, 2.7275, 0.7575, 2.88, 0.91, 3.03, 1.06, 3.1825, 1.2125, 3.3325, 1.365, 3.485, 1.515, 3.6375, 1.6675, 3.7875, 1.8175, 3.94, 1.97, 0, 2.1225, 0.1525, 2.2725, 0.3025, 2.425, 0.455, 2.575, 0.6075, 2.7275, 0.7575, 2.88, 0.91, 3.03, 1.06, 3.1825, 1.2125, 3.3325, 1.365, 3.485, 1.515, 3.6375, 1.6675, 3.7875, 1.8175, 3.94, 1.97, 0, 2.1225, 0.1525, 2.2725, 0.3025, 2.425, 0.455, 2.575, 0.6075, 2.7275, 0.7575, 2.88, 0.91, 3.03, 1.06, 3.1825, 1.2125, 3.3325, 1.365, 3.485, 1.515, 3.6375, 1.6675, 3.7875, 1.8175, 3.94, 1.97],
  "SoftwareVersions": "syngo MR E11",
  "SpacingBetweenSlices": 1.7,
  "StationName": "AWP66112",
  "TotalReadoutTime": 0.0959097,
  "TxRefAmp": 234.688,
  "WipMemBlock": "0911bcbf-cdb6-420b-a176-1b7412880a9f||Sequence: R016 ve11e/master r/434b28f1; Aug  7 2019 19:06:17 by eja",
  "dcmmeta_affine": [
    [-1.7133914232254028, -0.04456743597984314, 0.03257570415735245, 124.33316802978516],
    [-0.03731240704655647, 1.680942177772522, 0.3316032588481903, -104.6204605102539],
    [0.04090387001633644, -0.3335004150867462, 1.6670267581939697, -22.550264358520508],
    [0.0, 0.0, 0.0, 1.0]
],
  "dcmmeta_reorient_transform": [
    [0.0, -1.0, 0.0, 139.0],
    [1.0, 0.0, 0.0, 0.0],
    [0.0, 0.0, 1.0, 0.0],
    [0.0, 0.0, 0.0, 1.0]
],
  "dcmmeta_shape": [140, 140, 81, 103],
  "dcmmeta_slice_dim": 2,
  "dcmmeta_version": 0.6,
  "global": {
    "const": {
      "AccessionNumber": "A003979",
      "AcquisitionMatrix": [140, 0, 0, 140],
      "AngioFlag": "N",
      "BitsAllocated": 16,
      "BitsStored": 16,
      "BodyPartExamined": "BRAIN",
      "Columns": 1260,
      "EchoNumbers": 1,
      "EchoTime": 88.4,
      "EchoTrainLength": 105,
      "FlipAngle": 90.0,
      "HighBit": 15,
      "ImageOrientationPatient": [0.99947832997745, 0.02176557156176, 0.02386059094135, -0.0259976699528, 0.98054962681731, 0.19454189910008],
      "ImagePositionPatient": [-1052.6797343902, -1091.2531076889, -278.57321224835],
      "ImageType": [
        "ORIGINAL",
        "PRIMARY",
        "DIFFUSION",
        "NONE",
        "MB",
        "ND",
        "MOSAIC"
],
      "ImagedNucleus": "1H",
      "ImagingFrequency": 123.252158,
      "InPlanePhaseEncodingDirection": "COL",
      "MRAcquisitionType": "2D",
      "MagneticFieldStrength": 3.0,
      "Manufacturer": "SIEMENS",
      "ManufacturerModelName": "Prisma",
      "Modality": "MR",
      "NumberOfAverages": 1.0,
      "NumberOfPhaseEncodingSteps": 105,
      "PercentPhaseFieldOfView": 100.0,
      "PercentSampling": 100.0,
      "PerformedProcedureStepStartTime": "150123.292000",
      "PhotometricInterpretation": "MONOCHROME2",
      "PixelBandwidth": 1700.0,
      "PixelRepresentation": 0,
      "PixelSpacing": [1.7142857313156, 1.7142857313156],
      "ProtocolName": "dwi_acq-96dir-6b0-mb",
      "RepetitionTime": 4110.0,
      "Rows": 1260,
      "SAR": 0.21205042864835,
      "SamplesPerPixel": 1,
      "ScanOptions": [
        "PFP",
        "FS"
],
      "ScanningSequence": "EP",
      "SequenceVariant": [
        "SK",
        "SS"
],
      "SeriesDescription": "dwi_acq-96dir-6b0-mb",
      "SeriesNumber": 8,
      "SeriesTime": "154753.648000",
      "SliceLocation": -40.13772786542,
      "SliceThickness": 1.7000000476837,
      "SmallestImagePixelValue": 0,
      "SoftwareVersions": "syngo MR E11",
      "SpacingBetweenSlices": 1.7000000264609,
      "SpecificCharacterSet": "ISO_IR 100",
      "StudyID": "1",
      "StudyTime": "150123.223000",
      "TransmitCoilName": "Body",
      "VariableFlipAngleFlag": "N",
      "WindowCenterWidthExplanation": "Algo1"
    },
    "slices": {}
  },
  "time": {
    "samples": {
      "AcquisitionNumber": [1, 2, 3, 4, 5, 6, 7, 8, 9, 10, 11, 12, 13, 14, 15, 16, 17, 18, 19, 20, 21, 22, 23, 24, 25, 26, 27, 28, 29, 30, 31, 32, 33, 34, 35, 36, 37, 38, 39, 40, 41, 42, 43, 44, 45, 46, 47, 48, 49, 50, 51, 52, 53, 54, 55, 56, 57, 58, 59, 60, 61, 62, 63, 64, 65, 66, 67, 68, 69, 70, 71, 72, 73, 74, 75, 76, 77, 78, 79, 80, 81, 82, 83, 84, 85, 86, 87, 88, 89, 90, 91, 92, 93, 94, 95, 96, 97, 98, 99, 100, 101, 102, 103],
      "AcquisitionTime": ["154645.065000", "154649.175000", "154653.285000", "154657.395000", "154701.505000", "154705.615000", "154709.725000", "154713.835000", "154717.945000", "154722.055000", "154726.165000", "154730.275000", "154734.385000", "154738.495000", "154742.605000", "154746.715000", "154750.825000", "154754.935000", "154759.045000", "154803.155000", "154807.265000", "154811.375000", "154815.485000", "154819.595000", "154823.705000", "154827.815000", "154831.925000", "154836.035000", "154840.145000", "154844.255000", "154848.365000", "154852.475000", "154856.585000", "154900.695000", "154904.805000", "154908.915000", "154913.025000", "154917.135000", "154921.245000", "154925.355000", "154929.465000", "154933.575000", "154937.685000", "154941.795000", "154945.905000", "154950.015000", "154954.125000", "154958.235000", "155002.345000", "155006.455000", "155010.565000", "155014.675000", "155018.785000", "155022.895000", "155027.005000", "155031.115000", "155035.225000", "155039.335000", "155043.445000", "155047.555000", "155051.665000", "155055.775000", "155059.885000", "155103.995000", "155108.105000", "155112.215000", "155116.325000", "155120.435000", "155124.545000", "155128.655000", "155132.765000", "155136.875000", "155140.985000", "155145.095000", "155149.205000", "155153.315000", "155157.425000", "155201.535000", "155205.645000", "155209.755000", "155213.865000", "155217.975000", "155222.085000", "155226.195000", "155230.305000", "155234.415000", "155238.525000", "155242.635000", "155246.745000", "155250.855000", "155254.965000", "155259.075000", "155303.185000", "155307.295000", "155311.405000", "155315.515000", "155319.625000", "155323.735000", "155327.845000", "155331.955000", "155336.065000", "155340.175000", "155344.285000"],
      "ContentTime": ["154753.652000", "154753.656000", "154753.659000", "154753.662000", "154753.665000", "154753.668000", "154753.671000", "154753.674000", "154753.677000", "154753.680000", "154753.683000", "154753.693000", "154753.696000", "154753.699000", "154753.702000", "154753.705000", "154933.646000", "154933.649000", "154933.652000", "154933.655000", "154933.658000", "154933.661000", "154933.664000", "154933.675000", "154933.678000", "154933.681000", "154933.684000", "154933.687000", "154933.690000", "154933.693000", "154933.696000", "154933.699000", "154933.702000", "154933.705000", "154933.708000", "154933.711000", "154933.714000", "154933.717000", "154933.720000", "154933.723000", "155053.647000", "155053.650000", "155053.653000", "155053.656000", "155053.659000", "155053.662000", "155053.665000", "155053.668000", "155053.679000", "155053.682000", "155053.685000", "155053.688000", "155053.691000", "155053.694000", "155053.697000", "155053.700000", "155053.702000", "155053.705000", "155053.708000", "155053.711000", "155233.647000", "155233.650000", "155233.653000", "155233.656000", "155233.659000", "155233.662000", "155233.665000", "155233.668000", "155233.671000", "155233.674000", "155233.677000", "155233.680000", "155233.683000", "155233.686000", "155233.689000", "155233.692000", "155233.695000", "155233.698000", "155233.701000", "155233.704000", "155233.707000", "155233.710000", "155233.713000", "155233.715000", "155349.042000", "155349.045000", "155349.048000", "155349.051000", "155349.054000", "155349.058000", "155349.061000", "155349.064000", "155349.067000", "155349.070000", "155349.073000", "155349.076000", "155349.079000", "155349.082000", "155349.085000", "155349.088000", "155349.091000", "155349.094000", "155349.097000"],
      "InstanceCreationTime": ["154753.652000", "154753.656000", "154753.659000", "154753.662000", "154753.665000", "154753.668000", "154753.671000", "154753.674000", "154753.677000", "154753.680000", "154753.683000", "154753.693000", "154753.696000", "154753.699000", "154753.702000", "154753.705000", "154933.646000", "154933.649000", "154933.652000", "154933.655000", "154933.658000", "154933.661000", "154933.664000", "154933.675000", "154933.678000", "154933.681000", "154933.684000", "154933.687000", "154933.690000", "154933.693000", "154933.696000", "154933.699000", "154933.702000", "154933.705000", "154933.708000", "154933.711000", "154933.714000", "154933.717000", "154933.720000", "154933.723000", "155053.647000", "155053.650000", "155053.653000", "155053.656000", "155053.659000", "155053.662000", "155053.665000", "155053.668000", "155053.679000", "155053.682000", "155053.685000", "155053.688000", "155053.691000", "155053.694000", "155053.697000", "155053.700000", "155053.702000", "155053.705000", "155053.708000", "155053.711000", "155233.647000", "155233.650000", "155233.653000", "155233.656000", "155233.659000", "155233.662000", "155233.665000", "155233.668000", "155233.671000", "155233.674000", "155233.677000", "155233.680000", "155233.683000", "155233.686000", "155233.689000", "155233.692000", "155233.695000", "155233.698000", "155233.701000", "155233.704000", "155233.707000", "155233.710000", "155233.713000", "155233.715000", "155349.042000", "155349.045000", "155349.048000", "155349.051000", "155349.054000", "155349.058000", "155349.061000", "155349.064000", "155349.067000", "155349.070000", "155349.073000", "155349.076000", "155349.079000", "155349.082000", "155349.085000", "155349.088000", "155349.091000", "155349.094000", "155349.097000"],
      "InstanceNumber": [1, 2, 3, 4, 5, 6, 7, 8, 9, 10, 11, 12, 13, 14, 15, 16, 17, 18, 19, 20, 21, 22, 23, 24, 25, 26, 27, 28, 29, 30, 31, 32, 33, 34, 35, 36, 37, 38, 39, 40, 41, 42, 43, 44, 45, 46, 47, 48, 49, 50, 51, 52, 53, 54, 55, 56, 57, 58, 59, 60, 61, 62, 63, 64, 65, 66, 67, 68, 69, 70, 71, 72, 73, 74, 75, 76, 77, 78, 79, 80, 81, 82, 83, 84, 85, 86, 87, 88, 89, 90, 91, 92, 93, 94, 95, 96, 97, 98, 99, 100, 101, 102, 103],
      "LargestImagePixelValue": [65535, 65535, 53414, 54060, 51856, 54517, 52692, 52649, 65535, 34544, 40407, 36140, 37746, 38522, 36233, 37841, 36248, 37750, 38094, 35068, 35754, 35438, 38347, 37216, 65535, 19592, 17593, 21623, 18242, 21268, 21157, 18287, 20825, 18698, 18740, 18696, 18527, 18335, 21496, 18241, 65535, 10025, 12236, 10945, 12567, 9930, 10603, 10778, 11520, 10767, 12624, 11922, 10979, 10587, 11681, 10723, 12112, 10374, 11382, 12061, 9960, 11213, 10337, 9612, 10111, 10903, 10078, 10626, 12189, 10920, 12825, 10235, 11348, 65535, 12997, 10817, 11570, 10679, 11104, 10464, 10587, 12658, 11629, 12699, 10985, 10733, 12926, 12843, 12162, 13273, 11694, 11266, 11397, 11032, 11206, 11803, 11151, 9803, 11556, 10350, 10978, 10255, 65535],
      "SequenceName": [
 "ep_b5#1",
 "ep_b5#1",
 "ep_b500#2",
 "ep_b500#3",
 "ep_b500#4",
 "ep_b505#5",
 "ep_b495#6",
 "ep_b500#7",
 "ep_b5#8",
 "ep_b1000#9",
 "ep_b1005#10",
 "ep_b995#11",
 "ep_b1005#12",
 "ep_b995#13",
 "ep_b995#14",
 "ep_b1005#15",
 "ep_b1000#16",
 "ep_b1000#17",
 "ep_b995#18",
 "ep_b1000#19",
 "ep_b995#20",
 "ep_b1000#21",
 "ep_b1005#22",
 "ep_b1005#23",
 "ep_b5#24",
 "ep_b2000#25",
 "ep_b1995#26",
 "ep_b1995#27",
 "ep_b1995#28",
 "ep_b2005#29",
 "ep_b2010#30",
 "ep_b2005#31",
 "ep_b2005#32",
 "ep_b1995#33",
 "ep_b1990#34",
 "ep_b1995#35",
 "ep_b2005#36",
 "ep_b2000#37",
 "ep_b2010#38",
 "ep_b2000#39",
 "ep_b5#40",
 "ep_b3000#41",
 "ep_b3005#42",
 "ep_b3010#43",
 "ep_b3010#44",
 "ep_b2995#45",
 "ep_b3000#46",
 "ep_b2990#47",
 "ep_b3005#48",
 "ep_b3000#49",
 "ep_b2990#50",
 "ep_b2990#51",
 "ep_b2995#52",
 "ep_b2995#53",
 "ep_b3010#54",
 "ep_b3000#55",
 "ep_b2995#56",
 "ep_b3000#57",
 "ep_b2990#58",
 "ep_b2990#59",
 "ep_b3000#60",
 "ep_b2990#61",
 "ep_b2990#62",
 "ep_b2995#63",
 "ep_b3005#64",
 "ep_b3010#65",
 "ep_b3000#66",
 "ep_b3005#67",
 "ep_b3010#68",
 "ep_b3005#69",
 "ep_b3005#70",
 "ep_b3010#71",
 "ep_b2990#72",
 "ep_b5#73",
 "ep_b3010#74",
 "ep_b3000#75",
 "ep_b3005#76",
 "ep_b3005#77",
 "ep_b2995#78",
 "ep_b3005#79",
 "ep_b2995#80",
 "ep_b3010#81",
 "ep_b3010#82",
 "ep_b3005#83",
 "ep_b3000#84",
 "ep_b3005#85",
 "ep_b3010#86",
 "ep_b3010#87",
 "ep_b2990#88",
 "ep_b3010#89",
 "ep_b2995#90",
 "ep_b2995#91",
 "ep_b2995#92",
 "ep_b2995#93",
 "ep_b3005#94",
 "ep_b3005#95",
 "ep_b2995#96",
 "ep_b3000#97",
 "ep_b2990#98",
 "ep_b3000#99",
 "ep_b3000#100",
 "ep_b2995#101",
 "ep_b5#102"
],
      "WindowCenter": [11179.0, 11177.0, 8243.0, 8251.0, 8219.0, 8161.0, 8274.0, 8258.0, 11167.0, 6335.0, 6320.0, 6304.0, 6264.0, 6308.0, 6332.0, 6301.0, 6315.0, 6276.0, 6381.0, 6306.0, 6374.0, 6321.0, 6323.0, 6347.0, 11163.0, 4070.0, 4004.0, 3989.0, 4081.0, 4018.0, 3996.0, 4036.0, 3953.0, 4055.0, 4103.0, 4064.0, 3969.0, 3965.0, 4071.0, 3968.0, 11183.0, 2807.0, 2742.0, 2821.0, 2820.0, 2771.0, 2799.0, 2849.0, 2736.0, 2785.0, 2757.0, 2777.0, 2838.0, 2832.0, 2862.0, 2778.0, 2854.0, 2726.0, 2843.0, 2808.0, 2750.0, 2786.0, 2868.0, 2789.0, 2807.0, 2865.0, 2739.0, 2805.0, 2829.0, 2799.0, 2832.0, 2845.0, 2844.0, 11158.0, 2803.0, 2740.0, 2723.0, 2796.0, 2724.0, 2712.0, 2750.0, 2759.0, 2849.0, 2782.0, 2812.0, 2815.0, 2729.0, 2746.0, 2805.0, 2772.0, 2831.0, 2734.0, 2748.0, 2826.0, 2757.0, 2819.0, 2859.0, 2733.0, 2811.0, 2735.0, 2796.0, 2830.0, 11168.0],
      "WindowWidth": [25407.0, 25400.0, 17502.0, 17525.0, 17461.0, 17342.0, 17563.0, 17536.0, 25340.0, 13512.0, 13482.0, 13452.0, 13387.0, 13475.0, 13512.0, 13448.0, 13480.0, 13412.0, 13587.0, 13455.0, 13583.0, 13489.0, 13488.0, 13527.0, 25345.0, 9083.0, 8960.0, 8923.0, 9106.0, 8980.0, 8939.0, 9036.0, 8866.0, 9060.0, 9154.0, 9079.0, 8902.0, 8891.0, 9080.0, 8900.0, 25399.0, 6700.0, 6482.0, 6688.0, 6641.0, 6613.0, 6634.0, 6732.0, 6484.0, 6640.0, 6502.0, 6548.0, 6742.0, 6743.0, 6773.0, 6611.0, 6773.0, 6477.0, 6705.0, 6617.0, 6550.0, 6594.0, 6792.0, 6658.0, 6675.0, 6780.0, 6532.0, 6665.0, 6698.0, 6672.0, 6713.0, 6768.0, 6710.0, 25310.0, 6600.0, 6503.0, 6466.0, 6656.0, 6460.0, 6451.0, 6553.0, 6512.0, 6755.0, 6593.0, 6691.0, 6705.0, 6453.0, 6494.0, 6618.0, 6535.0, 6704.0, 6478.0, 6501.0, 6721.0, 6551.0, 6688.0, 6768.0, 6511.0, 6637.0, 6516.0, 6653.0, 6735.0, 25341.0]
    },
    "slices": {}
  }
}