{
  "AcquisitionMatrixPE": 140,
  "AcquisitionNumber": 1,
  "AcquisitionTime": "15:39:23.097500",
  "BandwidthPerPixelPhaseEncode": 10.352,
  "BaseResolution": 140,
  "BodyPartExamined": "BRAIN",
  "ConsistencyInfo": "N4_VE11C_LATEST_20160120",
  "ConversionSoftware": "dcm2niix",
  "ConversionSoftwareVersion": "v1.0.20201102",
  "DerivedVendorReportedEchoSpacing": 0.000689998,
  "DeviceSerialNumber": "66112",
  "DiffusionScheme": "Monopolar",
  "DwellTime": 2.1e-06,
  "EchoTime": 0.0884,
  "EchoTrainLength": 105,
  "EffectiveEchoSpacing": 0.000689998,
  "FlipAngle": 90,
  "ImageComments": "Unaliased MB3/PE3 SENSE1",
  "ImageOrientationPatientDICOM": [0.99813, 0.0591626, 0.0153483, -0.0598243, 0.997102, 0.0469967],
  "ImageType": [
    "ORIGINAL",
    "PRIMARY",
    "DIFFUSION",
    "NONE",
    "MB",
    "ND",
    "MOSAIC"
],
  "ImagingFrequency": 123.252,
  "InPlanePhaseEncodingDirectionDICOM": "COL",
  "InstitutionAddress": "Maynard 3,Hanover,NH,US,03755",
  "InstitutionName": "Dartmouth College - PBS",
  "InstitutionalDepartmentName": "Department",
  "MRAcquisitionType": "2D",
  "MagneticFieldStrength": 3,
  "Manufacturer": "Siemens",
  "ManufacturersModelName": "Prisma",
  "Modality": "MR",
  "MultibandAccelerationFactor": 3,
  "PartialFourier": 0.75,
  "PatientPosition": "HFS",
  "PercentPhaseFOV": 100,
  "PercentSampling": 100,
  "PhaseEncodingDirection": "j-",
  "PhaseEncodingSteps": 105,
  "PhaseResolution": 1,
  "PixelBandwidth": 1700,
  "ProcedureStepDescription": "Wager_Wager^1076_spacetop",
  "ProtocolName": "dwi_acq-96dir-6b0-mb",
  "PulseSequenceDetails": "%CustomerSeq%\\cmrr_mbep2d_diff",
  "ReceiveCoilActiveElements": "HEA;HEP",
  "ReceiveCoilName": "Head_32",
  "ReconMatrixPE": 140,
  "RepetitionTime": 4.11,
  "SAR": 0.282473,
  "ScanOptions": "PFP\\FS",
  "ScanningSequence": "EP",
  "SequenceName": "ep_b5#1",
  "SequenceVariant": "SK\\SS",
  "SeriesDescription": "dwi_acq-96dir-6b0-mb",
  "SeriesNumber": 8,
  "ShimSetting": [4146, -7720, -7224, 507, -30, 1, -144, 59],
  "SliceThickness": 1.7,
  "SliceTiming": [0, 2.12, 0.1525, 2.2725, 0.3025, 2.4225, 0.455, 2.575, 0.605, 2.7275, 0.7575, 2.8775, 0.91, 3.03, 1.06, 3.18, 1.2125, 3.3325, 1.3625, 3.485, 1.515, 3.635, 1.6675, 3.7875, 1.8175, 3.9375, 1.97, 0, 2.12, 0.1525, 2.2725, 0.3025, 2.4225, 0.455, 2.575, 0.605, 2.7275, 0.7575, 2.8775, 0.91, 3.03, 1.06, 3.18, 1.2125, 3.3325, 1.3625, 3.485, 1.515, 3.635, 1.6675, 3.7875, 1.8175, 3.9375, 1.97, 0, 2.12, 0.1525, 2.2725, 0.3025, 2.4225, 0.455, 2.575, 0.605, 2.7275, 0.7575, 2.8775, 0.91, 3.03, 1.06, 3.18, 1.2125, 3.3325, 1.3625, 3.485, 1.515, 3.635, 1.6675, 3.7875, 1.8175, 3.9375, 1.97],
  "SoftwareVersions": "syngo MR E11",
  "SpacingBetweenSlices": 1.7,
  "StationName": "AWP66112",
  "TotalReadoutTime": 0.0959097,
  "TxRefAmp": 252.242,
  "WipMemBlock": "5c930eb6-075d-4906-86f0-38c10c1c7975||Sequence: R016 ve11c/master r/e634e98; Dec 19 2017 11:11:25 by eja",
  "dcmmeta_affine": [
    [-1.7110806703567505, -0.10255599021911621, 0.021289672702550888, 127.83879852294922],
    [-0.10142162442207336, 1.709317684173584, 0.08130588382482529, -100.17679595947266],
    [0.026311304420232773, -0.08056569844484329, 1.6979211568832397, -32.106536865234375],
    [0.0, 0.0, 0.0, 1.0]
],
  "dcmmeta_reorient_transform": [
    [0.0, -1.0, 0.0, 139.0],
    [1.0, 0.0, 0.0, 0.0],
    [0.0, 0.0, 1.0, 0.0],
    [0.0, 0.0, 0.0, 1.0]
],
  "dcmmeta_shape": [140, 140, 81, 103],
  "dcmmeta_slice_dim": 2,
  "dcmmeta_version": 0.6,
  "global": {
    "const": {
      "AccessionNumber": "A003587",
      "AcquisitionMatrix": [140, 0, 0, 140],
      "AngioFlag": "N",
      "BitsAllocated": 16,
      "BitsStored": 16,
      "BodyPartExamined": "BRAIN",
      "Columns": 1260,
      "EchoNumbers": 1,
      "EchoTime": 88.4,
      "EchoTrainLength": 105,
      "FlipAngle": 90.0,
      "HighBit": 15,
      "ImageOrientationPatient": [0.99813036016569, 0.05916261484158, 0.01534826115953, -0.0598243274813, 0.99710198276515, 0.04699665740479],
      "ImagePositionPatient": [-1014.3573185861, -1151.4323855582, -103.15629277817],
      "ImageType": [
        "ORIGINAL",
        "PRIMARY",
        "DIFFUSION",
        "NONE",
        "MB",
        "ND",
        "MOSAIC"
],
      "ImagedNucleus": "1H",
      "ImagingFrequency": 123.252158,
      "InPlanePhaseEncodingDirection": "COL",
      "MRAcquisitionType": "2D",
      "MagneticFieldStrength": 3.0,
      "Manufacturer": "SIEMENS",
      "ManufacturerModelName": "Prisma",
      "Modality": "MR",
      "NumberOfAverages": 1.0,
      "NumberOfPhaseEncodingSteps": 105,
      "PercentPhaseFieldOfView": 100.0,
      "PercentSampling": 100.0,
      "PerformedProcedureStepStartTime": "153007.324000",
      "PhotometricInterpretation": "MONOCHROME2",
      "PixelBandwidth": 1700.0,
      "PixelRepresentation": 0,
      "PixelSpacing": [1.7142857313156, 1.7142857313156],
      "ProtocolName": "dwi_acq-96dir-6b0-mb",
      "RepetitionTime": 4110.0,
      "Rows": 1260,
      "SAR": 0.28247294354718,
      "SamplesPerPixel": 1,
      "ScanOptions": [
        "PFP",
        "FS"
],
      "ScanningSequence": "EP",
      "SequenceVariant": [
        "SK",
        "SS"
],
      "SeriesDescription": "dwi_acq-96dir-6b0-mb",
      "SeriesNumber": 8,
      "SeriesTime": "154046.728000",
      "SliceLocation": -35.257462312195,
      "SliceThickness": 1.7000000476837,
      "SmallestImagePixelValue": 0,
      "SoftwareVersions": "syngo MR E11",
      "SpacingBetweenSlices": 1.7000000209537,
      "SpecificCharacterSet": "ISO_IR 100",
      "StudyID": "2",
      "StudyTime": "153007.224000",
      "TransmitCoilName": "Body",
      "VariableFlipAngleFlag": "N",
      "WindowCenterWidthExplanation": "Algo1",
      "dBdt": 0.0},
    "slices": {}
  },
  "time": {
    "samples": {
      "AcquisitionNumber": [1, 2, 3, 4, 5, 6, 7, 8, 9, 10, 11, 12, 13, 14, 15, 16, 17, 18, 19, 20, 21, 22, 23, 24, 25, 26, 27, 28, 29, 30, 31, 32, 33, 34, 35, 36, 37, 38, 39, 40, 41, 42, 43, 44, 45, 46, 47, 48, 49, 50, 51, 52, 53, 54, 55, 56, 57, 58, 59, 60, 61, 62, 63, 64, 65, 66, 67, 68, 69, 70, 71, 72, 73, 74, 75, 76, 77, 78, 79, 80, 81, 82, 83, 84, 85, 86, 87, 88, 89, 90, 91, 92, 93, 94, 95, 96, 97, 98, 99, 100, 101, 102, 103],
      "AcquisitionTime": ["153923.097500", "153927.207500", "153931.317500", "153935.427500", "153939.537500", "153943.647500", "153947.757500", "153951.867500", "153955.977500", "154000.087500", "154004.197500", "154008.307500", "154012.417500", "154016.527500", "154020.637500", "154024.747500", "154028.857500", "154032.967500", "154037.077500", "154041.187500", "154045.297500", "154049.407500", "154053.517500", "154057.627500", "154101.737500", "154105.847500", "154109.957500", "154114.067500", "154118.177500", "154122.287500", "154126.397500", "154130.507500", "154134.617500", "154138.727500", "154142.837500", "154146.947500", "154151.057500", "154155.167500", "154159.277500", "154203.387500", "154207.497500", "154211.607500", "154215.717500", "154219.827500", "154223.937500", "154228.047500", "154232.157500", "154236.267500", "154240.377500", "154244.487500", "154248.597500", "154252.707500", "154256.817500", "154300.927500", "154305.037500", "154309.147500", "154313.257500", "154317.367500", "154321.477500", "154325.587500", "154329.697500", "154333.807500", "154337.917500", "154342.027500", "154346.137500", "154350.247500", "154354.357500", "154358.467500", "154402.577500", "154406.687500", "154410.797500", "154414.907500", "154419.017500", "154423.127500", "154427.237500", "154431.347500", "154435.457500", "154439.567500", "154443.677500", "154447.787500", "154451.897500", "154456.007500", "154500.117500", "154504.227500", "154508.337500", "154512.447500", "154516.557500", "154520.667500", "154524.777500", "154528.887500", "154532.997500", "154537.107500", "154541.217500", "154545.327500", "154549.437500", "154553.547500", "154557.657500", "154601.767500", "154605.877500", "154609.987500", "154614.097500", "154618.207500", "154622.317500"],
      "ContentTime": ["154046.732000", "154046.737000", "154046.745000", "154046.749000", "154046.752000", "154046.756000", "154046.759000", "154046.762000", "154046.766000", "154046.769000", "154046.773000", "154046.776000", "154046.779000", "154046.784000", "154046.788000", "154046.795000", "154046.798000", "154046.802000", "154046.805000", "154046.808000", "154226.727000", "154226.739000", "154226.743000", "154226.746000", "154226.750000", "154226.753000", "154226.756000", "154226.760000", "154226.763000", "154226.767000", "154226.770000", "154226.774000", "154226.777000", "154226.781000", "154226.784000", "154226.787000", "154226.791000", "154226.794000", "154226.806000", "154226.809000", "154226.819000", "154226.822000", "154226.826000", "154226.829000", "154346.726000", "154346.730000", "154346.733000", "154346.737000", "154346.740000", "154346.744000", "154346.747000", "154346.750000", "154346.754000", "154346.758000", "154346.761000", "154346.764000", "154346.768000", "154346.771000", "154346.775000", "154346.778000", "154346.782000", "154346.785000", "154346.788000", "154346.792000", "154506.727000", "154506.731000", "154506.735000", "154506.738000", "154506.741000", "154506.745000", "154506.748000", "154506.752000", "154506.755000", "154506.759000", "154506.762000", "154506.766000", "154506.769000", "154506.772000", "154506.776000", "154506.779000", "154506.783000", "154506.786000", "154506.790000", "154626.718000", "154626.722000", "154626.725000", "154626.729000", "154626.732000", "154626.736000", "154626.740000", "154626.745000", "154626.749000", "154626.754000", "154626.761000", "154626.769000", "154626.775000", "154626.779000", "154626.783000", "154626.786000", "154626.791000", "154626.796000", "154626.800000", "154626.803000"],
      "InstanceCreationTime": ["154046.732000", "154046.737000", "154046.745000", "154046.749000", "154046.752000", "154046.756000", "154046.759000", "154046.762000", "154046.766000", "154046.769000", "154046.773000", "154046.776000", "154046.779000", "154046.784000", "154046.788000", "154046.795000", "154046.798000", "154046.802000", "154046.805000", "154046.808000", "154226.727000", "154226.739000", "154226.743000", "154226.746000", "154226.750000", "154226.753000", "154226.756000", "154226.760000", "154226.763000", "154226.767000", "154226.770000", "154226.774000", "154226.777000", "154226.781000", "154226.784000", "154226.787000", "154226.791000", "154226.794000", "154226.806000", "154226.809000", "154226.819000", "154226.822000", "154226.826000", "154226.829000", "154346.726000", "154346.730000", "154346.733000", "154346.737000", "154346.740000", "154346.744000", "154346.747000", "154346.750000", "154346.754000", "154346.758000", "154346.761000", "154346.764000", "154346.768000", "154346.771000", "154346.775000", "154346.778000", "154346.782000", "154346.785000", "154346.788000", "154346.792000", "154506.727000", "154506.731000", "154506.735000", "154506.738000", "154506.741000", "154506.745000", "154506.748000", "154506.752000", "154506.755000", "154506.759000", "154506.762000", "154506.766000", "154506.769000", "154506.772000", "154506.776000", "154506.779000", "154506.783000", "154506.786000", "154506.790000", "154626.718000", "154626.722000", "154626.725000", "154626.729000", "154626.732000", "154626.736000", "154626.740000", "154626.745000", "154626.749000", "154626.754000", "154626.761000", "154626.769000", "154626.775000", "154626.779000", "154626.783000", "154626.786000", "154626.791000", "154626.796000", "154626.800000", "154626.803000"],
      "InstanceNumber": [1, 2, 3, 4, 5, 6, 7, 8, 9, 10, 11, 12, 13, 14, 15, 16, 17, 18, 19, 20, 21, 22, 23, 24, 25, 26, 27, 28, 29, 30, 31, 32, 33, 34, 35, 36, 37, 38, 39, 40, 41, 42, 43, 44, 45, 46, 47, 48, 49, 50, 51, 52, 53, 54, 55, 56, 57, 58, 59, 60, 61, 62, 63, 64, 65, 66, 67, 68, 69, 70, 71, 72, 73, 74, 75, 76, 77, 78, 79, 80, 81, 82, 83, 84, 85, 86, 87, 88, 89, 90, 91, 92, 93, 94, 95, 96, 97, 98, 99, 100, 101, 102, 103],
      "LargestImagePixelValue": [65535, 65535, 50725, 51695, 51665, 54323, 50383, 48521, 65535, 36040, 37522, 37403, 35350, 35243, 34555, 36255, 33659, 36161, 34287, 34871, 36264, 33664, 35342, 33285, 65535, 19029, 19737, 18724, 17991, 18991, 20152, 16891, 19158, 19131, 17898, 17033, 19462, 18275, 18237, 17830, 65535, 11494, 11189, 11768, 12949, 12748, 9948, 10386, 10436, 10985, 11154, 11819, 9174, 9195, 10004, 8937, 10969, 10476, 10653, 11122, 9115, 11015, 10291, 9729, 9500, 9271, 11804, 10949, 11424, 12215, 12532, 9965, 10324, 65535, 12013, 9878, 10271, 9147, 10188, 11646, 9871, 12210, 10922, 12175, 12011, 10521, 11485, 11933, 12449, 13435, 12402, 10561, 11507, 11622, 11921, 12433, 9903, 11302, 12221, 9640, 11962, 8953, 65535],
      "SequenceName": [
 "ep_b5#1",
 "ep_b5#1",
 "ep_b500#2",
 "ep_b495#3",
 "ep_b500#4",
 "ep_b505#5",
 "ep_b495#6",
 "ep_b500#7",
 "ep_b5#8",
 "ep_b1000#9",
 "ep_b1005#10",
 "ep_b995#11",
 "ep_b1005#12",
 "ep_b995#13",
 "ep_b995#14",
 "ep_b1005#15",
 "ep_b1000#16",
 "ep_b1005#17",
 "ep_b995#18",
 "ep_b1000#19",
 "ep_b995#20",
 "ep_b1000#21",
 "ep_b1005#22",
 "ep_b1005#23",
 "ep_b5#24",
 "ep_b2000#25",
 "ep_b1995#26",
 "ep_b1990#27",
 "ep_b1995#28",
 "ep_b2005#29",
 "ep_b2010#30",
 "ep_b2000#31",
 "ep_b2010#32",
 "ep_b1995#33",
 "ep_b1995#34",
 "ep_b1995#35",
 "ep_b2005#36",
 "ep_b2000#37",
 "ep_b2005#38",
 "ep_b1995#39",
 "ep_b5#40",
 "ep_b3000#41",
 "ep_b3005#42",
 "ep_b3010#43",
 "ep_b3010#44",
 "ep_b3000#45",
 "ep_b3000#46",
 "ep_b2990#47",
 "ep_b3005#48",
 "ep_b3000#49",
 "ep_b2990#50",
 "ep_b2990#51",
 "ep_b2995#52",
 "ep_b2995#53",
 "ep_b3010#54",
 "ep_b3000#55",
 "ep_b2995#56",
 "ep_b2995#57",
 "ep_b2990#58",
 "ep_b2990#59",
 "ep_b3000#60",
 "ep_b2990#61",
 "ep_b2990#62",
 "ep_b2995#63",
 "ep_b3000#64",
 "ep_b3010#65",
 "ep_b3000#66",
 "ep_b3005#67",
 "ep_b3010#68",
 "ep_b3005#69",
 "ep_b3005#70",
 "ep_b3005#71",
 "ep_b2990#72",
 "ep_b5#73",
 "ep_b3010#74",
 "ep_b3000#75",
 "ep_b3005#76",
 "ep_b3000#77",
 "ep_b2990#78",
 "ep_b3005#79",
 "ep_b2995#80",
 "ep_b3010#81",
 "ep_b3005#82",
 "ep_b3005#83",
 "ep_b3000#84",
 "ep_b3000#85",
 "ep_b3010#86",
 "ep_b3010#87",
 "ep_b2990#88",
 "ep_b3010#89",
 "ep_b2995#90",
 "ep_b2995#91",
 "ep_b2990#92",
 "ep_b2995#93",
 "ep_b3005#94",
 "ep_b3005#95",
 "ep_b2995#96",
 "ep_b3000#97",
 "ep_b2990#98",
 "ep_b3000#99",
 "ep_b2995#100",
 "ep_b2995#101",
 "ep_b5#102"
],
      "WindowCenter": [11450.0, 11436.0, 7138.0, 7183.0, 7150.0, 7155.0, 7209.0, 7133.0, 11465.0, 5252.0, 5324.0, 5284.0, 5253.0, 5274.0, 5272.0, 5296.0, 5261.0, 5271.0, 5263.0, 5249.0, 5327.0, 5251.0, 5281.0, 5277.0, 11454.0, 3314.0, 3349.0, 3361.0, 3394.0, 3372.0, 3402.0, 3318.0, 3363.0, 3376.0, 3401.0, 3340.0, 3339.0, 3328.0, 3401.0, 3331.0, 11437.0, 2317.0, 2317.0, 2388.0, 2426.0, 2376.0, 2310.0, 2360.0, 2306.0, 2293.0, 2350.0, 2387.0, 2282.0, 2285.0, 2335.0, 2237.0, 2314.0, 2303.0, 2372.0, 2364.0, 2275.0, 2348.0, 2389.0, 2334.0, 2331.0, 2343.0, 2327.0, 2347.0, 2380.0, 2371.0, 2356.0, 2377.0, 2373.0, 11408.0, 2415.0, 2310.0, 2296.0, 2278.0, 2309.0, 2330.0, 2283.0, 2398.0, 2396.0, 2370.0, 2357.0, 2310.0, 2360.0, 2372.0, 2409.0, 2436.0, 2411.0, 2321.0, 2345.0, 2388.0, 2358.0, 2399.0, 2387.0, 2340.0, 2428.0, 2282.0, 2344.0, 2332.0, 11418.0],
      "WindowWidth": [26363.0, 26348.0, 15233.0, 15305.0, 15240.0, 15277.0, 15369.0, 15229.0, 26423.0, 11437.0, 11599.0, 11491.0, 11469.0, 11504.0, 11496.0, 11535.0, 11467.0, 11488.0, 11463.0, 11424.0, 11573.0, 11438.0, 11520.0, 11496.0, 26382.0, 7605.0, 7663.0, 7713.0, 7763.0, 7731.0, 7797.0, 7629.0, 7729.0, 7718.0, 7791.0, 7684.0, 7656.0, 7633.0, 7792.0, 7645.0, 26343.0, 5631.0, 5633.0, 5778.0, 5839.0, 5728.0, 5631.0, 5746.0, 5612.0, 5593.0, 5701.0, 5763.0, 5611.0, 5623.0, 5711.0, 5511.0, 5648.0, 5598.0, 5761.0, 5726.0, 5572.0, 5694.0, 5810.0, 5702.0, 5688.0, 5740.0, 5643.0, 5697.0, 5776.0, 5739.0, 5704.0, 5792.0, 5767.0, 26260.0, 5823.0, 5632.0, 5603.0, 5588.0, 5621.0, 5654.0, 5578.0, 5785.0, 5812.0, 5729.0, 5709.0, 5635.0, 5716.0, 5739.0, 5798.0, 5852.0, 5813.0, 5640.0, 5682.0, 5783.0, 5716.0, 5797.0, 5804.0, 5666.0, 5845.0, 5572.0, 5686.0, 5729.0, 26275.0]
    },
    "slices": {}
  }
}