{
  "AcquisitionMatrixPE": 82,
  "AcquisitionNumber": 1,
  "AcquisitionTime": "19:51:32.692500",
  "BandwidthPerPixelPhaseEncode": 24.888,
  "BaseResolution": 82,
  "BodyPartExamined": "BRAIN",
  "ConsistencyInfo": "N4_VE11E_LATEST_20181129",
  "ConversionSoftware": "dcm2niix",
  "ConversionSoftwareVersion": "v1.0.20201102",
  "DerivedVendorReportedEchoSpacing": 0.00049,
  "DeviceSerialNumber": "66112",
  "DwellTime": 2e-06,
  "EchoTime": 0.0272,
  "EchoTrainLength": 82,
  "EffectiveEchoSpacing": 0.00049,
  "FlipAngle": 44,
  "ImageComments": "Unaliased MB8/PE3",
  "ImageOrientationPatientDICOM": [0.998632, -0.0240558, -0.0464212, 0.0285921, 0.994609, 0.0996717],
  "ImageType": [
    "ORIGINAL",
    "PRIMARY",
    "M",
    "MB",
    "ND",
    "NORM",
    "MOSAIC"
],
  "ImagingFrequency": 123.252,
  "InPlanePhaseEncodingDirectionDICOM": "COL",
  "InstitutionAddress": "Maynard 3,Hanover,NH,US,03755",
  "InstitutionName": "Dartmouth College - PBS",
  "InstitutionalDepartmentName": "Department",
  "MRAcquisitionType": "2D",
  "MagneticFieldStrength": 3,
  "Manufacturer": "Siemens",
  "ManufacturersModelName": "Prisma",
  "Modality": "MR",
  "MultibandAccelerationFactor": 8,
  "PartialFourier": 1,
  "PatientPosition": "HFS",
  "PercentPhaseFOV": 100,
  "PercentSampling": 100,
  "PhaseEncodingDirection": "j-",
  "PhaseEncodingSteps": 82,
  "PhaseResolution": 1,
  "PixelBandwidth": 3050,
  "ProcedureStepDescription": "Wager_Wager^1076_spacetop",
  "ProtocolName": "func_run-05_task-social_acq-ap-mb8",
  "PulseSequenceDetails": "%CustomerSeq%\\cmrr_mbep2d_bold",
  "ReceiveCoilActiveElements": "HEA;HEP",
  "ReceiveCoilName": "Head_32",
  "ReconMatrixPE": 82,
  "RepetitionTime": 0.46,
  "SAR": 0.0845122,
  "ScanOptions": "FS",
  "ScanningSequence": "EP",
  "SequenceName": "epfid2d1_82",
  "SequenceVariant": "SK\\SS",
  "SeriesDescription": "func_run-05_task-social_acq-ap-mb8",
  "SeriesNumber": 16,
  "ShimSetting": [4122, -7715, -7269, 598, -89, 13, 76, 97],
  "SliceThickness": 2.7,
  "SliceTiming": [0, 0.25, 0.0625, 0.315, 0.125, 0.3775, 0.1875, 0, 0.25, 0.0625, 0.315, 0.125, 0.3775, 0.1875, 0, 0.25, 0.0625, 0.315, 0.125, 0.3775, 0.1875, 0, 0.25, 0.0625, 0.315, 0.125, 0.3775, 0.1875, 0, 0.25, 0.0625, 0.315, 0.125, 0.3775, 0.1875, 0, 0.25, 0.0625, 0.315, 0.125, 0.3775, 0.1875, 0, 0.25, 0.0625, 0.315, 0.125, 0.3775, 0.1875, 0, 0.25, 0.0625, 0.315, 0.125, 0.3775, 0.1875],
  "SoftwareVersions": "syngo MR E11",
  "SpacingBetweenSlices": 2.7,
  "StationName": "AWP66112",
  "TaskName": "social",
  "TotalReadoutTime": 0.03969,
  "TxRefAmp": 243.174,
  "WipMemBlock": "dce4c7a8-af2d-4bf7-8d3d-c07c28be5ce3||Sequence: R016 ve11e/master r/434b28f1; Aug  7 2019 18:53:46 by eja",
  "dcmmeta_affine": [
    [-2.679257392883301, 0.07671049237251282, -0.11818777769804001, 108.94178771972656],
    [0.06453989446163177, 2.6684646606445312, 0.27232927083969116, -101.42657470703125],
    [-0.12454459816217422, -0.267412006855011, 2.6836297512054443, -56.01923370361328],
    [0.0, 0.0, 0.0, 1.0]
],
  "dcmmeta_reorient_transform": [
    [0.0, -1.0, 0.0, 81.0],
    [1.0, 0.0, 0.0, 0.0],
    [0.0, 0.0, 1.0, 0.0],
    [0.0, 0.0, 0.0, 1.0]
],
  "dcmmeta_shape": [82, 82, 56, 872],
  "dcmmeta_slice_dim": 2,
  "dcmmeta_version": 0.6,
  "global": {
    "const": {
      "AccessionNumber": "A004116",
      "AcquisitionMatrix": [82, 0, 0, 82],
      "AngioFlag": "N",
      "BitsAllocated": 16,
      "BitsStored": 16,
      "BodyPartExamined": "BRAIN",
      "Columns": 656,
      "EchoNumbers": 1,
      "EchoTime": 27.2,
      "EchoTrainLength": 82,
      "FlipAngle": 44.0,
      "HighBit": 15,
      "ImageOrientationPatient": [0.99863226196745, -0.0240557793213, -0.0464211680057, 0.02859209170191, 0.99460948893573, 0.09967174529979],
      "ImagePositionPatient": [-906.11810947166, -862.04542567382, -118.6825535086],
      "ImageType": [
        "ORIGINAL",
        "PRIMARY",
        "M",
        "MB",
        "ND",
        "NORM",
        "MOSAIC"
],
      "ImagedNucleus": "1H",
      "ImagingFrequency": 123.252221,
      "InPlanePhaseEncodingDirection": "COL",
      "MRAcquisitionType": "2D",
      "MagneticFieldStrength": 3.0,
      "Manufacturer": "SIEMENS",
      "ManufacturerModelName": "Prisma",
      "Modality": "MR",
      "NumberOfAverages": 1.0,
      "NumberOfPhaseEncodingSteps": 82,
      "PercentPhaseFieldOfView": 100.0,
      "PercentSampling": 100.0,
      "PerformedProcedureStepStartTime": "191441.129000",
      "PhotometricInterpretation": "MONOCHROME2",
      "PixelBandwidth": 3050.0,
      "PixelRepresentation": 0,
      "PixelSpacing": [2.6829268932343, 2.6829268932343],
      "ProtocolName": "func_run-05_task-social_acq-ap-mb8",
      "RepetitionTime": 460.0,
      "Rows": 656,
      "SAR": 0.08451221116684,
      "SamplesPerPixel": 1,
      "ScanOptions": "FS",
      "ScanningSequence": "EP",
      "SequenceName": "epfid2d1_82",
      "SequenceVariant": [
        "SK",
        "SS"
],
      "SeriesDescription": "func_run-05_task-social_acq-ap-mb8",
      "SeriesNumber": 16,
      "SeriesTime": "195147.639000",
      "SliceLocation": -70.678481608868,
      "SliceThickness": 2.7000000476837,
      "SmallestImagePixelValue": 0,
      "SoftwareVersions": "syngo MR E11",
      "SpacingBetweenSlices": 2.699999968567,
      "SpecificCharacterSet": "ISO_IR 100",
      "StudyID": "2",
      "StudyTime": "191441.065000",
      "TransmitCoilName": "Body",
      "VariableFlipAngleFlag": "N",
      "WindowCenterWidthExplanation": "Algo1"
    },
    "slices": {}
  },
  "time": {
    "samples": {
      "AcquisitionNumber": [1, 2, 3, 4, 5, 6, 7, 8, 9, 10, 11, 12, 13, 14, 15, 16, 17, 18, 19, 20, 21, 22, 23, 24, 25, 26, 27, 28, 29, 30, 31, 32, 33, 34, 35, 36, 37, 38, 39, 40, 41, 42, 43, 44, 45, 46, 47, 48, 49, 50, 51, 52, 53, 54, 55, 56, 57, 58, 59, 60, 61, 62, 63, 64, 65, 66, 67, 68, 69, 70, 71, 72, 73, 74, 75, 76, 77, 78, 79, 80, 81, 82, 83, 84, 85, 86, 87, 88, 89, 90, 91, 92, 93, 94, 95, 96, 97, 98, 99, 100, 101, 102, 103, 104, 105, 106, 107, 108, 109, 110, 111, 112, 113, 114, 115, 116, 117, 118, 119, 120, 121, 122, 123, 124, 125, 126, 127, 128, 129, 130, 131, 132, 133, 134, 135, 136, 137, 138, 139, 140, 141, 142, 143, 144, 145, 146, 147, 148, 149, 150, 151, 152, 153, 154, 155, 156, 157, 158, 159, 160, 161, 162, 163, 164, 165, 166, 167, 168, 169, 170, 171, 172, 173, 174, 175, 176, 177, 178, 179, 180, 181, 182, 183, 184, 185, 186, 187, 188, 189, 190, 191, 192, 193, 194, 195, 196, 197, 198, 199, 200, 201, 202, 203, 204, 205, 206, 207, 208, 209, 210, 211, 212, 213, 214, 215, 216, 217, 218, 219, 220, 221, 222, 223, 224, 225, 226, 227, 228, 229, 230, 231, 232, 233, 234, 235, 236, 237, 238, 239, 240, 241, 242, 243, 244, 245, 246, 247, 248, 249, 250, 251, 252, 253, 254, 255, 256, 257, 258, 259, 260, 261, 262, 263, 264, 265, 266, 267, 268, 269, 270, 271, 272, 273, 274, 275, 276, 277, 278, 279, 280, 281, 282, 283, 284, 285, 286, 287, 288, 289, 290, 291, 292, 293, 294, 295, 296, 297, 298, 299, 300, 301, 302, 303, 304, 305, 306, 307, 308, 309, 310, 311, 312, 313, 314, 315, 316, 317, 318, 319, 320, 321, 322, 323, 324, 325, 326, 327, 328, 329, 330, 331, 332, 333, 334, 335, 336, 337, 338, 339, 340, 341, 342, 343, 344, 345, 346, 347, 348, 349, 350, 351, 352, 353, 354, 355, 356, 357, 358, 359, 360, 361, 362, 363, 364, 365, 366, 367, 368, 369, 370, 371, 372, 373, 374, 375, 376, 377, 378, 379, 380, 381, 382, 383, 384, 385, 386, 387, 388, 389, 390, 391, 392, 393, 394, 395, 396, 397, 398, 399, 400, 401, 402, 403, 404, 405, 406, 407, 408, 409, 410, 411, 412, 413, 414, 415, 416, 417, 418, 419, 420, 421, 422, 423, 424, 425, 426, 427, 428, 429, 430, 431, 432, 433, 434, 435, 436, 437, 438, 439, 440, 441, 442, 443, 444, 445, 446, 447, 448, 449, 450, 451, 452, 453, 454, 455, 456, 457, 458, 459, 460, 461, 462, 463, 464, 465, 466, 467, 468, 469, 470, 471, 472, 473, 474, 475, 476, 477, 478, 479, 480, 481, 482, 483, 484, 485, 486, 487, 488, 489, 490, 491, 492, 493, 494, 495, 496, 497, 498, 499, 500, 501, 502, 503, 504, 505, 506, 507, 508, 509, 510, 511, 512, 513, 514, 515, 516, 517, 518, 519, 520, 521, 522, 523, 524, 525, 526, 527, 528, 529, 530, 531, 532, 533, 534, 535, 536, 537, 538, 539, 540, 541, 542, 543, 544, 545, 546, 547, 548, 549, 550, 551, 552, 553, 554, 555, 556, 557, 558, 559, 560, 561, 562, 563, 564, 565, 566, 567, 568, 569, 570, 571, 572, 573, 574, 575, 576, 577, 578, 579, 580, 581, 582, 583, 584, 585, 586, 587, 588, 589, 590, 591, 592, 593, 594, 595, 596, 597, 598, 599, 600, 601, 602, 603, 604, 605, 606, 607, 608, 609, 610, 611, 612, 613, 614, 615, 616, 617, 618, 619, 620, 621, 622, 623, 624, 625, 626, 627, 628, 629, 630, 631, 632, 633, 634, 635, 636, 637, 638, 639, 640, 641, 642, 643, 644, 645, 646, 647, 648, 649, 650, 651, 652, 653, 654, 655, 656, 657, 658, 659, 660, 661, 662, 663, 664, 665, 666, 667, 668, 669, 670, 671, 672, 673, 674, 675, 676, 677, 678, 679, 680, 681, 682, 683, 684, 685, 686, 687, 688, 689, 690, 691, 692, 693, 694, 695, 696, 697, 698, 699, 700, 701, 702, 703, 704, 705, 706, 707, 708, 709, 710, 711, 712, 713, 714, 715, 716, 717, 718, 719, 720, 721, 722, 723, 724, 725, 726, 727, 728, 729, 730, 731, 732, 733, 734, 735, 736, 737, 738, 739, 740, 741, 742, 743, 744, 745, 746, 747, 748, 749, 750, 751, 752, 753, 754, 755, 756, 757, 758, 759, 760, 761, 762, 763, 764, 765, 766, 767, 768, 769, 770, 771, 772, 773, 774, 775, 776, 777, 778, 779, 780, 781, 782, 783, 784, 785, 786, 787, 788, 789, 790, 791, 792, 793, 794, 795, 796, 797, 798, 799, 800, 801, 802, 803, 804, 805, 806, 807, 808, 809, 810, 811, 812, 813, 814, 815, 816, 817, 818, 819, 820, 821, 822, 823, 824, 825, 826, 827, 828, 829, 830, 831, 832, 833, 834, 835, 836, 837, 838, 839, 840, 841, 842, 843, 844, 845, 846, 847, 848, 849, 850, 851, 852, 853, 854, 855, 856, 857, 858, 859, 860, 861, 862, 863, 864, 865, 866, 867, 868, 869, 870, 871, 872],
      "AcquisitionTime": ["195132.692500", "195133.152500", "195133.612500", "195134.072500", "195134.532500", "195134.992500", "195135.452500", "195135.912500", "195136.372500", "195136.832500", "195137.292500", "195137.752500", "195138.212500", "195138.672500", "195139.132500", "195139.592500", "195140.052500", "195140.512500", "195140.972500", "195141.432500", "195141.892500", "195142.352500", "195142.812500", "195143.272500", "195143.732500", "195144.192500", "195144.652500", "195145.112500", "195145.572500", "195146.032500", "195146.492500", "195146.952500", "195147.412500", "195147.872500", "195148.332500", "195148.792500", "195149.252500", "195149.712500", "195150.172500", "195150.632500", "195151.092500", "195151.552500", "195152.012500", "195152.472500", "195152.932500", "195153.392500", "195153.852500", "195154.312500", "195154.772500", "195155.232500", "195155.692500", "195156.152500", "195156.612500", "195157.072500", "195157.532500", "195157.992500", "195158.452500", "195158.912500", "195159.372500", "195159.832500", "195200.292500", "195200.752500", "195201.212500", "195201.672500", "195202.132500", "195202.592500", "195203.052500", "195203.512500", "195203.972500", "195204.432500", "195204.892500", "195205.352500", "195205.812500", "195206.272500", "195206.732500", "195207.192500", "195207.652500", "195208.112500", "195208.572500", "195209.032500", "195209.492500", "195209.952500", "195210.412500", "195210.872500", "195211.332500", "195211.792500", "195212.252500", "195212.712500", "195213.172500", "195213.632500", "195214.092500", "195214.552500", "195215.012500", "195215.472500", "195215.932500", "195216.392500", "195216.852500", "195217.312500", "195217.772500", "195218.232500", "195218.692500", "195219.152500", "195219.612500", "195220.072500", "195220.532500", "195220.992500", "195221.452500", "195221.912500", "195222.372500", "195222.832500", "195223.292500", "195223.752500", "195224.212500", "195224.672500", "195225.132500", "195225.592500", "195226.052500", "195226.512500", "195226.972500", "195227.432500", "195227.892500", "195228.352500", "195228.812500", "195229.272500", "195229.732500", "195230.192500", "195230.652500", "195231.112500", "195231.572500", "195232.032500", "195232.492500", "195232.952500", "195233.412500", "195233.872500", "195234.332500", "195234.792500", "195235.252500", "195235.712500", "195236.172500", "195236.632500", "195237.092500", "195237.552500", "195238.012500", "195238.472500", "195238.932500", "195239.392500", "195239.852500", "195240.312500", "195240.772500", "195241.232500", "195241.692500", "195242.152500", "195242.612500", "195243.072500", "195243.532500", "195243.992500", "195244.452500", "195244.912500", "195245.372500", "195245.832500", "195246.292500", "195246.752500", "195247.212500", "195247.672500", "195248.132500", "195248.592500", "195249.052500", "195249.512500", "195249.972500", "195250.432500", "195250.892500", "195251.352500", "195251.812500", "195252.272500", "195252.732500", "195253.192500", "195253.652500", "195254.112500", "195254.572500", "195255.032500", "195255.492500", "195255.952500", "195256.412500", "195256.872500", "195257.332500", "195257.792500", "195258.252500", "195258.712500", "195259.172500", "195259.632500", "195300.092500", "195300.552500", "195301.012500", "195301.472500", "195301.932500", "195302.392500", "195302.852500", "195303.312500", "195303.772500", "195304.232500", "195304.692500", "195305.152500", "195305.612500", "195306.072500", "195306.532500", "195306.992500", "195307.452500", "195307.912500", "195308.372500", "195308.832500", "195309.292500", "195309.752500", "195310.212500", "195310.672500", "195311.132500", "195311.592500", "195312.052500", "195312.512500", "195312.972500", "195313.432500", "195313.892500", "195314.352500", "195314.812500", "195315.272500", "195315.732500", "195316.192500", "195316.652500", "195317.112500", "195317.572500", "195318.032500", "195318.492500", "195318.952500", "195319.412500", "195319.872500", "195320.332500", "195320.792500", "195321.252500", "195321.712500", "195322.172500", "195322.632500", "195323.092500", "195323.552500", "195324.012500", "195324.472500", "195324.932500", "195325.392500", "195325.852500", "195326.312500", "195326.772500", "195327.232500", "195327.692500", "195328.152500", "195328.612500", "195329.072500", "195329.532500", "195329.992500", "195330.452500", "195330.912500", "195331.372500", "195331.832500", "195332.292500", "195332.752500", "195333.212500", "195333.672500", "195334.132500", "195334.592500", "195335.052500", "195335.512500", "195335.972500", "195336.432500", "195336.892500", "195337.352500", "195337.812500", "195338.272500", "195338.732500", "195339.192500", "195339.652500", "195340.112500", "195340.572500", "195341.032500", "195341.492500", "195341.952500", "195342.412500", "195342.872500", "195343.332500", "195343.792500", "195344.252500", "195344.712500", "195345.172500", "195345.632500", "195346.092500", "195346.552500", "195347.012500", "195347.472500", "195347.932500", "195348.392500", "195348.852500", "195349.312500", "195349.772500", "195350.232500", "195350.692500", "195351.152500", "195351.612500", "195352.072500", "195352.532500", "195352.992500", "195353.452500", "195353.912500", "195354.372500", "195354.832500", "195355.292500", "195355.752500", "195356.212500", "195356.672500", "195357.132500", "195357.592500", "195358.052500", "195358.512500", "195358.972500", "195359.432500", "195359.892500", "195400.352500", "195400.812500", "195401.272500", "195401.732500", "195402.192500", "195402.652500", "195403.112500", "195403.572500", "195404.032500", "195404.492500", "195404.952500", "195405.412500", "195405.872500", "195406.332500", "195406.792500", "195407.252500", "195407.712500", "195408.172500", "195408.632500", "195409.092500", "195409.552500", "195410.012500", "195410.472500", "195410.932500", "195411.392500", "195411.852500", "195412.312500", "195412.772500", "195413.232500", "195413.692500", "195414.152500", "195414.612500", "195415.072500", "195415.532500", "195415.992500", "195416.452500", "195416.912500", "195417.372500", "195417.832500", "195418.292500", "195418.752500", "195419.212500", "195419.672500", "195420.132500", "195420.592500", "195421.052500", "195421.512500", "195421.972500", "195422.432500", "195422.892500", "195423.352500", "195423.812500", "195424.272500", "195424.732500", "195425.192500", "195425.652500", "195426.112500", "195426.572500", "195427.032500", "195427.492500", "195427.952500", "195428.412500", "195428.872500", "195429.332500", "195429.792500", "195430.252500", "195430.712500", "195431.172500", "195431.632500", "195432.092500", "195432.552500", "195433.012500", "195433.472500", "195433.932500", "195434.392500", "195434.852500", "195435.312500", "195435.772500", "195436.232500", "195436.692500", "195437.152500", "195437.612500", "195438.072500", "195438.532500", "195438.992500", "195439.452500", "195439.912500", "195440.372500", "195440.832500", "195441.292500", "195441.752500", "195442.212500", "195442.672500", "195443.132500", "195443.592500", "195444.052500", "195444.512500", "195444.972500", "195445.432500", "195445.892500", "195446.352500", "195446.812500", "195447.272500", "195447.732500", "195448.192500", "195448.652500", "195449.112500", "195449.572500", "195450.032500", "195450.492500", "195450.952500", "195451.412500", "195451.872500", "195452.332500", "195452.792500", "195453.252500", "195453.712500", "195454.172500", "195454.632500", "195455.092500", "195455.552500", "195456.012500", "195456.472500", "195456.932500", "195457.392500", "195457.852500", "195458.312500", "195458.772500", "195459.232500", "195459.692500", "195500.152500", "195500.612500", "195501.072500", "195501.532500", "195501.992500", "195502.452500", "195502.912500", "195503.372500", "195503.832500", "195504.292500", "195504.752500", "195505.212500", "195505.672500", "195506.132500", "195506.592500", "195507.052500", "195507.512500", "195507.972500", "195508.432500", "195508.892500", "195509.352500", "195509.812500", "195510.272500", "195510.732500", "195511.192500", "195511.652500", "195512.112500", "195512.572500", "195513.032500", "195513.492500", "195513.952500", "195514.412500", "195514.872500", "195515.332500", "195515.792500", "195516.252500", "195516.712500", "195517.172500", "195517.632500", "195518.092500", "195518.552500", "195519.012500", "195519.472500", "195519.932500", "195520.392500", "195520.852500", "195521.312500", "195521.772500", "195522.232500", "195522.692500", "195523.152500", "195523.612500", "195524.072500", "195524.532500", "195524.992500", "195525.452500", "195525.912500", "195526.372500", "195526.832500", "195527.292500", "195527.752500", "195528.212500", "195528.672500", "195529.132500", "195529.592500", "195530.052500", "195530.512500", "195530.972500", "195531.432500", "195531.892500", "195532.352500", "195532.812500", "195533.272500", "195533.732500", "195534.192500", "195534.652500", "195535.112500", "195535.572500", "195536.032500", "195536.492500", "195536.952500", "195537.412500", "195537.872500", "195538.332500", "195538.792500", "195539.252500", "195539.712500", "195540.172500", "195540.632500", "195541.092500", "195541.552500", "195542.012500", "195542.472500", "195542.932500", "195543.392500", "195543.852500", "195544.312500", "195544.772500", "195545.232500", "195545.692500", "195546.152500", "195546.612500", "195547.072500", "195547.532500", "195547.992500", "195548.452500", "195548.912500", "195549.372500", "195549.832500", "195550.292500", "195550.752500", "195551.212500", "195551.672500", "195552.132500", "195552.592500", "195553.052500", "195553.512500", "195553.972500", "195554.432500", "195554.892500", "195555.352500", "195555.812500", "195556.272500", "195556.732500", "195557.192500", "195557.652500", "195558.112500", "195558.572500", "195559.032500", "195559.492500", "195559.952500", "195600.412500", "195600.872500", "195601.332500", "195601.792500", "195602.252500", "195602.712500", "195603.172500", "195603.632500", "195604.092500", "195604.552500", "195605.012500", "195605.472500", "195605.932500", "195606.392500", "195606.852500", "195607.312500", "195607.772500", "195608.232500", "195608.692500", "195609.152500", "195609.612500", "195610.072500", "195610.532500", "195610.992500", "195611.452500", "195611.912500", "195612.372500", "195612.832500", "195613.292500", "195613.752500", "195614.212500", "195614.672500", "195615.132500", "195615.592500", "195616.052500", "195616.512500", "195616.972500", "195617.432500", "195617.892500", "195618.352500", "195618.812500", "195619.272500", "195619.732500", "195620.192500", "195620.652500", "195621.112500", "195621.572500", "195622.032500", "195622.492500", "195622.952500", "195623.412500", "195623.872500", "195624.332500", "195624.792500", "195625.252500", "195625.712500", "195626.172500", "195626.632500", "195627.092500", "195627.552500", "195628.012500", "195628.472500", "195628.932500", "195629.392500", "195629.852500", "195630.312500", "195630.772500", "195631.232500", "195631.692500", "195632.152500", "195632.612500", "195633.072500", "195633.532500", "195633.992500", "195634.452500", "195634.912500", "195635.372500", "195635.832500", "195636.292500", "195636.752500", "195637.212500", "195637.672500", "195638.132500", "195638.592500", "195639.052500", "195639.512500", "195639.972500", "195640.432500", "195640.892500", "195641.352500", "195641.812500", "195642.272500", "195642.732500", "195643.192500", "195643.652500", "195644.112500", "195644.572500", "195645.032500", "195645.492500", "195645.952500", "195646.412500", "195646.872500", "195647.332500", "195647.792500", "195648.252500", "195648.712500", "195649.172500", "195649.632500", "195650.092500", "195650.552500", "195651.012500", "195651.472500", "195651.932500", "195652.392500", "195652.852500", "195653.312500", "195653.772500", "195654.232500", "195654.692500", "195655.152500", "195655.612500", "195656.072500", "195656.532500", "195656.992500", "195657.452500", "195657.912500", "195658.372500", "195658.832500", "195659.292500", "195659.752500", "195700.212500", "195700.672500", "195701.132500", "195701.592500", "195702.052500", "195702.512500", "195702.972500", "195703.432500", "195703.892500", "195704.352500", "195704.812500", "195705.272500", "195705.732500", "195706.192500", "195706.652500", "195707.112500", "195707.572500", "195708.032500", "195708.492500", "195708.952500", "195709.412500", "195709.872500", "195710.332500", "195710.792500", "195711.252500", "195711.712500", "195712.172500", "195712.632500", "195713.092500", "195713.552500", "195714.012500", "195714.472500", "195714.932500", "195715.392500", "195715.852500", "195716.312500", "195716.772500", "195717.232500", "195717.692500", "195718.152500", "195718.612500", "195719.072500", "195719.532500", "195719.992500", "195720.452500", "195720.912500", "195721.372500", "195721.832500", "195722.292500", "195722.752500", "195723.212500", "195723.672500", "195724.132500", "195724.592500", "195725.052500", "195725.512500", "195725.972500", "195726.432500", "195726.892500", "195727.352500", "195727.812500", "195728.272500", "195728.732500", "195729.192500", "195729.652500", "195730.112500", "195730.572500", "195731.032500", "195731.492500", "195731.952500", "195732.412500", "195732.872500", "195733.332500", "195733.792500", "195734.252500", "195734.712500", "195735.172500", "195735.632500", "195736.092500", "195736.552500", "195737.012500", "195737.472500", "195737.932500", "195738.392500", "195738.852500", "195739.312500", "195739.772500", "195740.232500", "195740.692500", "195741.152500", "195741.612500", "195742.072500", "195742.532500", "195742.992500", "195743.452500", "195743.912500", "195744.372500", "195744.832500", "195745.292500", "195745.752500", "195746.212500", "195746.672500", "195747.132500", "195747.592500", "195748.052500", "195748.512500", "195748.972500", "195749.432500", "195749.892500", "195750.352500", "195750.812500", "195751.272500", "195751.732500", "195752.192500", "195752.652500", "195753.112500", "195753.572500", "195754.032500", "195754.492500", "195754.952500", "195755.412500", "195755.872500", "195756.332500", "195756.792500", "195757.252500", "195757.712500", "195758.172500", "195758.632500", "195759.092500", "195759.552500", "195800.012500", "195800.472500", "195800.932500", "195801.392500", "195801.852500", "195802.312500", "195802.772500", "195803.232500", "195803.692500", "195804.152500", "195804.612500", "195805.072500", "195805.532500", "195805.992500", "195806.452500", "195806.912500", "195807.372500", "195807.832500", "195808.292500", "195808.752500", "195809.212500", "195809.672500", "195810.132500", "195810.592500", "195811.052500", "195811.512500", "195811.972500", "195812.432500", "195812.892500", "195813.352500"],
