{
  "AcquisitionMatrixPE": 82,
  "AcquisitionNumber": 1,
  "AcquisitionTime": "19:20:26.000000",
  "BandwidthPerPixelPhaseEncode": 24.888,
  "BaseResolution": 82,
  "BodyPartExamined": "BRAIN",
  "ConsistencyInfo": "N4_VE11E_LATEST_20181129",
  "ConversionSoftware": "dcm2niix",
  "ConversionSoftwareVersion": "v1.0.20201102",
  "DerivedVendorReportedEchoSpacing": 0.00049,
  "DeviceSerialNumber": "66112",
  "DwellTime": 2e-06,
  "EchoTime": 0.0272,
  "EchoTrainLength": 82,
  "EffectiveEchoSpacing": 0.00049,
  "FlipAngle": 44,
  "ImageComments": "Unaliased MB8/PE3",
  "ImageOrientationPatientDICOM": [0.998632, -0.0240558, -0.0464212, 0.0285921, 0.994609, 0.0996717],
  "ImageType": [
    "ORIGINAL",
    "PRIMARY",
    "M",
    "MB",
    "ND",
    "NORM",
    "MOSAIC"
],
  "ImagingFrequency": 123.252,
  "InPlanePhaseEncodingDirectionDICOM": "COL",
  "InstitutionAddress": "Maynard 3,Hanover,NH,US,03755",
  "InstitutionName": "Dartmouth College - PBS",
  "InstitutionalDepartmentName": "Department",
  "MRAcquisitionType": "2D",
  "MagneticFieldStrength": 3,
  "Manufacturer": "Siemens",
  "ManufacturersModelName": "Prisma",
  "Modality": "MR",
  "MultibandAccelerationFactor": 8,
  "PartialFourier": 1,
  "PatientPosition": "HFS",
  "PercentPhaseFOV": 100,
  "PercentSampling": 100,
  "PhaseEncodingDirection": "j-",
  "PhaseEncodingSteps": 82,
  "PhaseResolution": 1,
  "PixelBandwidth": 3050,
  "ProcedureStepDescription": "Wager_Wager^1076_spacetop",
  "ProtocolName": "func_run-01_task-social_acq-ap-mb8",
  "PulseSequenceDetails": "%CustomerSeq%\\cmrr_mbep2d_bold",
  "ReceiveCoilActiveElements": "HEA;HEP",
  "ReceiveCoilName": "Head_32",
  "ReconMatrixPE": 82,
  "RepetitionTime": 0.46,
  "SAR": 0.0845122,
  "ScanOptions": "FS",
  "ScanningSequence": "EP",
  "SequenceName": "epfid2d1_82",
  "SequenceVariant": "SK\\SS",
  "SeriesDescription": "func_run-01_task-social_acq-ap-mb8",
  "SeriesNumber": 8,
  "ShimSetting": [4122, -7715, -7269, 598, -89, 13, 76, 97],
  "SliceThickness": 2.7,
  "SliceTiming": [0, 0.2525, 0.0625, 0.315, 0.1275, 0.3775, 0.19, 0, 0.2525, 0.0625, 0.315, 0.1275, 0.3775, 0.19, 0, 0.2525, 0.0625, 0.315, 0.1275, 0.3775, 0.19, 0, 0.2525, 0.0625, 0.315, 0.1275, 0.3775, 0.19, 0, 0.2525, 0.0625, 0.315, 0.1275, 0.3775, 0.19, 0, 0.2525, 0.0625, 0.315, 0.1275, 0.3775, 0.19, 0, 0.2525, 0.0625, 0.315, 0.1275, 0.3775, 0.19, 0, 0.2525, 0.0625, 0.315, 0.1275, 0.3775, 0.19],
  "SoftwareVersions": "syngo MR E11",
  "SpacingBetweenSlices": 2.7,
  "StationName": "AWP66112",
  "TaskName": "social",
  "TotalReadoutTime": 0.03969,
  "TxRefAmp": 243.174,
  "WipMemBlock": "e32f2289-ae54-42e0-b2f0-bf4bacd1ae20||Sequence: R016 ve11e/master r/434b28f1; Aug  7 2019 18:53:46 by eja",
  "dcmmeta_affine": [
    [-2.679257392883301, 0.07671049237251282, -0.11818777769804001, 108.94178771972656],
    [0.06453989446163177, 2.6684646606445312, 0.27232927083969116, -101.42657470703125],
    [-0.12454459816217422, -0.267412006855011, 2.6836297512054443, -56.01923370361328],
    [0.0, 0.0, 0.0, 1.0]
],
  "dcmmeta_reorient_transform": [
    [0.0, -1.0, 0.0, 81.0],
    [1.0, 0.0, 0.0, 0.0],
    [0.0, 0.0, 1.0, 0.0],
    [0.0, 0.0, 0.0, 1.0]
],
  "dcmmeta_shape": [82, 82, 56, 872],
  "dcmmeta_slice_dim": 2,
  "dcmmeta_version": 0.6,
  "global": {
    "const": {
      "AccessionNumber": "A004116",
      "AcquisitionMatrix": [82, 0, 0, 82],
      "AngioFlag": "N",
      "BitsAllocated": 16,
      "BitsStored": 16,
      "BodyPartExamined": "BRAIN",
      "Columns": 656,
      "EchoNumbers": 1,
      "EchoTime": 27.2,
      "EchoTrainLength": 82,
      "FlipAngle": 44.0,
      "HighBit": 15,
      "ImageOrientationPatient": [0.99863226196745, -0.0240557793213, -0.0464211680057, 0.02859209170191, 0.99460948893573, 0.09967174529979],
      "ImagePositionPatient": [-906.11810947166, -862.04542567382, -118.6825535086],
      "ImageType": [
        "ORIGINAL",
        "PRIMARY",
        "M",
        "MB",
        "ND",
        "NORM",
        "MOSAIC"
],
      "ImagedNucleus": "1H",
      "ImagingFrequency": 123.252209,
      "InPlanePhaseEncodingDirection": "COL",
      "MRAcquisitionType": "2D",
      "MagneticFieldStrength": 3.0,
      "Manufacturer": "SIEMENS",
      "ManufacturerModelName": "Prisma",
      "Modality": "MR",
      "NumberOfAverages": 1.0,
      "NumberOfPhaseEncodingSteps": 82,
      "PercentPhaseFieldOfView": 100.0,
      "PercentSampling": 100.0,
      "PerformedProcedureStepStartTime": "191441.129000",
      "PhotometricInterpretation": "MONOCHROME2",
      "PixelBandwidth": 3050.0,
      "PixelRepresentation": 0,
      "PixelSpacing": [2.6829268932343, 2.6829268932343],
      "ProtocolName": "func_run-01_task-social_acq-ap-mb8",
      "RepetitionTime": 460.0,
      "Rows": 656,
      "SAR": 0.08451221116684,
      "SamplesPerPixel": 1,
      "ScanOptions": "FS",
      "ScanningSequence": "EP",
      "SequenceName": "epfid2d1_82",
      "SequenceVariant": [
        "SK",
        "SS"
],
      "SeriesDescription": "func_run-01_task-social_acq-ap-mb8",
      "SeriesNumber": 8,
      "SeriesTime": "192047.549000",
      "SliceLocation": -70.678481608868,
      "SliceThickness": 2.7000000476837,
      "SmallestImagePixelValue": 0,
      "SoftwareVersions": "syngo MR E11",
      "SpacingBetweenSlices": 2.699999968567,
      "SpecificCharacterSet": "ISO_IR 100",
      "StudyID": "2",
      "StudyTime": "191441.065000",
      "TransmitCoilName": "Body",
      "VariableFlipAngleFlag": "N",
      "WindowCenterWidthExplanation": "Algo1"
    },
    "slices": {}
  },
  "time": {
    "samples": {
      "AcquisitionNumber": [1, 2, 3, 4, 5, 6, 7, 8, 9, 10, 11, 12, 13, 14, 15, 16, 17, 18, 19, 20, 21, 22, 23, 24, 25, 26, 27, 28, 29, 30, 31, 32, 33, 34, 35, 36, 37, 38, 39, 40, 41, 42, 43, 44, 45, 46, 47, 48, 49, 50, 51, 52, 53, 54, 55, 56, 57, 58, 59, 60, 61, 62, 63, 64, 65, 66, 67, 68, 69, 70, 71, 72, 73, 74, 75, 76, 77, 78, 79, 80, 81, 82, 83, 84, 85, 86, 87, 88, 89, 90, 91, 92, 93, 94, 95, 96, 97, 98, 99, 100, 101, 102, 103, 104, 105, 106, 107, 108, 109, 110, 111, 112, 113, 114, 115, 116, 117, 118, 119, 120, 121, 122, 123, 124, 125, 126, 127, 128, 129, 130, 131, 132, 133, 134, 135, 136, 137, 138, 139, 140, 141, 142, 143, 144, 145, 146, 147, 148, 149, 150, 151, 152, 153, 154, 155, 156, 157, 158, 159, 160, 161, 162, 163, 164, 165, 166, 167, 168, 169, 170, 171, 172, 173, 174, 175, 176, 177, 178, 179, 180, 181, 182, 183, 184, 185, 186, 187, 188, 189, 190, 191, 192, 193, 194, 195, 196, 197, 198, 199, 200, 201, 202, 203, 204, 205, 206, 207, 208, 209, 210, 211, 212, 213, 214, 215, 216, 217, 218, 219, 220, 221, 222, 223, 224, 225, 226, 227, 228, 229, 230, 231, 232, 233, 234, 235, 236, 237, 238, 239, 240, 241, 242, 243, 244, 245, 246, 247, 248, 249, 250, 251, 252, 253, 254, 255, 256, 257, 258, 259, 260, 261, 262, 263, 264, 265, 266, 267, 268, 269, 270, 271, 272, 273, 274, 275, 276, 277, 278, 279, 280, 281, 282, 283, 284, 285, 286, 287, 288, 289, 290, 291, 292, 293, 294, 295, 296, 297, 298, 299, 300, 301, 302, 303, 304, 305, 306, 307, 308, 309, 310, 311, 312, 313, 314, 315, 316, 317, 318, 319, 320, 321, 322, 323, 324, 325, 326, 327, 328, 329, 330, 331, 332, 333, 334, 335, 336, 337, 338, 339, 340, 341, 342, 343, 344, 345, 346, 347, 348, 349, 350, 351, 352, 353, 354, 355, 356, 357, 358, 359, 360, 361, 362, 363, 364, 365, 366, 367, 368, 369, 370, 371, 372, 373, 374, 375, 376, 377, 378, 379, 380, 381, 382, 383, 384, 385, 386, 387, 388, 389, 390, 391, 392, 393, 394, 395, 396, 397, 398, 399, 400, 401, 402, 403, 404, 405, 406, 407, 408, 409, 410, 411, 412, 413, 414, 415, 416, 417, 418, 419, 420, 421, 422, 423, 424, 425, 426, 427, 428, 429, 430, 431, 432, 433, 434, 435, 436, 437, 438, 439, 440, 441, 442, 443, 444, 445, 446, 447, 448, 449, 450, 451, 452, 453, 454, 455, 456, 457, 458, 459, 460, 461, 462, 463, 464, 465, 466, 467, 468, 469, 470, 471, 472, 473, 474, 475, 476, 477, 478, 479, 480, 481, 482, 483, 484, 485, 486, 487, 488, 489, 490, 491, 492, 493, 494, 495, 496, 497, 498, 499, 500, 501, 502, 503, 504, 505, 506, 507, 508, 509, 510, 511, 512, 513, 514, 515, 516, 517, 518, 519, 520, 521, 522, 523, 524, 525, 526, 527, 528, 529, 530, 531, 532, 533, 534, 535, 536, 537, 538, 539, 540, 541, 542, 543, 544, 545, 546, 547, 548, 549, 550, 551, 552, 553, 554, 555, 556, 557, 558, 559, 560, 561, 562, 563, 564, 565, 566, 567, 568, 569, 570, 571, 572, 573, 574, 575, 576, 577, 578, 579, 580, 581, 582, 583, 584, 585, 586, 587, 588, 589, 590, 591, 592, 593, 594, 595, 596, 597, 598, 599, 600, 601, 602, 603, 604, 605, 606, 607, 608, 609, 610, 611, 612, 613, 614, 615, 616, 617, 618, 619, 620, 621, 622, 623, 624, 625, 626, 627, 628, 629, 630, 631, 632, 633, 634, 635, 636, 637, 638, 639, 640, 641, 642, 643, 644, 645, 646, 647, 648, 649, 650, 651, 652, 653, 654, 655, 656, 657, 658, 659, 660, 661, 662, 663, 664, 665, 666, 667, 668, 669, 670, 671, 672, 673, 674, 675, 676, 677, 678, 679, 680, 681, 682, 683, 684, 685, 686, 687, 688, 689, 690, 691, 692, 693, 694, 695, 696, 697, 698, 699, 700, 701, 702, 703, 704, 705, 706, 707, 708, 709, 710, 711, 712, 713, 714, 715, 716, 717, 718, 719, 720, 721, 722, 723, 724, 725, 726, 727, 728, 729, 730, 731, 732, 733, 734, 735, 736, 737, 738, 739, 740, 741, 742, 743, 744, 745, 746, 747, 748, 749, 750, 751, 752, 753, 754, 755, 756, 757, 758, 759, 760, 761, 762, 763, 764, 765, 766, 767, 768, 769, 770, 771, 772, 773, 774, 775, 776, 777, 778, 779, 780, 781, 782, 783, 784, 785, 786, 787, 788, 789, 790, 791, 792, 793, 794, 795, 796, 797, 798, 799, 800, 801, 802, 803, 804, 805, 806, 807, 808, 809, 810, 811, 812, 813, 814, 815, 816, 817, 818, 819, 820, 821, 822, 823, 824, 825, 826, 827, 828, 829, 830, 831, 832, 833, 834, 835, 836, 837, 838, 839, 840, 841, 842, 843, 844, 845, 846, 847, 848, 849, 850, 851, 852, 853, 854, 855, 856, 857, 858, 859, 860, 861, 862, 863, 864, 865, 866, 867, 868, 869, 870, 871, 872],
      "AcquisitionTime": ["192026.000000", "192026.460000", "192026.920000", "192027.380000", "192027.840000", "192028.300000", "192028.760000", "192029.220000", "192029.680000", "192030.140000", "192030.600000", "192031.060000", "192031.520000", "192031.980000", "192032.440000", "192032.900000", "192033.360000", "192033.820000", "192034.280000", "192034.740000", "192035.200000", "192035.660000", "192036.120000", "192036.580000", "192037.040000", "192037.500000", "192037.960000", "192038.420000", "192038.880000", "192039.340000", "192039.800000", "192040.260000", "192040.720000", "192041.180000", "192041.640000", "192042.100000", "192042.560000", "192043.020000", "192043.480000", "192043.940000", "192044.400000", "192044.860000", "192045.320000", "192045.780000", "192046.240000", "192046.700000", "192047.160000", "192047.620000", "192048.080000", "192048.540000", "192049.000000", "192049.460000", "192049.920000", "192050.380000", "192050.840000", "192051.300000", "192051.760000", "192052.220000", "192052.680000", "192053.140000", "192053.600000", "192054.060000", "192054.520000", "192054.980000", "192055.440000", "192055.900000", "192056.360000", "192056.820000", "192057.280000", "192057.740000", "192058.200000", "192058.660000", "192059.120000", "192059.580000", "192100.040000", "192100.500000", "192100.960000", "192101.420000", "192101.880000", "192102.340000", "192102.800000", "192103.260000", "192103.720000", "192104.180000", "192104.640000", "192105.100000", "192105.560000", "192106.020000", "192106.480000", "192106.940000", "192107.400000", "192107.860000", "192108.320000", "192108.780000", "192109.240000", "192109.700000", "192110.160000", "192110.620000", "192111.080000", "192111.540000", "192112.000000", "192112.460000", "192112.920000", "192113.380000", "192113.840000", "192114.300000", "192114.760000", "192115.220000", "192115.680000", "192116.140000", "192116.600000", "192117.060000", "192117.520000", "192117.980000", "192118.440000", "192118.900000", "192119.360000", "192119.820000", "192120.280000", "192120.740000", "192121.200000", "192121.660000", "192122.120000", "192122.580000", "192123.040000", "192123.500000", "192123.960000", "192124.420000", "192124.880000", "192125.340000", "192125.800000", "192126.260000", "192126.720000", "192127.180000", "192127.640000", "192128.100000", "192128.560000", "192129.020000", "192129.480000", "192129.940000", "192130.400000", "192130.860000", "192131.320000", "192131.780000", "192132.240000", "192132.700000", "192133.160000", "192133.620000", "192134.080000", "192134.540000", "192135.000000", "192135.460000", "192135.920000", "192136.380000", "192136.840000", "192137.300000", "192137.760000", "192138.220000", "192138.680000", "192139.140000", "192139.600000", "192140.060000", "192140.520000", "192140.980000", "192141.440000", "192141.900000", "192142.360000", "192142.820000", "192143.280000", "192143.740000", "192144.200000", "192144.660000", "192145.120000", "192145.580000", "192146.040000", "192146.500000", "192146.960000", "192147.420000", "192147.880000", "192148.340000", "192148.800000", "192149.260000", "192149.720000", "192150.180000", "192150.640000", "192151.100000", "192151.560000", "192152.020000", "192152.480000", "192152.940000", "192153.400000", "192153.860000", "192154.320000", "192154.780000", "192155.240000", "192155.700000", "192156.160000", "192156.620000", "192157.080000", "192157.540000", "192158.000000", "192158.460000", "192158.920000", "192159.380000", "192159.840000", "192200.300000", "192200.760000", "192201.220000", "192201.680000", "192202.140000", "192202.600000", "192203.060000", "192203.520000", "192203.980000", "192204.440000", "192204.900000", "192205.360000", "192205.820000", "192206.280000", "192206.740000", "192207.200000", "192207.660000", "192208.120000", "192208.580000", "192209.040000", "192209.500000", "192209.960000", "192210.420000", "192210.880000", "192211.340000", "192211.800000", "192212.260000", "192212.720000", "192213.180000", "192213.640000", "192214.100000", "192214.560000", "192215.020000", "192215.480000", "192215.940000", "192216.400000", "192216.860000", "192217.320000", "192217.780000", "192218.240000", "192218.700000", "192219.160000", "192219.620000", "192220.080000", "192220.540000", "192221.000000", "192221.460000", "192221.920000", "192222.380000", "192222.840000", "192223.300000", "192223.760000", "192224.220000", "192224.680000", "192225.140000", "192225.600000", "192226.060000", "192226.520000", "192226.980000", "192227.440000", "192227.900000", "192228.360000", "192228.820000", "192229.280000", "192229.740000", "192230.200000", "192230.660000", "192231.120000", "192231.580000", "192232.040000", "192232.500000", "192232.960000", "192233.420000", "192233.880000", "192234.340000", "192234.800000", "192235.260000", "192235.720000", "192236.180000", "192236.640000", "192237.100000", "192237.560000", "192238.020000", "192238.480000", "192238.940000", "192239.400000", "192239.860000", "192240.320000", "192240.780000", "192241.240000", "192241.700000", "192242.160000", "192242.620000", "192243.080000", "192243.540000", "192244.000000", "192244.460000", "192244.920000", "192245.380000", "192245.840000", "192246.300000", "192246.760000", "192247.220000", "192247.680000", "192248.140000", "192248.600000", "192249.060000", "192249.520000", "192249.980000", "192250.440000", "192250.900000", "192251.360000", "192251.820000", "192252.280000", "192252.740000", "192253.200000", "192253.660000", "192254.120000", "192254.580000", "192255.040000", "192255.500000", "192255.960000", "192256.420000", "192256.880000", "192257.340000", "192257.800000", "192258.260000", "192258.720000", "192259.180000", "192259.640000", "192300.100000", "192300.560000", "192301.020000", "192301.480000", "192301.940000", "192302.400000", "192302.860000", "192303.320000", "192303.780000", "192304.240000", "192304.700000", "192305.160000", "192305.620000", "192306.080000", "192306.540000", "192307.000000", "192307.460000", "192307.920000", "192308.380000", "192308.840000", "192309.300000", "192309.760000", "192310.220000", "192310.680000", "192311.140000", "192311.600000", "192312.060000", "192312.520000", "192312.980000", "192313.440000", "192313.900000", "192314.360000", "192314.820000", "192315.280000", "192315.740000", "192316.200000", "192316.660000", "192317.120000", "192317.580000", "192318.040000", "192318.500000", "192318.960000", "192319.420000", "192319.880000", "192320.340000", "192320.800000", "192321.260000", "192321.720000", "192322.180000", "192322.640000", "192323.100000", "192323.560000", "192324.020000", "192324.480000", "192324.940000", "192325.400000", "192325.860000", "192326.320000", "192326.780000", "192327.240000", "192327.700000", "192328.160000", "192328.620000", "192329.080000", "192329.540000", "192330.000000", "192330.460000", "192330.920000", "192331.380000", "192331.840000", "192332.300000", "192332.760000", "192333.220000", "192333.680000", "192334.140000", "192334.600000", "192335.060000", "192335.520000", "192335.980000", "192336.440000", "192336.900000", "192337.360000", "192337.820000", "192338.280000", "192338.740000", "192339.200000", "192339.660000", "192340.120000", "192340.580000", "192341.040000", "192341.500000", "192341.960000", "192342.420000", "192342.880000", "192343.340000", "192343.800000", "192344.260000", "192344.720000", "192345.180000", "192345.640000", "192346.100000", "192346.560000", "192347.020000", "192347.480000", "192347.940000", "192348.400000", "192348.860000", "192349.320000", "192349.780000", "192350.240000", "192350.700000", "192351.160000", "192351.620000", "192352.080000", "192352.540000", "192353.000000", "192353.460000", "192353.920000", "192354.380000", "192354.840000", "192355.300000", "192355.760000", "192356.220000", "192356.680000", "192357.140000", "192357.600000", "192358.060000", "192358.520000", "192358.980000", "192359.440000", "192359.900000", "192400.360000", "192400.820000", "192401.280000", "192401.740000", "192402.200000", "192402.660000", "192403.120000", "192403.580000", "192404.040000", "192404.500000", "192404.960000", "192405.420000", "192405.880000", "192406.340000", "192406.800000", "192407.260000", "192407.720000", "192408.180000", "192408.640000", "192409.100000", "192409.560000", "192410.020000", "192410.480000", "192410.940000", "192411.400000", "192411.860000", "192412.320000", "192412.780000", "192413.240000", "192413.700000", "192414.160000", "192414.620000", "192415.080000", "192415.540000", "192416.000000", "192416.460000", "192416.920000", "192417.380000", "192417.840000", "192418.300000", "192418.760000", "192419.220000", "192419.680000", "192420.140000", "192420.600000", "192421.060000", "192421.520000", "192421.980000", "192422.440000", "192422.900000", "192423.360000", "192423.820000", "192424.280000", "192424.740000", "192425.200000", "192425.660000", "192426.120000", "192426.580000", "192427.040000", "192427.500000", "192427.960000", "192428.420000", "192428.880000", "192429.340000", "192429.800000", "192430.260000", "192430.720000", "192431.180000", "192431.640000", "192432.100000", "192432.560000", "192433.020000", "192433.480000", "192433.940000", "192434.400000", "192434.860000", "192435.320000", "192435.780000", "192436.240000", "192436.700000", "192437.160000", "192437.620000", "192438.080000", "192438.540000", "192439.000000", "192439.460000", "192439.920000", "192440.380000", "192440.840000", "192441.300000", "192441.760000", "192442.220000", "192442.680000", "192443.140000", "192443.600000", "192444.060000", "192444.520000", "192444.980000", "192445.440000", "192445.900000", "192446.360000", "192446.820000", "192447.280000", "192447.740000", "192448.200000", "192448.660000", "192449.120000", "192449.580000", "192450.040000", "192450.500000", "192450.960000", "192451.420000", "192451.880000", "192452.340000", "192452.800000", "192453.260000", "192453.720000", "192454.180000", "192454.640000", "192455.100000", "192455.560000", "192456.020000", "192456.480000", "192456.940000", "192457.400000", "192457.860000", "192458.320000", "192458.780000", "192459.240000", "192459.700000", "192500.160000", "192500.620000", "192501.080000", "192501.540000", "192502.000000", "192502.460000", "192502.920000", "192503.380000", "192503.840000", "192504.300000", "192504.760000", "192505.220000", "192505.680000", "192506.140000", "192506.600000", "192507.060000", "192507.520000", "192507.980000", "192508.440000", "192508.900000", "192509.360000", "192509.820000", "192510.280000", "192510.740000", "192511.200000", "192511.660000", "192512.120000", "192512.580000", "192513.040000", "192513.500000", "192513.960000", "192514.420000", "192514.880000", "192515.340000", "192515.800000", "192516.260000", "192516.720000", "192517.180000", "192517.640000", "192518.100000", "192518.560000", "192519.020000", "192519.480000", "192519.940000", "192520.400000", "192520.860000", "192521.320000", "192521.780000", "192522.240000", "192522.700000", "192523.160000", "192523.620000", "192524.080000", "192524.540000", "192525.000000", "192525.460000", "192525.920000", "192526.380000", "192526.840000", "192527.300000", "192527.760000", "192528.220000", "192528.680000", "192529.140000", "192529.600000", "192530.060000", "192530.520000", "192530.980000", "192531.440000", "192531.900000", "192532.360000", "192532.820000", "192533.280000", "192533.740000", "192534.200000", "192534.660000", "192535.120000", "192535.580000", "192536.040000", "192536.500000", "192536.960000", "192537.420000", "192537.880000", "192538.340000", "192538.800000", "192539.260000", "192539.720000", "192540.180000", "192540.640000", "192541.100000", "192541.560000", "192542.020000", "192542.480000", "192542.940000", "192543.400000", "192543.860000", "192544.320000", "192544.780000", "192545.240000", "192545.700000", "192546.160000", "192546.620000", "192547.080000", "192547.540000", "192548.000000", "192548.460000", "192548.920000", "192549.380000", "192549.840000", "192550.300000", "192550.760000", "192551.220000", "192551.680000", "192552.140000", "192552.600000", "192553.060000", "192553.520000", "192553.980000", "192554.440000", "192554.900000", "192555.360000", "192555.820000", "192556.280000", "192556.740000", "192557.200000", "192557.660000", "192558.120000", "192558.580000", "192559.040000", "192559.500000", "192559.960000", "192600.420000", "192600.880000", "192601.340000", "192601.800000", "192602.260000", "192602.720000", "192603.180000", "192603.640000", "192604.100000", "192604.560000", "192605.020000", "192605.480000", "192605.940000", "192606.400000", "192606.860000", "192607.320000", "192607.780000", "192608.240000", "192608.700000", "192609.160000", "192609.620000", "192610.080000", "192610.540000", "192611.000000", "192611.460000", "192611.920000", "192612.380000", "192612.840000", "192613.300000", "192613.760000", "192614.220000", "192614.680000", "192615.140000", "192615.600000", "192616.060000", "192616.520000", "192616.980000", "192617.440000", "192617.900000", "192618.360000", "192618.820000", "192619.280000", "192619.740000", "192620.200000", "192620.660000", "192621.120000", "192621.580000", "192622.040000", "192622.500000", "192622.960000", "192623.420000", "192623.880000", "192624.340000", "192624.800000", "192625.260000", "192625.720000", "192626.180000", "192626.640000", "192627.100000", "192627.560000", "192628.020000", "192628.480000", "192628.940000", "192629.400000", "192629.860000", "192630.320000", "192630.780000", "192631.240000", "192631.700000", "192632.160000", "192632.620000", "192633.080000", "192633.540000", "192634.000000", "192634.460000", "192634.920000", "192635.380000", "192635.840000", "192636.300000", "192636.760000", "192637.220000", "192637.680000", "192638.140000", "192638.600000", "192639.060000", "192639.520000", "192639.980000", "192640.440000", "192640.900000", "192641.360000", "192641.820000", "192642.280000", "192642.740000", "192643.200000", "192643.660000", "192644.120000", "192644.580000", "192645.040000", "192645.500000", "192645.960000", "192646.420000", "192646.880000", "192647.340000", "192647.800000", "192648.260000", "192648.720000", "192649.180000", "192649.640000", "192650.100000", "192650.560000", "192651.020000", "192651.480000", "192651.940000", "192652.400000", "192652.860000", "192653.320000", "192653.780000", "192654.240000", "192654.700000", "192655.160000", "192655.620000", "192656.080000", "192656.540000", "192657.000000", "192657.460000", "192657.920000", "192658.380000", "192658.840000", "192659.300000", "192659.760000", "192700.220000", "192700.680000", "192701.140000", "192701.600000", "192702.060000", "192702.520000", "192702.980000", "192703.440000", "192703.900000", "192704.360000", "192704.820000", "192705.280000", "192705.740000", "192706.200000", "192706.660000"],
