{
  "AcquisitionMatrixPE": 82,
  "AcquisitionNumber": 1,
  "AcquisitionTime": "19:43:0.617500",
  "BandwidthPerPixelPhaseEncode": 24.888,
  "BaseResolution": 82,
  "BodyPartExamined": "BRAIN",
  "ConsistencyInfo": "N4_VE11E_LATEST_20181129",
  "ConversionSoftware": "dcm2niix",
  "ConversionSoftwareVersion": "v1.0.20201102",
  "DerivedVendorReportedEchoSpacing": 0.00049,
  "DeviceSerialNumber": "66112",
  "DwellTime": 2e-06,
  "EchoTime": 0.0272,
  "EchoTrainLength": 82,
  "EffectiveEchoSpacing": 0.00049,
  "FlipAngle": 44,
  "ImageComments": "Unaliased MB8/PE3",
  "ImageOrientationPatientDICOM": [0.998632, -0.0240558, -0.0464212, 0.0285921, 0.994609, 0.0996717],
  "ImageType": [
    "ORIGINAL",
    "PRIMARY",
    "M",
    "MB",
    "ND",
    "NORM",
    "MOSAIC"
],
  "ImagingFrequency": 123.252,
  "InPlanePhaseEncodingDirectionDICOM": "COL",
  "InstitutionAddress": "Maynard 3,Hanover,NH,US,03755",
  "InstitutionName": "Dartmouth College - PBS",
  "InstitutionalDepartmentName": "Department",
  "MRAcquisitionType": "2D",
  "MagneticFieldStrength": 3,
  "Manufacturer": "Siemens",
  "ManufacturersModelName": "Prisma",
  "Modality": "MR",
  "MultibandAccelerationFactor": 8,
  "PartialFourier": 1,
  "PatientPosition": "HFS",
  "PercentPhaseFOV": 100,
  "PercentSampling": 100,
  "PhaseEncodingDirection": "j-",
  "PhaseEncodingSteps": 82,
  "PhaseResolution": 1,
  "PixelBandwidth": 3050,
  "ProcedureStepDescription": "Wager_Wager^1076_spacetop",
  "ProtocolName": "func_run-04_task-social_acq-ap-mb8",
  "PulseSequenceDetails": "%CustomerSeq%\\cmrr_mbep2d_bold",
  "ReceiveCoilActiveElements": "HEA;HEP",
  "ReceiveCoilName": "Head_32",
  "ReconMatrixPE": 82,
  "RepetitionTime": 0.46,
  "SAR": 0.0845122,
  "ScanOptions": "FS",
  "ScanningSequence": "EP",
  "SequenceName": "epfid2d1_82",
  "SequenceVariant": "SK\\SS",
  "SeriesDescription": "func_run-04_task-social_acq-ap-mb8",
  "SeriesNumber": 14,
  "ShimSetting": [4122, -7715, -7269, 598, -89, 13, 76, 97],
  "SliceThickness": 2.7,
  "SliceTiming": [0, 0.2525, 0.0625, 0.315, 0.125, 0.3775, 0.19, 0, 0.2525, 0.0625, 0.315, 0.125, 0.3775, 0.19, 0, 0.2525, 0.0625, 0.315, 0.125, 0.3775, 0.19, 0, 0.2525, 0.0625, 0.315, 0.125, 0.3775, 0.19, 0, 0.2525, 0.0625, 0.315, 0.125, 0.3775, 0.19, 0, 0.2525, 0.0625, 0.315, 0.125, 0.3775, 0.19, 0, 0.2525, 0.0625, 0.315, 0.125, 0.3775, 0.19, 0, 0.2525, 0.0625, 0.315, 0.125, 0.3775, 0.19],
  "SoftwareVersions": "syngo MR E11",
  "SpacingBetweenSlices": 2.7,
  "StationName": "AWP66112",
  "TaskName": "social",
  "TotalReadoutTime": 0.03969,
  "TxRefAmp": 243.174,
  "WipMemBlock": "d0d13b9d-eca2-402e-9418-0c05bb2861b9||Sequence: R016 ve11e/master r/434b28f1; Aug  7 2019 18:53:46 by eja",
  "dcmmeta_affine": [
    [-2.679257392883301, 0.07671049237251282, -0.11818777769804001, 108.94178771972656],
    [0.06453989446163177, 2.6684646606445312, 0.27232927083969116, -101.42657470703125],
    [-0.12454459816217422, -0.267412006855011, 2.6836297512054443, -56.01923370361328],
    [0.0, 0.0, 0.0, 1.0]
],
  "dcmmeta_reorient_transform": [
    [0.0, -1.0, 0.0, 81.0],
    [1.0, 0.0, 0.0, 0.0],
    [0.0, 0.0, 1.0, 0.0],
    [0.0, 0.0, 0.0, 1.0]
],
  "dcmmeta_shape": [82, 82, 56, 872],
  "dcmmeta_slice_dim": 2,
  "dcmmeta_version": 0.6,
  "global": {
    "const": {
      "AccessionNumber": "A004116",
      "AcquisitionMatrix": [82, 0, 0, 82],
      "AngioFlag": "N",
      "BitsAllocated": 16,
      "BitsStored": 16,
      "BodyPartExamined": "BRAIN",
      "Columns": 656,
      "EchoNumbers": 1,
      "EchoTime": 27.2,
      "EchoTrainLength": 82,
      "FlipAngle": 44.0,
      "HighBit": 15,
      "ImageOrientationPatient": [0.99863226196745, -0.0240557793213, -0.0464211680057, 0.02859209170191, 0.99460948893573, 0.09967174529979],
      "ImagePositionPatient": [-906.11810947166, -862.04542567382, -118.6825535086],
      "ImageType": [
        "ORIGINAL",
        "PRIMARY",
        "M",
        "MB",
        "ND",
        "NORM",
        "MOSAIC"
],
      "ImagedNucleus": "1H",
      "ImagingFrequency": 123.252219,
      "InPlanePhaseEncodingDirection": "COL",
      "MRAcquisitionType": "2D",
      "MagneticFieldStrength": 3.0,
      "Manufacturer": "SIEMENS",
      "ManufacturerModelName": "Prisma",
      "Modality": "MR",
      "NumberOfAverages": 1.0,
      "NumberOfPhaseEncodingSteps": 82,
      "PercentPhaseFieldOfView": 100.0,
      "PercentSampling": 100.0,
      "PerformedProcedureStepStartTime": "191441.129000",
      "PhotometricInterpretation": "MONOCHROME2",
      "PixelBandwidth": 3050.0,
      "PixelRepresentation": 0,
      "PixelSpacing": [2.6829268932343, 2.6829268932343],
      "ProtocolName": "func_run-04_task-social_acq-ap-mb8",
      "RepetitionTime": 460.0,
      "Rows": 656,
      "SAR": 0.08451221116684,
      "SamplesPerPixel": 1,
      "ScanOptions": "FS",
      "ScanningSequence": "EP",
      "SequenceName": "epfid2d1_82",
      "SequenceVariant": [
        "SK",
        "SS"
],
      "SeriesDescription": "func_run-04_task-social_acq-ap-mb8",
      "SeriesNumber": 14,
      "SeriesTime": "194327.567000",
      "SliceLocation": -70.678481608868,
      "SliceThickness": 2.7000000476837,
      "SmallestImagePixelValue": 0,
      "SoftwareVersions": "syngo MR E11",
      "SpacingBetweenSlices": 2.699999968567,
      "SpecificCharacterSet": "ISO_IR 100",
      "StudyID": "2",
      "StudyTime": "191441.065000",
      "TransmitCoilName": "Body",
      "VariableFlipAngleFlag": "N",
      "WindowCenterWidthExplanation": "Algo1"
    },
    "slices": {}
  },
  "time": {
    "samples": {
      "AcquisitionNumber": [1, 2, 3, 4, 5, 6, 7, 8, 9, 10, 11, 12, 13, 14, 15, 16, 17, 18, 19, 20, 21, 22, 23, 24, 25, 26, 27, 28, 29, 30, 31, 32, 33, 34, 35, 36, 37, 38, 39, 40, 41, 42, 43, 44, 45, 46, 47, 48, 49, 50, 51, 52, 53, 54, 55, 56, 57, 58, 59, 60, 61, 62, 63, 64, 65, 66, 67, 68, 69, 70, 71, 72, 73, 74, 75, 76, 77, 78, 79, 80, 81, 82, 83, 84, 85, 86, 87, 88, 89, 90, 91, 92, 93, 94, 95, 96, 97, 98, 99, 100, 101, 102, 103, 104, 105, 106, 107, 108, 109, 110, 111, 112, 113, 114, 115, 116, 117, 118, 119, 120, 121, 122, 123, 124, 125, 126, 127, 128, 129, 130, 131, 132, 133, 134, 135, 136, 137, 138, 139, 140, 141, 142, 143, 144, 145, 146, 147, 148, 149, 150, 151, 152, 153, 154, 155, 156, 157, 158, 159, 160, 161, 162, 163, 164, 165, 166, 167, 168, 169, 170, 171, 172, 173, 174, 175, 176, 177, 178, 179, 180, 181, 182, 183, 184, 185, 186, 187, 188, 189, 190, 191, 192, 193, 194, 195, 196, 197, 198, 199, 200, 201, 202, 203, 204, 205, 206, 207, 208, 209, 210, 211, 212, 213, 214, 215, 216, 217, 218, 219, 220, 221, 222, 223, 224, 225, 226, 227, 228, 229, 230, 231, 232, 233, 234, 235, 236, 237, 238, 239, 240, 241, 242, 243, 244, 245, 246, 247, 248, 249, 250, 251, 252, 253, 254, 255, 256, 257, 258, 259, 260, 261, 262, 263, 264, 265, 266, 267, 268, 269, 270, 271, 272, 273, 274, 275, 276, 277, 278, 279, 280, 281, 282, 283, 284, 285, 286, 287, 288, 289, 290, 291, 292, 293, 294, 295, 296, 297, 298, 299, 300, 301, 302, 303, 304, 305, 306, 307, 308, 309, 310, 311, 312, 313, 314, 315, 316, 317, 318, 319, 320, 321, 322, 323, 324, 325, 326, 327, 328, 329, 330, 331, 332, 333, 334, 335, 336, 337, 338, 339, 340, 341, 342, 343, 344, 345, 346, 347, 348, 349, 350, 351, 352, 353, 354, 355, 356, 357, 358, 359, 360, 361, 362, 363, 364, 365, 366, 367, 368, 369, 370, 371, 372, 373, 374, 375, 376, 377, 378, 379, 380, 381, 382, 383, 384, 385, 386, 387, 388, 389, 390, 391, 392, 393, 394, 395, 396, 397, 398, 399, 400, 401, 402, 403, 404, 405, 406, 407, 408, 409, 410, 411, 412, 413, 414, 415, 416, 417, 418, 419, 420, 421, 422, 423, 424, 425, 426, 427, 428, 429, 430, 431, 432, 433, 434, 435, 436, 437, 438, 439, 440, 441, 442, 443, 444, 445, 446, 447, 448, 449, 450, 451, 452, 453, 454, 455, 456, 457, 458, 459, 460, 461, 462, 463, 464, 465, 466, 467, 468, 469, 470, 471, 472, 473, 474, 475, 476, 477, 478, 479, 480, 481, 482, 483, 484, 485, 486, 487, 488, 489, 490, 491, 492, 493, 494, 495, 496, 497, 498, 499, 500, 501, 502, 503, 504, 505, 506, 507, 508, 509, 510, 511, 512, 513, 514, 515, 516, 517, 518, 519, 520, 521, 522, 523, 524, 525, 526, 527, 528, 529, 530, 531, 532, 533, 534, 535, 536, 537, 538, 539, 540, 541, 542, 543, 544, 545, 546, 547, 548, 549, 550, 551, 552, 553, 554, 555, 556, 557, 558, 559, 560, 561, 562, 563, 564, 565, 566, 567, 568, 569, 570, 571, 572, 573, 574, 575, 576, 577, 578, 579, 580, 581, 582, 583, 584, 585, 586, 587, 588, 589, 590, 591, 592, 593, 594, 595, 596, 597, 598, 599, 600, 601, 602, 603, 604, 605, 606, 607, 608, 609, 610, 611, 612, 613, 614, 615, 616, 617, 618, 619, 620, 621, 622, 623, 624, 625, 626, 627, 628, 629, 630, 631, 632, 633, 634, 635, 636, 637, 638, 639, 640, 641, 642, 643, 644, 645, 646, 647, 648, 649, 650, 651, 652, 653, 654, 655, 656, 657, 658, 659, 660, 661, 662, 663, 664, 665, 666, 667, 668, 669, 670, 671, 672, 673, 674, 675, 676, 677, 678, 679, 680, 681, 682, 683, 684, 685, 686, 687, 688, 689, 690, 691, 692, 693, 694, 695, 696, 697, 698, 699, 700, 701, 702, 703, 704, 705, 706, 707, 708, 709, 710, 711, 712, 713, 714, 715, 716, 717, 718, 719, 720, 721, 722, 723, 724, 725, 726, 727, 728, 729, 730, 731, 732, 733, 734, 735, 736, 737, 738, 739, 740, 741, 742, 743, 744, 745, 746, 747, 748, 749, 750, 751, 752, 753, 754, 755, 756, 757, 758, 759, 760, 761, 762, 763, 764, 765, 766, 767, 768, 769, 770, 771, 772, 773, 774, 775, 776, 777, 778, 779, 780, 781, 782, 783, 784, 785, 786, 787, 788, 789, 790, 791, 792, 793, 794, 795, 796, 797, 798, 799, 800, 801, 802, 803, 804, 805, 806, 807, 808, 809, 810, 811, 812, 813, 814, 815, 816, 817, 818, 819, 820, 821, 822, 823, 824, 825, 826, 827, 828, 829, 830, 831, 832, 833, 834, 835, 836, 837, 838, 839, 840, 841, 842, 843, 844, 845, 846, 847, 848, 849, 850, 851, 852, 853, 854, 855, 856, 857, 858, 859, 860, 861, 862, 863, 864, 865, 866, 867, 868, 869, 870, 871, 872],
      "AcquisitionTime": ["194300.617500", "194301.077500", "194301.537500", "194301.997500", "194302.457500", "194302.917500", "194303.377500", "194303.837500", "194304.297500", "194304.757500", "194305.217500", "194305.677500", "194306.137500", "194306.597500", "194307.057500", "194307.517500", "194307.977500", "194308.437500", "194308.897500", "194309.357500", "194309.817500", "194310.277500", "194310.737500", "194311.197500", "194311.657500", "194312.117500", "194312.577500", "194313.037500", "194313.497500", "194313.957500", "194314.417500", "194314.877500", "194315.337500", "194315.797500", "194316.257500", "194316.717500", "194317.177500", "194317.637500", "194318.097500", "194318.557500", "194319.017500", "194319.477500", "194319.937500", "194320.397500", "194320.857500", "194321.317500", "194321.777500", "194322.237500", "194322.697500", "194323.157500", "194323.617500", "194324.077500", "194324.537500", "194324.997500", "194325.457500", "194325.917500", "194326.377500", "194326.837500", "194327.297500", "194327.757500", "194328.217500", "194328.677500", "194329.137500", "194329.597500", "194330.057500", "194330.517500", "194330.977500", "194331.437500", "194331.897500", "194332.357500", "194332.817500", "194333.277500", "194333.737500", "194334.197500", "194334.657500", "194335.117500", "194335.577500", "194336.037500", "194336.497500", "194336.957500", "194337.417500", "194337.877500", "194338.337500", "194338.797500", "194339.257500", "194339.717500", "194340.177500", "194340.637500", "194341.097500", "194341.557500", "194342.017500", "194342.477500", "194342.937500", "194343.397500", "194343.857500", "194344.317500", "194344.777500", "194345.237500", "194345.697500", "194346.157500", "194346.617500", "194347.077500", "194347.537500", "194347.997500", "194348.457500", "194348.917500", "194349.377500", "194349.837500", "194350.297500", "194350.757500", "194351.217500", "194351.677500", "194352.137500", "194352.597500", "194353.057500", "194353.517500", "194353.977500", "194354.437500", "194354.897500", "194355.357500", "194355.817500", "194356.277500", "194356.737500", "194357.197500", "194357.657500", "194358.117500", "194358.577500", "194359.037500", "194359.497500", "194359.957500", "194400.417500", "194400.877500", "194401.337500", "194401.797500", "194402.257500", "194402.717500", "194403.177500", "194403.637500", "194404.097500", "194404.557500", "194405.017500", "194405.477500", "194405.937500", "194406.397500", "194406.857500", "194407.317500", "194407.777500", "194408.237500", "194408.697500", "194409.157500", "194409.617500", "194410.077500", "194410.537500", "194410.997500", "194411.457500", "194411.917500", "194412.377500", "194412.837500", "194413.297500", "194413.757500", "194414.217500", "194414.677500", "194415.137500", "194415.597500", "194416.057500", "194416.517500", "194416.977500", "194417.437500", "194417.897500", "194418.357500", "194418.817500", "194419.277500", "194419.737500", "194420.197500", "194420.657500", "194421.117500", "194421.577500", "194422.037500", "194422.497500", "194422.957500", "194423.417500", "194423.877500", "194424.337500", "194424.797500", "194425.257500", "194425.717500", "194426.177500", "194426.637500", "194427.097500", "194427.557500", "194428.017500", "194428.477500", "194428.937500", "194429.397500", "194429.857500", "194430.317500", "194430.777500", "194431.237500", "194431.697500", "194432.157500", "194432.617500", "194433.077500", "194433.537500", "194433.997500", "194434.457500", "194434.917500", "194435.377500", "194435.837500", "194436.297500", "194436.757500", "194437.217500", "194437.677500", "194438.137500", "194438.597500", "194439.057500", "194439.517500", "194439.977500", "194440.437500", "194440.897500", "194441.357500", "194441.817500", "194442.277500", "194442.737500", "194443.197500", "194443.657500", "194444.117500", "194444.577500", "194445.037500", "194445.497500", "194445.957500", "194446.417500", "194446.877500", "194447.337500", "194447.797500", "194448.257500", "194448.717500", "194449.177500", "194449.637500", "194450.097500", "194450.557500", "194451.017500", "194451.477500", "194451.937500", "194452.397500", "194452.857500", "194453.317500", "194453.777500", "194454.237500", "194454.697500", "194455.157500", "194455.617500", "194456.077500", "194456.537500", "194456.997500", "194457.457500", "194457.917500", "194458.377500", "194458.837500", "194459.297500", "194459.757500", "194500.217500", "194500.677500", "194501.137500", "194501.597500", "194502.057500", "194502.517500", "194502.977500", "194503.437500", "194503.897500", "194504.357500", "194504.817500", "194505.277500", "194505.737500", "194506.197500", "194506.657500", "194507.117500", "194507.577500", "194508.037500", "194508.497500", "194508.957500", "194509.417500", "194509.877500", "194510.337500", "194510.797500", "194511.257500", "194511.717500", "194512.177500", "194512.637500", "194513.097500", "194513.557500", "194514.017500", "194514.477500", "194514.937500", "194515.397500", "194515.857500", "194516.317500", "194516.777500", "194517.237500", "194517.697500", "194518.157500", "194518.617500", "194519.077500", "194519.537500", "194519.997500", "194520.457500", "194520.917500", "194521.377500", "194521.837500", "194522.297500", "194522.757500", "194523.217500", "194523.677500", "194524.137500", "194524.597500", "194525.057500", "194525.517500", "194525.977500", "194526.437500", "194526.897500", "194527.357500", "194527.817500", "194528.277500", "194528.737500", "194529.197500", "194529.657500", "194530.117500", "194530.577500", "194531.037500", "194531.497500", "194531.957500", "194532.417500", "194532.877500", "194533.337500", "194533.797500", "194534.257500", "194534.717500", "194535.177500", "194535.637500", "194536.097500", "194536.557500", "194537.017500", "194537.477500", "194537.937500", "194538.397500", "194538.857500", "194539.317500", "194539.777500", "194540.237500", "194540.697500", "194541.157500", "194541.617500", "194542.077500", "194542.537500", "194542.997500", "194543.457500", "194543.917500", "194544.377500", "194544.837500", "194545.297500", "194545.757500", "194546.217500", "194546.677500", "194547.137500", "194547.597500", "194548.057500", "194548.517500", "194548.977500", "194549.437500", "194549.897500", "194550.357500", "194550.817500", "194551.277500", "194551.737500", "194552.197500", "194552.657500", "194553.117500", "194553.577500", "194554.037500", "194554.497500", "194554.957500", "194555.417500", "194555.877500", "194556.337500", "194556.797500", "194557.257500", "194557.717500", "194558.177500", "194558.637500", "194559.097500", "194559.557500", "194600.017500", "194600.477500", "194600.937500", "194601.397500", "194601.857500", "194602.317500", "194602.777500", "194603.237500", "194603.697500", "194604.157500", "194604.617500", "194605.077500", "194605.537500", "194605.997500", "194606.457500", "194606.917500", "194607.377500", "194607.837500", "194608.297500", "194608.757500", "194609.217500", "194609.677500", "194610.137500", "194610.597500", "194611.057500", "194611.517500", "194611.977500", "194612.437500", "194612.897500", "194613.357500", "194613.817500", "194614.277500", "194614.737500", "194615.197500", "194615.657500", "194616.117500", "194616.577500", "194617.037500", "194617.497500", "194617.957500", "194618.417500", "194618.877500", "194619.337500", "194619.797500", "194620.257500", "194620.717500", "194621.177500", "194621.637500", "194622.097500", "194622.557500", "194623.017500", "194623.477500", "194623.937500", "194624.397500", "194624.857500", "194625.317500", "194625.777500", "194626.237500", "194626.697500", "194627.157500", "194627.617500", "194628.077500", "194628.537500", "194628.997500", "194629.457500", "194629.917500", "194630.377500", "194630.837500", "194631.297500", "194631.757500", "194632.217500", "194632.677500", "194633.137500", "194633.597500", "194634.057500", "194634.517500", "194634.977500", "194635.437500", "194635.897500", "194636.357500", "194636.817500", "194637.277500", "194637.737500", "194638.197500", "194638.657500", "194639.117500", "194639.577500", "194640.037500", "194640.497500", "194640.957500", "194641.417500", "194641.877500", "194642.337500", "194642.797500", "194643.257500", "194643.717500", "194644.177500", "194644.637500", "194645.097500", "194645.557500", "194646.017500", "194646.477500", "194646.937500", "194647.397500", "194647.857500", "194648.317500", "194648.777500", "194649.237500", "194649.697500", "194650.157500", "194650.617500", "194651.077500", "194651.537500", "194651.997500", "194652.457500", "194652.917500", "194653.377500", "194653.837500", "194654.297500", "194654.757500", "194655.217500", "194655.677500", "194656.137500", "194656.597500", "194657.057500", "194657.517500", "194657.977500", "194658.437500", "194658.897500", "194659.357500", "194659.817500", "194700.277500", "194700.737500", "194701.197500", "194701.657500", "194702.117500", "194702.577500", "194703.037500", "194703.497500", "194703.957500", "194704.417500", "194704.877500", "194705.337500", "194705.797500", "194706.257500", "194706.717500", "194707.177500", "194707.637500", "194708.097500", "194708.557500", "194709.017500", "194709.477500", "194709.937500", "194710.397500", "194710.857500", "194711.317500", "194711.777500", "194712.237500", "194712.697500", "194713.157500", "194713.617500", "194714.077500", "194714.537500", "194714.997500", "194715.457500", "194715.917500", "194716.377500", "194716.837500", "194717.297500", "194717.757500", "194718.217500", "194718.677500", "194719.137500", "194719.597500", "194720.057500", "194720.517500", "194720.977500", "194721.437500", "194721.897500", "194722.357500", "194722.817500", "194723.277500", "194723.737500", "194724.197500", "194724.657500", "194725.117500", "194725.577500", "194726.037500", "194726.497500", "194726.957500", "194727.417500", "194727.877500", "194728.337500", "194728.797500", "194729.257500", "194729.717500", "194730.177500", "194730.637500", "194731.097500", "194731.557500", "194732.017500", "194732.477500", "194732.937500", "194733.397500", "194733.857500", "194734.317500", "194734.777500", "194735.237500", "194735.697500", "194736.157500", "194736.617500", "194737.077500", "194737.537500", "194737.997500", "194738.457500", "194738.917500", "194739.377500", "194739.837500", "194740.297500", "194740.757500", "194741.217500", "194741.677500", "194742.137500", "194742.597500", "194743.057500", "194743.517500", "194743.977500", "194744.437500", "194744.897500", "194745.357500", "194745.817500", "194746.277500", "194746.737500", "194747.197500", "194747.657500", "194748.117500", "194748.577500", "194749.037500", "194749.497500", "194749.957500", "194750.417500", "194750.877500", "194751.337500", "194751.797500", "194752.257500", "194752.717500", "194753.177500", "194753.637500", "194754.097500", "194754.557500", "194755.017500", "194755.477500", "194755.937500", "194756.397500", "194756.857500", "194757.317500", "194757.777500", "194758.237500", "194758.697500", "194759.157500", "194759.617500", "194800.077500", "194800.537500", "194800.997500", "194801.457500", "194801.917500", "194802.377500", "194802.837500", "194803.297500", "194803.757500", "194804.217500", "194804.677500", "194805.137500", "194805.597500", "194806.057500", "194806.517500", "194806.977500", "194807.437500", "194807.897500", "194808.357500", "194808.817500", "194809.277500", "194809.737500", "194810.197500", "194810.657500", "194811.117500", "194811.577500", "194812.037500", "194812.497500", "194812.957500", "194813.417500", "194813.877500", "194814.337500", "194814.797500", "194815.257500", "194815.717500", "194816.177500", "194816.637500", "194817.097500", "194817.557500", "194818.017500", "194818.477500", "194818.937500", "194819.397500", "194819.857500", "194820.317500", "194820.777500", "194821.237500", "194821.697500", "194822.157500", "194822.617500", "194823.077500", "194823.537500", "194823.997500", "194824.457500", "194824.917500", "194825.377500", "194825.837500", "194826.297500", "194826.757500", "194827.217500", "194827.677500", "194828.137500", "194828.597500", "194829.057500", "194829.517500", "194829.977500", "194830.437500", "194830.897500", "194831.357500", "194831.817500", "194832.277500", "194832.737500", "194833.197500", "194833.657500", "194834.117500", "194834.577500", "194835.037500", "194835.497500", "194835.957500", "194836.417500", "194836.877500", "194837.337500", "194837.797500", "194838.257500", "194838.717500", "194839.177500", "194839.637500", "194840.097500", "194840.557500", "194841.017500", "194841.477500", "194841.937500", "194842.397500", "194842.857500", "194843.317500", "194843.777500", "194844.237500", "194844.697500", "194845.157500", "194845.617500", "194846.077500", "194846.537500", "194846.997500", "194847.457500", "194847.917500", "194848.377500", "194848.837500", "194849.297500", "194849.757500", "194850.217500", "194850.677500", "194851.137500", "194851.597500", "194852.057500", "194852.517500", "194852.977500", "194853.437500", "194853.897500", "194854.357500", "194854.817500", "194855.277500", "194855.737500", "194856.197500", "194856.657500", "194857.117500", "194857.577500", "194858.037500", "194858.497500", "194858.957500", "194859.417500", "194859.877500", "194900.337500", "194900.797500", "194901.257500", "194901.717500", "194902.177500", "194902.637500", "194903.097500", "194903.557500", "194904.017500", "194904.477500", "194904.937500", "194905.397500", "194905.857500", "194906.317500", "194906.777500", "194907.237500", "194907.697500", "194908.157500", "194908.617500", "194909.077500", "194909.537500", "194909.997500", "194910.457500", "194910.917500", "194911.377500", "194911.837500", "194912.297500", "194912.757500", "194913.217500", "194913.677500", "194914.137500", "194914.597500", "194915.057500", "194915.517500", "194915.977500", "194916.437500", "194916.897500", "194917.357500", "194917.817500", "194918.277500", "194918.737500", "194919.197500", "194919.657500", "194920.117500", "194920.577500", "194921.037500", "194921.497500", "194921.957500", "194922.417500", "194922.877500", "194923.337500", "194923.797500", "194924.257500", "194924.717500", "194925.177500", "194925.637500", "194926.097500", "194926.557500", "194927.017500", "194927.477500", "194927.937500", "194928.397500", "194928.857500", "194929.317500", "194929.777500", "194930.237500", "194930.697500", "194931.157500", "194931.617500", "194932.077500", "194932.537500", "194932.997500", "194933.457500", "194933.917500", "194934.377500", "194934.837500", "194935.297500", "194935.757500", "194936.217500", "194936.677500", "194937.137500", "194937.597500", "194938.057500", "194938.517500", "194938.977500", "194939.437500", "194939.897500", "194940.357500", "194940.817500", "194941.277500"],
