{
  "AcquisitionMatrixPE": 82,
  "AcquisitionNumber": 1,
  "AcquisitionTime": "19:28:38.342500",
  "BandwidthPerPixelPhaseEncode": 24.888,
  "BaseResolution": 82,
  "BodyPartExamined": "BRAIN",
  "ConsistencyInfo": "N4_VE11E_LATEST_20181129",
  "ConversionSoftware": "dcm2niix",
  "ConversionSoftwareVersion": "v1.0.20201102",
  "DerivedVendorReportedEchoSpacing": 0.00049,
  "DeviceSerialNumber": "66112",
  "DwellTime": 2e-06,
  "EchoTime": 0.0272,
  "EchoTrainLength": 82,
  "EffectiveEchoSpacing": 0.00049,
  "FlipAngle": 44,
  "ImageComments": "Unaliased MB8/PE3",
  "ImageOrientationPatientDICOM": [0.998632, -0.0240558, -0.0464212, 0.0285921, 0.994609, 0.0996717],
  "ImageType": [
    "ORIGINAL",
    "PRIMARY",
    "M",
    "MB",
    "ND",
    "NORM",
    "MOSAIC"
],
  "ImagingFrequency": 123.252,
  "InPlanePhaseEncodingDirectionDICOM": "COL",
  "InstitutionAddress": "Maynard 3,Hanover,NH,US,03755",
  "InstitutionName": "Dartmouth College - PBS",
  "InstitutionalDepartmentName": "Department",
  "MRAcquisitionType": "2D",
  "MagneticFieldStrength": 3,
  "Manufacturer": "Siemens",
  "ManufacturersModelName": "Prisma",
  "Modality": "MR",
  "MultibandAccelerationFactor": 8,
  "PartialFourier": 1,
  "PatientPosition": "HFS",
  "PercentPhaseFOV": 100,
  "PercentSampling": 100,
  "PhaseEncodingDirection": "j-",
  "PhaseEncodingSteps": 82,
  "PhaseResolution": 1,
  "PixelBandwidth": 3050,
  "ProcedureStepDescription": "Wager_Wager^1076_spacetop",
  "ProtocolName": "func_run-02_task-social_acq-ap-mb8",
  "PulseSequenceDetails": "%CustomerSeq%\\cmrr_mbep2d_bold",
  "ReceiveCoilActiveElements": "HEA;HEP",
  "ReceiveCoilName": "Head_32",
  "ReconMatrixPE": 82,
  "RepetitionTime": 0.46,
  "SAR": 0.0845122,
  "ScanOptions": "FS",
  "ScanningSequence": "EP",
  "SequenceName": "epfid2d1_82",
  "SequenceVariant": "SK\\SS",
  "SeriesDescription": "func_run-02_task-social_acq-ap-mb8",
  "SeriesNumber": 10,
  "ShimSetting": [4122, -7715, -7269, 598, -89, 13, 76, 97],
  "SliceThickness": 2.7,
  "SliceTiming": [0, 0.2525, 0.0625, 0.315, 0.125, 0.3775, 0.19, 0, 0.2525, 0.0625, 0.315, 0.125, 0.3775, 0.19, 0, 0.2525, 0.0625, 0.315, 0.125, 0.3775, 0.19, 0, 0.2525, 0.0625, 0.315, 0.125, 0.3775, 0.19, 0, 0.2525, 0.0625, 0.315, 0.125, 0.3775, 0.19, 0, 0.2525, 0.0625, 0.315, 0.125, 0.3775, 0.19, 0, 0.2525, 0.0625, 0.315, 0.125, 0.3775, 0.19, 0, 0.2525, 0.0625, 0.315, 0.125, 0.3775, 0.19],
  "SoftwareVersions": "syngo MR E11",
  "SpacingBetweenSlices": 2.7,
  "StationName": "AWP66112",
  "TaskName": "social",
  "TotalReadoutTime": 0.03969,
  "TxRefAmp": 243.174,
  "WipMemBlock": "c9eb5417-9d1b-4161-944e-b92f6673738a||Sequence: R016 ve11e/master r/434b28f1; Aug  7 2019 18:53:46 by eja",
  "dcmmeta_affine": [
    [-2.679257392883301, 0.07671049237251282, -0.11818777769804001, 108.94178771972656],
    [0.06453989446163177, 2.6684646606445312, 0.27232927083969116, -101.42657470703125],
    [-0.12454459816217422, -0.267412006855011, 2.6836297512054443, -56.01923370361328],
    [0.0, 0.0, 0.0, 1.0]
],
  "dcmmeta_reorient_transform": [
    [0.0, -1.0, 0.0, 81.0],
    [1.0, 0.0, 0.0, 0.0],
    [0.0, 0.0, 1.0, 0.0],
    [0.0, 0.0, 0.0, 1.0]
],
  "dcmmeta_shape": [82, 82, 56, 872],
  "dcmmeta_slice_dim": 2,
  "dcmmeta_version": 0.6,
  "global": {
    "const": {
      "AccessionNumber": "A004116",
      "AcquisitionMatrix": [82, 0, 0, 82],
      "AngioFlag": "N",
      "BitsAllocated": 16,
      "BitsStored": 16,
      "BodyPartExamined": "BRAIN",
      "Columns": 656,
      "EchoNumbers": 1,
      "EchoTime": 27.2,
      "EchoTrainLength": 82,
      "FlipAngle": 44.0,
      "HighBit": 15,
      "ImageOrientationPatient": [0.99863226196745, -0.0240557793213, -0.0464211680057, 0.02859209170191, 0.99460948893573, 0.09967174529979],
      "ImagePositionPatient": [-906.11810947166, -862.04542567382, -118.6825535086],
      "ImageType": [
        "ORIGINAL",
        "PRIMARY",
        "M",
        "MB",
        "ND",
        "NORM",
        "MOSAIC"
],
      "ImagedNucleus": "1H",
      "ImagingFrequency": 123.252214,
      "InPlanePhaseEncodingDirection": "COL",
      "MRAcquisitionType": "2D",
      "MagneticFieldStrength": 3.0,
      "Manufacturer": "SIEMENS",
      "ManufacturerModelName": "Prisma",
      "Modality": "MR",
      "NumberOfAverages": 1.0,
      "NumberOfPhaseEncodingSteps": 82,
      "PercentPhaseFieldOfView": 100.0,
      "PercentSampling": 100.0,
      "PerformedProcedureStepStartTime": "191441.129000",
      "PhotometricInterpretation": "MONOCHROME2",
      "PixelBandwidth": 3050.0,
      "PixelRepresentation": 0,
      "PixelSpacing": [2.6829268932343, 2.6829268932343],
      "ProtocolName": "func_run-02_task-social_acq-ap-mb8",
      "RepetitionTime": 460.0,
      "Rows": 656,
      "SAR": 0.08451221116684,
      "SamplesPerPixel": 1,
      "ScanOptions": "FS",
      "ScanningSequence": "EP",
      "SequenceName": "epfid2d1_82",
      "SequenceVariant": [
        "SK",
        "SS"
],
      "SeriesDescription": "func_run-02_task-social_acq-ap-mb8",
      "SeriesNumber": 10,
      "SeriesTime": "192907.639000",
      "SliceLocation": -70.678481608868,
      "SliceThickness": 2.7000000476837,
      "SmallestImagePixelValue": 0,
      "SoftwareVersions": "syngo MR E11",
      "SpacingBetweenSlices": 2.699999968567,
      "SpecificCharacterSet": "ISO_IR 100",
      "StudyID": "2",
      "StudyTime": "191441.065000",
      "TransmitCoilName": "Body",
      "VariableFlipAngleFlag": "N",
      "WindowCenterWidthExplanation": "Algo1"
    },
    "slices": {}
  },
  "time": {
    "samples": {
      "AcquisitionNumber": [1, 2, 3, 4, 5, 6, 7, 8, 9, 10, 11, 12, 13, 14, 15, 16, 17, 18, 19, 20, 21, 22, 23, 24, 25, 26, 27, 28, 29, 30, 31, 32, 33, 34, 35, 36, 37, 38, 39, 40, 41, 42, 43, 44, 45, 46, 47, 48, 49, 50, 51, 52, 53, 54, 55, 56, 57, 58, 59, 60, 61, 62, 63, 64, 65, 66, 67, 68, 69, 70, 71, 72, 73, 74, 75, 76, 77, 78, 79, 80, 81, 82, 83, 84, 85, 86, 87, 88, 89, 90, 91, 92, 93, 94, 95, 96, 97, 98, 99, 100, 101, 102, 103, 104, 105, 106, 107, 108, 109, 110, 111, 112, 113, 114, 115, 116, 117, 118, 119, 120, 121, 122, 123, 124, 125, 126, 127, 128, 129, 130, 131, 132, 133, 134, 135, 136, 137, 138, 139, 140, 141, 142, 143, 144, 145, 146, 147, 148, 149, 150, 151, 152, 153, 154, 155, 156, 157, 158, 159, 160, 161, 162, 163, 164, 165, 166, 167, 168, 169, 170, 171, 172, 173, 174, 175, 176, 177, 178, 179, 180, 181, 182, 183, 184, 185, 186, 187, 188, 189, 190, 191, 192, 193, 194, 195, 196, 197, 198, 199, 200, 201, 202, 203, 204, 205, 206, 207, 208, 209, 210, 211, 212, 213, 214, 215, 216, 217, 218, 219, 220, 221, 222, 223, 224, 225, 226, 227, 228, 229, 230, 231, 232, 233, 234, 235, 236, 237, 238, 239, 240, 241, 242, 243, 244, 245, 246, 247, 248, 249, 250, 251, 252, 253, 254, 255, 256, 257, 258, 259, 260, 261, 262, 263, 264, 265, 266, 267, 268, 269, 270, 271, 272, 273, 274, 275, 276, 277, 278, 279, 280, 281, 282, 283, 284, 285, 286, 287, 288, 289, 290, 291, 292, 293, 294, 295, 296, 297, 298, 299, 300, 301, 302, 303, 304, 305, 306, 307, 308, 309, 310, 311, 312, 313, 314, 315, 316, 317, 318, 319, 320, 321, 322, 323, 324, 325, 326, 327, 328, 329, 330, 331, 332, 333, 334, 335, 336, 337, 338, 339, 340, 341, 342, 343, 344, 345, 346, 347, 348, 349, 350, 351, 352, 353, 354, 355, 356, 357, 358, 359, 360, 361, 362, 363, 364, 365, 366, 367, 368, 369, 370, 371, 372, 373, 374, 375, 376, 377, 378, 379, 380, 381, 382, 383, 384, 385, 386, 387, 388, 389, 390, 391, 392, 393, 394, 395, 396, 397, 398, 399, 400, 401, 402, 403, 404, 405, 406, 407, 408, 409, 410, 411, 412, 413, 414, 415, 416, 417, 418, 419, 420, 421, 422, 423, 424, 425, 426, 427, 428, 429, 430, 431, 432, 433, 434, 435, 436, 437, 438, 439, 440, 441, 442, 443, 444, 445, 446, 447, 448, 449, 450, 451, 452, 453, 454, 455, 456, 457, 458, 459, 460, 461, 462, 463, 464, 465, 466, 467, 468, 469, 470, 471, 472, 473, 474, 475, 476, 477, 478, 479, 480, 481, 482, 483, 484, 485, 486, 487, 488, 489, 490, 491, 492, 493, 494, 495, 496, 497, 498, 499, 500, 501, 502, 503, 504, 505, 506, 507, 508, 509, 510, 511, 512, 513, 514, 515, 516, 517, 518, 519, 520, 521, 522, 523, 524, 525, 526, 527, 528, 529, 530, 531, 532, 533, 534, 535, 536, 537, 538, 539, 540, 541, 542, 543, 544, 545, 546, 547, 548, 549, 550, 551, 552, 553, 554, 555, 556, 557, 558, 559, 560, 561, 562, 563, 564, 565, 566, 567, 568, 569, 570, 571, 572, 573, 574, 575, 576, 577, 578, 579, 580, 581, 582, 583, 584, 585, 586, 587, 588, 589, 590, 591, 592, 593, 594, 595, 596, 597, 598, 599, 600, 601, 602, 603, 604, 605, 606, 607, 608, 609, 610, 611, 612, 613, 614, 615, 616, 617, 618, 619, 620, 621, 622, 623, 624, 625, 626, 627, 628, 629, 630, 631, 632, 633, 634, 635, 636, 637, 638, 639, 640, 641, 642, 643, 644, 645, 646, 647, 648, 649, 650, 651, 652, 653, 654, 655, 656, 657, 658, 659, 660, 661, 662, 663, 664, 665, 666, 667, 668, 669, 670, 671, 672, 673, 674, 675, 676, 677, 678, 679, 680, 681, 682, 683, 684, 685, 686, 687, 688, 689, 690, 691, 692, 693, 694, 695, 696, 697, 698, 699, 700, 701, 702, 703, 704, 705, 706, 707, 708, 709, 710, 711, 712, 713, 714, 715, 716, 717, 718, 719, 720, 721, 722, 723, 724, 725, 726, 727, 728, 729, 730, 731, 732, 733, 734, 735, 736, 737, 738, 739, 740, 741, 742, 743, 744, 745, 746, 747, 748, 749, 750, 751, 752, 753, 754, 755, 756, 757, 758, 759, 760, 761, 762, 763, 764, 765, 766, 767, 768, 769, 770, 771, 772, 773, 774, 775, 776, 777, 778, 779, 780, 781, 782, 783, 784, 785, 786, 787, 788, 789, 790, 791, 792, 793, 794, 795, 796, 797, 798, 799, 800, 801, 802, 803, 804, 805, 806, 807, 808, 809, 810, 811, 812, 813, 814, 815, 816, 817, 818, 819, 820, 821, 822, 823, 824, 825, 826, 827, 828, 829, 830, 831, 832, 833, 834, 835, 836, 837, 838, 839, 840, 841, 842, 843, 844, 845, 846, 847, 848, 849, 850, 851, 852, 853, 854, 855, 856, 857, 858, 859, 860, 861, 862, 863, 864, 865, 866, 867, 868, 869, 870, 871, 872],
      "AcquisitionTime": ["192838.342500", "192838.802500", "192839.262500", "192839.722500", "192840.182500", "192840.642500", "192841.102500", "192841.562500", "192842.022500", "192842.482500", "192842.942500", "192843.402500", "192843.862500", "192844.322500", "192844.782500", "192845.242500", "192845.702500", "192846.162500", "192846.622500", "192847.082500", "192847.542500", "192848.002500", "192848.462500", "192848.922500", "192849.382500", "192849.842500", "192850.302500", "192850.762500", "192851.222500", "192851.682500", "192852.142500", "192852.602500", "192853.062500", "192853.522500", "192853.982500", "192854.442500", "192854.902500", "192855.362500", "192855.822500", "192856.282500", "192856.742500", "192857.202500", "192857.662500", "192858.122500", "192858.582500", "192859.042500", "192859.502500", "192859.962500", "192900.422500", "192900.882500", "192901.342500", "192901.802500", "192902.262500", "192902.722500", "192903.182500", "192903.642500", "192904.102500", "192904.562500", "192905.022500", "192905.482500", "192905.942500", "192906.402500", "192906.862500", "192907.322500", "192907.782500", "192908.242500", "192908.702500", "192909.162500", "192909.622500", "192910.082500", "192910.542500", "192911.002500", "192911.462500", "192911.922500", "192912.382500", "192912.842500", "192913.302500", "192913.762500", "192914.222500", "192914.682500", "192915.142500", "192915.602500", "192916.062500", "192916.522500", "192916.982500", "192917.442500", "192917.902500", "192918.362500", "192918.822500", "192919.282500", "192919.742500", "192920.202500", "192920.662500", "192921.122500", "192921.582500", "192922.042500", "192922.502500", "192922.962500", "192923.422500", "192923.882500", "192924.342500", "192924.802500", "192925.262500", "192925.722500", "192926.182500", "192926.642500", "192927.102500", "192927.562500", "192928.022500", "192928.482500", "192928.942500", "192929.402500", "192929.862500", "192930.322500", "192930.782500", "192931.242500", "192931.702500", "192932.162500", "192932.622500", "192933.082500", "192933.542500", "192934.002500", "192934.462500", "192934.922500", "192935.382500", "192935.842500", "192936.302500", "192936.762500", "192937.222500", "192937.682500", "192938.142500", "192938.602500", "192939.062500", "192939.522500", "192939.982500", "192940.442500", "192940.902500", "192941.362500", "192941.822500", "192942.282500", "192942.742500", "192943.202500", "192943.662500", "192944.122500", "192944.582500", "192945.042500", "192945.502500", "192945.962500", "192946.422500", "192946.882500", "192947.342500", "192947.802500", "192948.262500", "192948.722500", "192949.182500", "192949.642500", "192950.102500", "192950.562500", "192951.022500", "192951.482500", "192951.942500", "192952.402500", "192952.862500", "192953.322500", "192953.782500", "192954.242500", "192954.702500", "192955.162500", "192955.622500", "192956.082500", "192956.542500", "192957.002500", "192957.462500", "192957.922500", "192958.382500", "192958.842500", "192959.302500", "192959.762500", "193000.222500", "193000.682500", "193001.142500", "193001.602500", "193002.062500", "193002.522500", "193002.982500", "193003.442500", "193003.902500", "193004.362500", "193004.822500", "193005.282500", "193005.742500", "193006.202500", "193006.662500", "193007.122500", "193007.582500", "193008.042500", "193008.502500", "193008.962500", "193009.422500", "193009.882500", "193010.342500", "193010.802500", "193011.262500", "193011.722500", "193012.182500", "193012.642500", "193013.102500", "193013.562500", "193014.022500", "193014.482500", "193014.942500", "193015.402500", "193015.862500", "193016.322500", "193016.782500", "193017.242500", "193017.702500", "193018.162500", "193018.622500", "193019.082500", "193019.542500", "193020.002500", "193020.462500", "193020.922500", "193021.382500", "193021.842500", "193022.302500", "193022.762500", "193023.222500", "193023.682500", "193024.142500", "193024.602500", "193025.062500", "193025.522500", "193025.982500", "193026.442500", "193026.902500", "193027.362500", "193027.822500", "193028.282500", "193028.742500", "193029.202500", "193029.662500", "193030.122500", "193030.582500", "193031.042500", "193031.502500", "193031.962500", "193032.422500", "193032.882500", "193033.342500", "193033.802500", "193034.262500", "193034.722500", "193035.182500", "193035.642500", "193036.102500", "193036.562500", "193037.022500", "193037.482500", "193037.942500", "193038.402500", "193038.862500", "193039.322500", "193039.782500", "193040.242500", "193040.702500", "193041.162500", "193041.622500", "193042.082500", "193042.542500", "193043.002500", "193043.462500", "193043.922500", "193044.382500", "193044.842500", "193045.302500", "193045.762500", "193046.222500", "193046.682500", "193047.142500", "193047.602500", "193048.062500", "193048.522500", "193048.982500", "193049.442500", "193049.902500", "193050.362500", "193050.822500", "193051.282500", "193051.742500", "193052.202500", "193052.662500", "193053.122500", "193053.582500", "193054.042500", "193054.502500", "193054.962500", "193055.422500", "193055.882500", "193056.342500", "193056.802500", "193057.262500", "193057.722500", "193058.182500", "193058.642500", "193059.102500", "193059.562500", "193100.022500", "193100.482500", "193100.942500", "193101.402500", "193101.862500", "193102.322500", "193102.782500", "193103.242500", "193103.702500", "193104.162500", "193104.622500", "193105.082500", "193105.542500", "193106.002500", "193106.462500", "193106.922500", "193107.382500", "193107.842500", "193108.302500", "193108.762500", "193109.222500", "193109.682500", "193110.142500", "193110.602500", "193111.062500", "193111.522500", "193111.982500", "193112.442500", "193112.902500", "193113.362500", "193113.822500", "193114.282500", "193114.742500", "193115.202500", "193115.662500", "193116.122500", "193116.582500", "193117.042500", "193117.502500", "193117.962500", "193118.422500", "193118.882500", "193119.342500", "193119.802500", "193120.262500", "193120.722500", "193121.182500", "193121.642500", "193122.102500", "193122.562500", "193123.022500", "193123.482500", "193123.942500", "193124.402500", "193124.862500", "193125.322500", "193125.782500", "193126.242500", "193126.702500", "193127.162500", "193127.622500", "193128.082500", "193128.542500", "193129.002500", "193129.462500", "193129.922500", "193130.382500", "193130.842500", "193131.302500", "193131.762500", "193132.222500", "193132.682500", "193133.142500", "193133.602500", "193134.062500", "193134.522500", "193134.982500", "193135.442500", "193135.902500", "193136.362500", "193136.822500", "193137.282500", "193137.742500", "193138.202500", "193138.662500", "193139.122500", "193139.582500", "193140.042500", "193140.502500", "193140.962500", "193141.422500", "193141.882500", "193142.342500", "193142.802500", "193143.262500", "193143.722500", "193144.182500", "193144.642500", "193145.102500", "193145.562500", "193146.022500", "193146.482500", "193146.942500", "193147.402500", "193147.862500", "193148.322500", "193148.782500", "193149.242500", "193149.702500", "193150.162500", "193150.622500", "193151.082500", "193151.542500", "193152.002500", "193152.462500", "193152.922500", "193153.382500", "193153.842500", "193154.302500", "193154.762500", "193155.222500", "193155.682500", "193156.142500", "193156.602500", "193157.062500", "193157.522500", "193157.982500", "193158.442500", "193158.902500", "193159.362500", "193159.822500", "193200.282500", "193200.742500", "193201.202500", "193201.662500", "193202.122500", "193202.582500", "193203.042500", "193203.502500", "193203.962500", "193204.422500", "193204.882500", "193205.342500", "193205.802500", "193206.262500", "193206.722500", "193207.182500", "193207.642500", "193208.102500", "193208.562500", "193209.022500", "193209.482500", "193209.942500", "193210.402500", "193210.862500", "193211.322500", "193211.782500", "193212.242500", "193212.702500", "193213.162500", "193213.622500", "193214.082500", "193214.542500", "193215.002500", "193215.462500", "193215.922500", "193216.382500", "193216.842500", "193217.302500", "193217.762500", "193218.222500", "193218.682500", "193219.142500", "193219.602500", "193220.062500", "193220.522500", "193220.982500", "193221.442500", "193221.902500", "193222.362500", "193222.822500", "193223.282500", "193223.742500", "193224.202500", "193224.662500", "193225.122500", "193225.582500", "193226.042500", "193226.502500", "193226.962500", "193227.422500", "193227.882500", "193228.342500", "193228.802500", "193229.262500", "193229.722500", "193230.182500", "193230.642500", "193231.102500", "193231.562500", "193232.022500", "193232.482500", "193232.942500", "193233.402500", "193233.862500", "193234.322500", "193234.782500", "193235.242500", "193235.702500", "193236.162500", "193236.622500", "193237.082500", "193237.542500", "193238.002500", "193238.462500", "193238.922500", "193239.382500", "193239.842500", "193240.302500", "193240.762500", "193241.222500", "193241.682500", "193242.142500", "193242.602500", "193243.062500", "193243.522500", "193243.982500", "193244.442500", "193244.902500", "193245.362500", "193245.822500", "193246.282500", "193246.742500", "193247.202500", "193247.662500", "193248.122500", "193248.582500", "193249.042500", "193249.502500", "193249.962500", "193250.422500", "193250.882500", "193251.342500", "193251.802500", "193252.262500", "193252.722500", "193253.182500", "193253.642500", "193254.102500", "193254.562500", "193255.022500", "193255.482500", "193255.942500", "193256.402500", "193256.862500", "193257.322500", "193257.782500", "193258.242500", "193258.702500", "193259.162500", "193259.622500", "193300.082500", "193300.542500", "193301.002500", "193301.462500", "193301.922500", "193302.382500", "193302.842500", "193303.302500", "193303.762500", "193304.222500", "193304.682500", "193305.142500", "193305.602500", "193306.062500", "193306.522500", "193306.982500", "193307.442500", "193307.902500", "193308.362500", "193308.822500", "193309.282500", "193309.742500", "193310.202500", "193310.662500", "193311.122500", "193311.582500", "193312.042500", "193312.502500", "193312.962500", "193313.422500", "193313.882500", "193314.342500", "193314.802500", "193315.262500", "193315.722500", "193316.182500", "193316.642500", "193317.102500", "193317.562500", "193318.022500", "193318.482500", "193318.942500", "193319.402500", "193319.862500", "193320.322500", "193320.782500", "193321.242500", "193321.702500", "193322.162500", "193322.622500", "193323.082500", "193323.542500", "193324.002500", "193324.462500", "193324.922500", "193325.382500", "193325.842500", "193326.302500", "193326.762500", "193327.222500", "193327.682500", "193328.142500", "193328.602500", "193329.062500", "193329.522500", "193329.982500", "193330.442500", "193330.902500", "193331.362500", "193331.822500", "193332.282500", "193332.742500", "193333.202500", "193333.662500", "193334.122500", "193334.582500", "193335.042500", "193335.502500", "193335.962500", "193336.422500", "193336.882500", "193337.342500", "193337.802500", "193338.262500", "193338.722500", "193339.182500", "193339.642500", "193340.102500", "193340.562500", "193341.022500", "193341.482500", "193341.942500", "193342.402500", "193342.862500", "193343.322500", "193343.782500", "193344.242500", "193344.702500", "193345.162500", "193345.622500", "193346.082500", "193346.542500", "193347.002500", "193347.462500", "193347.922500", "193348.382500", "193348.842500", "193349.302500", "193349.762500", "193350.222500", "193350.682500", "193351.142500", "193351.602500", "193352.062500", "193352.522500", "193352.982500", "193353.442500", "193353.902500", "193354.362500", "193354.822500", "193355.282500", "193355.742500", "193356.202500", "193356.662500", "193357.122500", "193357.582500", "193358.042500", "193358.502500", "193358.962500", "193359.422500", "193359.882500", "193400.342500", "193400.802500", "193401.262500", "193401.722500", "193402.182500", "193402.642500", "193403.102500", "193403.562500", "193404.022500", "193404.482500", "193404.942500", "193405.402500", "193405.862500", "193406.322500", "193406.782500", "193407.242500", "193407.702500", "193408.162500", "193408.622500", "193409.082500", "193409.542500", "193410.002500", "193410.462500", "193410.922500", "193411.382500", "193411.842500", "193412.302500", "193412.762500", "193413.222500", "193413.682500", "193414.142500", "193414.602500", "193415.062500", "193415.522500", "193415.982500", "193416.442500", "193416.902500", "193417.362500", "193417.822500", "193418.282500", "193418.742500", "193419.202500", "193419.662500", "193420.122500", "193420.582500", "193421.042500", "193421.502500", "193421.962500", "193422.422500", "193422.882500", "193423.342500", "193423.802500", "193424.262500", "193424.722500", "193425.182500", "193425.642500", "193426.102500", "193426.562500", "193427.022500", "193427.482500", "193427.942500", "193428.402500", "193428.862500", "193429.322500", "193429.782500", "193430.242500", "193430.702500", "193431.162500", "193431.622500", "193432.082500", "193432.542500", "193433.002500", "193433.462500", "193433.922500", "193434.382500", "193434.842500", "193435.302500", "193435.762500", "193436.222500", "193436.682500", "193437.142500", "193437.602500", "193438.062500", "193438.522500", "193438.982500", "193439.442500", "193439.902500", "193440.362500", "193440.822500", "193441.282500", "193441.742500", "193442.202500", "193442.662500", "193443.122500", "193443.582500", "193444.042500", "193444.502500", "193444.962500", "193445.422500", "193445.882500", "193446.342500", "193446.802500", "193447.262500", "193447.722500", "193448.182500", "193448.642500", "193449.102500", "193449.562500", "193450.022500", "193450.482500", "193450.942500", "193451.402500", "193451.862500", "193452.322500", "193452.782500", "193453.242500", "193453.702500", "193454.162500", "193454.622500", "193455.082500", "193455.542500", "193456.002500", "193456.462500", "193456.922500", "193457.382500", "193457.842500", "193458.302500", "193458.762500", "193459.222500", "193459.682500", "193500.142500", "193500.602500", "193501.062500", "193501.522500", "193501.982500", "193502.442500", "193502.902500", "193503.362500", "193503.822500", "193504.282500", "193504.742500", "193505.202500", "193505.662500", "193506.122500", "193506.582500", "193507.042500", "193507.502500", "193507.962500", "193508.422500", "193508.882500", "193509.342500", "193509.802500", "193510.262500", "193510.722500", "193511.182500", "193511.642500", "193512.102500", "193512.562500", "193513.022500", "193513.482500", "193513.942500", "193514.402500", "193514.862500", "193515.322500", "193515.782500", "193516.242500", "193516.702500", "193517.162500", "193517.622500", "193518.082500", "193518.542500", "193519.002500"],
