{
  "AcquisitionMatrixPE": 82,
  "AcquisitionNumber": 1,
  "AcquisitionTime": "19:35:54.015000",
  "BandwidthPerPixelPhaseEncode": 24.888,
  "BaseResolution": 82,
  "BodyPartExamined": "BRAIN",
  "ConsistencyInfo": "N4_VE11E_LATEST_20181129",
  "ConversionSoftware": "dcm2niix",
  "ConversionSoftwareVersion": "v1.0.20201102",
  "DerivedVendorReportedEchoSpacing": 0.00049,
  "DeviceSerialNumber": "66112",
  "DwellTime": 2e-06,
  "EchoTime": 0.0272,
  "EchoTrainLength": 82,
  "EffectiveEchoSpacing": 0.00049,
  "FlipAngle": 44,
  "ImageComments": "Unaliased MB8/PE3",
  "ImageOrientationPatientDICOM": [0.998632, -0.0240558, -0.0464212, 0.0285921, 0.994609, 0.0996717],
  "ImageType": [
    "ORIGINAL",
    "PRIMARY",
    "M",
    "MB",
    "ND",
    "NORM",
    "MOSAIC"
],
  "ImagingFrequency": 123.252,
  "InPlanePhaseEncodingDirectionDICOM": "COL",
  "InstitutionAddress": "Maynard 3,Hanover,NH,US,03755",
  "InstitutionName": "Dartmouth College - PBS",
  "InstitutionalDepartmentName": "Department",
  "MRAcquisitionType": "2D",
  "MagneticFieldStrength": 3,
  "Manufacturer": "Siemens",
  "ManufacturersModelName": "Prisma",
  "Modality": "MR",
  "MultibandAccelerationFactor": 8,
  "PartialFourier": 1,
  "PatientPosition": "HFS",
  "PercentPhaseFOV": 100,
  "PercentSampling": 100,
  "PhaseEncodingDirection": "j-",
  "PhaseEncodingSteps": 82,
  "PhaseResolution": 1,
  "PixelBandwidth": 3050,
  "ProcedureStepDescription": "Wager_Wager^1076_spacetop",
  "ProtocolName": "func_run-03_task-social_acq-ap-mb8",
  "PulseSequenceDetails": "%CustomerSeq%\\cmrr_mbep2d_bold",
  "ReceiveCoilActiveElements": "HEA;HEP",
  "ReceiveCoilName": "Head_32",
  "ReconMatrixPE": 82,
  "RepetitionTime": 0.46,
  "SAR": 0.0845122,
  "ScanOptions": "FS",
  "ScanningSequence": "EP",
  "SequenceName": "epfid2d1_82",
  "SequenceVariant": "SK\\SS",
  "SeriesDescription": "func_run-03_task-social_acq-ap-mb8",
  "SeriesNumber": 12,
  "ShimSetting": [4122, -7715, -7269, 598, -89, 13, 76, 97],
  "SliceThickness": 2.7,
  "SliceTiming": [0, 0.2525, 0.0625, 0.315, 0.125, 0.3775, 0.19, 0, 0.2525, 0.0625, 0.315, 0.125, 0.3775, 0.19, 0, 0.2525, 0.0625, 0.315, 0.125, 0.3775, 0.19, 0, 0.2525, 0.0625, 0.315, 0.125, 0.3775, 0.19, 0, 0.2525, 0.0625, 0.315, 0.125, 0.3775, 0.19, 0, 0.2525, 0.0625, 0.315, 0.125, 0.3775, 0.19, 0, 0.2525, 0.0625, 0.315, 0.125, 0.3775, 0.19, 0, 0.2525, 0.0625, 0.315, 0.125, 0.3775, 0.19],
  "SoftwareVersions": "syngo MR E11",
  "SpacingBetweenSlices": 2.7,
  "StationName": "AWP66112",
  "TaskName": "social",
  "TotalReadoutTime": 0.03969,
  "TxRefAmp": 243.174,
  "WipMemBlock": "b888decc-d5d3-4e98-854b-48aa5803beab||Sequence: R016 ve11e/master r/434b28f1; Aug  7 2019 18:53:46 by eja",
  "dcmmeta_affine": [
    [-2.679257392883301, 0.07671049237251282, -0.11818777769804001, 108.94178771972656],
    [0.06453989446163177, 2.6684646606445312, 0.27232927083969116, -101.42657470703125],
    [-0.12454459816217422, -0.267412006855011, 2.6836297512054443, -56.01923370361328],
    [0.0, 0.0, 0.0, 1.0]
],
  "dcmmeta_reorient_transform": [
    [0.0, -1.0, 0.0, 81.0],
    [1.0, 0.0, 0.0, 0.0],
    [0.0, 0.0, 1.0, 0.0],
    [0.0, 0.0, 0.0, 1.0]
],
  "dcmmeta_shape": [82, 82, 56, 872],
  "dcmmeta_slice_dim": 2,
  "dcmmeta_version": 0.6,
  "global": {
    "const": {
      "AccessionNumber": "A004116",
      "AcquisitionMatrix": [82, 0, 0, 82],
      "AngioFlag": "N",
      "BitsAllocated": 16,
      "BitsStored": 16,
      "BodyPartExamined": "BRAIN",
      "Columns": 656,
      "EchoNumbers": 1,
      "EchoTime": 27.2,
      "EchoTrainLength": 82,
      "FlipAngle": 44.0,
      "HighBit": 15,
      "ImageOrientationPatient": [0.99863226196745, -0.0240557793213, -0.0464211680057, 0.02859209170191, 0.99460948893573, 0.09967174529979],
      "ImagePositionPatient": [-906.11810947166, -862.04542567382, -118.6825535086],
      "ImageType": [
        "ORIGINAL",
        "PRIMARY",
        "M",
        "MB",
        "ND",
        "NORM",
        "MOSAIC"
],
      "ImagedNucleus": "1H",
      "ImagingFrequency": 123.252216,
      "InPlanePhaseEncodingDirection": "COL",
      "MRAcquisitionType": "2D",
      "MagneticFieldStrength": 3.0,
      "Manufacturer": "SIEMENS",
      "ManufacturerModelName": "Prisma",
      "Modality": "MR",
      "NumberOfAverages": 1.0,
      "NumberOfPhaseEncodingSteps": 82,
      "PercentPhaseFieldOfView": 100.0,
      "PercentSampling": 100.0,
      "PerformedProcedureStepStartTime": "191441.129000",
      "PhotometricInterpretation": "MONOCHROME2",
      "PixelBandwidth": 3050.0,
      "PixelRepresentation": 0,
      "PixelSpacing": [2.6829268932343, 2.6829268932343],
      "ProtocolName": "func_run-03_task-social_acq-ap-mb8",
      "RepetitionTime": 460.0,
      "Rows": 656,
      "SAR": 0.08451221116684,
      "SamplesPerPixel": 1,
      "ScanOptions": "FS",
      "ScanningSequence": "EP",
      "SequenceName": "epfid2d1_82",
      "SequenceVariant": [
        "SK",
        "SS"
],
      "SeriesDescription": "func_run-03_task-social_acq-ap-mb8",
      "SeriesNumber": 12,
      "SeriesTime": "193607.468000",
      "SliceLocation": -70.678481608868,
      "SliceThickness": 2.7000000476837,
      "SmallestImagePixelValue": 0,
      "SoftwareVersions": "syngo MR E11",
      "SpacingBetweenSlices": 2.699999968567,
      "SpecificCharacterSet": "ISO_IR 100",
      "StudyID": "2",
      "StudyTime": "191441.065000",
      "TransmitCoilName": "Body",
      "VariableFlipAngleFlag": "N",
      "WindowCenterWidthExplanation": "Algo1"
    },
    "slices": {}
  },
  "time": {
    "samples": {
      "AcquisitionNumber": [1, 2, 3, 4, 5, 6, 7, 8, 9, 10, 11, 12, 13, 14, 15, 16, 17, 18, 19, 20, 21, 22, 23, 24, 25, 26, 27, 28, 29, 30, 31, 32, 33, 34, 35, 36, 37, 38, 39, 40, 41, 42, 43, 44, 45, 46, 47, 48, 49, 50, 51, 52, 53, 54, 55, 56, 57, 58, 59, 60, 61, 62, 63, 64, 65, 66, 67, 68, 69, 70, 71, 72, 73, 74, 75, 76, 77, 78, 79, 80, 81, 82, 83, 84, 85, 86, 87, 88, 89, 90, 91, 92, 93, 94, 95, 96, 97, 98, 99, 100, 101, 102, 103, 104, 105, 106, 107, 108, 109, 110, 111, 112, 113, 114, 115, 116, 117, 118, 119, 120, 121, 122, 123, 124, 125, 126, 127, 128, 129, 130, 131, 132, 133, 134, 135, 136, 137, 138, 139, 140, 141, 142, 143, 144, 145, 146, 147, 148, 149, 150, 151, 152, 153, 154, 155, 156, 157, 158, 159, 160, 161, 162, 163, 164, 165, 166, 167, 168, 169, 170, 171, 172, 173, 174, 175, 176, 177, 178, 179, 180, 181, 182, 183, 184, 185, 186, 187, 188, 189, 190, 191, 192, 193, 194, 195, 196, 197, 198, 199, 200, 201, 202, 203, 204, 205, 206, 207, 208, 209, 210, 211, 212, 213, 214, 215, 216, 217, 218, 219, 220, 221, 222, 223, 224, 225, 226, 227, 228, 229, 230, 231, 232, 233, 234, 235, 236, 237, 238, 239, 240, 241, 242, 243, 244, 245, 246, 247, 248, 249, 250, 251, 252, 253, 254, 255, 256, 257, 258, 259, 260, 261, 262, 263, 264, 265, 266, 267, 268, 269, 270, 271, 272, 273, 274, 275, 276, 277, 278, 279, 280, 281, 282, 283, 284, 285, 286, 287, 288, 289, 290, 291, 292, 293, 294, 295, 296, 297, 298, 299, 300, 301, 302, 303, 304, 305, 306, 307, 308, 309, 310, 311, 312, 313, 314, 315, 316, 317, 318, 319, 320, 321, 322, 323, 324, 325, 326, 327, 328, 329, 330, 331, 332, 333, 334, 335, 336, 337, 338, 339, 340, 341, 342, 343, 344, 345, 346, 347, 348, 349, 350, 351, 352, 353, 354, 355, 356, 357, 358, 359, 360, 361, 362, 363, 364, 365, 366, 367, 368, 369, 370, 371, 372, 373, 374, 375, 376, 377, 378, 379, 380, 381, 382, 383, 384, 385, 386, 387, 388, 389, 390, 391, 392, 393, 394, 395, 396, 397, 398, 399, 400, 401, 402, 403, 404, 405, 406, 407, 408, 409, 410, 411, 412, 413, 414, 415, 416, 417, 418, 419, 420, 421, 422, 423, 424, 425, 426, 427, 428, 429, 430, 431, 432, 433, 434, 435, 436, 437, 438, 439, 440, 441, 442, 443, 444, 445, 446, 447, 448, 449, 450, 451, 452, 453, 454, 455, 456, 457, 458, 459, 460, 461, 462, 463, 464, 465, 466, 467, 468, 469, 470, 471, 472, 473, 474, 475, 476, 477, 478, 479, 480, 481, 482, 483, 484, 485, 486, 487, 488, 489, 490, 491, 492, 493, 494, 495, 496, 497, 498, 499, 500, 501, 502, 503, 504, 505, 506, 507, 508, 509, 510, 511, 512, 513, 514, 515, 516, 517, 518, 519, 520, 521, 522, 523, 524, 525, 526, 527, 528, 529, 530, 531, 532, 533, 534, 535, 536, 537, 538, 539, 540, 541, 542, 543, 544, 545, 546, 547, 548, 549, 550, 551, 552, 553, 554, 555, 556, 557, 558, 559, 560, 561, 562, 563, 564, 565, 566, 567, 568, 569, 570, 571, 572, 573, 574, 575, 576, 577, 578, 579, 580, 581, 582, 583, 584, 585, 586, 587, 588, 589, 590, 591, 592, 593, 594, 595, 596, 597, 598, 599, 600, 601, 602, 603, 604, 605, 606, 607, 608, 609, 610, 611, 612, 613, 614, 615, 616, 617, 618, 619, 620, 621, 622, 623, 624, 625, 626, 627, 628, 629, 630, 631, 632, 633, 634, 635, 636, 637, 638, 639, 640, 641, 642, 643, 644, 645, 646, 647, 648, 649, 650, 651, 652, 653, 654, 655, 656, 657, 658, 659, 660, 661, 662, 663, 664, 665, 666, 667, 668, 669, 670, 671, 672, 673, 674, 675, 676, 677, 678, 679, 680, 681, 682, 683, 684, 685, 686, 687, 688, 689, 690, 691, 692, 693, 694, 695, 696, 697, 698, 699, 700, 701, 702, 703, 704, 705, 706, 707, 708, 709, 710, 711, 712, 713, 714, 715, 716, 717, 718, 719, 720, 721, 722, 723, 724, 725, 726, 727, 728, 729, 730, 731, 732, 733, 734, 735, 736, 737, 738, 739, 740, 741, 742, 743, 744, 745, 746, 747, 748, 749, 750, 751, 752, 753, 754, 755, 756, 757, 758, 759, 760, 761, 762, 763, 764, 765, 766, 767, 768, 769, 770, 771, 772, 773, 774, 775, 776, 777, 778, 779, 780, 781, 782, 783, 784, 785, 786, 787, 788, 789, 790, 791, 792, 793, 794, 795, 796, 797, 798, 799, 800, 801, 802, 803, 804, 805, 806, 807, 808, 809, 810, 811, 812, 813, 814, 815, 816, 817, 818, 819, 820, 821, 822, 823, 824, 825, 826, 827, 828, 829, 830, 831, 832, 833, 834, 835, 836, 837, 838, 839, 840, 841, 842, 843, 844, 845, 846, 847, 848, 849, 850, 851, 852, 853, 854, 855, 856, 857, 858, 859, 860, 861, 862, 863, 864, 865, 866, 867, 868, 869, 870, 871, 872],
      "AcquisitionTime": ["193554.015000", "193554.475000", "193554.935000", "193555.395000", "193555.855000", "193556.315000", "193556.775000", "193557.235000", "193557.695000", "193558.155000", "193558.615000", "193559.075000", "193559.535000", "193559.995000", "193600.455000", "193600.915000", "193601.375000", "193601.835000", "193602.295000", "193602.755000", "193603.215000", "193603.675000", "193604.135000", "193604.595000", "193605.055000", "193605.515000", "193605.975000", "193606.435000", "193606.895000", "193607.355000", "193607.815000", "193608.275000", "193608.735000", "193609.195000", "193609.655000", "193610.115000", "193610.575000", "193611.035000", "193611.495000", "193611.955000", "193612.415000", "193612.875000", "193613.335000", "193613.795000", "193614.255000", "193614.715000", "193615.175000", "193615.635000", "193616.095000", "193616.555000", "193617.015000", "193617.475000", "193617.935000", "193618.395000", "193618.855000", "193619.315000", "193619.775000", "193620.235000", "193620.695000", "193621.155000", "193621.615000", "193622.075000", "193622.535000", "193622.995000", "193623.455000", "193623.915000", "193624.375000", "193624.835000", "193625.295000", "193625.755000", "193626.215000", "193626.675000", "193627.135000", "193627.595000", "193628.055000", "193628.515000", "193628.975000", "193629.435000", "193629.895000", "193630.355000", "193630.815000", "193631.275000", "193631.735000", "193632.195000", "193632.655000", "193633.115000", "193633.575000", "193634.035000", "193634.495000", "193634.955000", "193635.415000", "193635.875000", "193636.335000", "193636.795000", "193637.255000", "193637.715000", "193638.175000", "193638.635000", "193639.095000", "193639.555000", "193640.015000", "193640.475000", "193640.935000", "193641.395000", "193641.855000", "193642.315000", "193642.775000", "193643.235000", "193643.695000", "193644.155000", "193644.615000", "193645.075000", "193645.535000", "193645.995000", "193646.455000", "193646.915000", "193647.375000", "193647.835000", "193648.295000", "193648.755000", "193649.215000", "193649.675000", "193650.135000", "193650.595000", "193651.055000", "193651.515000", "193651.975000", "193652.435000", "193652.895000", "193653.355000", "193653.815000", "193654.275000", "193654.735000", "193655.195000", "193655.655000", "193656.115000", "193656.575000", "193657.035000", "193657.495000", "193657.955000", "193658.415000", "193658.875000", "193659.335000", "193659.795000", "193700.255000", "193700.715000", "193701.175000", "193701.635000", "193702.095000", "193702.555000", "193703.015000", "193703.475000", "193703.935000", "193704.395000", "193704.855000", "193705.315000", "193705.775000", "193706.235000", "193706.695000", "193707.155000", "193707.615000", "193708.075000", "193708.535000", "193708.995000", "193709.455000", "193709.915000", "193710.375000", "193710.835000", "193711.295000", "193711.755000", "193712.215000", "193712.675000", "193713.135000", "193713.595000", "193714.055000", "193714.515000", "193714.975000", "193715.435000", "193715.895000", "193716.355000", "193716.815000", "193717.275000", "193717.735000", "193718.195000", "193718.655000", "193719.115000", "193719.575000", "193720.035000", "193720.495000", "193720.955000", "193721.415000", "193721.875000", "193722.335000", "193722.795000", "193723.255000", "193723.715000", "193724.175000", "193724.635000", "193725.095000", "193725.555000", "193726.015000", "193726.475000", "193726.935000", "193727.395000", "193727.855000", "193728.315000", "193728.775000", "193729.235000", "193729.695000", "193730.155000", "193730.615000", "193731.075000", "193731.535000", "193731.995000", "193732.455000", "193732.915000", "193733.375000", "193733.835000", "193734.295000", "193734.755000", "193735.215000", "193735.675000", "193736.135000", "193736.595000", "193737.055000", "193737.515000", "193737.975000", "193738.435000", "193738.895000", "193739.355000", "193739.815000", "193740.275000", "193740.735000", "193741.195000", "193741.655000", "193742.115000", "193742.575000", "193743.035000", "193743.495000", "193743.955000", "193744.415000", "193744.875000", "193745.335000", "193745.795000", "193746.255000", "193746.715000", "193747.175000", "193747.635000", "193748.095000", "193748.555000", "193749.015000", "193749.475000", "193749.935000", "193750.395000", "193750.855000", "193751.315000", "193751.775000", "193752.235000", "193752.695000", "193753.155000", "193753.615000", "193754.075000", "193754.535000", "193754.995000", "193755.455000", "193755.915000", "193756.375000", "193756.835000", "193757.295000", "193757.755000", "193758.215000", "193758.675000", "193759.135000", "193759.595000", "193800.055000", "193800.515000", "193800.975000", "193801.435000", "193801.895000", "193802.355000", "193802.815000", "193803.275000", "193803.735000", "193804.195000", "193804.655000", "193805.115000", "193805.575000", "193806.035000", "193806.495000", "193806.955000", "193807.415000", "193807.875000", "193808.335000", "193808.795000", "193809.255000", "193809.715000", "193810.175000", "193810.635000", "193811.095000", "193811.555000", "193812.015000", "193812.475000", "193812.935000", "193813.395000", "193813.855000", "193814.315000", "193814.775000", "193815.235000", "193815.695000", "193816.155000", "193816.615000", "193817.075000", "193817.535000", "193817.995000", "193818.455000", "193818.915000", "193819.375000", "193819.835000", "193820.295000", "193820.755000", "193821.215000", "193821.675000", "193822.135000", "193822.595000", "193823.055000", "193823.515000", "193823.975000", "193824.435000", "193824.895000", "193825.355000", "193825.815000", "193826.275000", "193826.735000", "193827.195000", "193827.655000", "193828.115000", "193828.575000", "193829.035000", "193829.495000", "193829.955000", "193830.415000", "193830.875000", "193831.335000", "193831.795000", "193832.255000", "193832.715000", "193833.175000", "193833.635000", "193834.095000", "193834.555000", "193835.015000", "193835.475000", "193835.935000", "193836.395000", "193836.855000", "193837.315000", "193837.775000", "193838.235000", "193838.695000", "193839.155000", "193839.615000", "193840.075000", "193840.535000", "193840.995000", "193841.455000", "193841.915000", "193842.375000", "193842.835000", "193843.295000", "193843.755000", "193844.215000", "193844.675000", "193845.135000", "193845.595000", "193846.055000", "193846.515000", "193846.975000", "193847.435000", "193847.895000", "193848.355000", "193848.815000", "193849.275000", "193849.735000", "193850.195000", "193850.655000", "193851.115000", "193851.575000", "193852.035000", "193852.495000", "193852.955000", "193853.415000", "193853.875000", "193854.335000", "193854.795000", "193855.255000", "193855.715000", "193856.175000", "193856.635000", "193857.095000", "193857.555000", "193858.015000", "193858.475000", "193858.935000", "193859.395000", "193859.855000", "193900.315000", "193900.775000", "193901.235000", "193901.695000", "193902.155000", "193902.615000", "193903.075000", "193903.535000", "193903.995000", "193904.455000", "193904.915000", "193905.375000", "193905.835000", "193906.295000", "193906.755000", "193907.215000", "193907.675000", "193908.135000", "193908.595000", "193909.055000", "193909.515000", "193909.975000", "193910.435000", "193910.895000", "193911.355000", "193911.815000", "193912.275000", "193912.735000", "193913.195000", "193913.655000", "193914.115000", "193914.575000", "193915.035000", "193915.495000", "193915.955000", "193916.415000", "193916.875000", "193917.335000", "193917.795000", "193918.255000", "193918.715000", "193919.175000", "193919.635000", "193920.095000", "193920.555000", "193921.015000", "193921.475000", "193921.935000", "193922.395000", "193922.855000", "193923.315000", "193923.775000", "193924.235000", "193924.695000", "193925.155000", "193925.615000", "193926.075000", "193926.535000", "193926.995000", "193927.455000", "193927.915000", "193928.375000", "193928.835000", "193929.295000", "193929.755000", "193930.215000", "193930.675000", "193931.135000", "193931.595000", "193932.055000", "193932.515000", "193932.975000", "193933.435000", "193933.895000", "193934.355000", "193934.815000", "193935.275000", "193935.735000", "193936.195000", "193936.655000", "193937.115000", "193937.575000", "193938.035000", "193938.495000", "193938.955000", "193939.415000", "193939.875000", "193940.335000", "193940.795000", "193941.255000", "193941.715000", "193942.175000", "193942.635000", "193943.095000", "193943.555000", "193944.015000", "193944.475000", "193944.935000", "193945.395000", "193945.855000", "193946.315000", "193946.775000", "193947.235000", "193947.695000", "193948.155000", "193948.615000", "193949.075000", "193949.535000", "193949.995000", "193950.455000", "193950.915000", "193951.375000", "193951.835000", "193952.295000", "193952.755000", "193953.215000", "193953.675000", "193954.135000", "193954.595000", "193955.055000", "193955.515000", "193955.975000", "193956.435000", "193956.895000", "193957.355000", "193957.815000", "193958.275000", "193958.735000", "193959.195000", "193959.655000", "194000.115000", "194000.575000", "194001.035000", "194001.495000", "194001.955000", "194002.415000", "194002.875000", "194003.335000", "194003.795000", "194004.255000", "194004.715000", "194005.175000", "194005.635000", "194006.095000", "194006.555000", "194007.015000", "194007.475000", "194007.935000", "194008.395000", "194008.855000", "194009.315000", "194009.775000", "194010.235000", "194010.695000", "194011.155000", "194011.615000", "194012.075000", "194012.535000", "194012.995000", "194013.455000", "194013.915000", "194014.375000", "194014.835000", "194015.295000", "194015.755000", "194016.215000", "194016.675000", "194017.135000", "194017.595000", "194018.055000", "194018.515000", "194018.975000", "194019.435000", "194019.895000", "194020.355000", "194020.815000", "194021.275000", "194021.735000", "194022.195000", "194022.655000", "194023.115000", "194023.575000", "194024.035000", "194024.495000", "194024.955000", "194025.415000", "194025.875000", "194026.335000", "194026.795000", "194027.255000", "194027.715000", "194028.175000", "194028.635000", "194029.095000", "194029.555000", "194030.015000", "194030.475000", "194030.935000", "194031.395000", "194031.855000", "194032.315000", "194032.775000", "194033.235000", "194033.695000", "194034.155000", "194034.615000", "194035.075000", "194035.535000", "194035.995000", "194036.455000", "194036.915000", "194037.375000", "194037.835000", "194038.295000", "194038.755000", "194039.215000", "194039.675000", "194040.135000", "194040.595000", "194041.055000", "194041.515000", "194041.975000", "194042.435000", "194042.895000", "194043.355000", "194043.815000", "194044.275000", "194044.735000", "194045.195000", "194045.655000", "194046.115000", "194046.575000", "194047.035000", "194047.495000", "194047.955000", "194048.415000", "194048.875000", "194049.335000", "194049.795000", "194050.255000", "194050.715000", "194051.175000", "194051.635000", "194052.095000", "194052.555000", "194053.015000", "194053.475000", "194053.935000", "194054.395000", "194054.855000", "194055.315000", "194055.775000", "194056.235000", "194056.695000", "194057.155000", "194057.615000", "194058.075000", "194058.535000", "194058.995000", "194059.455000", "194059.915000", "194100.375000", "194100.835000", "194101.295000", "194101.755000", "194102.215000", "194102.675000", "194103.135000", "194103.595000", "194104.055000", "194104.515000", "194104.975000", "194105.435000", "194105.895000", "194106.355000", "194106.815000", "194107.275000", "194107.735000", "194108.195000", "194108.655000", "194109.115000", "194109.575000", "194110.035000", "194110.495000", "194110.955000", "194111.415000", "194111.875000", "194112.335000", "194112.795000", "194113.255000", "194113.715000", "194114.175000", "194114.635000", "194115.095000", "194115.555000", "194116.015000", "194116.475000", "194116.935000", "194117.395000", "194117.855000", "194118.315000", "194118.775000", "194119.235000", "194119.695000", "194120.155000", "194120.615000", "194121.075000", "194121.535000", "194121.995000", "194122.455000", "194122.915000", "194123.375000", "194123.835000", "194124.295000", "194124.755000", "194125.215000", "194125.675000", "194126.135000", "194126.595000", "194127.055000", "194127.515000", "194127.975000", "194128.435000", "194128.895000", "194129.355000", "194129.815000", "194130.275000", "194130.735000", "194131.195000", "194131.655000", "194132.115000", "194132.575000", "194133.035000", "194133.495000", "194133.955000", "194134.415000", "194134.875000", "194135.335000", "194135.795000", "194136.255000", "194136.715000", "194137.175000", "194137.635000", "194138.095000", "194138.555000", "194139.015000", "194139.475000", "194139.935000", "194140.395000", "194140.855000", "194141.315000", "194141.775000", "194142.235000", "194142.695000", "194143.155000", "194143.615000", "194144.075000", "194144.535000", "194144.995000", "194145.455000", "194145.915000", "194146.375000", "194146.835000", "194147.295000", "194147.755000", "194148.215000", "194148.675000", "194149.135000", "194149.595000", "194150.055000", "194150.515000", "194150.975000", "194151.435000", "194151.895000", "194152.355000", "194152.815000", "194153.275000", "194153.735000", "194154.195000", "194154.655000", "194155.115000", "194155.575000", "194156.035000", "194156.495000", "194156.955000", "194157.415000", "194157.875000", "194158.335000", "194158.795000", "194159.255000", "194159.715000", "194200.175000", "194200.635000", "194201.095000", "194201.555000", "194202.015000", "194202.475000", "194202.935000", "194203.395000", "194203.855000", "194204.315000", "194204.775000", "194205.235000", "194205.695000", "194206.155000", "194206.615000", "194207.075000", "194207.535000", "194207.995000", "194208.455000", "194208.915000", "194209.375000", "194209.835000", "194210.295000", "194210.755000", "194211.215000", "194211.675000", "194212.135000", "194212.595000", "194213.055000", "194213.515000", "194213.975000", "194214.435000", "194214.895000", "194215.355000", "194215.815000", "194216.275000", "194216.735000", "194217.195000", "194217.655000", "194218.115000", "194218.575000", "194219.035000", "194219.495000", "194219.955000", "194220.415000", "194220.875000", "194221.335000", "194221.795000", "194222.255000", "194222.715000", "194223.175000", "194223.635000", "194224.095000", "194224.555000", "194225.015000", "194225.475000", "194225.935000", "194226.395000", "194226.855000", "194227.315000", "194227.775000", "194228.235000", "194228.695000", "194229.155000", "194229.615000", "194230.075000", "194230.535000", "194230.995000", "194231.455000", "194231.915000", "194232.375000", "194232.835000", "194233.295000", "194233.755000", "194234.215000", "194234.675000"],
