{
  "AcquisitionMatrixPE": 82,
  "AcquisitionNumber": 1,
  "AcquisitionTime": "16:13:7.460000",
  "BandwidthPerPixelPhaseEncode": 24.888,
  "BaseResolution": 82,
  "BodyPartExamined": "BRAIN",
  "ConsistencyInfo": "N4_VE11C_LATEST_20160120",
  "ConversionSoftware": "dcm2niix",
  "ConversionSoftwareVersion": "v1.0.20201102",
  "DerivedVendorReportedEchoSpacing": 0.00049,
  "DeviceSerialNumber": "66112",
  "DwellTime": 2e-06,
  "EchoTime": 0.0272,
  "EchoTrainLength": 82,
  "EffectiveEchoSpacing": 0.00049,
  "FlipAngle": 44,
  "ImageComments": "Unaliased MB8/PE3",
  "ImageOrientationPatientDICOM": [0.991932, -0.126743, -0.0027433, 0.126366, 0.986781, 0.101461],
  "ImageType": [
    "ORIGINAL",
    "PRIMARY",
    "M",
    "MB",
    "ND",
    "NORM",
    "MOSAIC"
],
  "ImagingFrequency": 123.252,
  "InPlanePhaseEncodingDirectionDICOM": "COL",
  "InstitutionAddress": "Maynard 3,Hanover,NH,US,03755",
  "InstitutionName": "Dartmouth College - PBS",
  "InstitutionalDepartmentName": "Department",
  "MRAcquisitionType": "2D",
  "MagneticFieldStrength": 3,
  "Manufacturer": "Siemens",
  "ManufacturersModelName": "Prisma",
  "Modality": "MR",
  "MultibandAccelerationFactor": 8,
  "PartialFourier": 1,
  "PatientPosition": "HFS",
  "PercentPhaseFOV": 100,
  "PercentSampling": 100,
  "PhaseEncodingDirection": "j-",
  "PhaseEncodingSteps": 82,
  "PhaseResolution": 1,
  "PixelBandwidth": 3050,
  "ProcedureStepDescription": "Wager_Wager^1076_spacetop",
  "ProtocolName": "func_run-06_task-social_acq-ap-mb8",
  "PulseSequenceDetails": "%CustomerSeq%\\cmrr_mbep2d_bold",
  "ReceiveCoilActiveElements": "HEA;HEP",
  "ReceiveCoilName": "Head_32",
  "ReconMatrixPE": 82,
  "RepetitionTime": 0.46,
  "SAR": 0.0869479,
  "ScanOptions": "FS",
  "ScanningSequence": "EP",
  "SequenceName": "epfid2d1_82",
  "SequenceVariant": "SK\\SS",
  "SeriesDescription": "func_run-06_task-social_acq-ap-mb8",
  "SeriesNumber": 18,
  "ShimSetting": [4137, -7777, -7358, 442, -78, -200, -59, 87],
  "SliceThickness": 2.7,
  "SliceTiming": [0, 0.2525, 0.0625, 0.315, 0.1275, 0.3775, 0.19, 0, 0.2525, 0.0625, 0.315, 0.1275, 0.3775, 0.19, 0, 0.2525, 0.0625, 0.315, 0.1275, 0.3775, 0.19, 0, 0.2525, 0.0625, 0.315, 0.1275, 0.3775, 0.19, 0, 0.2525, 0.0625, 0.315, 0.1275, 0.3775, 0.19, 0, 0.2525, 0.0625, 0.315, 0.1275, 0.3775, 0.19, 0, 0.2525, 0.0625, 0.315, 0.1275, 0.3775, 0.19, 0, 0.2525, 0.0625, 0.315, 0.1275, 0.3775, 0.19],
  "SoftwareVersions": "syngo MR E11",
  "SpacingBetweenSlices": 2.7,
  "StationName": "AWP66112",
  "TaskName": "social",
  "TotalReadoutTime": 0.03969,
  "TxRefAmp": 238.723,
  "WipMemBlock": "c51212f6-cfe5-4280-8f07-7eb8df23a105||Sequence: R016 ve11c/master r/e634e98; Dec 19 2017 11:00:25 by eja",
  "dcmmeta_affine": [
    [-2.661280393600464, 0.3390296995639801, 0.027411505579948425, 94.84638977050781],
    [0.34004247188568115, 2.6474621295928955, 0.27266979217529297, -113.75614166259766],
    [-0.007360085844993591, -0.27221179008483887, 2.686056613922119, -60.217525482177734],
    [0.0, 0.0, 0.0, 1.0]
],
  "dcmmeta_reorient_transform": [
    [0.0, -1.0, 0.0, 81.0],
    [1.0, 0.0, 0.0, 0.0],
    [0.0, 0.0, 1.0, 0.0],
    [0.0, 0.0, 0.0, 1.0]
],
  "dcmmeta_shape": [82, 82, 56, 872],
  "dcmmeta_slice_dim": 2,
  "dcmmeta_version": 0.6,
  "global": {
    "const": {
      "AccessionNumber": "A003838",
      "AcquisitionMatrix": [82, 0, 0, 82],
      "AngioFlag": "N",
      "BitsAllocated": 16,
      "BitsStored": 16,
      "BodyPartExamined": "BRAIN",
      "Columns": 656,
      "EchoNumbers": 1,
      "EchoTime": 27.2,
      "EchoTrainLength": 82,
      "FlipAngle": 44.0,
      "HighBit": 15,
      "ImageOrientationPatient": [0.99193178193726, -0.1267431034117, -0.0027433046404, 0.1263656146608, 0.98678135689714, 0.1014607565103],
      "ImagePositionPatient": [-983.39680907776, -762.91776705284, -158.27912033683],
      "ImageType": [
        "ORIGINAL",
        "PRIMARY",
        "M",
        "MB",
        "ND",
        "NORM",
        "MOSAIC"
],
      "ImagedNucleus": "1H",
      "ImagingFrequency": 123.252287,
      "InPlanePhaseEncodingDirection": "COL",
      "MRAcquisitionType": "2D",
      "MagneticFieldStrength": 3.0,
      "Manufacturer": "SIEMENS",
      "ManufacturerModelName": "Prisma",
      "Modality": "MR",
      "NumberOfAverages": 1.0,
      "NumberOfPhaseEncodingSteps": 82,
      "PercentPhaseFieldOfView": 100.0,
      "PercentSampling": 100.0,
      "PerformedProcedureStepStartTime": "151146.691000",
      "PhotometricInterpretation": "MONOCHROME2",
      "PixelBandwidth": 3050.0,
      "PixelRepresentation": 0,
      "PixelSpacing": [2.6829268932343, 2.6829268932343],
      "ProtocolName": "func_run-06_task-social_acq-ap-mb8",
      "RepetitionTime": 460.0,
      "Rows": 656,
      "SAR": 0.08694784988561,
      "SamplesPerPixel": 1,
      "ScanOptions": "FS",
      "ScanningSequence": "EP",
      "SequenceName": "epfid2d1_82",
      "SequenceVariant": [
        "SK",
        "SS"
],
      "SeriesDescription": "func_run-06_task-social_acq-ap-mb8",
      "SeriesNumber": 18,
      "SeriesTime": "161320.406000",
      "SliceLocation": -70.431725880482,
      "SliceThickness": 2.7000000476837,
      "SmallestImagePixelValue": 0,
      "SoftwareVersions": "syngo MR E11",
      "SpacingBetweenSlices": 2.6999999688273,
      "SpecificCharacterSet": "ISO_IR 100",
      "StudyID": "1",
      "StudyTime": "151146.635000",
      "TransmitCoilName": "Body",
      "VariableFlipAngleFlag": "N",
      "WindowCenterWidthExplanation": "Algo1",
      "dBdt": 0.0},
    "slices": {}
  },
  "time": {
    "samples": {
      "AcquisitionNumber": [1, 2, 3, 4, 5, 6, 7, 8, 9, 10, 11, 12, 13, 14, 15, 16, 17, 18, 19, 20, 21, 22, 23, 24, 25, 26, 27, 28, 29, 30, 31, 32, 33, 34, 35, 36, 37, 38, 39, 40, 41, 42, 43, 44, 45, 46, 47, 48, 49, 50, 51, 52, 53, 54, 55, 56, 57, 58, 59, 60, 61, 62, 63, 64, 65, 66, 67, 68, 69, 70, 71, 72, 73, 74, 75, 76, 77, 78, 79, 80, 81, 82, 83, 84, 85, 86, 87, 88, 89, 90, 91, 92, 93, 94, 95, 96, 97, 98, 99, 100, 101, 102, 103, 104, 105, 106, 107, 108, 109, 110, 111, 112, 113, 114, 115, 116, 117, 118, 119, 120, 121, 122, 123, 124, 125, 126, 127, 128, 129, 130, 131, 132, 133, 134, 135, 136, 137, 138, 139, 140, 141, 142, 143, 144, 145, 146, 147, 148, 149, 150, 151, 152, 153, 154, 155, 156, 157, 158, 159, 160, 161, 162, 163, 164, 165, 166, 167, 168, 169, 170, 171, 172, 173, 174, 175, 176, 177, 178, 179, 180, 181, 182, 183, 184, 185, 186, 187, 188, 189, 190, 191, 192, 193, 194, 195, 196, 197, 198, 199, 200, 201, 202, 203, 204, 205, 206, 207, 208, 209, 210, 211, 212, 213, 214, 215, 216, 217, 218, 219, 220, 221, 222, 223, 224, 225, 226, 227, 228, 229, 230, 231, 232, 233, 234, 235, 236, 237, 238, 239, 240, 241, 242, 243, 244, 245, 246, 247, 248, 249, 250, 251, 252, 253, 254, 255, 256, 257, 258, 259, 260, 261, 262, 263, 264, 265, 266, 267, 268, 269, 270, 271, 272, 273, 274, 275, 276, 277, 278, 279, 280, 281, 282, 283, 284, 285, 286, 287, 288, 289, 290, 291, 292, 293, 294, 295, 296, 297, 298, 299, 300, 301, 302, 303, 304, 305, 306, 307, 308, 309, 310, 311, 312, 313, 314, 315, 316, 317, 318, 319, 320, 321, 322, 323, 324, 325, 326, 327, 328, 329, 330, 331, 332, 333, 334, 335, 336, 337, 338, 339, 340, 341, 342, 343, 344, 345, 346, 347, 348, 349, 350, 351, 352, 353, 354, 355, 356, 357, 358, 359, 360, 361, 362, 363, 364, 365, 366, 367, 368, 369, 370, 371, 372, 373, 374, 375, 376, 377, 378, 379, 380, 381, 382, 383, 384, 385, 386, 387, 388, 389, 390, 391, 392, 393, 394, 395, 396, 397, 398, 399, 400, 401, 402, 403, 404, 405, 406, 407, 408, 409, 410, 411, 412, 413, 414, 415, 416, 417, 418, 419, 420, 421, 422, 423, 424, 425, 426, 427, 428, 429, 430, 431, 432, 433, 434, 435, 436, 437, 438, 439, 440, 441, 442, 443, 444, 445, 446, 447, 448, 449, 450, 451, 452, 453, 454, 455, 456, 457, 458, 459, 460, 461, 462, 463, 464, 465, 466, 467, 468, 469, 470, 471, 472, 473, 474, 475, 476, 477, 478, 479, 480, 481, 482, 483, 484, 485, 486, 487, 488, 489, 490, 491, 492, 493, 494, 495, 496, 497, 498, 499, 500, 501, 502, 503, 504, 505, 506, 507, 508, 509, 510, 511, 512, 513, 514, 515, 516, 517, 518, 519, 520, 521, 522, 523, 524, 525, 526, 527, 528, 529, 530, 531, 532, 533, 534, 535, 536, 537, 538, 539, 540, 541, 542, 543, 544, 545, 546, 547, 548, 549, 550, 551, 552, 553, 554, 555, 556, 557, 558, 559, 560, 561, 562, 563, 564, 565, 566, 567, 568, 569, 570, 571, 572, 573, 574, 575, 576, 577, 578, 579, 580, 581, 582, 583, 584, 585, 586, 587, 588, 589, 590, 591, 592, 593, 594, 595, 596, 597, 598, 599, 600, 601, 602, 603, 604, 605, 606, 607, 608, 609, 610, 611, 612, 613, 614, 615, 616, 617, 618, 619, 620, 621, 622, 623, 624, 625, 626, 627, 628, 629, 630, 631, 632, 633, 634, 635, 636, 637, 638, 639, 640, 641, 642, 643, 644, 645, 646, 647, 648, 649, 650, 651, 652, 653, 654, 655, 656, 657, 658, 659, 660, 661, 662, 663, 664, 665, 666, 667, 668, 669, 670, 671, 672, 673, 674, 675, 676, 677, 678, 679, 680, 681, 682, 683, 684, 685, 686, 687, 688, 689, 690, 691, 692, 693, 694, 695, 696, 697, 698, 699, 700, 701, 702, 703, 704, 705, 706, 707, 708, 709, 710, 711, 712, 713, 714, 715, 716, 717, 718, 719, 720, 721, 722, 723, 724, 725, 726, 727, 728, 729, 730, 731, 732, 733, 734, 735, 736, 737, 738, 739, 740, 741, 742, 743, 744, 745, 746, 747, 748, 749, 750, 751, 752, 753, 754, 755, 756, 757, 758, 759, 760, 761, 762, 763, 764, 765, 766, 767, 768, 769, 770, 771, 772, 773, 774, 775, 776, 777, 778, 779, 780, 781, 782, 783, 784, 785, 786, 787, 788, 789, 790, 791, 792, 793, 794, 795, 796, 797, 798, 799, 800, 801, 802, 803, 804, 805, 806, 807, 808, 809, 810, 811, 812, 813, 814, 815, 816, 817, 818, 819, 820, 821, 822, 823, 824, 825, 826, 827, 828, 829, 830, 831, 832, 833, 834, 835, 836, 837, 838, 839, 840, 841, 842, 843, 844, 845, 846, 847, 848, 849, 850, 851, 852, 853, 854, 855, 856, 857, 858, 859, 860, 861, 862, 863, 864, 865, 866, 867, 868, 869, 870, 871, 872],
      "AcquisitionTime": ["161307.460000", "161307.920000", "161308.380000", "161308.840000", "161309.300000", "161309.760000", "161310.220000", "161310.680000", "161311.140000", "161311.600000", "161312.060000", "161312.520000", "161312.980000", "161313.440000", "161313.900000", "161314.360000", "161314.820000", "161315.280000", "161315.740000", "161316.200000", "161316.660000", "161317.120000", "161317.580000", "161318.040000", "161318.500000", "161318.960000", "161319.420000", "161319.880000", "161320.340000", "161320.800000", "161321.260000", "161321.720000", "161322.180000", "161322.640000", "161323.100000", "161323.560000", "161324.020000", "161324.480000", "161324.940000", "161325.400000", "161325.860000", "161326.320000", "161326.780000", "161327.240000", "161327.700000", "161328.160000", "161328.620000", "161329.080000", "161329.540000", "161330.000000", "161330.460000", "161330.920000", "161331.380000", "161331.840000", "161332.300000", "161332.760000", "161333.220000", "161333.680000", "161334.140000", "161334.600000", "161335.060000", "161335.520000", "161335.980000", "161336.440000", "161336.900000", "161337.360000", "161337.820000", "161338.280000", "161338.740000", "161339.200000", "161339.660000", "161340.120000", "161340.580000", "161341.040000", "161341.500000", "161341.960000", "161342.420000", "161342.880000", "161343.340000", "161343.800000", "161344.260000", "161344.720000", "161345.180000", "161345.640000", "161346.100000", "161346.560000", "161347.020000", "161347.480000", "161347.940000", "161348.400000", "161348.860000", "161349.320000", "161349.780000", "161350.240000", "161350.700000", "161351.160000", "161351.620000", "161352.080000", "161352.540000", "161353.000000", "161353.460000", "161353.920000", "161354.380000", "161354.840000", "161355.300000", "161355.760000", "161356.220000", "161356.680000", "161357.140000", "161357.600000", "161358.060000", "161358.520000", "161358.980000", "161359.440000", "161359.900000", "161400.360000", "161400.820000", "161401.280000", "161401.740000", "161402.200000", "161402.660000", "161403.120000", "161403.580000", "161404.040000", "161404.500000", "161404.960000", "161405.420000", "161405.880000", "161406.340000", "161406.800000", "161407.260000", "161407.720000", "161408.180000", "161408.640000", "161409.100000", "161409.560000", "161410.020000", "161410.480000", "161410.940000", "161411.400000", "161411.860000", "161412.320000", "161412.780000", "161413.240000", "161413.700000", "161414.160000", "161414.620000", "161415.080000", "161415.540000", "161416.000000", "161416.460000", "161416.920000", "161417.380000", "161417.840000", "161418.300000", "161418.760000", "161419.220000", "161419.680000", "161420.140000", "161420.600000", "161421.060000", "161421.520000", "161421.980000", "161422.440000", "161422.900000", "161423.360000", "161423.820000", "161424.280000", "161424.740000", "161425.200000", "161425.660000", "161426.120000", "161426.580000", "161427.040000", "161427.500000", "161427.960000", "161428.420000", "161428.880000", "161429.340000", "161429.800000", "161430.260000", "161430.720000", "161431.180000", "161431.640000", "161432.100000", "161432.560000", "161433.020000", "161433.480000", "161433.940000", "161434.400000", "161434.860000", "161435.320000", "161435.780000", "161436.240000", "161436.700000", "161437.160000", "161437.620000", "161438.080000", "161438.540000", "161439.000000", "161439.460000", "161439.920000", "161440.380000", "161440.840000", "161441.300000", "161441.760000", "161442.220000", "161442.680000", "161443.140000", "161443.600000", "161444.060000", "161444.520000", "161444.980000", "161445.440000", "161445.900000", "161446.360000", "161446.820000", "161447.280000", "161447.740000", "161448.200000", "161448.660000", "161449.120000", "161449.580000", "161450.040000", "161450.500000", "161450.960000", "161451.420000", "161451.880000", "161452.340000", "161452.800000", "161453.260000", "161453.720000", "161454.180000", "161454.640000", "161455.100000", "161455.560000", "161456.020000", "161456.480000", "161456.940000", "161457.400000", "161457.860000", "161458.320000", "161458.780000", "161459.240000", "161459.700000", "161500.160000", "161500.620000", "161501.080000", "161501.540000", "161502.000000", "161502.460000", "161502.920000", "161503.380000", "161503.840000", "161504.300000", "161504.760000", "161505.220000", "161505.680000", "161506.140000", "161506.600000", "161507.060000", "161507.520000", "161507.980000", "161508.440000", "161508.900000", "161509.360000", "161509.820000", "161510.280000", "161510.740000", "161511.200000", "161511.660000", "161512.120000", "161512.580000", "161513.040000", "161513.500000", "161513.960000", "161514.420000", "161514.880000", "161515.340000", "161515.800000", "161516.260000", "161516.720000", "161517.180000", "161517.640000", "161518.100000", "161518.560000", "161519.020000", "161519.480000", "161519.940000", "161520.400000", "161520.860000", "161521.320000", "161521.780000", "161522.240000", "161522.700000", "161523.160000", "161523.620000", "161524.080000", "161524.540000", "161525.000000", "161525.460000", "161525.920000", "161526.380000", "161526.840000", "161527.300000", "161527.760000", "161528.220000", "161528.680000", "161529.140000", "161529.600000", "161530.060000", "161530.520000", "161530.980000", "161531.440000", "161531.900000", "161532.360000", "161532.820000", "161533.280000", "161533.740000", "161534.200000", "161534.660000", "161535.120000", "161535.580000", "161536.040000", "161536.500000", "161536.960000", "161537.420000", "161537.880000", "161538.340000", "161538.800000", "161539.260000", "161539.720000", "161540.180000", "161540.640000", "161541.100000", "161541.560000", "161542.020000", "161542.480000", "161542.940000", "161543.400000", "161543.860000", "161544.320000", "161544.780000", "161545.240000", "161545.700000", "161546.160000", "161546.620000", "161547.080000", "161547.540000", "161548.000000", "161548.460000", "161548.920000", "161549.380000", "161549.840000", "161550.300000", "161550.760000", "161551.220000", "161551.680000", "161552.140000", "161552.600000", "161553.060000", "161553.520000", "161553.980000", "161554.440000", "161554.900000", "161555.360000", "161555.820000", "161556.280000", "161556.740000", "161557.200000", "161557.660000", "161558.120000", "161558.580000", "161559.040000", "161559.500000", "161559.960000", "161600.420000", "161600.880000", "161601.340000", "161601.800000", "161602.260000", "161602.720000", "161603.180000", "161603.640000", "161604.100000", "161604.560000", "161605.020000", "161605.480000", "161605.940000", "161606.400000", "161606.860000", "161607.320000", "161607.780000", "161608.240000", "161608.700000", "161609.160000", "161609.620000", "161610.080000", "161610.540000", "161611.000000", "161611.460000", "161611.920000", "161612.380000", "161612.840000", "161613.300000", "161613.760000", "161614.220000", "161614.680000", "161615.140000", "161615.600000", "161616.060000", "161616.520000", "161616.980000", "161617.440000", "161617.900000", "161618.360000", "161618.820000", "161619.280000", "161619.740000", "161620.200000", "161620.660000", "161621.120000", "161621.580000", "161622.040000", "161622.500000", "161622.960000", "161623.420000", "161623.880000", "161624.340000", "161624.800000", "161625.260000", "161625.720000", "161626.180000", "161626.640000", "161627.100000", "161627.560000", "161628.020000", "161628.480000", "161628.940000", "161629.400000", "161629.860000", "161630.320000", "161630.780000", "161631.240000", "161631.700000", "161632.160000", "161632.620000", "161633.080000", "161633.540000", "161634.000000", "161634.460000", "161634.920000", "161635.380000", "161635.840000", "161636.300000", "161636.760000", "161637.220000", "161637.680000", "161638.140000", "161638.600000", "161639.060000", "161639.520000", "161639.980000", "161640.440000", "161640.900000", "161641.360000", "161641.820000", "161642.280000", "161642.740000", "161643.200000", "161643.660000", "161644.120000", "161644.580000", "161645.040000", "161645.500000", "161645.960000", "161646.420000", "161646.880000", "161647.340000", "161647.800000", "161648.260000", "161648.720000", "161649.180000", "161649.640000", "161650.100000", "161650.560000", "161651.020000", "161651.480000", "161651.940000", "161652.400000", "161652.860000", "161653.320000", "161653.780000", "161654.240000", "161654.700000", "161655.160000", "161655.620000", "161656.080000", "161656.540000", "161657.000000", "161657.460000", "161657.920000", "161658.380000", "161658.840000", "161659.300000", "161659.760000", "161700.220000", "161700.680000", "161701.140000", "161701.600000", "161702.060000", "161702.520000", "161702.980000", "161703.440000", "161703.900000", "161704.360000", "161704.820000", "161705.280000", "161705.740000", "161706.200000", "161706.660000", "161707.120000", "161707.580000", "161708.040000", "161708.500000", "161708.960000", "161709.420000", "161709.880000", "161710.340000", "161710.800000", "161711.260000", "161711.720000", "161712.180000", "161712.640000", "161713.100000", "161713.560000", "161714.020000", "161714.480000", "161714.940000", "161715.400000", "161715.860000", "161716.320000", "161716.780000", "161717.240000", "161717.700000", "161718.160000", "161718.620000", "161719.080000", "161719.540000", "161720.000000", "161720.460000", "161720.920000", "161721.380000", "161721.840000", "161722.300000", "161722.760000", "161723.220000", "161723.680000", "161724.140000", "161724.600000", "161725.060000", "161725.520000", "161725.980000", "161726.440000", "161726.900000", "161727.360000", "161727.820000", "161728.280000", "161728.740000", "161729.200000", "161729.660000", "161730.120000", "161730.580000", "161731.040000", "161731.500000", "161731.960000", "161732.420000", "161732.880000", "161733.340000", "161733.800000", "161734.260000", "161734.720000", "161735.180000", "161735.640000", "161736.100000", "161736.560000", "161737.020000", "161737.480000", "161737.940000", "161738.400000", "161738.860000", "161739.320000", "161739.780000", "161740.240000", "161740.700000", "161741.160000", "161741.620000", "161742.080000", "161742.540000", "161743.000000", "161743.460000", "161743.920000", "161744.380000", "161744.840000", "161745.300000", "161745.760000", "161746.220000", "161746.680000", "161747.140000", "161747.600000", "161748.060000", "161748.520000", "161748.980000", "161749.440000", "161749.900000", "161750.360000", "161750.820000", "161751.280000", "161751.740000", "161752.200000", "161752.660000", "161753.120000", "161753.580000", "161754.040000", "161754.500000", "161754.960000", "161755.420000", "161755.880000", "161756.340000", "161756.800000", "161757.260000", "161757.720000", "161758.180000", "161758.640000", "161759.100000", "161759.560000", "161800.020000", "161800.480000", "161800.940000", "161801.400000", "161801.860000", "161802.320000", "161802.780000", "161803.240000", "161803.700000", "161804.160000", "161804.620000", "161805.080000", "161805.540000", "161806.000000", "161806.460000", "161806.920000", "161807.380000", "161807.840000", "161808.300000", "161808.760000", "161809.220000", "161809.680000", "161810.140000", "161810.600000", "161811.060000", "161811.520000", "161811.980000", "161812.440000", "161812.900000", "161813.360000", "161813.820000", "161814.280000", "161814.740000", "161815.200000", "161815.660000", "161816.120000", "161816.580000", "161817.040000", "161817.500000", "161817.960000", "161818.420000", "161818.880000", "161819.340000", "161819.800000", "161820.260000", "161820.720000", "161821.180000", "161821.640000", "161822.100000", "161822.560000", "161823.020000", "161823.480000", "161823.940000", "161824.400000", "161824.860000", "161825.320000", "161825.780000", "161826.240000", "161826.700000", "161827.160000", "161827.620000", "161828.080000", "161828.540000", "161829.000000", "161829.460000", "161829.920000", "161830.380000", "161830.840000", "161831.300000", "161831.760000", "161832.220000", "161832.680000", "161833.140000", "161833.600000", "161834.060000", "161834.520000", "161834.980000", "161835.440000", "161835.900000", "161836.360000", "161836.820000", "161837.280000", "161837.740000", "161838.200000", "161838.660000", "161839.120000", "161839.580000", "161840.040000", "161840.500000", "161840.960000", "161841.420000", "161841.880000", "161842.340000", "161842.800000", "161843.260000", "161843.720000", "161844.180000", "161844.640000", "161845.100000", "161845.560000", "161846.020000", "161846.480000", "161846.940000", "161847.400000", "161847.860000", "161848.320000", "161848.780000", "161849.240000", "161849.700000", "161850.160000", "161850.620000", "161851.080000", "161851.540000", "161852.000000", "161852.460000", "161852.920000", "161853.380000", "161853.840000", "161854.300000", "161854.760000", "161855.220000", "161855.680000", "161856.140000", "161856.600000", "161857.060000", "161857.520000", "161857.980000", "161858.440000", "161858.900000", "161859.360000", "161859.820000", "161900.280000", "161900.740000", "161901.200000", "161901.660000", "161902.120000", "161902.580000", "161903.040000", "161903.500000", "161903.960000", "161904.420000", "161904.880000", "161905.340000", "161905.800000", "161906.260000", "161906.720000", "161907.180000", "161907.640000", "161908.100000", "161908.560000", "161909.020000", "161909.480000", "161909.940000", "161910.400000", "161910.860000", "161911.320000", "161911.780000", "161912.240000", "161912.700000", "161913.160000", "161913.620000", "161914.080000", "161914.540000", "161915.000000", "161915.460000", "161915.920000", "161916.380000", "161916.840000", "161917.300000", "161917.760000", "161918.220000", "161918.680000", "161919.140000", "161919.600000", "161920.060000", "161920.520000", "161920.980000", "161921.440000", "161921.900000", "161922.360000", "161922.820000", "161923.280000", "161923.740000", "161924.200000", "161924.660000", "161925.120000", "161925.580000", "161926.040000", "161926.500000", "161926.960000", "161927.420000", "161927.880000", "161928.340000", "161928.800000", "161929.260000", "161929.720000", "161930.180000", "161930.640000", "161931.100000", "161931.560000", "161932.020000", "161932.480000", "161932.940000", "161933.400000", "161933.860000", "161934.320000", "161934.780000", "161935.240000", "161935.700000", "161936.160000", "161936.620000", "161937.080000", "161937.540000", "161938.000000", "161938.460000", "161938.920000", "161939.380000", "161939.840000", "161940.300000", "161940.760000", "161941.220000", "161941.680000", "161942.140000", "161942.600000", "161943.060000", "161943.520000", "161943.980000", "161944.440000", "161944.900000", "161945.360000", "161945.820000", "161946.280000", "161946.740000", "161947.200000", "161947.660000", "161948.120000"],
