{
  "AcquisitionMatrixPE": 82,
  "AcquisitionNumber": 1,
  "AcquisitionTime": "16:55:49.650000",
  "BandwidthPerPixelPhaseEncode": 24.888,
  "BaseResolution": 82,
  "BodyPartExamined": "BRAIN",
  "ConsistencyInfo": "N4_VE11C_LATEST_20160120",
  "ConversionSoftware": "dcm2niix",
  "ConversionSoftwareVersion": "v1.0.20201102",
  "DerivedVendorReportedEchoSpacing": 0.00049,
  "DeviceSerialNumber": "66112",
  "DwellTime": 2e-06,
  "EchoTime": 0.0272,
  "EchoTrainLength": 82,
  "EffectiveEchoSpacing": 0.00049,
  "FlipAngle": 44,
  "ImageComments": "Unaliased MB8/PE3",
  "ImageOrientationPatientDICOM": [0.990412, -0.136784, -0.0193472, 0.138136, 0.982239, 0.126987],
  "ImageType": [
    "ORIGINAL",
    "PRIMARY",
    "M",
    "MB",
    "ND",
    "NORM",
    "MOSAIC"
],
  "ImagingFrequency": 123.252,
  "InPlanePhaseEncodingDirectionDICOM": "COL",
  "InstitutionAddress": "Maynard 3,Hanover,NH,US,03755",
  "InstitutionName": "Dartmouth College - PBS",
  "InstitutionalDepartmentName": "Department",
  "MRAcquisitionType": "2D",
  "MagneticFieldStrength": 3,
  "Manufacturer": "Siemens",
  "ManufacturersModelName": "Prisma",
  "Modality": "MR",
  "MultibandAccelerationFactor": 8,
  "PartialFourier": 1,
  "PatientPosition": "HFS",
  "PercentPhaseFOV": 100,
  "PercentSampling": 100,
  "PhaseEncodingDirection": "j-",
  "PhaseEncodingSteps": 82,
  "PhaseResolution": 1,
  "PixelBandwidth": 3050,
  "ProcedureStepDescription": "Wager_Wager^1076_spacetop",
  "ProtocolName": "func_run-03_task-alignvideo_acq-ap-mb8",
  "PulseSequenceDetails": "%CustomerSeq%\\cmrr_mbep2d_bold",
  "ReceiveCoilActiveElements": "HEA;HEP",
  "ReceiveCoilName": "Head_32",
  "ReconMatrixPE": 82,
  "RepetitionTime": 0.46,
  "SAR": 0.0870459,
  "ScanOptions": "FS",
  "ScanningSequence": "EP",
  "SequenceName": "epfid2d1_82",
  "SequenceVariant": "SK\\SS",
  "SeriesDescription": "func_run-03_task-alignvideo_acq-ap-mb8",
  "SeriesNumber": 32,
  "ShimSetting": [4137, -7777, -7359, 430, -78, -199, -54, 87],
  "SliceThickness": 2.7,
  "SliceTiming": [0, 0.2525, 0.0625, 0.315, 0.1275, 0.3775, 0.19, 0, 0.2525, 0.0625, 0.315, 0.1275, 0.3775, 0.19, 0, 0.2525, 0.0625, 0.315, 0.1275, 0.3775, 0.19, 0, 0.2525, 0.0625, 0.315, 0.1275, 0.3775, 0.19, 0, 0.2525, 0.0625, 0.315, 0.1275, 0.3775, 0.19, 0, 0.2525, 0.0625, 0.315, 0.1275, 0.3775, 0.19, 0, 0.2525, 0.0625, 0.315, 0.1275, 0.3775, 0.19, 0, 0.2525, 0.0625, 0.315, 0.1275, 0.3775, 0.19],
  "SoftwareVersions": "syngo MR E11",
  "SpacingBetweenSlices": 2.7,
  "StationName": "AWP66112",
  "TaskName": "alignvideo",
  "TotalReadoutTime": 0.03969,
  "TxRefAmp": 238.723,
  "WipMemBlock": "360d67c2-db85-4b30-8249-ebc1f04dcf2d||Sequence: R016 ve11c/master r/e634e98; Dec 19 2017 11:00:25 by eja",
  "dcmmeta_affine": [
    [-2.65720272064209, 0.37060847878456116, -0.004411215428262949, 94.91455841064453],
    [0.3669815957546234, 2.6352744102478027, 0.3467937707901001, -116.66493225097656],
    [-0.05190721154212952, -0.3406972289085388, 2.6776323318481445, -55.568843841552734],
    [0.0, 0.0, 0.0, 1.0]
],
  "dcmmeta_reorient_transform": [
    [0.0, -1.0, 0.0, 81.0],
    [1.0, 0.0, 0.0, 0.0],
    [0.0, 0.0, 1.0, 0.0],
    [0.0, 0.0, 0.0, 1.0]
],
  "dcmmeta_shape": [82, 82, 56, 1065],
  "dcmmeta_slice_dim": 2,
  "dcmmeta_version": 0.6,
  "global": {
    "const": {
      "AccessionNumber": "A003838",
      "AcquisitionMatrix": [82, 0, 0, 82],
      "AngioFlag": "N",
      "BitsAllocated": 16,
      "BitsStored": 16,
      "BodyPartExamined": "BRAIN",
      "Columns": 656,
      "EchoNumbers": 1,
      "EchoTime": 27.2,
      "EchoTrainLength": 82,
      "FlipAngle": 44.0,
      "HighBit": 15,
      "ImageOrientationPatient": [0.99041193929004, -0.1367840455033, -0.0193472325541, 0.13813587970904, 0.98223863854229, 0.12698714774181],
      "ImagePositionPatient": [-993.91568677688, -747.79235316127, -166.04805590727],
      "ImageType": [
        "ORIGINAL",
        "PRIMARY",
        "M",
        "MB",
        "ND",
        "NORM",
        "MOSAIC"
],
      "ImagedNucleus": "1H",
      "ImagingFrequency": 123.252304,
      "InPlanePhaseEncodingDirection": "COL",
      "MRAcquisitionType": "2D",
      "MagneticFieldStrength": 3.0,
      "Manufacturer": "SIEMENS",
      "ManufacturerModelName": "Prisma",
      "Modality": "MR",
      "NumberOfAverages": 1.0,
      "NumberOfPhaseEncodingSteps": 82,
      "PercentPhaseFieldOfView": 100.0,
      "PercentSampling": 100.0,
      "PerformedProcedureStepStartTime": "151146.691000",
      "PhotometricInterpretation": "MONOCHROME2",
      "PixelBandwidth": 3050.0,
      "PixelRepresentation": 0,
      "PixelSpacing": [2.6829268932343, 2.6829268932343],
      "ProtocolName": "func_run-03_task-alignvideo_acq-ap-mb8",
      "RepetitionTime": 460.0,
      "Rows": 656,
      "SAR": 0.08704593042613,
      "SamplesPerPixel": 1,
      "ScanOptions": "FS",
      "ScanningSequence": "EP",
      "SequenceName": "epfid2d1_82",
      "SequenceVariant": [
        "SK",
        "SS"
],
      "SeriesDescription": "func_run-03_task-alignvideo_acq-ap-mb8",
      "SeriesNumber": 32,
      "SeriesTime": "165600.486000",
      "SliceLocation": -70.248254542163,
      "SliceThickness": 2.7000000476837,
      "SmallestImagePixelValue": 0,
      "SoftwareVersions": "syngo MR E11",
      "SpacingBetweenSlices": 2.7000000021902,
      "SpecificCharacterSet": "ISO_IR 100",
      "StudyID": "1",
      "StudyTime": "151146.635000",
      "TransmitCoilName": "Body",
      "VariableFlipAngleFlag": "N",
      "WindowCenterWidthExplanation": "Algo1",
      "dBdt": 0.0},
    "slices": {}
  },
  "time": {
    "samples": {
      "AcquisitionNumber": [1, 2, 3, 4, 5, 6, 7, 8, 9, 10, 11, 12, 13, 14, 15, 16, 17, 18, 19, 20, 21, 22, 23, 24, 25, 26, 27, 28, 29, 30, 31, 32, 33, 34, 35, 36, 37, 38, 39, 40, 41, 42, 43, 44, 45, 46, 47, 48, 49, 50, 51, 52, 53, 54, 55, 56, 57, 58, 59, 60, 61, 62, 63, 64, 65, 66, 67, 68, 69, 70, 71, 72, 73, 74, 75, 76, 77, 78, 79, 80, 81, 82, 83, 84, 85, 86, 87, 88, 89, 90, 91, 92, 93, 94, 95, 96, 97, 98, 99, 100, 101, 102, 103, 104, 105, 106, 107, 108, 109, 110, 111, 112, 113, 114, 115, 116, 117, 118, 119, 120, 121, 122, 123, 124, 125, 126, 127, 128, 129, 130, 131, 132, 133, 134, 135, 136, 137, 138, 139, 140, 141, 142, 143, 144, 145, 146, 147, 148, 149, 150, 151, 152, 153, 154, 155, 156, 157, 158, 159, 160, 161, 162, 163, 164, 165, 166, 167, 168, 169, 170, 171, 172, 173, 174, 175, 176, 177, 178, 179, 180, 181, 182, 183, 184, 185, 186, 187, 188, 189, 190, 191, 192, 193, 194, 195, 196, 197, 198, 199, 200, 201, 202, 203, 204, 205, 206, 207, 208, 209, 210, 211, 212, 213, 214, 215, 216, 217, 218, 219, 220, 221, 222, 223, 224, 225, 226, 227, 228, 229, 230, 231, 232, 233, 234, 235, 236, 237, 238, 239, 240, 241, 242, 243, 244, 245, 246, 247, 248, 249, 250, 251, 252, 253, 254, 255, 256, 257, 258, 259, 260, 261, 262, 263, 264, 265, 266, 267, 268, 269, 270, 271, 272, 273, 274, 275, 276, 277, 278, 279, 280, 281, 282, 283, 284, 285, 286, 287, 288, 289, 290, 291, 292, 293, 294, 295, 296, 297, 298, 299, 300, 301, 302, 303, 304, 305, 306, 307, 308, 309, 310, 311, 312, 313, 314, 315, 316, 317, 318, 319, 320, 321, 322, 323, 324, 325, 326, 327, 328, 329, 330, 331, 332, 333, 334, 335, 336, 337, 338, 339, 340, 341, 342, 343, 344, 345, 346, 347, 348, 349, 350, 351, 352, 353, 354, 355, 356, 357, 358, 359, 360, 361, 362, 363, 364, 365, 366, 367, 368, 369, 370, 371, 372, 373, 374, 375, 376, 377, 378, 379, 380, 381, 382, 383, 384, 385, 386, 387, 388, 389, 390, 391, 392, 393, 394, 395, 396, 397, 398, 399, 400, 401, 402, 403, 404, 405, 406, 407, 408, 409, 410, 411, 412, 413, 414, 415, 416, 417, 418, 419, 420, 421, 422, 423, 424, 425, 426, 427, 428, 429, 430, 431, 432, 433, 434, 435, 436, 437, 438, 439, 440, 441, 442, 443, 444, 445, 446, 447, 448, 449, 450, 451, 452, 453, 454, 455, 456, 457, 458, 459, 460, 461, 462, 463, 464, 465, 466, 467, 468, 469, 470, 471, 472, 473, 474, 475, 476, 477, 478, 479, 480, 481, 482, 483, 484, 485, 486, 487, 488, 489, 490, 491, 492, 493, 494, 495, 496, 497, 498, 499, 500, 501, 502, 503, 504, 505, 506, 507, 508, 509, 510, 511, 512, 513, 514, 515, 516, 517, 518, 519, 520, 521, 522, 523, 524, 525, 526, 527, 528, 529, 530, 531, 532, 533, 534, 535, 536, 537, 538, 539, 540, 541, 542, 543, 544, 545, 546, 547, 548, 549, 550, 551, 552, 553, 554, 555, 556, 557, 558, 559, 560, 561, 562, 563, 564, 565, 566, 567, 568, 569, 570, 571, 572, 573, 574, 575, 576, 577, 578, 579, 580, 581, 582, 583, 584, 585, 586, 587, 588, 589, 590, 591, 592, 593, 594, 595, 596, 597, 598, 599, 600, 601, 602, 603, 604, 605, 606, 607, 608, 609, 610, 611, 612, 613, 614, 615, 616, 617, 618, 619, 620, 621, 622, 623, 624, 625, 626, 627, 628, 629, 630, 631, 632, 633, 634, 635, 636, 637, 638, 639, 640, 641, 642, 643, 644, 645, 646, 647, 648, 649, 650, 651, 652, 653, 654, 655, 656, 657, 658, 659, 660, 661, 662, 663, 664, 665, 666, 667, 668, 669, 670, 671, 672, 673, 674, 675, 676, 677, 678, 679, 680, 681, 682, 683, 684, 685, 686, 687, 688, 689, 690, 691, 692, 693, 694, 695, 696, 697, 698, 699, 700, 701, 702, 703, 704, 705, 706, 707, 708, 709, 710, 711, 712, 713, 714, 715, 716, 717, 718, 719, 720, 721, 722, 723, 724, 725, 726, 727, 728, 729, 730, 731, 732, 733, 734, 735, 736, 737, 738, 739, 740, 741, 742, 743, 744, 745, 746, 747, 748, 749, 750, 751, 752, 753, 754, 755, 756, 757, 758, 759, 760, 761, 762, 763, 764, 765, 766, 767, 768, 769, 770, 771, 772, 773, 774, 775, 776, 777, 778, 779, 780, 781, 782, 783, 784, 785, 786, 787, 788, 789, 790, 791, 792, 793, 794, 795, 796, 797, 798, 799, 800, 801, 802, 803, 804, 805, 806, 807, 808, 809, 810, 811, 812, 813, 814, 815, 816, 817, 818, 819, 820, 821, 822, 823, 824, 825, 826, 827, 828, 829, 830, 831, 832, 833, 834, 835, 836, 837, 838, 839, 840, 841, 842, 843, 844, 845, 846, 847, 848, 849, 850, 851, 852, 853, 854, 855, 856, 857, 858, 859, 860, 861, 862, 863, 864, 865, 866, 867, 868, 869, 870, 871, 872, 873, 874, 875, 876, 877, 878, 879, 880, 881, 882, 883, 884, 885, 886, 887, 888, 889, 890, 891, 892, 893, 894, 895, 896, 897, 898, 899, 900, 901, 902, 903, 904, 905, 906, 907, 908, 909, 910, 911, 912, 913, 914, 915, 916, 917, 918, 919, 920, 921, 922, 923, 924, 925, 926, 927, 928, 929, 930, 931, 932, 933, 934, 935, 936, 937, 938, 939, 940, 941, 942, 943, 944, 945, 946, 947, 948, 949, 950, 951, 952, 953, 954, 955, 956, 957, 958, 959, 960, 961, 962, 963, 964, 965, 966, 967, 968, 969, 970, 971, 972, 973, 974, 975, 976, 977, 978, 979, 980, 981, 982, 983, 984, 985, 986, 987, 988, 989, 990, 991, 992, 993, 994, 995, 996, 997, 998, 999, 1000, 1001, 1002, 1003, 1004, 1005, 1006, 1007, 1008, 1009, 1010, 1011, 1012, 1013, 1014, 1015, 1016, 1017, 1018, 1019, 1020, 1021, 1022, 1023, 1024, 1025, 1026, 1027, 1028, 1029, 1030, 1031, 1032, 1033, 1034, 1035, 1036, 1037, 1038, 1039, 1040, 1041, 1042, 1043, 1044, 1045, 1046, 1047, 1048, 1049, 1050, 1051, 1052, 1053, 1054, 1055, 1056, 1057, 1058, 1059, 1060, 1061, 1062, 1063, 1064, 1065],
      "AcquisitionTime": ["165549.650000", "165550.110000", "165550.570000", "165551.030000", "165551.490000", "165551.950000", "165552.410000", "165552.870000", "165553.330000", "165553.790000", "165554.250000", "165554.710000", "165555.170000", "165555.630000", "165556.090000", "165556.550000", "165557.010000", "165557.470000", "165557.930000", "165558.390000", "165558.850000", "165559.310000", "165559.770000", "165600.230000", "165600.690000", "165601.150000", "165601.610000", "165602.070000", "165602.530000", "165602.990000", "165603.450000", "165603.910000", "165604.370000", "165604.830000", "165605.290000", "165605.750000", "165606.210000", "165606.670000", "165607.130000", "165607.590000", "165608.050000", "165608.510000", "165608.970000", "165609.430000", "165609.890000", "165610.350000", "165610.810000", "165611.270000", "165611.730000", "165612.190000", "165612.650000", "165613.110000", "165613.570000", "165614.030000", "165614.490000", "165614.950000", "165615.410000", "165615.870000", "165616.330000", "165616.790000", "165617.250000", "165617.710000", "165618.170000", "165618.630000", "165619.090000", "165619.550000", "165620.010000", "165620.470000", "165620.930000", "165621.390000", "165621.850000", "165622.310000", "165622.770000", "165623.230000", "165623.690000", "165624.150000", "165624.610000", "165625.070000", "165625.530000", "165625.990000", "165626.450000", "165626.910000", "165627.370000", "165627.830000", "165628.290000", "165628.750000", "165629.210000", "165629.670000", "165630.130000", "165630.590000", "165631.050000", "165631.510000", "165631.970000", "165632.430000", "165632.890000", "165633.350000", "165633.810000", "165634.270000", "165634.730000", "165635.190000", "165635.650000", "165636.110000", "165636.570000", "165637.030000", "165637.490000", "165637.950000", "165638.410000", "165638.870000", "165639.330000", "165639.790000", "165640.250000", "165640.710000", "165641.170000", "165641.630000", "165642.090000", "165642.550000", "165643.010000", "165643.470000", "165643.930000", "165644.390000", "165644.850000", "165645.310000", "165645.770000", "165646.230000", "165646.690000", "165647.150000", "165647.610000", "165648.070000", "165648.530000", "165648.990000", "165649.450000", "165649.910000", "165650.370000", "165650.830000", "165651.290000", "165651.750000", "165652.210000", "165652.670000", "165653.130000", "165653.590000", "165654.050000", "165654.510000", "165654.970000", "165655.430000", "165655.890000", "165656.350000", "165656.810000", "165657.270000", "165657.730000", "165658.190000", "165658.650000", "165659.110000", "165659.570000", "165700.030000", "165700.490000", "165700.950000", "165701.410000", "165701.870000", "165702.330000", "165702.790000", "165703.250000", "165703.710000", "165704.170000", "165704.630000", "165705.090000", "165705.550000", "165706.010000", "165706.470000", "165706.930000", "165707.390000", "165707.850000", "165708.310000", "165708.770000", "165709.230000", "165709.690000", "165710.150000", "165710.610000", "165711.070000", "165711.530000", "165711.990000", "165712.450000", "165712.910000", "165713.370000", "165713.830000", "165714.290000", "165714.750000", "165715.210000", "165715.670000", "165716.130000", "165716.590000", "165717.050000", "165717.510000", "165717.970000", "165718.430000", "165718.890000", "165719.350000", "165719.810000", "165720.270000", "165720.730000", "165721.190000", "165721.650000", "165722.110000", "165722.570000", "165723.030000", "165723.490000", "165723.950000", "165724.410000", "165724.870000", "165725.330000", "165725.790000", "165726.250000", "165726.710000", "165727.170000", "165727.630000", "165728.090000", "165728.550000", "165729.010000", "165729.470000", "165729.930000", "165730.390000", "165730.850000", "165731.310000", "165731.770000", "165732.230000", "165732.690000", "165733.150000", "165733.610000", "165734.070000", "165734.530000", "165734.990000", "165735.450000", "165735.910000", "165736.370000", "165736.830000", "165737.290000", "165737.750000", "165738.210000", "165738.670000", "165739.130000", "165739.590000", "165740.050000", "165740.510000", "165740.970000", "165741.430000", "165741.890000", "165742.350000", "165742.810000", "165743.270000", "165743.730000", "165744.190000", "165744.650000", "165745.110000", "165745.570000", "165746.030000", "165746.490000", "165746.950000", "165747.410000", "165747.870000", "165748.330000", "165748.790000", "165749.250000", "165749.710000", "165750.170000", "165750.630000", "165751.090000", "165751.550000", "165752.010000", "165752.470000", "165752.930000", "165753.390000", "165753.850000", "165754.310000", "165754.770000", "165755.230000", "165755.690000", "165756.150000", "165756.610000", "165757.070000", "165757.530000", "165757.990000", "165758.450000", "165758.910000", "165759.370000", "165759.830000", "165800.290000", "165800.750000", "165801.210000", "165801.670000", "165802.130000", "165802.590000", "165803.050000", "165803.510000", "165803.970000", "165804.430000", "165804.890000", "165805.350000", "165805.810000", "165806.270000", "165806.730000", "165807.190000", "165807.650000", "165808.110000", "165808.570000", "165809.030000", "165809.490000", "165809.950000", "165810.410000", "165810.870000", "165811.330000", "165811.790000", "165812.250000", "165812.710000", "165813.170000", "165813.630000", "165814.090000", "165814.550000", "165815.010000", "165815.470000", "165815.930000", "165816.390000", "165816.850000", "165817.310000", "165817.770000", "165818.230000", "165818.690000", "165819.150000", "165819.610000", "165820.070000", "165820.530000", "165820.990000", "165821.450000", "165821.910000", "165822.370000", "165822.830000", "165823.290000", "165823.750000", "165824.210000", "165824.670000", "165825.130000", "165825.590000", "165826.050000", "165826.510000", "165826.970000", "165827.430000", "165827.890000", "165828.350000", "165828.810000", "165829.270000", "165829.730000", "165830.190000", "165830.650000", "165831.110000", "165831.570000", "165832.030000", "165832.490000", "165832.950000", "165833.410000", "165833.870000", "165834.330000", "165834.790000", "165835.250000", "165835.710000", "165836.170000", "165836.630000", "165837.090000", "165837.550000", "165838.010000", "165838.470000", "165838.930000", "165839.390000", "165839.850000", "165840.310000", "165840.770000", "165841.230000", "165841.690000", "165842.150000", "165842.610000", "165843.070000", "165843.530000", "165843.990000", "165844.450000", "165844.910000", "165845.370000", "165845.830000", "165846.290000", "165846.750000", "165847.210000", "165847.670000", "165848.130000", "165848.590000", "165849.050000", "165849.510000", "165849.970000", "165850.430000", "165850.890000", "165851.350000", "165851.810000", "165852.270000", "165852.730000", "165853.190000", "165853.650000", "165854.110000", "165854.570000", "165855.030000", "165855.490000", "165855.950000", "165856.410000", "165856.870000", "165857.330000", "165857.790000", "165858.250000", "165858.710000", "165859.170000", "165859.630000", "165900.090000", "165900.550000", "165901.010000", "165901.470000", "165901.930000", "165902.390000", "165902.850000", "165903.310000", "165903.770000", "165904.230000", "165904.690000", "165905.150000", "165905.610000", "165906.070000", "165906.530000", "165906.990000", "165907.450000", "165907.910000", "165908.370000", "165908.830000", "165909.290000", "165909.750000", "165910.210000", "165910.670000", "165911.130000", "165911.590000", "165912.050000", "165912.510000", "165912.970000", "165913.430000", "165913.890000", "165914.350000", "165914.810000", "165915.270000", "165915.730000", "165916.190000", "165916.650000", "165917.110000", "165917.570000", "165918.030000", "165918.490000", "165918.950000", "165919.410000", "165919.870000", "165920.330000", "165920.790000", "165921.250000", "165921.710000", "165922.170000", "165922.630000", "165923.090000", "165923.550000", "165924.010000", "165924.470000", "165924.930000", "165925.390000", "165925.850000", "165926.310000", "165926.770000", "165927.230000", "165927.690000", "165928.150000", "165928.610000", "165929.070000", "165929.530000", "165929.990000", "165930.450000", "165930.910000", "165931.370000", "165931.830000", "165932.290000", "165932.750000", "165933.210000", "165933.670000", "165934.130000", "165934.590000", "165935.050000", "165935.510000", "165935.970000", "165936.430000", "165936.890000", "165937.350000", "165937.810000", "165938.270000", "165938.730000", "165939.190000", "165939.650000", "165940.110000", "165940.570000", "165941.030000", "165941.490000", "165941.950000", "165942.410000", "165942.870000", "165943.330000", "165943.790000", "165944.250000", "165944.710000", "165945.170000", "165945.630000", "165946.090000", "165946.550000", "165947.010000", "165947.470000", "165947.930000", "165948.390000", "165948.850000", "165949.310000", "165949.770000", "165950.230000", "165950.690000", "165951.150000", "165951.610000", "165952.070000", "165952.530000", "165952.990000", "165953.450000", "165953.910000", "165954.370000", "165954.830000", "165955.290000", "165955.750000", "165956.210000", "165956.670000", "165957.130000", "165957.590000", "165958.050000", "165958.510000", "165958.970000", "165959.430000", "165959.890000", "170000.350000", "170000.810000", "170001.270000", "170001.730000", "170002.190000", "170002.650000", "170003.110000", "170003.570000", "170004.030000", "170004.490000", "170004.950000", "170005.410000", "170005.870000", "170006.330000", "170006.790000", "170007.250000", "170007.710000", "170008.170000", "170008.630000", "170009.090000", "170009.550000", "170010.010000", "170010.470000", "170010.930000", "170011.390000", "170011.850000", "170012.310000", "170012.770000", "170013.230000", "170013.690000", "170014.150000", "170014.610000", "170015.070000", "170015.530000", "170015.990000", "170016.450000", "170016.910000", "170017.370000", "170017.830000", "170018.290000", "170018.750000", "170019.210000", "170019.670000", "170020.130000", "170020.590000", "170021.050000", "170021.510000", "170021.970000", "170022.430000", "170022.890000", "170023.350000", "170023.810000", "170024.270000", "170024.730000", "170025.190000", "170025.650000", "170026.110000", "170026.570000", "170027.030000", "170027.490000", "170027.950000", "170028.410000", "170028.870000", "170029.330000", "170029.790000", "170030.250000", "170030.710000", "170031.170000", "170031.630000", "170032.090000", "170032.550000", "170033.010000", "170033.470000", "170033.930000", "170034.390000", "170034.850000", "170035.310000", "170035.770000", "170036.230000", "170036.690000", "170037.150000", "170037.610000", "170038.070000", "170038.530000", "170038.990000", "170039.450000", "170039.910000", "170040.370000", "170040.830000", "170041.290000", "170041.750000", "170042.210000", "170042.670000", "170043.130000", "170043.590000", "170044.050000", "170044.510000", "170044.970000", "170045.430000", "170045.890000", "170046.350000", "170046.810000", "170047.270000", "170047.730000", "170048.190000", "170048.650000", "170049.110000", "170049.570000", "170050.030000", "170050.490000", "170050.950000", "170051.410000", "170051.870000", "170052.330000", "170052.790000", "170053.250000", "170053.710000", "170054.170000", "170054.630000", "170055.090000", "170055.550000", "170056.010000", "170056.470000", "170056.930000", "170057.390000", "170057.850000", "170058.310000", "170058.770000", "170059.230000", "170059.690000", "170100.150000", "170100.610000", "170101.070000", "170101.530000", "170101.990000", "170102.450000", "170102.910000", "170103.370000", "170103.830000", "170104.290000", "170104.750000", "170105.210000", "170105.670000", "170106.130000", "170106.590000", "170107.050000", "170107.510000", "170107.970000", "170108.430000", "170108.890000", "170109.350000", "170109.810000", "170110.270000", "170110.730000", "170111.190000", "170111.650000", "170112.110000", "170112.570000", "170113.030000", "170113.490000", "170113.950000", "170114.410000", "170114.870000", "170115.330000", "170115.790000", "170116.250000", "170116.710000", "170117.170000", "170117.630000", "170118.090000", "170118.550000", "170119.010000", "170119.470000", "170119.930000", "170120.390000", "170120.850000", "170121.310000", "170121.770000", "170122.230000", "170122.690000", "170123.150000", "170123.610000", "170124.070000", "170124.530000", "170124.990000", "170125.450000", "170125.910000", "170126.370000", "170126.830000", "170127.290000", "170127.750000", "170128.210000", "170128.670000", "170129.130000", "170129.590000", "170130.050000", "170130.510000", "170130.970000", "170131.430000", "170131.890000", "170132.350000", "170132.810000", "170133.270000", "170133.730000", "170134.190000", "170134.650000", "170135.110000", "170135.570000", "170136.030000", "170136.490000", "170136.950000", "170137.410000", "170137.870000", "170138.330000", "170138.790000", "170139.250000", "170139.710000", "170140.170000", "170140.630000", "170141.090000", "170141.550000", "170142.010000", "170142.470000", "170142.930000", "170143.390000", "170143.850000", "170144.310000", "170144.770000", "170145.230000", "170145.690000", "170146.150000", "170146.610000", "170147.070000", "170147.530000", "170147.990000", "170148.450000", "170148.910000", "170149.370000", "170149.830000", "170150.290000", "170150.750000", "170151.210000", "170151.670000", "170152.130000", "170152.590000", "170153.050000", "170153.510000", "170153.970000", "170154.430000", "170154.890000", "170155.350000", "170155.810000", "170156.270000", "170156.730000", "170157.190000", "170157.650000", "170158.110000", "170158.570000", "170159.030000", "170159.490000", "170159.950000", "170200.410000", "170200.870000", "170201.330000", "170201.790000", "170202.250000", "170202.710000", "170203.170000", "170203.630000", "170204.090000", "170204.550000", "170205.010000", "170205.470000", "170205.930000", "170206.390000", "170206.850000", "170207.310000", "170207.770000", "170208.230000", "170208.690000", "170209.150000", "170209.610000", "170210.070000", "170210.530000", "170210.990000", "170211.450000", "170211.910000", "170212.370000", "170212.830000", "170213.290000", "170213.750000", "170214.210000", "170214.670000", "170215.130000", "170215.590000", "170216.050000", "170216.510000", "170216.970000", "170217.430000", "170217.890000", "170218.350000", "170218.810000", "170219.270000", "170219.730000", "170220.190000", "170220.650000", "170221.110000", "170221.570000", "170222.030000", "170222.490000", "170222.950000", "170223.410000", "170223.870000", "170224.330000", "170224.790000", "170225.250000", "170225.710000", "170226.170000", "170226.630000", "170227.090000", "170227.550000", "170228.010000", "170228.470000", "170228.930000", "170229.390000", "170229.850000", "170230.310000", "170230.770000", "170231.230000", "170231.690000", "170232.150000", "170232.610000", "170233.070000", "170233.530000", "170233.990000", "170234.450000", "170234.910000", "170235.370000", "170235.830000", "170236.290000", "170236.750000", "170237.210000", "170237.670000", "170238.130000", "170238.590000", "170239.050000", "170239.510000", "170239.970000", "170240.430000", "170240.890000", "170241.350000", "170241.810000", "170242.270000", "170242.730000", "170243.190000", "170243.650000", "170244.110000", "170244.570000", "170245.030000", "170245.490000", "170245.950000", "170246.410000", "170246.870000", "170247.330000", "170247.790000", "170248.250000", "170248.710000", "170249.170000", "170249.630000", "170250.090000", "170250.550000", "170251.010000", "170251.470000", "170251.930000", "170252.390000", "170252.850000", "170253.310000", "170253.770000", "170254.230000", "170254.690000", "170255.150000", "170255.610000", "170256.070000", "170256.530000", "170256.990000", "170257.450000", "170257.910000", "170258.370000", "170258.830000", "170259.290000", "170259.750000", "170300.210000", "170300.670000", "170301.130000", "170301.590000", "170302.050000", "170302.510000", "170302.970000", "170303.430000", "170303.890000", "170304.350000", "170304.810000", "170305.270000", "170305.730000", "170306.190000", "170306.650000", "170307.110000", "170307.570000", "170308.030000", "170308.490000", "170308.950000", "170309.410000", "170309.870000", "170310.330000", "170310.790000", "170311.250000", "170311.710000", "170312.170000", "170312.630000", "170313.090000", "170313.550000", "170314.010000", "170314.470000", "170314.930000", "170315.390000", "170315.850000", "170316.310000", "170316.770000", "170317.230000", "170317.690000", "170318.150000", "170318.610000", "170319.070000", "170319.530000", "170319.990000", "170320.450000", "170320.910000", "170321.370000", "170321.830000", "170322.290000", "170322.750000", "170323.210000", "170323.670000", "170324.130000", "170324.590000", "170325.050000", "170325.510000", "170325.970000", "170326.430000", "170326.890000", "170327.350000", "170327.810000", "170328.270000", "170328.730000", "170329.190000", "170329.650000", "170330.110000", "170330.570000", "170331.030000", "170331.490000", "170331.950000", "170332.410000", "170332.870000", "170333.330000", "170333.790000", "170334.250000", "170334.710000", "170335.170000", "170335.630000", "170336.090000", "170336.550000", "170337.010000", "170337.470000", "170337.930000", "170338.390000", "170338.850000", "170339.310000", "170339.770000", "170340.230000", "170340.690000", "170341.150000", "170341.610000", "170342.070000", "170342.530000", "170342.990000", "170343.450000", "170343.910000", "170344.370000", "170344.830000", "170345.290000", "170345.750000", "170346.210000", "170346.670000", "170347.130000", "170347.590000", "170348.050000", "170348.510000", "170348.970000", "170349.430000", "170349.890000", "170350.350000", "170350.810000", "170351.270000", "170351.730000", "170352.190000", "170352.650000", "170353.110000", "170353.570000", "170354.030000", "170354.490000", "170354.950000", "170355.410000", "170355.870000", "170356.330000", "170356.790000", "170357.250000", "170357.710000", "170358.170000", "170358.630000", "170359.090000"],
