{
  "AcquisitionMatrixPE": 82,
  "AcquisitionNumber": 1,
  "AcquisitionTime": "16:04:39.182500",
  "BandwidthPerPixelPhaseEncode": 24.888,
  "BaseResolution": 82,
  "BodyPartExamined": "BRAIN",
  "ConsistencyInfo": "N4_VE11C_LATEST_20160120",
  "ConversionSoftware": "dcm2niix",
  "ConversionSoftwareVersion": "v1.0.20201102",
  "DerivedVendorReportedEchoSpacing": 0.00049,
  "DeviceSerialNumber": "66112",
  "DwellTime": 2e-06,
  "EchoTime": 0.0272,
  "EchoTrainLength": 82,
  "EffectiveEchoSpacing": 0.00049,
  "FlipAngle": 44,
  "ImageComments": "Unaliased MB8/PE3",
  "ImageOrientationPatientDICOM": [0.991932, -0.126743, -0.0027433, 0.126366, 0.986781, 0.101461],
  "ImageType": [
    "ORIGINAL",
    "PRIMARY",
    "M",
    "MB",
    "ND",
    "NORM",
    "MOSAIC"
],
  "ImagingFrequency": 123.252,
  "InPlanePhaseEncodingDirectionDICOM": "COL",
  "InstitutionAddress": "Maynard 3,Hanover,NH,US,03755",
  "InstitutionName": "Dartmouth College - PBS",
  "InstitutionalDepartmentName": "Department",
  "MRAcquisitionType": "2D",
  "MagneticFieldStrength": 3,
  "Manufacturer": "Siemens",
  "ManufacturersModelName": "Prisma",
  "Modality": "MR",
  "MultibandAccelerationFactor": 8,
  "PartialFourier": 1,
  "PatientPosition": "HFS",
  "PercentPhaseFOV": 100,
  "PercentSampling": 100,
  "PhaseEncodingDirection": "j-",
  "PhaseEncodingSteps": 82,
  "PhaseResolution": 1,
  "PixelBandwidth": 3050,
  "ProcedureStepDescription": "Wager_Wager^1076_spacetop",
  "ProtocolName": "func_run-04_task-social_acq-ap-mb8",
  "PulseSequenceDetails": "%CustomerSeq%\\cmrr_mbep2d_bold",
  "ReceiveCoilActiveElements": "HEA;HEP",
  "ReceiveCoilName": "Head_32",
  "ReconMatrixPE": 82,
  "RepetitionTime": 0.46,
  "SAR": 0.0869479,
  "ScanOptions": "FS",
  "ScanningSequence": "EP",
  "SequenceName": "epfid2d1_82",
  "SequenceVariant": "SK\\SS",
  "SeriesDescription": "func_run-04_task-social_acq-ap-mb8",
  "SeriesNumber": 16,
  "ShimSetting": [4137, -7777, -7358, 442, -78, -200, -59, 87],
  "SliceThickness": 2.7,
  "SliceTiming": [0, 0.25, 0.0625, 0.315, 0.125, 0.3775, 0.1875, 0, 0.25, 0.0625, 0.315, 0.125, 0.3775, 0.1875, 0, 0.25, 0.0625, 0.315, 0.125, 0.3775, 0.1875, 0, 0.25, 0.0625, 0.315, 0.125, 0.3775, 0.1875, 0, 0.25, 0.0625, 0.315, 0.125, 0.3775, 0.1875, 0, 0.25, 0.0625, 0.315, 0.125, 0.3775, 0.1875, 0, 0.25, 0.0625, 0.315, 0.125, 0.3775, 0.1875, 0, 0.25, 0.0625, 0.315, 0.125, 0.3775, 0.1875],
  "SoftwareVersions": "syngo MR E11",
  "SpacingBetweenSlices": 2.7,
  "StationName": "AWP66112",
  "TaskName": "social",
  "TotalReadoutTime": 0.03969,
  "TxRefAmp": 238.723,
  "WipMemBlock": "942d8b17-cc86-4f62-873c-72b2073ea3f3||Sequence: R016 ve11c/master r/e634e98; Dec 19 2017 11:00:25 by eja",
  "dcmmeta_affine": [
    [-2.661280393600464, 0.3390296995639801, 0.027411505579948425, 94.84638977050781],
    [0.34004247188568115, 2.6474621295928955, 0.27266979217529297, -113.75614166259766],
    [-0.007360085844993591, -0.27221179008483887, 2.686056613922119, -60.217525482177734],
    [0.0, 0.0, 0.0, 1.0]
],
  "dcmmeta_reorient_transform": [
    [0.0, -1.0, 0.0, 81.0],
    [1.0, 0.0, 0.0, 0.0],
    [0.0, 0.0, 1.0, 0.0],
    [0.0, 0.0, 0.0, 1.0]
],
  "dcmmeta_shape": [82, 82, 56, 872],
  "dcmmeta_slice_dim": 2,
  "dcmmeta_version": 0.6,
  "global": {
    "const": {
      "AccessionNumber": "A003838",
      "AcquisitionMatrix": [82, 0, 0, 82],
      "AngioFlag": "N",
      "BitsAllocated": 16,
      "BitsStored": 16,
      "BodyPartExamined": "BRAIN",
      "Columns": 656,
      "EchoNumbers": 1,
      "EchoTime": 27.2,
      "EchoTrainLength": 82,
      "FlipAngle": 44.0,
      "HighBit": 15,
      "ImageOrientationPatient": [0.99193178193726, -0.1267431034117, -0.0027433046404, 0.1263656146608, 0.98678135689714, 0.1014607565103],
      "ImagePositionPatient": [-983.39680907776, -762.91776705284, -158.27912033683],
      "ImageType": [
        "ORIGINAL",
        "PRIMARY",
        "M",
        "MB",
        "ND",
        "NORM",
        "MOSAIC"
],
      "ImagedNucleus": "1H",
      "ImagingFrequency": 123.252286,
      "InPlanePhaseEncodingDirection": "COL",
      "MRAcquisitionType": "2D",
      "MagneticFieldStrength": 3.0,
      "Manufacturer": "SIEMENS",
      "ManufacturerModelName": "Prisma",
      "Modality": "MR",
      "NumberOfAverages": 1.0,
      "NumberOfPhaseEncodingSteps": 82,
      "PercentPhaseFieldOfView": 100.0,
      "PercentSampling": 100.0,
      "PerformedProcedureStepStartTime": "151146.691000",
      "PhotometricInterpretation": "MONOCHROME2",
      "PixelBandwidth": 3050.0,
      "PixelRepresentation": 0,
      "PixelSpacing": [2.6829268932343, 2.6829268932343],
      "ProtocolName": "func_run-04_task-social_acq-ap-mb8",
      "RepetitionTime": 460.0,
      "Rows": 656,
      "SAR": 0.08694784988561,
      "SamplesPerPixel": 1,
      "ScanOptions": "FS",
      "ScanningSequence": "EP",
      "SequenceName": "epfid2d1_82",
      "SequenceVariant": [
        "SK",
        "SS"
],
      "SeriesDescription": "func_run-04_task-social_acq-ap-mb8",
      "SeriesNumber": 16,
      "SeriesTime": "160500.473000",
      "SliceLocation": -70.431725880482,
      "SliceThickness": 2.7000000476837,
      "SmallestImagePixelValue": 0,
      "SoftwareVersions": "syngo MR E11",
      "SpacingBetweenSlices": 2.6999999688273,
      "SpecificCharacterSet": "ISO_IR 100",
      "StudyID": "1",
      "StudyTime": "151146.635000",
      "TransmitCoilName": "Body",
      "VariableFlipAngleFlag": "N",
      "WindowCenterWidthExplanation": "Algo1",
      "dBdt": 0.0},
    "slices": {}
  },
  "time": {
    "samples": {
      "AcquisitionNumber": [1, 2, 3, 4, 5, 6, 7, 8, 9, 10, 11, 12, 13, 14, 15, 16, 17, 18, 19, 20, 21, 22, 23, 24, 25, 26, 27, 28, 29, 30, 31, 32, 33, 34, 35, 36, 37, 38, 39, 40, 41, 42, 43, 44, 45, 46, 47, 48, 49, 50, 51, 52, 53, 54, 55, 56, 57, 58, 59, 60, 61, 62, 63, 64, 65, 66, 67, 68, 69, 70, 71, 72, 73, 74, 75, 76, 77, 78, 79, 80, 81, 82, 83, 84, 85, 86, 87, 88, 89, 90, 91, 92, 93, 94, 95, 96, 97, 98, 99, 100, 101, 102, 103, 104, 105, 106, 107, 108, 109, 110, 111, 112, 113, 114, 115, 116, 117, 118, 119, 120, 121, 122, 123, 124, 125, 126, 127, 128, 129, 130, 131, 132, 133, 134, 135, 136, 137, 138, 139, 140, 141, 142, 143, 144, 145, 146, 147, 148, 149, 150, 151, 152, 153, 154, 155, 156, 157, 158, 159, 160, 161, 162, 163, 164, 165, 166, 167, 168, 169, 170, 171, 172, 173, 174, 175, 176, 177, 178, 179, 180, 181, 182, 183, 184, 185, 186, 187, 188, 189, 190, 191, 192, 193, 194, 195, 196, 197, 198, 199, 200, 201, 202, 203, 204, 205, 206, 207, 208, 209, 210, 211, 212, 213, 214, 215, 216, 217, 218, 219, 220, 221, 222, 223, 224, 225, 226, 227, 228, 229, 230, 231, 232, 233, 234, 235, 236, 237, 238, 239, 240, 241, 242, 243, 244, 245, 246, 247, 248, 249, 250, 251, 252, 253, 254, 255, 256, 257, 258, 259, 260, 261, 262, 263, 264, 265, 266, 267, 268, 269, 270, 271, 272, 273, 274, 275, 276, 277, 278, 279, 280, 281, 282, 283, 284, 285, 286, 287, 288, 289, 290, 291, 292, 293, 294, 295, 296, 297, 298, 299, 300, 301, 302, 303, 304, 305, 306, 307, 308, 309, 310, 311, 312, 313, 314, 315, 316, 317, 318, 319, 320, 321, 322, 323, 324, 325, 326, 327, 328, 329, 330, 331, 332, 333, 334, 335, 336, 337, 338, 339, 340, 341, 342, 343, 344, 345, 346, 347, 348, 349, 350, 351, 352, 353, 354, 355, 356, 357, 358, 359, 360, 361, 362, 363, 364, 365, 366, 367, 368, 369, 370, 371, 372, 373, 374, 375, 376, 377, 378, 379, 380, 381, 382, 383, 384, 385, 386, 387, 388, 389, 390, 391, 392, 393, 394, 395, 396, 397, 398, 399, 400, 401, 402, 403, 404, 405, 406, 407, 408, 409, 410, 411, 412, 413, 414, 415, 416, 417, 418, 419, 420, 421, 422, 423, 424, 425, 426, 427, 428, 429, 430, 431, 432, 433, 434, 435, 436, 437, 438, 439, 440, 441, 442, 443, 444, 445, 446, 447, 448, 449, 450, 451, 452, 453, 454, 455, 456, 457, 458, 459, 460, 461, 462, 463, 464, 465, 466, 467, 468, 469, 470, 471, 472, 473, 474, 475, 476, 477, 478, 479, 480, 481, 482, 483, 484, 485, 486, 487, 488, 489, 490, 491, 492, 493, 494, 495, 496, 497, 498, 499, 500, 501, 502, 503, 504, 505, 506, 507, 508, 509, 510, 511, 512, 513, 514, 515, 516, 517, 518, 519, 520, 521, 522, 523, 524, 525, 526, 527, 528, 529, 530, 531, 532, 533, 534, 535, 536, 537, 538, 539, 540, 541, 542, 543, 544, 545, 546, 547, 548, 549, 550, 551, 552, 553, 554, 555, 556, 557, 558, 559, 560, 561, 562, 563, 564, 565, 566, 567, 568, 569, 570, 571, 572, 573, 574, 575, 576, 577, 578, 579, 580, 581, 582, 583, 584, 585, 586, 587, 588, 589, 590, 591, 592, 593, 594, 595, 596, 597, 598, 599, 600, 601, 602, 603, 604, 605, 606, 607, 608, 609, 610, 611, 612, 613, 614, 615, 616, 617, 618, 619, 620, 621, 622, 623, 624, 625, 626, 627, 628, 629, 630, 631, 632, 633, 634, 635, 636, 637, 638, 639, 640, 641, 642, 643, 644, 645, 646, 647, 648, 649, 650, 651, 652, 653, 654, 655, 656, 657, 658, 659, 660, 661, 662, 663, 664, 665, 666, 667, 668, 669, 670, 671, 672, 673, 674, 675, 676, 677, 678, 679, 680, 681, 682, 683, 684, 685, 686, 687, 688, 689, 690, 691, 692, 693, 694, 695, 696, 697, 698, 699, 700, 701, 702, 703, 704, 705, 706, 707, 708, 709, 710, 711, 712, 713, 714, 715, 716, 717, 718, 719, 720, 721, 722, 723, 724, 725, 726, 727, 728, 729, 730, 731, 732, 733, 734, 735, 736, 737, 738, 739, 740, 741, 742, 743, 744, 745, 746, 747, 748, 749, 750, 751, 752, 753, 754, 755, 756, 757, 758, 759, 760, 761, 762, 763, 764, 765, 766, 767, 768, 769, 770, 771, 772, 773, 774, 775, 776, 777, 778, 779, 780, 781, 782, 783, 784, 785, 786, 787, 788, 789, 790, 791, 792, 793, 794, 795, 796, 797, 798, 799, 800, 801, 802, 803, 804, 805, 806, 807, 808, 809, 810, 811, 812, 813, 814, 815, 816, 817, 818, 819, 820, 821, 822, 823, 824, 825, 826, 827, 828, 829, 830, 831, 832, 833, 834, 835, 836, 837, 838, 839, 840, 841, 842, 843, 844, 845, 846, 847, 848, 849, 850, 851, 852, 853, 854, 855, 856, 857, 858, 859, 860, 861, 862, 863, 864, 865, 866, 867, 868, 869, 870, 871, 872],
      "AcquisitionTime": ["160439.182500", "160439.642500", "160440.102500", "160440.562500", "160441.022500", "160441.482500", "160441.942500", "160442.402500", "160442.862500", "160443.322500", "160443.782500", "160444.242500", "160444.702500", "160445.162500", "160445.622500", "160446.082500", "160446.542500", "160447.002500", "160447.462500", "160447.922500", "160448.382500", "160448.842500", "160449.302500", "160449.762500", "160450.222500", "160450.682500", "160451.142500", "160451.602500", "160452.062500", "160452.522500", "160452.982500", "160453.442500", "160453.902500", "160454.362500", "160454.822500", "160455.282500", "160455.742500", "160456.202500", "160456.662500", "160457.122500", "160457.582500", "160458.042500", "160458.502500", "160458.962500", "160459.422500", "160459.882500", "160500.342500", "160500.802500", "160501.262500", "160501.722500", "160502.182500", "160502.642500", "160503.102500", "160503.562500", "160504.022500", "160504.482500", "160504.942500", "160505.402500", "160505.862500", "160506.322500", "160506.782500", "160507.242500", "160507.702500", "160508.162500", "160508.622500", "160509.082500", "160509.542500", "160510.002500", "160510.462500", "160510.922500", "160511.382500", "160511.842500", "160512.302500", "160512.762500", "160513.222500", "160513.682500", "160514.142500", "160514.602500", "160515.062500", "160515.522500", "160515.982500", "160516.442500", "160516.902500", "160517.362500", "160517.822500", "160518.282500", "160518.742500", "160519.202500", "160519.662500", "160520.122500", "160520.582500", "160521.042500", "160521.502500", "160521.962500", "160522.422500", "160522.882500", "160523.342500", "160523.802500", "160524.262500", "160524.722500", "160525.182500", "160525.642500", "160526.102500", "160526.562500", "160527.022500", "160527.482500", "160527.942500", "160528.402500", "160528.862500", "160529.322500", "160529.782500", "160530.242500", "160530.702500", "160531.162500", "160531.622500", "160532.082500", "160532.542500", "160533.002500", "160533.462500", "160533.922500", "160534.382500", "160534.842500", "160535.302500", "160535.762500", "160536.222500", "160536.682500", "160537.142500", "160537.602500", "160538.062500", "160538.522500", "160538.982500", "160539.442500", "160539.902500", "160540.362500", "160540.822500", "160541.282500", "160541.742500", "160542.202500", "160542.662500", "160543.122500", "160543.582500", "160544.042500", "160544.502500", "160544.962500", "160545.422500", "160545.882500", "160546.342500", "160546.802500", "160547.262500", "160547.722500", "160548.182500", "160548.642500", "160549.102500", "160549.562500", "160550.022500", "160550.482500", "160550.942500", "160551.402500", "160551.862500", "160552.322500", "160552.782500", "160553.242500", "160553.702500", "160554.162500", "160554.622500", "160555.082500", "160555.542500", "160556.002500", "160556.462500", "160556.922500", "160557.382500", "160557.842500", "160558.302500", "160558.762500", "160559.222500", "160559.682500", "160600.142500", "160600.602500", "160601.062500", "160601.522500", "160601.982500", "160602.442500", "160602.902500", "160603.362500", "160603.822500", "160604.282500", "160604.742500", "160605.202500", "160605.662500", "160606.122500", "160606.582500", "160607.042500", "160607.502500", "160607.962500", "160608.422500", "160608.882500", "160609.342500", "160609.802500", "160610.262500", "160610.722500", "160611.182500", "160611.642500", "160612.102500", "160612.562500", "160613.022500", "160613.482500", "160613.942500", "160614.402500", "160614.862500", "160615.322500", "160615.782500", "160616.242500", "160616.702500", "160617.162500", "160617.622500", "160618.082500", "160618.542500", "160619.002500", "160619.462500", "160619.922500", "160620.382500", "160620.842500", "160621.302500", "160621.762500", "160622.222500", "160622.682500", "160623.142500", "160623.602500", "160624.062500", "160624.522500", "160624.982500", "160625.442500", "160625.902500", "160626.362500", "160626.822500", "160627.282500", "160627.742500", "160628.202500", "160628.662500", "160629.122500", "160629.582500", "160630.042500", "160630.502500", "160630.962500", "160631.422500", "160631.882500", "160632.342500", "160632.802500", "160633.262500", "160633.722500", "160634.182500", "160634.642500", "160635.102500", "160635.562500", "160636.022500", "160636.482500", "160636.942500", "160637.402500", "160637.862500", "160638.322500", "160638.782500", "160639.242500", "160639.702500", "160640.162500", "160640.622500", "160641.082500", "160641.542500", "160642.002500", "160642.462500", "160642.922500", "160643.382500", "160643.842500", "160644.302500", "160644.762500", "160645.222500", "160645.682500", "160646.142500", "160646.602500", "160647.062500", "160647.522500", "160647.982500", "160648.442500", "160648.902500", "160649.362500", "160649.822500", "160650.282500", "160650.742500", "160651.202500", "160651.662500", "160652.122500", "160652.582500", "160653.042500", "160653.502500", "160653.962500", "160654.422500", "160654.882500", "160655.342500", "160655.802500", "160656.262500", "160656.722500", "160657.182500", "160657.642500", "160658.102500", "160658.562500", "160659.022500", "160659.482500", "160659.942500", "160700.402500", "160700.862500", "160701.322500", "160701.782500", "160702.242500", "160702.702500", "160703.162500", "160703.622500", "160704.082500", "160704.542500", "160705.002500", "160705.462500", "160705.922500", "160706.382500", "160706.842500", "160707.302500", "160707.762500", "160708.222500", "160708.682500", "160709.142500", "160709.602500", "160710.062500", "160710.522500", "160710.982500", "160711.442500", "160711.902500", "160712.362500", "160712.822500", "160713.282500", "160713.742500", "160714.202500", "160714.662500", "160715.122500", "160715.582500", "160716.042500", "160716.502500", "160716.962500", "160717.422500", "160717.882500", "160718.342500", "160718.802500", "160719.262500", "160719.722500", "160720.182500", "160720.642500", "160721.102500", "160721.562500", "160722.022500", "160722.482500", "160722.942500", "160723.402500", "160723.862500", "160724.322500", "160724.782500", "160725.242500", "160725.702500", "160726.162500", "160726.622500", "160727.082500", "160727.542500", "160728.002500", "160728.462500", "160728.922500", "160729.382500", "160729.842500", "160730.302500", "160730.762500", "160731.222500", "160731.682500", "160732.142500", "160732.602500", "160733.062500", "160733.522500", "160733.982500", "160734.442500", "160734.902500", "160735.362500", "160735.822500", "160736.282500", "160736.742500", "160737.202500", "160737.662500", "160738.122500", "160738.582500", "160739.042500", "160739.502500", "160739.962500", "160740.422500", "160740.882500", "160741.342500", "160741.802500", "160742.262500", "160742.722500", "160743.182500", "160743.642500", "160744.102500", "160744.562500", "160745.022500", "160745.482500", "160745.942500", "160746.402500", "160746.862500", "160747.322500", "160747.782500", "160748.242500", "160748.702500", "160749.162500", "160749.622500", "160750.082500", "160750.542500", "160751.002500", "160751.462500", "160751.922500", "160752.382500", "160752.842500", "160753.302500", "160753.762500", "160754.222500", "160754.682500", "160755.142500", "160755.602500", "160756.062500", "160756.522500", "160756.982500", "160757.442500", "160757.902500", "160758.362500", "160758.822500", "160759.282500", "160759.742500", "160800.202500", "160800.662500", "160801.122500", "160801.582500", "160802.042500", "160802.502500", "160802.962500", "160803.422500", "160803.882500", "160804.342500", "160804.802500", "160805.262500", "160805.722500", "160806.182500", "160806.642500", "160807.102500", "160807.562500", "160808.022500", "160808.482500", "160808.942500", "160809.402500", "160809.862500", "160810.322500", "160810.782500", "160811.242500", "160811.702500", "160812.162500", "160812.622500", "160813.082500", "160813.542500", "160814.002500", "160814.462500", "160814.922500", "160815.382500", "160815.842500", "160816.302500", "160816.762500", "160817.222500", "160817.682500", "160818.142500", "160818.602500", "160819.062500", "160819.522500", "160819.982500", "160820.442500", "160820.902500", "160821.362500", "160821.822500", "160822.282500", "160822.742500", "160823.202500", "160823.662500", "160824.122500", "160824.582500", "160825.042500", "160825.502500", "160825.962500", "160826.422500", "160826.882500", "160827.342500", "160827.802500", "160828.262500", "160828.722500", "160829.182500", "160829.642500", "160830.102500", "160830.562500", "160831.022500", "160831.482500", "160831.942500", "160832.402500", "160832.862500", "160833.322500", "160833.782500", "160834.242500", "160834.702500", "160835.162500", "160835.622500", "160836.082500", "160836.542500", "160837.002500", "160837.462500", "160837.922500", "160838.382500", "160838.842500", "160839.302500", "160839.762500", "160840.222500", "160840.682500", "160841.142500", "160841.602500", "160842.062500", "160842.522500", "160842.982500", "160843.442500", "160843.902500", "160844.362500", "160844.822500", "160845.282500", "160845.742500", "160846.202500", "160846.662500", "160847.122500", "160847.582500", "160848.042500", "160848.502500", "160848.962500", "160849.422500", "160849.882500", "160850.342500", "160850.802500", "160851.262500", "160851.722500", "160852.182500", "160852.642500", "160853.102500", "160853.562500", "160854.022500", "160854.482500", "160854.942500", "160855.402500", "160855.862500", "160856.322500", "160856.782500", "160857.242500", "160857.702500", "160858.162500", "160858.622500", "160859.082500", "160859.542500", "160900.002500", "160900.462500", "160900.922500", "160901.382500", "160901.842500", "160902.302500", "160902.762500", "160903.222500", "160903.682500", "160904.142500", "160904.602500", "160905.062500", "160905.522500", "160905.982500", "160906.442500", "160906.902500", "160907.362500", "160907.822500", "160908.282500", "160908.742500", "160909.202500", "160909.662500", "160910.122500", "160910.582500", "160911.042500", "160911.502500", "160911.962500", "160912.422500", "160912.882500", "160913.342500", "160913.802500", "160914.262500", "160914.722500", "160915.182500", "160915.642500", "160916.102500", "160916.562500", "160917.022500", "160917.482500", "160917.942500", "160918.402500", "160918.862500", "160919.322500", "160919.782500", "160920.242500", "160920.702500", "160921.162500", "160921.622500", "160922.082500", "160922.542500", "160923.002500", "160923.462500", "160923.922500", "160924.382500", "160924.842500", "160925.302500", "160925.762500", "160926.222500", "160926.682500", "160927.142500", "160927.602500", "160928.062500", "160928.522500", "160928.982500", "160929.442500", "160929.902500", "160930.362500", "160930.822500", "160931.282500", "160931.742500", "160932.202500", "160932.662500", "160933.122500", "160933.582500", "160934.042500", "160934.502500", "160934.962500", "160935.422500", "160935.882500", "160936.342500", "160936.802500", "160937.262500", "160937.722500", "160938.182500", "160938.642500", "160939.102500", "160939.562500", "160940.022500", "160940.482500", "160940.942500", "160941.402500", "160941.862500", "160942.322500", "160942.782500", "160943.242500", "160943.702500", "160944.162500", "160944.622500", "160945.082500", "160945.542500", "160946.002500", "160946.462500", "160946.922500", "160947.382500", "160947.842500", "160948.302500", "160948.762500", "160949.222500", "160949.682500", "160950.142500", "160950.602500", "160951.062500", "160951.522500", "160951.982500", "160952.442500", "160952.902500", "160953.362500", "160953.822500", "160954.282500", "160954.742500", "160955.202500", "160955.662500", "160956.122500", "160956.582500", "160957.042500", "160957.502500", "160957.962500", "160958.422500", "160958.882500", "160959.342500", "160959.802500", "161000.262500", "161000.722500", "161001.182500", "161001.642500", "161002.102500", "161002.562500", "161003.022500", "161003.482500", "161003.942500", "161004.402500", "161004.862500", "161005.322500", "161005.782500", "161006.242500", "161006.702500", "161007.162500", "161007.622500", "161008.082500", "161008.542500", "161009.002500", "161009.462500", "161009.922500", "161010.382500", "161010.842500", "161011.302500", "161011.762500", "161012.222500", "161012.682500", "161013.142500", "161013.602500", "161014.062500", "161014.522500", "161014.982500", "161015.442500", "161015.902500", "161016.362500", "161016.822500", "161017.282500", "161017.742500", "161018.202500", "161018.662500", "161019.122500", "161019.582500", "161020.042500", "161020.502500", "161020.962500", "161021.422500", "161021.882500", "161022.342500", "161022.802500", "161023.262500", "161023.722500", "161024.182500", "161024.642500", "161025.102500", "161025.562500", "161026.022500", "161026.482500", "161026.942500", "161027.402500", "161027.862500", "161028.322500", "161028.782500", "161029.242500", "161029.702500", "161030.162500", "161030.622500", "161031.082500", "161031.542500", "161032.002500", "161032.462500", "161032.922500", "161033.382500", "161033.842500", "161034.302500", "161034.762500", "161035.222500", "161035.682500", "161036.142500", "161036.602500", "161037.062500", "161037.522500", "161037.982500", "161038.442500", "161038.902500", "161039.362500", "161039.822500", "161040.282500", "161040.742500", "161041.202500", "161041.662500", "161042.122500", "161042.582500", "161043.042500", "161043.502500", "161043.962500", "161044.422500", "161044.882500", "161045.342500", "161045.802500", "161046.262500", "161046.722500", "161047.182500", "161047.642500", "161048.102500", "161048.562500", "161049.022500", "161049.482500", "161049.942500", "161050.402500", "161050.862500", "161051.322500", "161051.782500", "161052.242500", "161052.702500", "161053.162500", "161053.622500", "161054.082500", "161054.542500", "161055.002500", "161055.462500", "161055.922500", "161056.382500", "161056.842500", "161057.302500", "161057.762500", "161058.222500", "161058.682500", "161059.142500", "161059.602500", "161100.062500", "161100.522500", "161100.982500", "161101.442500", "161101.902500", "161102.362500", "161102.822500", "161103.282500", "161103.742500", "161104.202500", "161104.662500", "161105.122500", "161105.582500", "161106.042500", "161106.502500", "161106.962500", "161107.422500", "161107.882500", "161108.342500", "161108.802500", "161109.262500", "161109.722500", "161110.182500", "161110.642500", "161111.102500", "161111.562500", "161112.022500", "161112.482500", "161112.942500", "161113.402500", "161113.862500", "161114.322500", "161114.782500", "161115.242500", "161115.702500", "161116.162500", "161116.622500", "161117.082500", "161117.542500", "161118.002500", "161118.462500", "161118.922500", "161119.382500", "161119.842500"],
