{
  "AcquisitionMatrixPE": 82,
  "AcquisitionNumber": 1,
  "AcquisitionTime": "15:36:55.160000",
  "BandwidthPerPixelPhaseEncode": 24.888,
  "BaseResolution": 82,
  "BodyPartExamined": "BRAIN",
  "ConsistencyInfo": "N4_VE11C_LATEST_20160120",
  "ConversionSoftware": "dcm2niix",
  "ConversionSoftwareVersion": "v1.0.20201102",
  "DerivedVendorReportedEchoSpacing": 0.00049,
  "DeviceSerialNumber": "66112",
  "DwellTime": 2e-06,
  "EchoTime": 0.0272,
  "EchoTrainLength": 82,
  "EffectiveEchoSpacing": 0.00049,
  "FlipAngle": 44,
  "ImageComments": "Unaliased MB8/PE3",
  "ImageOrientationPatientDICOM": [0.991932, -0.126743, -0.0027433, 0.126366, 0.986781, 0.101461],
  "ImageType": [
    "ORIGINAL",
    "PRIMARY",
    "M",
    "MB",
    "ND",
    "NORM",
    "MOSAIC"
],
  "ImagingFrequency": 123.252,
  "InPlanePhaseEncodingDirectionDICOM": "COL",
  "InstitutionAddress": "Maynard 3,Hanover,NH,US,03755",
  "InstitutionName": "Dartmouth College - PBS",
  "InstitutionalDepartmentName": "Department",
  "MRAcquisitionType": "2D",
  "MagneticFieldStrength": 3,
  "Manufacturer": "Siemens",
  "ManufacturersModelName": "Prisma",
  "Modality": "MR",
  "MultibandAccelerationFactor": 8,
  "PartialFourier": 1,
  "PatientPosition": "HFS",
  "PercentPhaseFOV": 100,
  "PercentSampling": 100,
  "PhaseEncodingDirection": "j-",
  "PhaseEncodingSteps": 82,
  "PhaseResolution": 1,
  "PixelBandwidth": 3050,
  "ProcedureStepDescription": "Wager_Wager^1076_spacetop",
  "ProtocolName": "func_run-01_task-social_acq-ap-mb8",
  "PulseSequenceDetails": "%CustomerSeq%\\cmrr_mbep2d_bold",
  "ReceiveCoilActiveElements": "HEA;HEP",
  "ReceiveCoilName": "Head_32",
  "ReconMatrixPE": 82,
  "RepetitionTime": 0.46,
  "SAR": 0.0869479,
  "ScanOptions": "FS",
  "ScanningSequence": "EP",
  "SequenceName": "epfid2d1_82",
  "SequenceVariant": "SK\\SS",
  "SeriesDescription": "func_run-01_task-social_acq-ap-mb8",
  "SeriesNumber": 8,
  "ShimSetting": [4137, -7777, -7358, 442, -78, -200, -59, 87],
  "SliceThickness": 2.7,
  "SliceTiming": [0, 0.25, 0.0625, 0.3125, 0.125, 0.3775, 0.1875, 0, 0.25, 0.0625, 0.3125, 0.125, 0.3775, 0.1875, 0, 0.25, 0.0625, 0.3125, 0.125, 0.3775, 0.1875, 0, 0.25, 0.0625, 0.3125, 0.125, 0.3775, 0.1875, 0, 0.25, 0.0625, 0.3125, 0.125, 0.3775, 0.1875, 0, 0.25, 0.0625, 0.3125, 0.125, 0.3775, 0.1875, 0, 0.25, 0.0625, 0.3125, 0.125, 0.3775, 0.1875, 0, 0.25, 0.0625, 0.3125, 0.125, 0.3775, 0.1875],
  "SoftwareVersions": "syngo MR E11",
  "SpacingBetweenSlices": 2.7,
  "StationName": "AWP66112",
  "TaskName": "social",
  "TotalReadoutTime": 0.03969,
  "TxRefAmp": 238.723,
  "WipMemBlock": "d664598c-cd99-4895-bea9-b195c2e7ec90||Sequence: R016 ve11c/master r/e634e98; Dec 19 2017 11:00:25 by eja",
  "dcmmeta_affine": [
    [-2.661280393600464, 0.3390296995639801, 0.027411505579948425, 94.84638977050781],
    [0.34004247188568115, 2.6474621295928955, 0.27266979217529297, -113.75614166259766],
    [-0.007360085844993591, -0.27221179008483887, 2.686056613922119, -60.217525482177734],
    [0.0, 0.0, 0.0, 1.0]
],
  "dcmmeta_reorient_transform": [
    [0.0, -1.0, 0.0, 81.0],
    [1.0, 0.0, 0.0, 0.0],
    [0.0, 0.0, 1.0, 0.0],
    [0.0, 0.0, 0.0, 1.0]
],
  "dcmmeta_shape": [82, 82, 56, 872],
  "dcmmeta_slice_dim": 2,
  "dcmmeta_version": 0.6,
  "global": {
    "const": {
      "AccessionNumber": "A003838",
      "AcquisitionMatrix": [82, 0, 0, 82],
      "AngioFlag": "N",
      "BitsAllocated": 16,
      "BitsStored": 16,
      "BodyPartExamined": "BRAIN",
      "Columns": 656,
      "EchoNumbers": 1,
      "EchoTime": 27.2,
      "EchoTrainLength": 82,
      "FlipAngle": 44.0,
      "HighBit": 15,
      "ImageOrientationPatient": [0.99193178193726, -0.1267431034117, -0.0027433046404, 0.1263656146608, 0.98678135689714, 0.1014607565103],
      "ImagePositionPatient": [-983.39680907776, -762.91776705284, -158.27912033683],
      "ImageType": [
        "ORIGINAL",
        "PRIMARY",
        "M",
        "MB",
        "ND",
        "NORM",
        "MOSAIC"
],
      "ImagedNucleus": "1H",
      "ImagingFrequency": 123.252278,
      "InPlanePhaseEncodingDirection": "COL",
      "MRAcquisitionType": "2D",
      "MagneticFieldStrength": 3.0,
      "Manufacturer": "SIEMENS",
      "ManufacturerModelName": "Prisma",
      "Modality": "MR",
      "NumberOfAverages": 1.0,
      "NumberOfPhaseEncodingSteps": 82,
      "PercentPhaseFieldOfView": 100.0,
      "PercentSampling": 100.0,
      "PerformedProcedureStepStartTime": "151146.691000",
      "PhotometricInterpretation": "MONOCHROME2",
      "PixelBandwidth": 3050.0,
      "PixelRepresentation": 0,
      "PixelSpacing": [2.6829268932343, 2.6829268932343],
      "ProtocolName": "func_run-01_task-social_acq-ap-mb8",
      "RepetitionTime": 460.0,
      "Rows": 656,
      "SAR": 0.08694784988561,
      "SamplesPerPixel": 1,
      "ScanOptions": "FS",
      "ScanningSequence": "EP",
      "SequenceName": "epfid2d1_82",
      "SequenceVariant": [
        "SK",
        "SS"
],
      "SeriesDescription": "func_run-01_task-social_acq-ap-mb8",
      "SeriesNumber": 8,
      "SeriesTime": "153720.403000",
      "SliceLocation": -70.431725880482,
      "SliceThickness": 2.7000000476837,
      "SmallestImagePixelValue": 0,
      "SoftwareVersions": "syngo MR E11",
      "SpacingBetweenSlices": 2.6999999688273,
      "SpecificCharacterSet": "ISO_IR 100",
      "StudyID": "1",
      "StudyTime": "151146.635000",
      "TransmitCoilName": "Body",
      "VariableFlipAngleFlag": "N",
      "WindowCenterWidthExplanation": "Algo1",
      "dBdt": 0.0},
    "slices": {}
  },
  "time": {
    "samples": {
      "AcquisitionNumber": [1, 2, 3, 4, 5, 6, 7, 8, 9, 10, 11, 12, 13, 14, 15, 16, 17, 18, 19, 20, 21, 22, 23, 24, 25, 26, 27, 28, 29, 30, 31, 32, 33, 34, 35, 36, 37, 38, 39, 40, 41, 42, 43, 44, 45, 46, 47, 48, 49, 50, 51, 52, 53, 54, 55, 56, 57, 58, 59, 60, 61, 62, 63, 64, 65, 66, 67, 68, 69, 70, 71, 72, 73, 74, 75, 76, 77, 78, 79, 80, 81, 82, 83, 84, 85, 86, 87, 88, 89, 90, 91, 92, 93, 94, 95, 96, 97, 98, 99, 100, 101, 102, 103, 104, 105, 106, 107, 108, 109, 110, 111, 112, 113, 114, 115, 116, 117, 118, 119, 120, 121, 122, 123, 124, 125, 126, 127, 128, 129, 130, 131, 132, 133, 134, 135, 136, 137, 138, 139, 140, 141, 142, 143, 144, 145, 146, 147, 148, 149, 150, 151, 152, 153, 154, 155, 156, 157, 158, 159, 160, 161, 162, 163, 164, 165, 166, 167, 168, 169, 170, 171, 172, 173, 174, 175, 176, 177, 178, 179, 180, 181, 182, 183, 184, 185, 186, 187, 188, 189, 190, 191, 192, 193, 194, 195, 196, 197, 198, 199, 200, 201, 202, 203, 204, 205, 206, 207, 208, 209, 210, 211, 212, 213, 214, 215, 216, 217, 218, 219, 220, 221, 222, 223, 224, 225, 226, 227, 228, 229, 230, 231, 232, 233, 234, 235, 236, 237, 238, 239, 240, 241, 242, 243, 244, 245, 246, 247, 248, 249, 250, 251, 252, 253, 254, 255, 256, 257, 258, 259, 260, 261, 262, 263, 264, 265, 266, 267, 268, 269, 270, 271, 272, 273, 274, 275, 276, 277, 278, 279, 280, 281, 282, 283, 284, 285, 286, 287, 288, 289, 290, 291, 292, 293, 294, 295, 296, 297, 298, 299, 300, 301, 302, 303, 304, 305, 306, 307, 308, 309, 310, 311, 312, 313, 314, 315, 316, 317, 318, 319, 320, 321, 322, 323, 324, 325, 326, 327, 328, 329, 330, 331, 332, 333, 334, 335, 336, 337, 338, 339, 340, 341, 342, 343, 344, 345, 346, 347, 348, 349, 350, 351, 352, 353, 354, 355, 356, 357, 358, 359, 360, 361, 362, 363, 364, 365, 366, 367, 368, 369, 370, 371, 372, 373, 374, 375, 376, 377, 378, 379, 380, 381, 382, 383, 384, 385, 386, 387, 388, 389, 390, 391, 392, 393, 394, 395, 396, 397, 398, 399, 400, 401, 402, 403, 404, 405, 406, 407, 408, 409, 410, 411, 412, 413, 414, 415, 416, 417, 418, 419, 420, 421, 422, 423, 424, 425, 426, 427, 428, 429, 430, 431, 432, 433, 434, 435, 436, 437, 438, 439, 440, 441, 442, 443, 444, 445, 446, 447, 448, 449, 450, 451, 452, 453, 454, 455, 456, 457, 458, 459, 460, 461, 462, 463, 464, 465, 466, 467, 468, 469, 470, 471, 472, 473, 474, 475, 476, 477, 478, 479, 480, 481, 482, 483, 484, 485, 486, 487, 488, 489, 490, 491, 492, 493, 494, 495, 496, 497, 498, 499, 500, 501, 502, 503, 504, 505, 506, 507, 508, 509, 510, 511, 512, 513, 514, 515, 516, 517, 518, 519, 520, 521, 522, 523, 524, 525, 526, 527, 528, 529, 530, 531, 532, 533, 534, 535, 536, 537, 538, 539, 540, 541, 542, 543, 544, 545, 546, 547, 548, 549, 550, 551, 552, 553, 554, 555, 556, 557, 558, 559, 560, 561, 562, 563, 564, 565, 566, 567, 568, 569, 570, 571, 572, 573, 574, 575, 576, 577, 578, 579, 580, 581, 582, 583, 584, 585, 586, 587, 588, 589, 590, 591, 592, 593, 594, 595, 596, 597, 598, 599, 600, 601, 602, 603, 604, 605, 606, 607, 608, 609, 610, 611, 612, 613, 614, 615, 616, 617, 618, 619, 620, 621, 622, 623, 624, 625, 626, 627, 628, 629, 630, 631, 632, 633, 634, 635, 636, 637, 638, 639, 640, 641, 642, 643, 644, 645, 646, 647, 648, 649, 650, 651, 652, 653, 654, 655, 656, 657, 658, 659, 660, 661, 662, 663, 664, 665, 666, 667, 668, 669, 670, 671, 672, 673, 674, 675, 676, 677, 678, 679, 680, 681, 682, 683, 684, 685, 686, 687, 688, 689, 690, 691, 692, 693, 694, 695, 696, 697, 698, 699, 700, 701, 702, 703, 704, 705, 706, 707, 708, 709, 710, 711, 712, 713, 714, 715, 716, 717, 718, 719, 720, 721, 722, 723, 724, 725, 726, 727, 728, 729, 730, 731, 732, 733, 734, 735, 736, 737, 738, 739, 740, 741, 742, 743, 744, 745, 746, 747, 748, 749, 750, 751, 752, 753, 754, 755, 756, 757, 758, 759, 760, 761, 762, 763, 764, 765, 766, 767, 768, 769, 770, 771, 772, 773, 774, 775, 776, 777, 778, 779, 780, 781, 782, 783, 784, 785, 786, 787, 788, 789, 790, 791, 792, 793, 794, 795, 796, 797, 798, 799, 800, 801, 802, 803, 804, 805, 806, 807, 808, 809, 810, 811, 812, 813, 814, 815, 816, 817, 818, 819, 820, 821, 822, 823, 824, 825, 826, 827, 828, 829, 830, 831, 832, 833, 834, 835, 836, 837, 838, 839, 840, 841, 842, 843, 844, 845, 846, 847, 848, 849, 850, 851, 852, 853, 854, 855, 856, 857, 858, 859, 860, 861, 862, 863, 864, 865, 866, 867, 868, 869, 870, 871, 872],
      "AcquisitionTime": ["153655.160000", "153655.620000", "153656.080000", "153656.540000", "153657.000000", "153657.460000", "153657.920000", "153658.380000", "153658.840000", "153659.300000", "153659.760000", "153700.220000", "153700.680000", "153701.140000", "153701.600000", "153702.060000", "153702.520000", "153702.980000", "153703.440000", "153703.900000", "153704.360000", "153704.820000", "153705.280000", "153705.740000", "153706.200000", "153706.660000", "153707.120000", "153707.580000", "153708.040000", "153708.500000", "153708.960000", "153709.420000", "153709.880000", "153710.340000", "153710.800000", "153711.260000", "153711.720000", "153712.180000", "153712.640000", "153713.100000", "153713.560000", "153714.020000", "153714.480000", "153714.940000", "153715.400000", "153715.860000", "153716.320000", "153716.780000", "153717.240000", "153717.700000", "153718.160000", "153718.620000", "153719.080000", "153719.540000", "153720.000000", "153720.460000", "153720.920000", "153721.380000", "153721.840000", "153722.300000", "153722.760000", "153723.220000", "153723.680000", "153724.140000", "153724.600000", "153725.060000", "153725.520000", "153725.980000", "153726.440000", "153726.900000", "153727.360000", "153727.820000", "153728.280000", "153728.740000", "153729.200000", "153729.660000", "153730.120000", "153730.580000", "153731.040000", "153731.500000", "153731.960000", "153732.420000", "153732.880000", "153733.340000", "153733.800000", "153734.260000", "153734.720000", "153735.180000", "153735.640000", "153736.100000", "153736.560000", "153737.020000", "153737.480000", "153737.940000", "153738.400000", "153738.860000", "153739.320000", "153739.780000", "153740.240000", "153740.700000", "153741.160000", "153741.620000", "153742.080000", "153742.540000", "153743.000000", "153743.460000", "153743.920000", "153744.380000", "153744.840000", "153745.300000", "153745.760000", "153746.220000", "153746.680000", "153747.140000", "153747.600000", "153748.060000", "153748.520000", "153748.980000", "153749.440000", "153749.900000", "153750.360000", "153750.820000", "153751.280000", "153751.740000", "153752.200000", "153752.660000", "153753.120000", "153753.580000", "153754.040000", "153754.500000", "153754.960000", "153755.420000", "153755.880000", "153756.340000", "153756.800000", "153757.260000", "153757.720000", "153758.180000", "153758.640000", "153759.100000", "153759.560000", "153800.020000", "153800.480000", "153800.940000", "153801.400000", "153801.860000", "153802.320000", "153802.780000", "153803.240000", "153803.700000", "153804.160000", "153804.620000", "153805.080000", "153805.540000", "153806.000000", "153806.460000", "153806.920000", "153807.380000", "153807.840000", "153808.300000", "153808.760000", "153809.220000", "153809.680000", "153810.140000", "153810.600000", "153811.060000", "153811.520000", "153811.980000", "153812.440000", "153812.900000", "153813.360000", "153813.820000", "153814.280000", "153814.740000", "153815.200000", "153815.660000", "153816.120000", "153816.580000", "153817.040000", "153817.500000", "153817.960000", "153818.420000", "153818.880000", "153819.340000", "153819.800000", "153820.260000", "153820.720000", "153821.180000", "153821.640000", "153822.100000", "153822.560000", "153823.020000", "153823.480000", "153823.940000", "153824.400000", "153824.860000", "153825.320000", "153825.780000", "153826.240000", "153826.700000", "153827.160000", "153827.620000", "153828.080000", "153828.540000", "153829.000000", "153829.460000", "153829.920000", "153830.380000", "153830.840000", "153831.300000", "153831.760000", "153832.220000", "153832.680000", "153833.140000", "153833.600000", "153834.060000", "153834.520000", "153834.980000", "153835.440000", "153835.900000", "153836.360000", "153836.820000", "153837.280000", "153837.740000", "153838.200000", "153838.660000", "153839.120000", "153839.580000", "153840.040000", "153840.500000", "153840.960000", "153841.420000", "153841.880000", "153842.340000", "153842.800000", "153843.260000", "153843.720000", "153844.180000", "153844.640000", "153845.100000", "153845.560000", "153846.020000", "153846.480000", "153846.940000", "153847.400000", "153847.860000", "153848.320000", "153848.780000", "153849.240000", "153849.700000", "153850.160000", "153850.620000", "153851.080000", "153851.540000", "153852.000000", "153852.460000", "153852.920000", "153853.380000", "153853.840000", "153854.300000", "153854.760000", "153855.220000", "153855.680000", "153856.140000", "153856.600000", "153857.060000", "153857.520000", "153857.980000", "153858.440000", "153858.900000", "153859.360000", "153859.820000", "153900.280000", "153900.740000", "153901.200000", "153901.660000", "153902.120000", "153902.580000", "153903.040000", "153903.500000", "153903.960000", "153904.420000", "153904.880000", "153905.340000", "153905.800000", "153906.260000", "153906.720000", "153907.180000", "153907.640000", "153908.100000", "153908.560000", "153909.020000", "153909.480000", "153909.940000", "153910.400000", "153910.860000", "153911.320000", "153911.780000", "153912.240000", "153912.700000", "153913.160000", "153913.620000", "153914.080000", "153914.540000", "153915.000000", "153915.460000", "153915.920000", "153916.380000", "153916.840000", "153917.300000", "153917.760000", "153918.220000", "153918.680000", "153919.140000", "153919.600000", "153920.060000", "153920.520000", "153920.980000", "153921.440000", "153921.900000", "153922.360000", "153922.820000", "153923.280000", "153923.740000", "153924.200000", "153924.660000", "153925.120000", "153925.580000", "153926.040000", "153926.500000", "153926.960000", "153927.420000", "153927.880000", "153928.340000", "153928.800000", "153929.260000", "153929.720000", "153930.180000", "153930.640000", "153931.100000", "153931.560000", "153932.020000", "153932.480000", "153932.940000", "153933.400000", "153933.860000", "153934.320000", "153934.780000", "153935.240000", "153935.700000", "153936.160000", "153936.620000", "153937.080000", "153937.540000", "153938.000000", "153938.460000", "153938.920000", "153939.380000", "153939.840000", "153940.300000", "153940.760000", "153941.220000", "153941.680000", "153942.140000", "153942.600000", "153943.060000", "153943.520000", "153943.980000", "153944.440000", "153944.900000", "153945.360000", "153945.820000", "153946.280000", "153946.740000", "153947.200000", "153947.660000", "153948.120000", "153948.580000", "153949.040000", "153949.500000", "153949.960000", "153950.420000", "153950.880000", "153951.340000", "153951.800000", "153952.260000", "153952.720000", "153953.180000", "153953.640000", "153954.100000", "153954.560000", "153955.020000", "153955.480000", "153955.940000", "153956.400000", "153956.860000", "153957.320000", "153957.780000", "153958.240000", "153958.700000", "153959.160000", "153959.620000", "154000.080000", "154000.540000", "154001.000000", "154001.460000", "154001.920000", "154002.380000", "154002.840000", "154003.300000", "154003.760000", "154004.220000", "154004.680000", "154005.140000", "154005.600000", "154006.060000", "154006.520000", "154006.980000", "154007.440000", "154007.900000", "154008.360000", "154008.820000", "154009.280000", "154009.740000", "154010.200000", "154010.660000", "154011.120000", "154011.580000", "154012.040000", "154012.500000", "154012.960000", "154013.420000", "154013.880000", "154014.340000", "154014.800000", "154015.260000", "154015.720000", "154016.180000", "154016.640000", "154017.100000", "154017.560000", "154018.020000", "154018.480000", "154018.940000", "154019.400000", "154019.860000", "154020.320000", "154020.780000", "154021.240000", "154021.700000", "154022.160000", "154022.620000", "154023.080000", "154023.540000", "154024.000000", "154024.460000", "154024.920000", "154025.380000", "154025.840000", "154026.300000", "154026.760000", "154027.220000", "154027.680000", "154028.140000", "154028.600000", "154029.060000", "154029.520000", "154029.980000", "154030.440000", "154030.900000", "154031.360000", "154031.820000", "154032.280000", "154032.740000", "154033.200000", "154033.660000", "154034.120000", "154034.580000", "154035.040000", "154035.500000", "154035.960000", "154036.420000", "154036.880000", "154037.340000", "154037.800000", "154038.260000", "154038.720000", "154039.180000", "154039.640000", "154040.100000", "154040.560000", "154041.020000", "154041.480000", "154041.940000", "154042.400000", "154042.860000", "154043.320000", "154043.780000", "154044.240000", "154044.700000", "154045.160000", "154045.620000", "154046.080000", "154046.540000", "154047.000000", "154047.460000", "154047.920000", "154048.380000", "154048.840000", "154049.300000", "154049.760000", "154050.220000", "154050.680000", "154051.140000", "154051.600000", "154052.060000", "154052.520000", "154052.980000", "154053.440000", "154053.900000", "154054.360000", "154054.820000", "154055.280000", "154055.740000", "154056.200000", "154056.660000", "154057.120000", "154057.580000", "154058.040000", "154058.500000", "154058.960000", "154059.420000", "154059.880000", "154100.340000", "154100.800000", "154101.260000", "154101.720000", "154102.180000", "154102.640000", "154103.100000", "154103.560000", "154104.020000", "154104.480000", "154104.940000", "154105.400000", "154105.860000", "154106.320000", "154106.780000", "154107.240000", "154107.700000", "154108.160000", "154108.620000", "154109.080000", "154109.540000", "154110.000000", "154110.460000", "154110.920000", "154111.380000", "154111.840000", "154112.300000", "154112.760000", "154113.220000", "154113.680000", "154114.140000", "154114.600000", "154115.060000", "154115.520000", "154115.980000", "154116.440000", "154116.900000", "154117.360000", "154117.820000", "154118.280000", "154118.740000", "154119.200000", "154119.660000", "154120.120000", "154120.580000", "154121.040000", "154121.500000", "154121.960000", "154122.420000", "154122.880000", "154123.340000", "154123.800000", "154124.260000", "154124.720000", "154125.180000", "154125.640000", "154126.100000", "154126.560000", "154127.020000", "154127.480000", "154127.940000", "154128.400000", "154128.860000", "154129.320000", "154129.780000", "154130.240000", "154130.700000", "154131.160000", "154131.620000", "154132.080000", "154132.540000", "154133.000000", "154133.460000", "154133.920000", "154134.380000", "154134.840000", "154135.300000", "154135.760000", "154136.220000", "154136.680000", "154137.140000", "154137.600000", "154138.060000", "154138.520000", "154138.980000", "154139.440000", "154139.900000", "154140.360000", "154140.820000", "154141.280000", "154141.740000", "154142.200000", "154142.660000", "154143.120000", "154143.580000", "154144.040000", "154144.500000", "154144.960000", "154145.420000", "154145.880000", "154146.340000", "154146.800000", "154147.260000", "154147.720000", "154148.180000", "154148.640000", "154149.100000", "154149.560000", "154150.020000", "154150.480000", "154150.940000", "154151.400000", "154151.860000", "154152.320000", "154152.780000", "154153.240000", "154153.700000", "154154.160000", "154154.620000", "154155.080000", "154155.540000", "154156.000000", "154156.460000", "154156.920000", "154157.380000", "154157.840000", "154158.300000", "154158.760000", "154159.220000", "154159.680000", "154200.140000", "154200.600000", "154201.060000", "154201.520000", "154201.980000", "154202.440000", "154202.900000", "154203.360000", "154203.820000", "154204.280000", "154204.740000", "154205.200000", "154205.660000", "154206.120000", "154206.580000", "154207.040000", "154207.500000", "154207.960000", "154208.420000", "154208.880000", "154209.340000", "154209.800000", "154210.260000", "154210.720000", "154211.180000", "154211.640000", "154212.100000", "154212.560000", "154213.020000", "154213.480000", "154213.940000", "154214.400000", "154214.860000", "154215.320000", "154215.780000", "154216.240000", "154216.700000", "154217.160000", "154217.620000", "154218.080000", "154218.540000", "154219.000000", "154219.460000", "154219.920000", "154220.380000", "154220.840000", "154221.300000", "154221.760000", "154222.220000", "154222.680000", "154223.140000", "154223.600000", "154224.060000", "154224.520000", "154224.980000", "154225.440000", "154225.900000", "154226.360000", "154226.820000", "154227.280000", "154227.740000", "154228.200000", "154228.660000", "154229.120000", "154229.580000", "154230.040000", "154230.500000", "154230.960000", "154231.420000", "154231.880000", "154232.340000", "154232.800000", "154233.260000", "154233.720000", "154234.180000", "154234.640000", "154235.100000", "154235.560000", "154236.020000", "154236.480000", "154236.940000", "154237.400000", "154237.860000", "154238.320000", "154238.780000", "154239.240000", "154239.700000", "154240.160000", "154240.620000", "154241.080000", "154241.540000", "154242.000000", "154242.460000", "154242.920000", "154243.380000", "154243.840000", "154244.300000", "154244.760000", "154245.220000", "154245.680000", "154246.140000", "154246.600000", "154247.060000", "154247.520000", "154247.980000", "154248.440000", "154248.900000", "154249.360000", "154249.820000", "154250.280000", "154250.740000", "154251.200000", "154251.660000", "154252.120000", "154252.580000", "154253.040000", "154253.500000", "154253.960000", "154254.420000", "154254.880000", "154255.340000", "154255.800000", "154256.260000", "154256.720000", "154257.180000", "154257.640000", "154258.100000", "154258.560000", "154259.020000", "154259.480000", "154259.940000", "154300.400000", "154300.860000", "154301.320000", "154301.780000", "154302.240000", "154302.700000", "154303.160000", "154303.620000", "154304.080000", "154304.540000", "154305.000000", "154305.460000", "154305.920000", "154306.380000", "154306.840000", "154307.300000", "154307.760000", "154308.220000", "154308.680000", "154309.140000", "154309.600000", "154310.060000", "154310.520000", "154310.980000", "154311.440000", "154311.900000", "154312.360000", "154312.820000", "154313.280000", "154313.740000", "154314.200000", "154314.660000", "154315.120000", "154315.580000", "154316.040000", "154316.500000", "154316.960000", "154317.420000", "154317.880000", "154318.340000", "154318.800000", "154319.260000", "154319.720000", "154320.180000", "154320.640000", "154321.100000", "154321.560000", "154322.020000", "154322.480000", "154322.940000", "154323.400000", "154323.860000", "154324.320000", "154324.780000", "154325.240000", "154325.700000", "154326.160000", "154326.620000", "154327.080000", "154327.540000", "154328.000000", "154328.460000", "154328.920000", "154329.380000", "154329.840000", "154330.300000", "154330.760000", "154331.220000", "154331.680000", "154332.140000", "154332.600000", "154333.060000", "154333.520000", "154333.980000", "154334.440000", "154334.900000", "154335.360000", "154335.820000"],
