{
  "AcquisitionMatrixPE": 82,
  "AcquisitionNumber": 1,
  "AcquisitionTime": "15:57:38.570000",
  "BandwidthPerPixelPhaseEncode": 24.888,
  "BaseResolution": 82,
  "BodyPartExamined": "BRAIN",
  "ConsistencyInfo": "N4_VE11C_LATEST_20160120",
  "ConversionSoftware": "dcm2niix",
  "ConversionSoftwareVersion": "v1.0.20201102",
  "DerivedVendorReportedEchoSpacing": 0.00049,
  "DeviceSerialNumber": "66112",
  "DwellTime": 2e-06,
  "EchoTime": 0.0272,
  "EchoTrainLength": 82,
  "EffectiveEchoSpacing": 0.00049,
  "FlipAngle": 44,
  "ImageComments": "Unaliased MB8/PE3",
  "ImageOrientationPatientDICOM": [0.991932, -0.126743, -0.0027433, 0.126366, 0.986781, 0.101461],
  "ImageType": [
    "ORIGINAL",
    "PRIMARY",
    "M",
    "MB",
    "ND",
    "NORM",
    "MOSAIC"
],
  "ImagingFrequency": 123.252,
  "InPlanePhaseEncodingDirectionDICOM": "COL",
  "InstitutionAddress": "Maynard 3,Hanover,NH,US,03755",
  "InstitutionName": "Dartmouth College - PBS",
  "InstitutionalDepartmentName": "Department",
  "MRAcquisitionType": "2D",
  "MagneticFieldStrength": 3,
  "Manufacturer": "Siemens",
  "ManufacturersModelName": "Prisma",
  "Modality": "MR",
  "MultibandAccelerationFactor": 8,
  "PartialFourier": 1,
  "PatientPosition": "HFS",
  "PercentPhaseFOV": 100,
  "PercentSampling": 100,
  "PhaseEncodingDirection": "j-",
  "PhaseEncodingSteps": 82,
  "PhaseResolution": 1,
  "PixelBandwidth": 3050,
  "ProcedureStepDescription": "Wager_Wager^1076_spacetop",
  "ProtocolName": "func_run-03_task-social_acq-ap-mb8",
  "PulseSequenceDetails": "%CustomerSeq%\\cmrr_mbep2d_bold",
  "ReceiveCoilActiveElements": "HEA;HEP",
  "ReceiveCoilName": "Head_32",
  "ReconMatrixPE": 82,
  "RepetitionTime": 0.46,
  "SAR": 0.0869479,
  "ScanOptions": "FS",
  "ScanningSequence": "EP",
  "SequenceName": "epfid2d1_82",
  "SequenceVariant": "SK\\SS",
  "SeriesDescription": "func_run-03_task-social_acq-ap-mb8",
  "SeriesNumber": 14,
  "ShimSetting": [4137, -7777, -7358, 442, -78, -200, -59, 87],
  "SliceThickness": 2.7,
  "SliceTiming": [0, 0.2525, 0.065, 0.315, 0.1275, 0.3775, 0.19, 0, 0.2525, 0.065, 0.315, 0.1275, 0.3775, 0.19, 0, 0.2525, 0.065, 0.315, 0.1275, 0.3775, 0.19, 0, 0.2525, 0.065, 0.315, 0.1275, 0.3775, 0.19, 0, 0.2525, 0.065, 0.315, 0.1275, 0.3775, 0.19, 0, 0.2525, 0.065, 0.315, 0.1275, 0.3775, 0.19, 0, 0.2525, 0.065, 0.315, 0.1275, 0.3775, 0.19, 0, 0.2525, 0.065, 0.315, 0.1275, 0.3775, 0.19],
  "SoftwareVersions": "syngo MR E11",
  "SpacingBetweenSlices": 2.7,
  "StationName": "AWP66112",
  "TaskName": "social",
  "TotalReadoutTime": 0.03969,
  "TxRefAmp": 238.723,
  "WipMemBlock": "f038a40d-02d2-4dec-a1f6-ed3c78e6b4f0||Sequence: R016 ve11c/master r/e634e98; Dec 19 2017 11:00:25 by eja",
  "dcmmeta_affine": [
    [-2.661280393600464, 0.3390296995639801, 0.027411505579948425, 94.84638977050781],
    [0.34004247188568115, 2.6474621295928955, 0.27266979217529297, -113.75614166259766],
    [-0.007360085844993591, -0.27221179008483887, 2.686056613922119, -60.217525482177734],
    [0.0, 0.0, 0.0, 1.0]
],
  "dcmmeta_reorient_transform": [
    [0.0, -1.0, 0.0, 81.0],
    [1.0, 0.0, 0.0, 0.0],
    [0.0, 0.0, 1.0, 0.0],
    [0.0, 0.0, 0.0, 1.0]
],
  "dcmmeta_shape": [82, 82, 56, 872],
  "dcmmeta_slice_dim": 2,
  "dcmmeta_version": 0.6,
  "global": {
    "const": {
      "AccessionNumber": "A003838",
      "AcquisitionMatrix": [82, 0, 0, 82],
      "AngioFlag": "N",
      "BitsAllocated": 16,
      "BitsStored": 16,
      "BodyPartExamined": "BRAIN",
      "Columns": 656,
      "EchoNumbers": 1,
      "EchoTime": 27.2,
      "EchoTrainLength": 82,
      "FlipAngle": 44.0,
      "HighBit": 15,
      "ImageOrientationPatient": [0.99193178193726, -0.1267431034117, -0.0027433046404, 0.1263656146608, 0.98678135689714, 0.1014607565103],
      "ImagePositionPatient": [-983.39680907776, -762.91776705284, -158.27912033683],
      "ImageType": [
        "ORIGINAL",
        "PRIMARY",
        "M",
        "MB",
        "ND",
        "NORM",
        "MOSAIC"
],
      "ImagedNucleus": "1H",
      "ImagingFrequency": 123.252283,
      "InPlanePhaseEncodingDirection": "COL",
      "MRAcquisitionType": "2D",
      "MagneticFieldStrength": 3.0,
      "Manufacturer": "SIEMENS",
      "ManufacturerModelName": "Prisma",
      "Modality": "MR",
      "NumberOfAverages": 1.0,
      "NumberOfPhaseEncodingSteps": 82,
      "PercentPhaseFieldOfView": 100.0,
      "PercentSampling": 100.0,
      "PerformedProcedureStepStartTime": "151146.691000",
      "PhotometricInterpretation": "MONOCHROME2",
      "PixelBandwidth": 3050.0,
      "PixelRepresentation": 0,
      "PixelSpacing": [2.6829268932343, 2.6829268932343],
      "ProtocolName": "func_run-03_task-social_acq-ap-mb8",
      "RepetitionTime": 460.0,
      "Rows": 656,
      "SAR": 0.08694784988561,
      "SamplesPerPixel": 1,
      "ScanOptions": "FS",
      "ScanningSequence": "EP",
      "SequenceName": "epfid2d1_82",
      "SequenceVariant": [
        "SK",
        "SS"
],
      "SeriesDescription": "func_run-03_task-social_acq-ap-mb8",
      "SeriesNumber": 14,
      "SeriesTime": "155800.409000",
      "SliceLocation": -70.431725880482,
      "SliceThickness": 2.7000000476837,
      "SmallestImagePixelValue": 0,
      "SoftwareVersions": "syngo MR E11",
      "SpacingBetweenSlices": 2.6999999688273,
      "SpecificCharacterSet": "ISO_IR 100",
      "StudyID": "1",
      "StudyTime": "151146.635000",
      "TransmitCoilName": "Body",
      "VariableFlipAngleFlag": "N",
      "WindowCenterWidthExplanation": "Algo1",
      "dBdt": 0.0},
    "slices": {}
  },
  "time": {
    "samples": {
      "AcquisitionNumber": [1, 2, 3, 4, 5, 6, 7, 8, 9, 10, 11, 12, 13, 14, 15, 16, 17, 18, 19, 20, 21, 22, 23, 24, 25, 26, 27, 28, 29, 30, 31, 32, 33, 34, 35, 36, 37, 38, 39, 40, 41, 42, 43, 44, 45, 46, 47, 48, 49, 50, 51, 52, 53, 54, 55, 56, 57, 58, 59, 60, 61, 62, 63, 64, 65, 66, 67, 68, 69, 70, 71, 72, 73, 74, 75, 76, 77, 78, 79, 80, 81, 82, 83, 84, 85, 86, 87, 88, 89, 90, 91, 92, 93, 94, 95, 96, 97, 98, 99, 100, 101, 102, 103, 104, 105, 106, 107, 108, 109, 110, 111, 112, 113, 114, 115, 116, 117, 118, 119, 120, 121, 122, 123, 124, 125, 126, 127, 128, 129, 130, 131, 132, 133, 134, 135, 136, 137, 138, 139, 140, 141, 142, 143, 144, 145, 146, 147, 148, 149, 150, 151, 152, 153, 154, 155, 156, 157, 158, 159, 160, 161, 162, 163, 164, 165, 166, 167, 168, 169, 170, 171, 172, 173, 174, 175, 176, 177, 178, 179, 180, 181, 182, 183, 184, 185, 186, 187, 188, 189, 190, 191, 192, 193, 194, 195, 196, 197, 198, 199, 200, 201, 202, 203, 204, 205, 206, 207, 208, 209, 210, 211, 212, 213, 214, 215, 216, 217, 218, 219, 220, 221, 222, 223, 224, 225, 226, 227, 228, 229, 230, 231, 232, 233, 234, 235, 236, 237, 238, 239, 240, 241, 242, 243, 244, 245, 246, 247, 248, 249, 250, 251, 252, 253, 254, 255, 256, 257, 258, 259, 260, 261, 262, 263, 264, 265, 266, 267, 268, 269, 270, 271, 272, 273, 274, 275, 276, 277, 278, 279, 280, 281, 282, 283, 284, 285, 286, 287, 288, 289, 290, 291, 292, 293, 294, 295, 296, 297, 298, 299, 300, 301, 302, 303, 304, 305, 306, 307, 308, 309, 310, 311, 312, 313, 314, 315, 316, 317, 318, 319, 320, 321, 322, 323, 324, 325, 326, 327, 328, 329, 330, 331, 332, 333, 334, 335, 336, 337, 338, 339, 340, 341, 342, 343, 344, 345, 346, 347, 348, 349, 350, 351, 352, 353, 354, 355, 356, 357, 358, 359, 360, 361, 362, 363, 364, 365, 366, 367, 368, 369, 370, 371, 372, 373, 374, 375, 376, 377, 378, 379, 380, 381, 382, 383, 384, 385, 386, 387, 388, 389, 390, 391, 392, 393, 394, 395, 396, 397, 398, 399, 400, 401, 402, 403, 404, 405, 406, 407, 408, 409, 410, 411, 412, 413, 414, 415, 416, 417, 418, 419, 420, 421, 422, 423, 424, 425, 426, 427, 428, 429, 430, 431, 432, 433, 434, 435, 436, 437, 438, 439, 440, 441, 442, 443, 444, 445, 446, 447, 448, 449, 450, 451, 452, 453, 454, 455, 456, 457, 458, 459, 460, 461, 462, 463, 464, 465, 466, 467, 468, 469, 470, 471, 472, 473, 474, 475, 476, 477, 478, 479, 480, 481, 482, 483, 484, 485, 486, 487, 488, 489, 490, 491, 492, 493, 494, 495, 496, 497, 498, 499, 500, 501, 502, 503, 504, 505, 506, 507, 508, 509, 510, 511, 512, 513, 514, 515, 516, 517, 518, 519, 520, 521, 522, 523, 524, 525, 526, 527, 528, 529, 530, 531, 532, 533, 534, 535, 536, 537, 538, 539, 540, 541, 542, 543, 544, 545, 546, 547, 548, 549, 550, 551, 552, 553, 554, 555, 556, 557, 558, 559, 560, 561, 562, 563, 564, 565, 566, 567, 568, 569, 570, 571, 572, 573, 574, 575, 576, 577, 578, 579, 580, 581, 582, 583, 584, 585, 586, 587, 588, 589, 590, 591, 592, 593, 594, 595, 596, 597, 598, 599, 600, 601, 602, 603, 604, 605, 606, 607, 608, 609, 610, 611, 612, 613, 614, 615, 616, 617, 618, 619, 620, 621, 622, 623, 624, 625, 626, 627, 628, 629, 630, 631, 632, 633, 634, 635, 636, 637, 638, 639, 640, 641, 642, 643, 644, 645, 646, 647, 648, 649, 650, 651, 652, 653, 654, 655, 656, 657, 658, 659, 660, 661, 662, 663, 664, 665, 666, 667, 668, 669, 670, 671, 672, 673, 674, 675, 676, 677, 678, 679, 680, 681, 682, 683, 684, 685, 686, 687, 688, 689, 690, 691, 692, 693, 694, 695, 696, 697, 698, 699, 700, 701, 702, 703, 704, 705, 706, 707, 708, 709, 710, 711, 712, 713, 714, 715, 716, 717, 718, 719, 720, 721, 722, 723, 724, 725, 726, 727, 728, 729, 730, 731, 732, 733, 734, 735, 736, 737, 738, 739, 740, 741, 742, 743, 744, 745, 746, 747, 748, 749, 750, 751, 752, 753, 754, 755, 756, 757, 758, 759, 760, 761, 762, 763, 764, 765, 766, 767, 768, 769, 770, 771, 772, 773, 774, 775, 776, 777, 778, 779, 780, 781, 782, 783, 784, 785, 786, 787, 788, 789, 790, 791, 792, 793, 794, 795, 796, 797, 798, 799, 800, 801, 802, 803, 804, 805, 806, 807, 808, 809, 810, 811, 812, 813, 814, 815, 816, 817, 818, 819, 820, 821, 822, 823, 824, 825, 826, 827, 828, 829, 830, 831, 832, 833, 834, 835, 836, 837, 838, 839, 840, 841, 842, 843, 844, 845, 846, 847, 848, 849, 850, 851, 852, 853, 854, 855, 856, 857, 858, 859, 860, 861, 862, 863, 864, 865, 866, 867, 868, 869, 870, 871, 872],
      "AcquisitionTime": ["155738.570000", "155739.030000", "155739.490000", "155739.950000", "155740.410000", "155740.870000", "155741.330000", "155741.790000", "155742.250000", "155742.710000", "155743.170000", "155743.630000", "155744.090000", "155744.550000", "155745.010000", "155745.470000", "155745.930000", "155746.390000", "155746.850000", "155747.310000", "155747.770000", "155748.230000", "155748.690000", "155749.150000", "155749.610000", "155750.070000", "155750.530000", "155750.990000", "155751.450000", "155751.910000", "155752.370000", "155752.830000", "155753.290000", "155753.750000", "155754.210000", "155754.670000", "155755.130000", "155755.590000", "155756.050000", "155756.510000", "155756.970000", "155757.430000", "155757.890000", "155758.350000", "155758.810000", "155759.270000", "155759.730000", "155800.190000", "155800.650000", "155801.110000", "155801.570000", "155802.030000", "155802.490000", "155802.950000", "155803.410000", "155803.870000", "155804.330000", "155804.790000", "155805.250000", "155805.710000", "155806.170000", "155806.630000", "155807.090000", "155807.550000", "155808.010000", "155808.470000", "155808.930000", "155809.390000", "155809.850000", "155810.310000", "155810.770000", "155811.230000", "155811.690000", "155812.150000", "155812.610000", "155813.070000", "155813.530000", "155813.990000", "155814.450000", "155814.910000", "155815.370000", "155815.830000", "155816.290000", "155816.750000", "155817.210000", "155817.670000", "155818.130000", "155818.590000", "155819.050000", "155819.510000", "155819.970000", "155820.430000", "155820.890000", "155821.350000", "155821.810000", "155822.270000", "155822.730000", "155823.190000", "155823.650000", "155824.110000", "155824.570000", "155825.030000", "155825.490000", "155825.950000", "155826.410000", "155826.870000", "155827.330000", "155827.790000", "155828.250000", "155828.710000", "155829.170000", "155829.630000", "155830.090000", "155830.550000", "155831.010000", "155831.470000", "155831.930000", "155832.390000", "155832.850000", "155833.310000", "155833.770000", "155834.230000", "155834.690000", "155835.150000", "155835.610000", "155836.070000", "155836.530000", "155836.990000", "155837.450000", "155837.910000", "155838.370000", "155838.830000", "155839.290000", "155839.750000", "155840.210000", "155840.670000", "155841.130000", "155841.590000", "155842.050000", "155842.510000", "155842.970000", "155843.430000", "155843.890000", "155844.350000", "155844.810000", "155845.270000", "155845.730000", "155846.190000", "155846.650000", "155847.110000", "155847.570000", "155848.030000", "155848.490000", "155848.950000", "155849.410000", "155849.870000", "155850.330000", "155850.790000", "155851.250000", "155851.710000", "155852.170000", "155852.630000", "155853.090000", "155853.550000", "155854.010000", "155854.470000", "155854.930000", "155855.390000", "155855.850000", "155856.310000", "155856.770000", "155857.230000", "155857.690000", "155858.150000", "155858.610000", "155859.070000", "155859.530000", "155859.990000", "155900.450000", "155900.910000", "155901.370000", "155901.830000", "155902.290000", "155902.750000", "155903.210000", "155903.670000", "155904.130000", "155904.590000", "155905.050000", "155905.510000", "155905.970000", "155906.430000", "155906.890000", "155907.350000", "155907.810000", "155908.270000", "155908.730000", "155909.190000", "155909.650000", "155910.110000", "155910.570000", "155911.030000", "155911.490000", "155911.950000", "155912.410000", "155912.870000", "155913.330000", "155913.790000", "155914.250000", "155914.710000", "155915.170000", "155915.630000", "155916.090000", "155916.550000", "155917.010000", "155917.470000", "155917.930000", "155918.390000", "155918.850000", "155919.310000", "155919.770000", "155920.230000", "155920.690000", "155921.150000", "155921.610000", "155922.070000", "155922.530000", "155922.990000", "155923.450000", "155923.910000", "155924.370000", "155924.830000", "155925.290000", "155925.750000", "155926.210000", "155926.670000", "155927.130000", "155927.590000", "155928.050000", "155928.510000", "155928.970000", "155929.430000", "155929.890000", "155930.350000", "155930.810000", "155931.270000", "155931.730000", "155932.190000", "155932.650000", "155933.110000", "155933.570000", "155934.030000", "155934.490000", "155934.950000", "155935.410000", "155935.870000", "155936.330000", "155936.790000", "155937.250000", "155937.710000", "155938.170000", "155938.630000", "155939.090000", "155939.550000", "155940.010000", "155940.470000", "155940.930000", "155941.390000", "155941.850000", "155942.310000", "155942.770000", "155943.230000", "155943.690000", "155944.150000", "155944.610000", "155945.070000", "155945.530000", "155945.990000", "155946.450000", "155946.910000", "155947.370000", "155947.830000", "155948.290000", "155948.750000", "155949.210000", "155949.670000", "155950.130000", "155950.590000", "155951.050000", "155951.510000", "155951.970000", "155952.430000", "155952.890000", "155953.350000", "155953.810000", "155954.270000", "155954.730000", "155955.190000", "155955.650000", "155956.110000", "155956.570000", "155957.030000", "155957.490000", "155957.950000", "155958.410000", "155958.870000", "155959.330000", "155959.790000", "160000.250000", "160000.710000", "160001.170000", "160001.630000", "160002.090000", "160002.550000", "160003.010000", "160003.470000", "160003.930000", "160004.390000", "160004.850000", "160005.310000", "160005.770000", "160006.230000", "160006.690000", "160007.150000", "160007.610000", "160008.070000", "160008.530000", "160008.990000", "160009.450000", "160009.910000", "160010.370000", "160010.830000", "160011.290000", "160011.750000", "160012.210000", "160012.670000", "160013.130000", "160013.590000", "160014.050000", "160014.510000", "160014.970000", "160015.430000", "160015.890000", "160016.350000", "160016.810000", "160017.270000", "160017.730000", "160018.190000", "160018.650000", "160019.110000", "160019.570000", "160020.030000", "160020.490000", "160020.950000", "160021.410000", "160021.870000", "160022.330000", "160022.790000", "160023.250000", "160023.710000", "160024.170000", "160024.630000", "160025.090000", "160025.550000", "160026.010000", "160026.470000", "160026.930000", "160027.390000", "160027.850000", "160028.310000", "160028.770000", "160029.230000", "160029.690000", "160030.150000", "160030.610000", "160031.070000", "160031.530000", "160031.990000", "160032.450000", "160032.910000", "160033.370000", "160033.830000", "160034.290000", "160034.750000", "160035.210000", "160035.670000", "160036.130000", "160036.590000", "160037.050000", "160037.510000", "160037.970000", "160038.430000", "160038.890000", "160039.350000", "160039.810000", "160040.270000", "160040.730000", "160041.190000", "160041.650000", "160042.110000", "160042.570000", "160043.030000", "160043.490000", "160043.950000", "160044.410000", "160044.870000", "160045.330000", "160045.790000", "160046.250000", "160046.710000", "160047.170000", "160047.630000", "160048.090000", "160048.550000", "160049.010000", "160049.470000", "160049.930000", "160050.390000", "160050.850000", "160051.310000", "160051.770000", "160052.230000", "160052.690000", "160053.150000", "160053.610000", "160054.070000", "160054.530000", "160054.990000", "160055.450000", "160055.910000", "160056.370000", "160056.830000", "160057.290000", "160057.750000", "160058.210000", "160058.670000", "160059.130000", "160059.590000", "160100.050000", "160100.510000", "160100.970000", "160101.430000", "160101.890000", "160102.350000", "160102.810000", "160103.270000", "160103.730000", "160104.190000", "160104.650000", "160105.110000", "160105.570000", "160106.030000", "160106.490000", "160106.950000", "160107.410000", "160107.870000", "160108.330000", "160108.790000", "160109.250000", "160109.710000", "160110.170000", "160110.630000", "160111.090000", "160111.550000", "160112.010000", "160112.470000", "160112.930000", "160113.390000", "160113.850000", "160114.310000", "160114.770000", "160115.230000", "160115.690000", "160116.150000", "160116.610000", "160117.070000", "160117.530000", "160117.990000", "160118.450000", "160118.910000", "160119.370000", "160119.830000", "160120.290000", "160120.750000", "160121.210000", "160121.670000", "160122.130000", "160122.590000", "160123.050000", "160123.510000", "160123.970000", "160124.430000", "160124.890000", "160125.350000", "160125.810000", "160126.270000", "160126.730000", "160127.190000", "160127.650000", "160128.110000", "160128.570000", "160129.030000", "160129.490000", "160129.950000", "160130.410000", "160130.870000", "160131.330000", "160131.790000", "160132.250000", "160132.710000", "160133.170000", "160133.630000", "160134.090000", "160134.550000", "160135.010000", "160135.470000", "160135.930000", "160136.390000", "160136.850000", "160137.310000", "160137.770000", "160138.230000", "160138.690000", "160139.150000", "160139.610000", "160140.070000", "160140.530000", "160140.990000", "160141.450000", "160141.910000", "160142.370000", "160142.830000", "160143.290000", "160143.750000", "160144.210000", "160144.670000", "160145.130000", "160145.590000", "160146.050000", "160146.510000", "160146.970000", "160147.430000", "160147.890000", "160148.350000", "160148.810000", "160149.270000", "160149.730000", "160150.190000", "160150.650000", "160151.110000", "160151.570000", "160152.030000", "160152.490000", "160152.950000", "160153.410000", "160153.870000", "160154.330000", "160154.790000", "160155.250000", "160155.710000", "160156.170000", "160156.630000", "160157.090000", "160157.550000", "160158.010000", "160158.470000", "160158.930000", "160159.390000", "160159.850000", "160200.310000", "160200.770000", "160201.230000", "160201.690000", "160202.150000", "160202.610000", "160203.070000", "160203.530000", "160203.990000", "160204.450000", "160204.910000", "160205.370000", "160205.830000", "160206.290000", "160206.750000", "160207.210000", "160207.670000", "160208.130000", "160208.590000", "160209.050000", "160209.510000", "160209.970000", "160210.430000", "160210.890000", "160211.350000", "160211.810000", "160212.270000", "160212.730000", "160213.190000", "160213.650000", "160214.110000", "160214.570000", "160215.030000", "160215.490000", "160215.950000", "160216.410000", "160216.870000", "160217.330000", "160217.790000", "160218.250000", "160218.710000", "160219.170000", "160219.630000", "160220.090000", "160220.550000", "160221.010000", "160221.470000", "160221.930000", "160222.390000", "160222.850000", "160223.310000", "160223.770000", "160224.230000", "160224.690000", "160225.150000", "160225.610000", "160226.070000", "160226.530000", "160226.990000", "160227.450000", "160227.910000", "160228.370000", "160228.830000", "160229.290000", "160229.750000", "160230.210000", "160230.670000", "160231.130000", "160231.590000", "160232.050000", "160232.510000", "160232.970000", "160233.430000", "160233.890000", "160234.350000", "160234.810000", "160235.270000", "160235.730000", "160236.190000", "160236.650000", "160237.110000", "160237.570000", "160238.030000", "160238.490000", "160238.950000", "160239.410000", "160239.870000", "160240.330000", "160240.790000", "160241.250000", "160241.710000", "160242.170000", "160242.630000", "160243.090000", "160243.550000", "160244.010000", "160244.470000", "160244.930000", "160245.390000", "160245.850000", "160246.310000", "160246.770000", "160247.230000", "160247.690000", "160248.150000", "160248.610000", "160249.070000", "160249.530000", "160249.990000", "160250.450000", "160250.910000", "160251.370000", "160251.830000", "160252.290000", "160252.750000", "160253.210000", "160253.670000", "160254.130000", "160254.590000", "160255.050000", "160255.510000", "160255.970000", "160256.430000", "160256.890000", "160257.350000", "160257.810000", "160258.270000", "160258.730000", "160259.190000", "160259.650000", "160300.110000", "160300.570000", "160301.030000", "160301.490000", "160301.950000", "160302.410000", "160302.870000", "160303.330000", "160303.790000", "160304.250000", "160304.710000", "160305.170000", "160305.630000", "160306.090000", "160306.550000", "160307.010000", "160307.470000", "160307.930000", "160308.390000", "160308.850000", "160309.310000", "160309.770000", "160310.230000", "160310.690000", "160311.150000", "160311.610000", "160312.070000", "160312.530000", "160312.990000", "160313.450000", "160313.910000", "160314.370000", "160314.830000", "160315.290000", "160315.750000", "160316.210000", "160316.670000", "160317.130000", "160317.590000", "160318.050000", "160318.510000", "160318.970000", "160319.430000", "160319.890000", "160320.350000", "160320.810000", "160321.270000", "160321.730000", "160322.190000", "160322.650000", "160323.110000", "160323.570000", "160324.030000", "160324.490000", "160324.950000", "160325.410000", "160325.870000", "160326.330000", "160326.790000", "160327.250000", "160327.710000", "160328.170000", "160328.630000", "160329.090000", "160329.550000", "160330.010000", "160330.470000", "160330.930000", "160331.390000", "160331.850000", "160332.310000", "160332.770000", "160333.230000", "160333.690000", "160334.150000", "160334.610000", "160335.070000", "160335.530000", "160335.990000", "160336.450000", "160336.910000", "160337.370000", "160337.830000", "160338.290000", "160338.750000", "160339.210000", "160339.670000", "160340.130000", "160340.590000", "160341.050000", "160341.510000", "160341.970000", "160342.430000", "160342.890000", "160343.350000", "160343.810000", "160344.270000", "160344.730000", "160345.190000", "160345.650000", "160346.110000", "160346.570000", "160347.030000", "160347.490000", "160347.950000", "160348.410000", "160348.870000", "160349.330000", "160349.790000", "160350.250000", "160350.710000", "160351.170000", "160351.630000", "160352.090000", "160352.550000", "160353.010000", "160353.470000", "160353.930000", "160354.390000", "160354.850000", "160355.310000", "160355.770000", "160356.230000", "160356.690000", "160357.150000", "160357.610000", "160358.070000", "160358.530000", "160358.990000", "160359.450000", "160359.910000", "160400.370000", "160400.830000", "160401.290000", "160401.750000", "160402.210000", "160402.670000", "160403.130000", "160403.590000", "160404.050000", "160404.510000", "160404.970000", "160405.430000", "160405.890000", "160406.350000", "160406.810000", "160407.270000", "160407.730000", "160408.190000", "160408.650000", "160409.110000", "160409.570000", "160410.030000", "160410.490000", "160410.950000", "160411.410000", "160411.870000", "160412.330000", "160412.790000", "160413.250000", "160413.710000", "160414.170000", "160414.630000", "160415.090000", "160415.550000", "160416.010000", "160416.470000", "160416.930000", "160417.390000", "160417.850000", "160418.310000", "160418.770000", "160419.230000"],
