{
  "AcquisitionMatrixPE": 82,
  "AcquisitionNumber": 1,
  "AcquisitionTime": "21:13:51.480000",
  "BandwidthPerPixelPhaseEncode": 24.888,
  "BaseResolution": 82,
  "BodyPartExamined": "BRAIN",
  "ConsistencyInfo": "N4_VE11E_LATEST_20181129",
  "ConversionSoftware": "dcm2niix",
  "ConversionSoftwareVersion": "v1.0.20201102",
  "DerivedVendorReportedEchoSpacing": 0.00049,
  "DeviceSerialNumber": "66112",
  "DwellTime": 2e-06,
  "EchoTime": 0.0272,
  "EchoTrainLength": 82,
  "EffectiveEchoSpacing": 0.00049,
  "FlipAngle": 44,
  "ImageComments": "Unaliased MB8/PE3",
  "ImageOrientationPatientDICOM": [0.999198, 0.00528249, 0.0396893, -0.0122081, 0.984253, 0.176346],
  "ImageType": [
    "ORIGINAL",
    "PRIMARY",
    "M",
    "MB",
    "ND",
    "NORM",
    "MOSAIC"
],
  "ImagingFrequency": 123.259,
  "InPlanePhaseEncodingDirectionDICOM": "COL",
  "InstitutionAddress": "Maynard 3,Hanover,NH,US,03755",
  "InstitutionName": "Dartmouth College - PBS",
  "InstitutionalDepartmentName": "Department",
  "MRAcquisitionType": "2D",
  "MagneticFieldStrength": 3,
  "Manufacturer": "Siemens",
  "ManufacturersModelName": "Prisma",
  "Modality": "MR",
  "MultibandAccelerationFactor": 8,
  "PartialFourier": 1,
  "PatientPosition": "HFS",
  "PercentPhaseFOV": 100,
  "PercentSampling": 100,
  "PhaseEncodingDirection": "j-",
  "PhaseEncodingSteps": 82,
  "PhaseResolution": 1,
  "PixelBandwidth": 3050,
  "ProcedureStepDescription": "Wager_Wager^1076_spacetop",
  "ProtocolName": "func_run-03_task-faces_acq-ap-mb8",
  "PulseSequenceDetails": "%CustomerSeq%\\cmrr_mbep2d_bold",
  "ReceiveCoilActiveElements": "HEA;HEP",
  "ReceiveCoilName": "Head_32",
  "ReconMatrixPE": 82,
  "RepetitionTime": 0.46,
  "SAR": 0.0934385,
  "ScanOptions": "FS",
  "ScanningSequence": "EP",
  "SequenceName": "epfid2d1_82",
  "SequenceVariant": "SK\\SS",
  "SeriesDescription": "func_run-03_task-faces_acq-ap-mb8",
  "SeriesNumber": 22,
  "ShimSetting": [4227, -7786, -7150, 361, -148, 20, 115, 58],
  "SliceThickness": 2.7,
  "SliceTiming": [0, 0.2525, 0.0625, 0.315, 0.125, 0.3775, 0.19, 0, 0.2525, 0.0625, 0.315, 0.125, 0.3775, 0.19, 0, 0.2525, 0.0625, 0.315, 0.125, 0.3775, 0.19, 0, 0.2525, 0.0625, 0.315, 0.125, 0.3775, 0.19, 0, 0.2525, 0.0625, 0.315, 0.125, 0.3775, 0.19, 0, 0.2525, 0.0625, 0.315, 0.125, 0.3775, 0.19, 0, 0.2525, 0.0625, 0.315, 0.125, 0.3775, 0.19, 0, 0.2525, 0.0625, 0.315, 0.125, 0.3775, 0.19],
  "SoftwareVersions": "syngo MR E11",
  "SpacingBetweenSlices": 2.7,
  "StationName": "AWP66112",
  "TaskName": "faces",
  "TotalReadoutTime": 0.03969,
  "TxRefAmp": 244.584,
  "WipMemBlock": "8436d2fb-7fdd-4bc7-bc82-85eea44eb40e||Sequence: R016 ve11e/master r/434b28f1; Aug  7 2019 18:53:46 by eja",
  "dcmmeta_affine": [
    [-2.6807754039764404, -0.03275351971387863, 0.1029583066701889, 112.22000885009766],
    [-0.014172535389661789, 2.6406776905059814, 0.4770602583885193, -110.39244842529297],
    [0.10648337006568909, -0.47312307357788086, 2.655524969100952, -27.008602142333984],
    [0.0, 0.0, 0.0, 1.0]
],
  "dcmmeta_reorient_transform": [
    [0.0, -1.0, 0.0, 81.0],
    [1.0, 0.0, 0.0, 0.0],
    [0.0, 0.0, 1.0, 0.0],
    [0.0, 0.0, 0.0, 1.0]
],
  "dcmmeta_shape": [82, 82, 56, 914],
  "dcmmeta_slice_dim": 2,
  "dcmmeta_version": 0.6,
  "global": {
    "const": {
      "AccessionNumber": "A004631",
      "AcquisitionMatrix": [82, 0, 0, 82],
      "AngioFlag": "N",
      "BitsAllocated": 16,
      "BitsStored": 16,
      "BodyPartExamined": "BRAIN",
      "Columns": 656,
      "EchoNumbers": 1,
      "EchoTime": 27.2,
      "EchoTrainLength": 82,
      "FlipAngle": 44.0,
      "HighBit": 15,
      "ImageOrientationPatient": [0.99919810762347, 0.00528249022216, 0.03968925570889, -0.0122081301974, 0.98425255799388, 0.17634586368723],
      "ImagePositionPatient": [-869.5492752552, -865.44444910218, -231.67861666295],
      "ImageType": [
        "ORIGINAL",
        "PRIMARY",
        "M",
        "MB",
        "ND",
        "NORM",
        "MOSAIC"
],
      "ImagedNucleus": "1H",
      "ImagingFrequency": 123.259045,
      "InPlanePhaseEncodingDirection": "COL",
      "MRAcquisitionType": "2D",
      "MagneticFieldStrength": 3.0,
      "Manufacturer": "SIEMENS",
      "ManufacturerModelName": "Prisma",
      "Modality": "MR",
      "NumberOfAverages": 1.0,
      "NumberOfPhaseEncodingSteps": 82,
      "PercentPhaseFieldOfView": 100.0,
      "PercentSampling": 100.0,
      "PerformedProcedureStepStartTime": "192924.816000",
      "PhotometricInterpretation": "MONOCHROME2",
      "PixelBandwidth": 3050.0,
      "PixelRepresentation": 0,
      "PixelSpacing": [2.6829268932343, 2.6829268932343],
      "ProtocolName": "func_run-03_task-faces_acq-ap-mb8",
      "RepetitionTime": 460.0,
      "Rows": 656,
      "SAR": 0.09343845631481,
      "SamplesPerPixel": 1,
      "ScanOptions": "FS",
      "ScanningSequence": "EP",
      "SequenceName": "epfid2d1_82",
      "SequenceVariant": [
        "SK",
        "SS"
],
      "SeriesDescription": "func_run-03_task-faces_acq-ap-mb8",
      "SeriesNumber": 22,
      "SeriesTime": "211401.834000",
      "SliceLocation": -41.789587958267,
      "SliceThickness": 2.7000000476837,
      "SmallestImagePixelValue": 0,
      "SoftwareVersions": "syngo MR E11",
      "SpacingBetweenSlices": 2.6999999830624,
      "SpecificCharacterSet": "ISO_IR 100",
      "StudyID": "1",
      "StudyTime": "192924.746000",
      "TransmitCoilName": "Body",
      "VariableFlipAngleFlag": "N",
      "WindowCenterWidthExplanation": "Algo1"
    },
    "slices": {}
  },
  "time": {
    "samples": {
      "AcquisitionNumber": [1, 2, 3, 4, 5, 6, 7, 8, 9, 10, 11, 12, 13, 14, 15, 16, 17, 18, 19, 20, 21, 22, 23, 24, 25, 26, 27, 28, 29, 30, 31, 32, 33, 34, 35, 36, 37, 38, 39, 40, 41, 42, 43, 44, 45, 46, 47, 48, 49, 50, 51, 52, 53, 54, 55, 56, 57, 58, 59, 60, 61, 62, 63, 64, 65, 66, 67, 68, 69, 70, 71, 72, 73, 74, 75, 76, 77, 78, 79, 80, 81, 82, 83, 84, 85, 86, 87, 88, 89, 90, 91, 92, 93, 94, 95, 96, 97, 98, 99, 100, 101, 102, 103, 104, 105, 106, 107, 108, 109, 110, 111, 112, 113, 114, 115, 116, 117, 118, 119, 120, 121, 122, 123, 124, 125, 126, 127, 128, 129, 130, 131, 132, 133, 134, 135, 136, 137, 138, 139, 140, 141, 142, 143, 144, 145, 146, 147, 148, 149, 150, 151, 152, 153, 154, 155, 156, 157, 158, 159, 160, 161, 162, 163, 164, 165, 166, 167, 168, 169, 170, 171, 172, 173, 174, 175, 176, 177, 178, 179, 180, 181, 182, 183, 184, 185, 186, 187, 188, 189, 190, 191, 192, 193, 194, 195, 196, 197, 198, 199, 200, 201, 202, 203, 204, 205, 206, 207, 208, 209, 210, 211, 212, 213, 214, 215, 216, 217, 218, 219, 220, 221, 222, 223, 224, 225, 226, 227, 228, 229, 230, 231, 232, 233, 234, 235, 236, 237, 238, 239, 240, 241, 242, 243, 244, 245, 246, 247, 248, 249, 250, 251, 252, 253, 254, 255, 256, 257, 258, 259, 260, 261, 262, 263, 264, 265, 266, 267, 268, 269, 270, 271, 272, 273, 274, 275, 276, 277, 278, 279, 280, 281, 282, 283, 284, 285, 286, 287, 288, 289, 290, 291, 292, 293, 294, 295, 296, 297, 298, 299, 300, 301, 302, 303, 304, 305, 306, 307, 308, 309, 310, 311, 312, 313, 314, 315, 316, 317, 318, 319, 320, 321, 322, 323, 324, 325, 326, 327, 328, 329, 330, 331, 332, 333, 334, 335, 336, 337, 338, 339, 340, 341, 342, 343, 344, 345, 346, 347, 348, 349, 350, 351, 352, 353, 354, 355, 356, 357, 358, 359, 360, 361, 362, 363, 364, 365, 366, 367, 368, 369, 370, 371, 372, 373, 374, 375, 376, 377, 378, 379, 380, 381, 382, 383, 384, 385, 386, 387, 388, 389, 390, 391, 392, 393, 394, 395, 396, 397, 398, 399, 400, 401, 402, 403, 404, 405, 406, 407, 408, 409, 410, 411, 412, 413, 414, 415, 416, 417, 418, 419, 420, 421, 422, 423, 424, 425, 426, 427, 428, 429, 430, 431, 432, 433, 434, 435, 436, 437, 438, 439, 440, 441, 442, 443, 444, 445, 446, 447, 448, 449, 450, 451, 452, 453, 454, 455, 456, 457, 458, 459, 460, 461, 462, 463, 464, 465, 466, 467, 468, 469, 470, 471, 472, 473, 474, 475, 476, 477, 478, 479, 480, 481, 482, 483, 484, 485, 486, 487, 488, 489, 490, 491, 492, 493, 494, 495, 496, 497, 498, 499, 500, 501, 502, 503, 504, 505, 506, 507, 508, 509, 510, 511, 512, 513, 514, 515, 516, 517, 518, 519, 520, 521, 522, 523, 524, 525, 526, 527, 528, 529, 530, 531, 532, 533, 534, 535, 536, 537, 538, 539, 540, 541, 542, 543, 544, 545, 546, 547, 548, 549, 550, 551, 552, 553, 554, 555, 556, 557, 558, 559, 560, 561, 562, 563, 564, 565, 566, 567, 568, 569, 570, 571, 572, 573, 574, 575, 576, 577, 578, 579, 580, 581, 582, 583, 584, 585, 586, 587, 588, 589, 590, 591, 592, 593, 594, 595, 596, 597, 598, 599, 600, 601, 602, 603, 604, 605, 606, 607, 608, 609, 610, 611, 612, 613, 614, 615, 616, 617, 618, 619, 620, 621, 622, 623, 624, 625, 626, 627, 628, 629, 630, 631, 632, 633, 634, 635, 636, 637, 638, 639, 640, 641, 642, 643, 644, 645, 646, 647, 648, 649, 650, 651, 652, 653, 654, 655, 656, 657, 658, 659, 660, 661, 662, 663, 664, 665, 666, 667, 668, 669, 670, 671, 672, 673, 674, 675, 676, 677, 678, 679, 680, 681, 682, 683, 684, 685, 686, 687, 688, 689, 690, 691, 692, 693, 694, 695, 696, 697, 698, 699, 700, 701, 702, 703, 704, 705, 706, 707, 708, 709, 710, 711, 712, 713, 714, 715, 716, 717, 718, 719, 720, 721, 722, 723, 724, 725, 726, 727, 728, 729, 730, 731, 732, 733, 734, 735, 736, 737, 738, 739, 740, 741, 742, 743, 744, 745, 746, 747, 748, 749, 750, 751, 752, 753, 754, 755, 756, 757, 758, 759, 760, 761, 762, 763, 764, 765, 766, 767, 768, 769, 770, 771, 772, 773, 774, 775, 776, 777, 778, 779, 780, 781, 782, 783, 784, 785, 786, 787, 788, 789, 790, 791, 792, 793, 794, 795, 796, 797, 798, 799, 800, 801, 802, 803, 804, 805, 806, 807, 808, 809, 810, 811, 812, 813, 814, 815, 816, 817, 818, 819, 820, 821, 822, 823, 824, 825, 826, 827, 828, 829, 830, 831, 832, 833, 834, 835, 836, 837, 838, 839, 840, 841, 842, 843, 844, 845, 846, 847, 848, 849, 850, 851, 852, 853, 854, 855, 856, 857, 858, 859, 860, 861, 862, 863, 864, 865, 866, 867, 868, 869, 870, 871, 872, 873, 874, 875, 876, 877, 878, 879, 880, 881, 882, 883, 884, 885, 886, 887, 888, 889, 890, 891, 892, 893, 894, 895, 896, 897, 898, 899, 900, 901, 902, 903, 904, 905, 906, 907, 908, 909, 910, 911, 912, 913, 914],
      "AcquisitionTime": ["211351.480000", "211351.940000", "211352.400000", "211352.860000", "211353.320000", "211353.780000", "211354.240000", "211354.700000", "211355.160000", "211355.620000", "211356.080000", "211356.540000", "211357.000000", "211357.460000", "211357.920000", "211358.380000", "211358.840000", "211359.300000", "211359.760000", "211400.220000", "211400.680000", "211401.140000", "211401.600000", "211402.060000", "211402.520000", "211402.980000", "211403.440000", "211403.900000", "211404.360000", "211404.820000", "211405.280000", "211405.740000", "211406.200000", "211406.660000", "211407.120000", "211407.580000", "211408.040000", "211408.500000", "211408.960000", "211409.420000", "211409.880000", "211410.340000", "211410.800000", "211411.260000", "211411.720000", "211412.180000", "211412.640000", "211413.100000", "211413.560000", "211414.020000", "211414.480000", "211414.940000", "211415.400000", "211415.860000", "211416.320000", "211416.780000", "211417.240000", "211417.700000", "211418.160000", "211418.620000", "211419.080000", "211419.540000", "211420.000000", "211420.460000", "211420.920000", "211421.380000", "211421.840000", "211422.300000", "211422.760000", "211423.220000", "211423.680000", "211424.140000", "211424.600000", "211425.060000", "211425.520000", "211425.980000", "211426.440000", "211426.900000", "211427.360000", "211427.820000", "211428.280000", "211428.740000", "211429.200000", "211429.660000", "211430.120000", "211430.580000", "211431.040000", "211431.500000", "211431.960000", "211432.420000", "211432.880000", "211433.340000", "211433.800000", "211434.260000", "211434.720000", "211435.180000", "211435.640000", "211436.100000", "211436.560000", "211437.020000", "211437.480000", "211437.940000", "211438.400000", "211438.860000", "211439.320000", "211439.780000", "211440.240000", "211440.700000", "211441.160000", "211441.620000", "211442.080000", "211442.540000", "211443.000000", "211443.460000", "211443.920000", "211444.380000", "211444.840000", "211445.300000", "211445.760000", "211446.220000", "211446.680000", "211447.140000", "211447.600000", "211448.060000", "211448.520000", "211448.980000", "211449.440000", "211449.900000", "211450.360000", "211450.820000", "211451.280000", "211451.740000", "211452.200000", "211452.660000", "211453.120000", "211453.580000", "211454.040000", "211454.500000", "211454.960000", "211455.420000", "211455.880000", "211456.340000", "211456.800000", "211457.260000", "211457.720000", "211458.180000", "211458.640000", "211459.100000", "211459.560000", "211500.020000", "211500.480000", "211500.940000", "211501.400000", "211501.860000", "211502.320000", "211502.780000", "211503.240000", "211503.700000", "211504.160000", "211504.620000", "211505.080000", "211505.540000", "211506.000000", "211506.460000", "211506.920000", "211507.380000", "211507.840000", "211508.300000", "211508.760000", "211509.220000", "211509.680000", "211510.140000", "211510.600000", "211511.060000", "211511.520000", "211511.980000", "211512.440000", "211512.900000", "211513.360000", "211513.820000", "211514.280000", "211514.740000", "211515.200000", "211515.660000", "211516.120000", "211516.580000", "211517.040000", "211517.500000", "211517.960000", "211518.420000", "211518.880000", "211519.340000", "211519.800000", "211520.260000", "211520.720000", "211521.180000", "211521.640000", "211522.100000", "211522.560000", "211523.020000", "211523.480000", "211523.940000", "211524.400000", "211524.860000", "211525.320000", "211525.780000", "211526.240000", "211526.700000", "211527.160000", "211527.620000", "211528.080000", "211528.540000", "211529.000000", "211529.460000", "211529.920000", "211530.380000", "211530.840000", "211531.300000", "211531.760000", "211532.220000", "211532.680000", "211533.140000", "211533.600000", "211534.060000", "211534.520000", "211534.980000", "211535.440000", "211535.900000", "211536.360000", "211536.820000", "211537.280000", "211537.740000", "211538.200000", "211538.660000", "211539.120000", "211539.580000", "211540.040000", "211540.500000", "211540.960000", "211541.420000", "211541.880000", "211542.340000", "211542.800000", "211543.260000", "211543.720000", "211544.180000", "211544.640000", "211545.100000", "211545.560000", "211546.020000", "211546.480000", "211546.940000", "211547.400000", "211547.860000", "211548.320000", "211548.780000", "211549.240000", "211549.700000", "211550.160000", "211550.620000", "211551.080000", "211551.540000", "211552.000000", "211552.460000", "211552.920000", "211553.380000", "211553.840000", "211554.300000", "211554.760000", "211555.220000", "211555.680000", "211556.140000", "211556.600000", "211557.060000", "211557.520000", "211557.980000", "211558.440000", "211558.900000", "211559.360000", "211559.820000", "211600.280000", "211600.740000", "211601.200000", "211601.660000", "211602.120000", "211602.580000", "211603.040000", "211603.500000", "211603.960000", "211604.420000", "211604.880000", "211605.340000", "211605.800000", "211606.260000", "211606.720000", "211607.180000", "211607.640000", "211608.100000", "211608.560000", "211609.020000", "211609.480000", "211609.940000", "211610.400000", "211610.860000", "211611.320000", "211611.780000", "211612.240000", "211612.700000", "211613.160000", "211613.620000", "211614.080000", "211614.540000", "211615.000000", "211615.460000", "211615.920000", "211616.380000", "211616.840000", "211617.300000", "211617.760000", "211618.220000", "211618.680000", "211619.140000", "211619.600000", "211620.060000", "211620.520000", "211620.980000", "211621.440000", "211621.900000", "211622.360000", "211622.820000", "211623.280000", "211623.740000", "211624.200000", "211624.660000", "211625.120000", "211625.580000", "211626.040000", "211626.500000", "211626.960000", "211627.420000", "211627.880000", "211628.340000", "211628.800000", "211629.260000", "211629.720000", "211630.180000", "211630.640000", "211631.100000", "211631.560000", "211632.020000", "211632.480000", "211632.940000", "211633.400000", "211633.860000", "211634.320000", "211634.780000", "211635.240000", "211635.700000", "211636.160000", "211636.620000", "211637.080000", "211637.540000", "211638.000000", "211638.460000", "211638.920000", "211639.380000", "211639.840000", "211640.300000", "211640.760000", "211641.220000", "211641.680000", "211642.140000", "211642.600000", "211643.060000", "211643.520000", "211643.980000", "211644.440000", "211644.900000", "211645.360000", "211645.820000", "211646.280000", "211646.740000", "211647.200000", "211647.660000", "211648.120000", "211648.580000", "211649.040000", "211649.500000", "211649.960000", "211650.420000", "211650.880000", "211651.340000", "211651.800000", "211652.260000", "211652.720000", "211653.180000", "211653.640000", "211654.100000", "211654.560000", "211655.020000", "211655.480000", "211655.940000", "211656.400000", "211656.860000", "211657.320000", "211657.780000", "211658.240000", "211658.700000", "211659.160000", "211659.620000", "211700.080000", "211700.540000", "211701.000000", "211701.460000", "211701.920000", "211702.380000", "211702.840000", "211703.300000", "211703.760000", "211704.220000", "211704.680000", "211705.140000", "211705.600000", "211706.060000", "211706.520000", "211706.980000", "211707.440000", "211707.900000", "211708.360000", "211708.820000", "211709.280000", "211709.740000", "211710.200000", "211710.660000", "211711.120000", "211711.580000", "211712.040000", "211712.500000", "211712.960000", "211713.420000", "211713.880000", "211714.340000", "211714.800000", "211715.260000", "211715.720000", "211716.180000", "211716.640000", "211717.100000", "211717.560000", "211718.020000", "211718.480000", "211718.940000", "211719.400000", "211719.860000", "211720.320000", "211720.780000", "211721.240000", "211721.700000", "211722.160000", "211722.620000", "211723.080000", "211723.540000", "211724.000000", "211724.460000", "211724.920000", "211725.380000", "211725.840000", "211726.300000", "211726.760000", "211727.220000", "211727.680000", "211728.140000", "211728.600000", "211729.060000", "211729.520000", "211729.980000", "211730.440000", "211730.900000", "211731.360000", "211731.820000", "211732.280000", "211732.740000", "211733.200000", "211733.660000", "211734.120000", "211734.580000", "211735.040000", "211735.500000", "211735.960000", "211736.420000", "211736.880000", "211737.340000", "211737.800000", "211738.260000", "211738.720000", "211739.180000", "211739.640000", "211740.100000", "211740.560000", "211741.020000", "211741.480000", "211741.940000", "211742.400000", "211742.860000", "211743.320000", "211743.780000", "211744.240000", "211744.700000", "211745.160000", "211745.620000", "211746.080000", "211746.540000", "211747.000000", "211747.460000", "211747.920000", "211748.380000", "211748.840000", "211749.300000", "211749.760000", "211750.220000", "211750.680000", "211751.140000", "211751.600000", "211752.060000", "211752.520000", "211752.980000", "211753.440000", "211753.900000", "211754.360000", "211754.820000", "211755.280000", "211755.740000", "211756.200000", "211756.660000", "211757.120000", "211757.580000", "211758.040000", "211758.500000", "211758.960000", "211759.420000", "211759.880000", "211800.340000", "211800.800000", "211801.260000", "211801.720000", "211802.180000", "211802.640000", "211803.100000", "211803.560000", "211804.020000", "211804.480000", "211804.940000", "211805.400000", "211805.860000", "211806.320000", "211806.780000", "211807.240000", "211807.700000", "211808.160000", "211808.620000", "211809.080000", "211809.540000", "211810.000000", "211810.460000", "211810.920000", "211811.380000", "211811.840000", "211812.300000", "211812.760000", "211813.220000", "211813.680000", "211814.140000", "211814.600000", "211815.060000", "211815.520000", "211815.980000", "211816.440000", "211816.900000", "211817.360000", "211817.820000", "211818.280000", "211818.740000", "211819.200000", "211819.660000", "211820.120000", "211820.580000", "211821.040000", "211821.500000", "211821.960000", "211822.420000", "211822.880000", "211823.340000", "211823.800000", "211824.260000", "211824.720000", "211825.180000", "211825.640000", "211826.100000", "211826.560000", "211827.020000", "211827.480000", "211827.940000", "211828.400000", "211828.860000", "211829.320000", "211829.780000", "211830.240000", "211830.700000", "211831.160000", "211831.620000", "211832.080000", "211832.540000", "211833.000000", "211833.460000", "211833.920000", "211834.380000", "211834.840000", "211835.300000", "211835.760000", "211836.220000", "211836.680000", "211837.140000", "211837.600000", "211838.060000", "211838.520000", "211838.980000", "211839.440000", "211839.900000", "211840.360000", "211840.820000", "211841.280000", "211841.740000", "211842.200000", "211842.660000", "211843.120000", "211843.580000", "211844.040000", "211844.500000", "211844.960000", "211845.420000", "211845.880000", "211846.340000", "211846.800000", "211847.260000", "211847.720000", "211848.180000", "211848.640000", "211849.100000", "211849.560000", "211850.020000", "211850.480000", "211850.940000", "211851.400000", "211851.860000", "211852.320000", "211852.780000", "211853.240000", "211853.700000", "211854.160000", "211854.620000", "211855.080000", "211855.540000", "211856.000000", "211856.460000", "211856.920000", "211857.380000", "211857.840000", "211858.300000", "211858.760000", "211859.220000", "211859.680000", "211900.140000", "211900.600000", "211901.060000", "211901.520000", "211901.980000", "211902.440000", "211902.900000", "211903.360000", "211903.820000", "211904.280000", "211904.740000", "211905.200000", "211905.660000", "211906.120000", "211906.580000", "211907.040000", "211907.500000", "211907.960000", "211908.420000", "211908.880000", "211909.340000", "211909.800000", "211910.260000", "211910.720000", "211911.180000", "211911.640000", "211912.100000", "211912.560000", "211913.020000", "211913.480000", "211913.940000", "211914.400000", "211914.860000", "211915.320000", "211915.780000", "211916.240000", "211916.700000", "211917.160000", "211917.620000", "211918.080000", "211918.540000", "211919.000000", "211919.460000", "211919.920000", "211920.380000", "211920.840000", "211921.300000", "211921.760000", "211922.220000", "211922.680000", "211923.140000", "211923.600000", "211924.060000", "211924.520000", "211924.980000", "211925.440000", "211925.900000", "211926.360000", "211926.820000", "211927.280000", "211927.740000", "211928.200000", "211928.660000", "211929.120000", "211929.580000", "211930.040000", "211930.500000", "211930.960000", "211931.420000", "211931.880000", "211932.340000", "211932.800000", "211933.260000", "211933.720000", "211934.180000", "211934.640000", "211935.100000", "211935.560000", "211936.020000", "211936.480000", "211936.940000", "211937.400000", "211937.860000", "211938.320000", "211938.780000", "211939.240000", "211939.700000", "211940.160000", "211940.620000", "211941.080000", "211941.540000", "211942.000000", "211942.460000", "211942.920000", "211943.380000", "211943.840000", "211944.300000", "211944.760000", "211945.220000", "211945.680000", "211946.140000", "211946.600000", "211947.060000", "211947.520000", "211947.980000", "211948.440000", "211948.900000", "211949.360000", "211949.820000", "211950.280000", "211950.740000", "211951.200000", "211951.660000", "211952.120000", "211952.580000", "211953.040000", "211953.500000", "211953.960000", "211954.420000", "211954.880000", "211955.340000", "211955.800000", "211956.260000", "211956.720000", "211957.180000", "211957.640000", "211958.100000", "211958.560000", "211959.020000", "211959.480000", "211959.940000", "212000.400000", "212000.860000", "212001.320000", "212001.780000", "212002.240000", "212002.700000", "212003.160000", "212003.620000", "212004.080000", "212004.540000", "212005.000000", "212005.460000", "212005.920000", "212006.380000", "212006.840000", "212007.300000", "212007.760000", "212008.220000", "212008.680000", "212009.140000", "212009.600000", "212010.060000", "212010.520000", "212010.980000", "212011.440000", "212011.900000", "212012.360000", "212012.820000", "212013.280000", "212013.740000", "212014.200000", "212014.660000", "212015.120000", "212015.580000", "212016.040000", "212016.500000", "212016.960000", "212017.420000", "212017.880000", "212018.340000", "212018.800000", "212019.260000", "212019.720000", "212020.180000", "212020.640000", "212021.100000", "212021.560000", "212022.020000", "212022.480000", "212022.940000", "212023.400000", "212023.860000", "212024.320000", "212024.780000", "212025.240000", "212025.700000", "212026.160000", "212026.620000", "212027.080000", "212027.540000", "212028.000000", "212028.460000", "212028.920000", "212029.380000", "212029.840000", "212030.300000", "212030.760000", "212031.220000", "212031.680000", "212032.140000", "212032.600000", "212033.060000", "212033.520000", "212033.980000", "212034.440000", "212034.900000", "212035.360000", "212035.820000", "212036.280000", "212036.740000", "212037.200000", "212037.660000", "212038.120000", "212038.580000", "212039.040000", "212039.500000", "212039.960000", "212040.420000", "212040.880000", "212041.340000", "212041.800000", "212042.260000", "212042.720000", "212043.180000", "212043.640000", "212044.100000", "212044.560000", "212045.020000", "212045.480000", "212045.940000", "212046.400000", "212046.860000", "212047.320000", "212047.780000", "212048.240000", "212048.700000", "212049.160000", "212049.620000", "212050.080000", "212050.540000", "212051.000000", "212051.460000"],
