{
  "AcquisitionMatrixPE": 82,
  "AcquisitionNumber": 1,
  "AcquisitionTime": "21:24:12.762500",
  "BandwidthPerPixelPhaseEncode": 24.888,
  "BaseResolution": 82,
  "BodyPartExamined": "BRAIN",
  "ConsistencyInfo": "N4_VE11E_LATEST_20181129",
  "ConversionSoftware": "dcm2niix",
  "ConversionSoftwareVersion": "v1.0.20201102",
  "DerivedVendorReportedEchoSpacing": 0.00049,
  "DeviceSerialNumber": "66112",
  "DwellTime": 2e-06,
  "EchoTime": 0.0272,
  "EchoTrainLength": 82,
  "EffectiveEchoSpacing": 0.00049,
  "FlipAngle": 44,
  "ImageComments": "Unaliased MB8/PE3",
  "ImageOrientationPatientDICOM": [0.999043, 0.0144687, 0.0412751, -0.0219736, 0.981994, 0.187629],
  "ImageType": [
    "ORIGINAL",
    "PRIMARY",
    "M",
    "MB",
    "ND",
    "NORM",
    "MOSAIC"
],
  "ImagingFrequency": 123.259,
  "InPlanePhaseEncodingDirectionDICOM": "COL",
  "InstitutionAddress": "Maynard 3,Hanover,NH,US,03755",
  "InstitutionName": "Dartmouth College - PBS",
  "InstitutionalDepartmentName": "Department",
  "MRAcquisitionType": "2D",
  "MagneticFieldStrength": 3,
  "Manufacturer": "Siemens",
  "ManufacturersModelName": "Prisma",
  "Modality": "MR",
  "MultibandAccelerationFactor": 8,
  "PartialFourier": 1,
  "PatientPosition": "HFS",
  "PercentPhaseFOV": 100,
  "PercentSampling": 100,
  "PhaseEncodingDirection": "j-",
  "PhaseEncodingSteps": 82,
  "PhaseResolution": 1,
  "PixelBandwidth": 3050,
  "ProcedureStepDescription": "Wager_Wager^1076_spacetop",
  "ProtocolName": "func_run-01_task-alignvideo_acq-ap-mb8",
  "PulseSequenceDetails": "%CustomerSeq%\\cmrr_mbep2d_bold",
  "ReceiveCoilActiveElements": "HEA;HEP",
  "ReceiveCoilName": "Head_32",
  "ReconMatrixPE": 82,
  "RepetitionTime": 0.46,
  "SAR": 0.093389,
  "ScanOptions": "FS",
  "ScanningSequence": "EP",
  "SequenceName": "epfid2d1_82",
  "SequenceVariant": "SK\\SS",
  "SeriesDescription": "func_run-01_task-alignvideo_acq-ap-mb8",
  "SeriesNumber": 30,
  "ShimSetting": [4226, -7787, -7153, 352, -150, 17, 117, 58],
  "SliceThickness": 2.7,
  "SliceTiming": [0, 0.2525, 0.065, 0.315, 0.1275, 0.3775, 0.19, 0, 0.2525, 0.065, 0.315, 0.1275, 0.3775, 0.19, 0, 0.2525, 0.065, 0.315, 0.1275, 0.3775, 0.19, 0, 0.2525, 0.065, 0.315, 0.1275, 0.3775, 0.19, 0, 0.2525, 0.065, 0.315, 0.1275, 0.3775, 0.19, 0, 0.2525, 0.065, 0.315, 0.1275, 0.3775, 0.19, 0, 0.2525, 0.065, 0.315, 0.1275, 0.3775, 0.19, 0, 0.2525, 0.065, 0.315, 0.1275, 0.3775, 0.19],
  "SoftwareVersions": "syngo MR E11",
  "SpacingBetweenSlices": 2.7,
  "StationName": "AWP66112",
  "TaskName": "alignvideo",
  "TotalReadoutTime": 0.03969,
  "TxRefAmp": 244.584,
  "WipMemBlock": "b9f367f8-cce1-4f99-b8ab-c9f2a29a089c||Sequence: R016 ve11e/master r/434b28f1; Aug  7 2019 18:53:46 by eja",
  "dcmmeta_affine": [
    [-2.680359363555908, -0.0589536651968956, 0.10210645943880081, 113.15240478515625],
    [-0.03881854563951492, 2.6346187591552734, 0.508561372756958, -110.64530181884766],
    [0.11073821038007736, -0.5033939480781555, 2.649705410003662, -26.70807456970215],
    [0.0, 0.0, 0.0, 1.0]
],
  "dcmmeta_reorient_transform": [
    [0.0, -1.0, 0.0, 81.0],
    [1.0, 0.0, 0.0, 0.0],
    [0.0, 0.0, 1.0, 0.0],
    [0.0, 0.0, 0.0, 1.0]
],
  "dcmmeta_shape": [82, 82, 56, 839],
  "dcmmeta_slice_dim": 2,
  "dcmmeta_version": 0.6,
  "global": {
    "const": {
      "AccessionNumber": "A004631",
      "AcquisitionMatrix": [82, 0, 0, 82],
      "AngioFlag": "N",
      "BitsAllocated": 16,
      "BitsStored": 16,
      "BodyPartExamined": "BRAIN",
      "Columns": 656,
      "EchoNumbers": 1,
      "EchoTime": 27.2,
      "EchoTrainLength": 82,
      "FlipAngle": 44.0,
      "HighBit": 15,
      "ImageOrientationPatient": [0.99904305107154, 0.01446873084123, 0.0412751491035, -0.0219736382645, 0.98199422017609, 0.18762865122942],
      "ImagePositionPatient": [-860.72062059079, -870.03530455495, -243.73891507456],
      "ImageType": [
        "ORIGINAL",
        "PRIMARY",
        "M",
        "MB",
        "ND",
        "NORM",
        "MOSAIC"
],
      "ImagedNucleus": "1H",
      "ImagingFrequency": 123.259045,
      "InPlanePhaseEncodingDirection": "COL",
      "MRAcquisitionType": "2D",
      "MagneticFieldStrength": 3.0,
      "Manufacturer": "SIEMENS",
      "ManufacturerModelName": "Prisma",
      "Modality": "MR",
      "NumberOfAverages": 1.0,
      "NumberOfPhaseEncodingSteps": 82,
      "PercentPhaseFieldOfView": 100.0,
      "PercentSampling": 100.0,
      "PerformedProcedureStepStartTime": "192924.816000",
      "PhotometricInterpretation": "MONOCHROME2",
      "PixelBandwidth": 3050.0,
      "PixelRepresentation": 0,
      "PixelSpacing": [2.6829268932343, 2.6829268932343],
      "ProtocolName": "func_run-01_task-alignvideo_acq-ap-mb8",
      "RepetitionTime": 460.0,
      "Rows": 656,
      "SAR": 0.09338901111673,
      "SamplesPerPixel": 1,
      "ScanOptions": "FS",
      "ScanningSequence": "EP",
      "SequenceName": "epfid2d1_82",
      "SequenceVariant": [
        "SK",
        "SS"
],
      "SeriesDescription": "func_run-01_task-alignvideo_acq-ap-mb8",
      "SeriesNumber": 30,
      "SeriesTime": "212441.664000",
      "SliceLocation": -42.772173323765,
      "SliceThickness": 2.7000000476837,
      "SmallestImagePixelValue": 0,
      "SoftwareVersions": "syngo MR E11",
      "SpacingBetweenSlices": 2.6999999403764,
      "SpecificCharacterSet": "ISO_IR 100",
      "StudyID": "1",
      "StudyTime": "192924.746000",
      "TransmitCoilName": "Body",
      "VariableFlipAngleFlag": "N",
      "WindowCenterWidthExplanation": "Algo1"
    },
    "slices": {}
  },
  "time": {
    "samples": {
      "AcquisitionNumber": [1, 2, 3, 4, 5, 6, 7, 8, 9, 10, 11, 12, 13, 14, 15, 16, 17, 18, 19, 20, 21, 22, 23, 24, 25, 26, 27, 28, 29, 30, 31, 32, 33, 34, 35, 36, 37, 38, 39, 40, 41, 42, 43, 44, 45, 46, 47, 48, 49, 50, 51, 52, 53, 54, 55, 56, 57, 58, 59, 60, 61, 62, 63, 64, 65, 66, 67, 68, 69, 70, 71, 72, 73, 74, 75, 76, 77, 78, 79, 80, 81, 82, 83, 84, 85, 86, 87, 88, 89, 90, 91, 92, 93, 94, 95, 96, 97, 98, 99, 100, 101, 102, 103, 104, 105, 106, 107, 108, 109, 110, 111, 112, 113, 114, 115, 116, 117, 118, 119, 120, 121, 122, 123, 124, 125, 126, 127, 128, 129, 130, 131, 132, 133, 134, 135, 136, 137, 138, 139, 140, 141, 142, 143, 144, 145, 146, 147, 148, 149, 150, 151, 152, 153, 154, 155, 156, 157, 158, 159, 160, 161, 162, 163, 164, 165, 166, 167, 168, 169, 170, 171, 172, 173, 174, 175, 176, 177, 178, 179, 180, 181, 182, 183, 184, 185, 186, 187, 188, 189, 190, 191, 192, 193, 194, 195, 196, 197, 198, 199, 200, 201, 202, 203, 204, 205, 206, 207, 208, 209, 210, 211, 212, 213, 214, 215, 216, 217, 218, 219, 220, 221, 222, 223, 224, 225, 226, 227, 228, 229, 230, 231, 232, 233, 234, 235, 236, 237, 238, 239, 240, 241, 242, 243, 244, 245, 246, 247, 248, 249, 250, 251, 252, 253, 254, 255, 256, 257, 258, 259, 260, 261, 262, 263, 264, 265, 266, 267, 268, 269, 270, 271, 272, 273, 274, 275, 276, 277, 278, 279, 280, 281, 282, 283, 284, 285, 286, 287, 288, 289, 290, 291, 292, 293, 294, 295, 296, 297, 298, 299, 300, 301, 302, 303, 304, 305, 306, 307, 308, 309, 310, 311, 312, 313, 314, 315, 316, 317, 318, 319, 320, 321, 322, 323, 324, 325, 326, 327, 328, 329, 330, 331, 332, 333, 334, 335, 336, 337, 338, 339, 340, 341, 342, 343, 344, 345, 346, 347, 348, 349, 350, 351, 352, 353, 354, 355, 356, 357, 358, 359, 360, 361, 362, 363, 364, 365, 366, 367, 368, 369, 370, 371, 372, 373, 374, 375, 376, 377, 378, 379, 380, 381, 382, 383, 384, 385, 386, 387, 388, 389, 390, 391, 392, 393, 394, 395, 396, 397, 398, 399, 400, 401, 402, 403, 404, 405, 406, 407, 408, 409, 410, 411, 412, 413, 414, 415, 416, 417, 418, 419, 420, 421, 422, 423, 424, 425, 426, 427, 428, 429, 430, 431, 432, 433, 434, 435, 436, 437, 438, 439, 440, 441, 442, 443, 444, 445, 446, 447, 448, 449, 450, 451, 452, 453, 454, 455, 456, 457, 458, 459, 460, 461, 462, 463, 464, 465, 466, 467, 468, 469, 470, 471, 472, 473, 474, 475, 476, 477, 478, 479, 480, 481, 482, 483, 484, 485, 486, 487, 488, 489, 490, 491, 492, 493, 494, 495, 496, 497, 498, 499, 500, 501, 502, 503, 504, 505, 506, 507, 508, 509, 510, 511, 512, 513, 514, 515, 516, 517, 518, 519, 520, 521, 522, 523, 524, 525, 526, 527, 528, 529, 530, 531, 532, 533, 534, 535, 536, 537, 538, 539, 540, 541, 542, 543, 544, 545, 546, 547, 548, 549, 550, 551, 552, 553, 554, 555, 556, 557, 558, 559, 560, 561, 562, 563, 564, 565, 566, 567, 568, 569, 570, 571, 572, 573, 574, 575, 576, 577, 578, 579, 580, 581, 582, 583, 584, 585, 586, 587, 588, 589, 590, 591, 592, 593, 594, 595, 596, 597, 598, 599, 600, 601, 602, 603, 604, 605, 606, 607, 608, 609, 610, 611, 612, 613, 614, 615, 616, 617, 618, 619, 620, 621, 622, 623, 624, 625, 626, 627, 628, 629, 630, 631, 632, 633, 634, 635, 636, 637, 638, 639, 640, 641, 642, 643, 644, 645, 646, 647, 648, 649, 650, 651, 652, 653, 654, 655, 656, 657, 658, 659, 660, 661, 662, 663, 664, 665, 666, 667, 668, 669, 670, 671, 672, 673, 674, 675, 676, 677, 678, 679, 680, 681, 682, 683, 684, 685, 686, 687, 688, 689, 690, 691, 692, 693, 694, 695, 696, 697, 698, 699, 700, 701, 702, 703, 704, 705, 706, 707, 708, 709, 710, 711, 712, 713, 714, 715, 716, 717, 718, 719, 720, 721, 722, 723, 724, 725, 726, 727, 728, 729, 730, 731, 732, 733, 734, 735, 736, 737, 738, 739, 740, 741, 742, 743, 744, 745, 746, 747, 748, 749, 750, 751, 752, 753, 754, 755, 756, 757, 758, 759, 760, 761, 762, 763, 764, 765, 766, 767, 768, 769, 770, 771, 772, 773, 774, 775, 776, 777, 778, 779, 780, 781, 782, 783, 784, 785, 786, 787, 788, 789, 790, 791, 792, 793, 794, 795, 796, 797, 798, 799, 800, 801, 802, 803, 804, 805, 806, 807, 808, 809, 810, 811, 812, 813, 814, 815, 816, 817, 818, 819, 820, 821, 822, 823, 824, 825, 826, 827, 828, 829, 830, 831, 832, 833, 834, 835, 836, 837, 838, 839],
      "AcquisitionTime": ["212412.762500", "212413.222500", "212413.682500", "212414.142500", "212414.602500", "212415.062500", "212415.522500", "212415.982500", "212416.442500", "212416.902500", "212417.362500", "212417.822500", "212418.282500", "212418.742500", "212419.202500", "212419.662500", "212420.122500", "212420.582500", "212421.042500", "212421.502500", "212421.962500", "212422.422500", "212422.882500", "212423.342500", "212423.802500", "212424.262500", "212424.722500", "212425.182500", "212425.642500", "212426.102500", "212426.562500", "212427.022500", "212427.482500", "212427.942500", "212428.402500", "212428.862500", "212429.322500", "212429.782500", "212430.242500", "212430.702500", "212431.162500", "212431.622500", "212432.082500", "212432.542500", "212433.002500", "212433.462500", "212433.922500", "212434.382500", "212434.842500", "212435.302500", "212435.762500", "212436.222500", "212436.682500", "212437.142500", "212437.602500", "212438.062500", "212438.522500", "212438.982500", "212439.442500", "212439.902500", "212440.362500", "212440.822500", "212441.282500", "212441.742500", "212442.202500", "212442.662500", "212443.122500", "212443.582500", "212444.042500", "212444.502500", "212444.962500", "212445.422500", "212445.882500", "212446.342500", "212446.802500", "212447.262500", "212447.722500", "212448.182500", "212448.642500", "212449.102500", "212449.562500", "212450.022500", "212450.482500", "212450.942500", "212451.402500", "212451.862500", "212452.322500", "212452.782500", "212453.242500", "212453.702500", "212454.162500", "212454.622500", "212455.082500", "212455.542500", "212456.002500", "212456.462500", "212456.922500", "212457.382500", "212457.842500", "212458.302500", "212458.762500", "212459.222500", "212459.682500", "212500.142500", "212500.602500", "212501.062500", "212501.522500", "212501.982500", "212502.442500", "212502.902500", "212503.362500", "212503.822500", "212504.282500", "212504.742500", "212505.202500", "212505.662500", "212506.122500", "212506.582500", "212507.042500", "212507.502500", "212507.962500", "212508.422500", "212508.882500", "212509.342500", "212509.802500", "212510.262500", "212510.722500", "212511.182500", "212511.642500", "212512.102500", "212512.562500", "212513.022500", "212513.482500", "212513.942500", "212514.402500", "212514.862500", "212515.322500", "212515.782500", "212516.242500", "212516.702500", "212517.162500", "212517.622500", "212518.082500", "212518.542500", "212519.002500", "212519.462500", "212519.922500", "212520.382500", "212520.842500", "212521.302500", "212521.762500", "212522.222500", "212522.682500", "212523.142500", "212523.602500", "212524.062500", "212524.522500", "212524.982500", "212525.442500", "212525.902500", "212526.362500", "212526.822500", "212527.282500", "212527.742500", "212528.202500", "212528.662500", "212529.122500", "212529.582500", "212530.042500", "212530.502500", "212530.962500", "212531.422500", "212531.882500", "212532.342500", "212532.802500", "212533.262500", "212533.722500", "212534.182500", "212534.642500", "212535.102500", "212535.562500", "212536.022500", "212536.482500", "212536.942500", "212537.402500", "212537.862500", "212538.322500", "212538.782500", "212539.242500", "212539.702500", "212540.162500", "212540.622500", "212541.082500", "212541.542500", "212542.002500", "212542.462500", "212542.922500", "212543.382500", "212543.842500", "212544.302500", "212544.762500", "212545.222500", "212545.682500", "212546.142500", "212546.602500", "212547.062500", "212547.522500", "212547.982500", "212548.442500", "212548.902500", "212549.362500", "212549.822500", "212550.282500", "212550.742500", "212551.202500", "212551.662500", "212552.122500", "212552.582500", "212553.042500", "212553.502500", "212553.962500", "212554.422500", "212554.882500", "212555.342500", "212555.802500", "212556.262500", "212556.722500", "212557.182500", "212557.642500", "212558.102500", "212558.562500", "212559.022500", "212559.482500", "212559.942500", "212600.402500", "212600.862500", "212601.322500", "212601.782500", "212602.242500", "212602.702500", "212603.162500", "212603.622500", "212604.082500", "212604.542500", "212605.002500", "212605.462500", "212605.922500", "212606.382500", "212606.842500", "212607.302500", "212607.762500", "212608.222500", "212608.682500", "212609.142500", "212609.602500", "212610.062500", "212610.522500", "212610.982500", "212611.442500", "212611.902500", "212612.362500", "212612.822500", "212613.282500", "212613.742500", "212614.202500", "212614.662500", "212615.122500", "212615.582500", "212616.042500", "212616.502500", "212616.962500", "212617.422500", "212617.882500", "212618.342500", "212618.802500", "212619.262500", "212619.722500", "212620.182500", "212620.642500", "212621.102500", "212621.562500", "212622.022500", "212622.482500", "212622.942500", "212623.402500", "212623.862500", "212624.322500", "212624.782500", "212625.242500", "212625.702500", "212626.162500", "212626.622500", "212627.082500", "212627.542500", "212628.002500", "212628.462500", "212628.922500", "212629.382500", "212629.842500", "212630.302500", "212630.762500", "212631.222500", "212631.682500", "212632.142500", "212632.602500", "212633.062500", "212633.522500", "212633.982500", "212634.442500", "212634.902500", "212635.362500", "212635.822500", "212636.282500", "212636.742500", "212637.202500", "212637.662500", "212638.122500", "212638.582500", "212639.042500", "212639.502500", "212639.962500", "212640.422500", "212640.882500", "212641.342500", "212641.802500", "212642.262500", "212642.722500", "212643.182500", "212643.642500", "212644.102500", "212644.562500", "212645.022500", "212645.482500", "212645.942500", "212646.402500", "212646.862500", "212647.322500", "212647.782500", "212648.242500", "212648.702500", "212649.162500", "212649.622500", "212650.082500", "212650.542500", "212651.002500", "212651.462500", "212651.922500", "212652.382500", "212652.842500", "212653.302500", "212653.762500", "212654.222500", "212654.682500", "212655.142500", "212655.602500", "212656.062500", "212656.522500", "212656.982500", "212657.442500", "212657.902500", "212658.362500", "212658.822500", "212659.282500", "212659.742500", "212700.202500", "212700.662500", "212701.122500", "212701.582500", "212702.042500", "212702.502500", "212702.962500", "212703.422500", "212703.882500", "212704.342500", "212704.802500", "212705.262500", "212705.722500", "212706.182500", "212706.642500", "212707.102500", "212707.562500", "212708.022500", "212708.482500", "212708.942500", "212709.402500", "212709.862500", "212710.322500", "212710.782500", "212711.242500", "212711.702500", "212712.162500", "212712.622500", "212713.082500", "212713.542500", "212714.002500", "212714.462500", "212714.922500", "212715.382500", "212715.842500", "212716.302500", "212716.762500", "212717.222500", "212717.682500", "212718.142500", "212718.602500", "212719.062500", "212719.522500", "212719.982500", "212720.442500", "212720.902500", "212721.362500", "212721.822500", "212722.282500", "212722.742500", "212723.202500", "212723.662500", "212724.122500", "212724.582500", "212725.042500", "212725.502500", "212725.962500", "212726.422500", "212726.882500", "212727.342500", "212727.802500", "212728.262500", "212728.722500", "212729.182500", "212729.642500", "212730.102500", "212730.562500", "212731.022500", "212731.482500", "212731.942500", "212732.402500", "212732.862500", "212733.322500", "212733.782500", "212734.242500", "212734.702500", "212735.162500", "212735.622500", "212736.082500", "212736.542500", "212737.002500", "212737.462500", "212737.922500", "212738.382500", "212738.842500", "212739.302500", "212739.762500", "212740.222500", "212740.682500", "212741.142500", "212741.602500", "212742.062500", "212742.522500", "212742.982500", "212743.442500", "212743.902500", "212744.362500", "212744.822500", "212745.282500", "212745.742500", "212746.202500", "212746.662500", "212747.122500", "212747.582500", "212748.042500", "212748.502500", "212748.962500", "212749.422500", "212749.882500", "212750.342500", "212750.802500", "212751.262500", "212751.722500", "212752.182500", "212752.642500", "212753.102500", "212753.562500", "212754.022500", "212754.482500", "212754.942500", "212755.402500", "212755.862500", "212756.322500", "212756.782500", "212757.242500", "212757.702500", "212758.162500", "212758.622500", "212759.082500", "212759.542500", "212800.002500", "212800.462500", "212800.922500", "212801.382500", "212801.842500", "212802.302500", "212802.762500", "212803.222500", "212803.682500", "212804.142500", "212804.602500", "212805.062500", "212805.522500", "212805.982500", "212806.442500", "212806.902500", "212807.362500", "212807.822500", "212808.282500", "212808.742500", "212809.202500", "212809.662500", "212810.122500", "212810.582500", "212811.042500", "212811.502500", "212811.962500", "212812.422500", "212812.882500", "212813.342500", "212813.802500", "212814.262500", "212814.722500", "212815.182500", "212815.642500", "212816.102500", "212816.562500", "212817.022500", "212817.482500", "212817.942500", "212818.402500", "212818.862500", "212819.322500", "212819.782500", "212820.242500", "212820.702500", "212821.162500", "212821.622500", "212822.082500", "212822.542500", "212823.002500", "212823.462500", "212823.922500", "212824.382500", "212824.842500", "212825.302500", "212825.762500", "212826.222500", "212826.682500", "212827.142500", "212827.602500", "212828.062500", "212828.522500", "212828.982500", "212829.442500", "212829.902500", "212830.362500", "212830.822500", "212831.282500", "212831.742500", "212832.202500", "212832.662500", "212833.122500", "212833.582500", "212834.042500", "212834.502500", "212834.962500", "212835.422500", "212835.882500", "212836.342500", "212836.802500", "212837.262500", "212837.722500", "212838.182500", "212838.642500", "212839.102500", "212839.562500", "212840.022500", "212840.482500", "212840.942500", "212841.402500", "212841.862500", "212842.322500", "212842.782500", "212843.242500", "212843.702500", "212844.162500", "212844.622500", "212845.082500", "212845.542500", "212846.002500", "212846.462500", "212846.922500", "212847.382500", "212847.842500", "212848.302500", "212848.762500", "212849.222500", "212849.682500", "212850.142500", "212850.602500", "212851.062500", "212851.522500", "212851.982500", "212852.442500", "212852.902500", "212853.362500", "212853.822500", "212854.282500", "212854.742500", "212855.202500", "212855.662500", "212856.122500", "212856.582500", "212857.042500", "212857.502500", "212857.962500", "212858.422500", "212858.882500", "212859.342500", "212859.802500", "212900.262500", "212900.722500", "212901.182500", "212901.642500", "212902.102500", "212902.562500", "212903.022500", "212903.482500", "212903.942500", "212904.402500", "212904.862500", "212905.322500", "212905.782500", "212906.242500", "212906.702500", "212907.162500", "212907.622500", "212908.082500", "212908.542500", "212909.002500", "212909.462500", "212909.922500", "212910.382500", "212910.842500", "212911.302500", "212911.762500", "212912.222500", "212912.682500", "212913.142500", "212913.602500", "212914.062500", "212914.522500", "212914.982500", "212915.442500", "212915.902500", "212916.362500", "212916.822500", "212917.282500", "212917.742500", "212918.202500", "212918.662500", "212919.122500", "212919.582500", "212920.042500", "212920.502500", "212920.962500", "212921.422500", "212921.882500", "212922.342500", "212922.802500", "212923.262500", "212923.722500", "212924.182500", "212924.642500", "212925.102500", "212925.562500", "212926.022500", "212926.482500", "212926.942500", "212927.402500", "212927.862500", "212928.322500", "212928.782500", "212929.242500", "212929.702500", "212930.162500", "212930.622500", "212931.082500", "212931.542500", "212932.002500", "212932.462500", "212932.922500", "212933.382500", "212933.842500", "212934.302500", "212934.762500", "212935.222500", "212935.682500", "212936.142500", "212936.602500", "212937.062500", "212937.522500", "212937.982500", "212938.442500", "212938.902500", "212939.362500", "212939.822500", "212940.282500", "212940.742500", "212941.202500", "212941.662500", "212942.122500", "212942.582500", "212943.042500", "212943.502500", "212943.962500", "212944.422500", "212944.882500", "212945.342500", "212945.802500", "212946.262500", "212946.722500", "212947.182500", "212947.642500", "212948.102500", "212948.562500", "212949.022500", "212949.482500", "212949.942500", "212950.402500", "212950.862500", "212951.322500", "212951.782500", "212952.242500", "212952.702500", "212953.162500", "212953.622500", "212954.082500", "212954.542500", "212955.002500", "212955.462500", "212955.922500", "212956.382500", "212956.842500", "212957.302500", "212957.762500", "212958.222500", "212958.682500", "212959.142500", "212959.602500", "213000.062500", "213000.522500", "213000.982500", "213001.442500", "213001.902500", "213002.362500", "213002.822500", "213003.282500", "213003.742500", "213004.202500", "213004.662500", "213005.122500", "213005.582500", "213006.042500", "213006.502500", "213006.962500", "213007.422500", "213007.882500", "213008.342500", "213008.802500", "213009.262500", "213009.722500", "213010.182500", "213010.642500", "213011.102500", "213011.562500", "213012.022500", "213012.482500", "213012.942500", "213013.402500", "213013.862500", "213014.322500", "213014.782500", "213015.242500", "213015.702500", "213016.162500", "213016.622500", "213017.082500", "213017.542500", "213018.002500", "213018.462500", "213018.922500", "213019.382500", "213019.842500", "213020.302500", "213020.762500", "213021.222500", "213021.682500", "213022.142500", "213022.602500", "213023.062500", "213023.522500", "213023.982500", "213024.442500", "213024.902500", "213025.362500", "213025.822500", "213026.282500", "213026.742500", "213027.202500", "213027.662500", "213028.122500", "213028.582500", "213029.042500", "213029.502500", "213029.962500", "213030.422500", "213030.882500", "213031.342500", "213031.802500", "213032.262500", "213032.722500", "213033.182500", "213033.642500", "213034.102500", "213034.562500", "213035.022500", "213035.482500", "213035.942500", "213036.402500", "213036.862500", "213037.322500", "213037.782500", "213038.242500"],
