{
  "AcquisitionMatrixPE": 82,
  "AcquisitionNumber": 1,
  "AcquisitionTime": "21:54:54.990000",
  "BandwidthPerPixelPhaseEncode": 24.888,
  "BaseResolution": 82,
  "BodyPartExamined": "BRAIN",
  "ConsistencyInfo": "N4_VE11E_LATEST_20181129",
  "ConversionSoftware": "dcm2niix",
  "ConversionSoftwareVersion": "v1.0.20201102",
  "DerivedVendorReportedEchoSpacing": 0.00049,
  "DeviceSerialNumber": "66112",
  "DwellTime": 2e-06,
  "EchoTime": 0.0272,
  "EchoTrainLength": 82,
  "EffectiveEchoSpacing": 0.00049,
  "FlipAngle": 44,
  "ImageComments": "Unaliased MB8/PE3",
  "ImageOrientationPatientDICOM": [0.999043, 0.0144687, 0.0412751, -0.0219736, 0.981994, 0.187629],
  "ImageType": [
    "ORIGINAL",
    "PRIMARY",
    "M",
    "MB",
    "ND",
    "NORM",
    "MOSAIC"
],
  "ImagingFrequency": 123.259,
  "InPlanePhaseEncodingDirectionDICOM": "COL",
  "InstitutionAddress": "Maynard 3,Hanover,NH,US,03755",
  "InstitutionName": "Dartmouth College - PBS",
  "InstitutionalDepartmentName": "Department",
  "MRAcquisitionType": "2D",
  "MagneticFieldStrength": 3,
  "Manufacturer": "Siemens",
  "ManufacturersModelName": "Prisma",
  "Modality": "MR",
  "MultibandAccelerationFactor": 8,
  "PartialFourier": 1,
  "PatientPosition": "HFS",
  "PercentPhaseFOV": 100,
  "PercentSampling": 100,
  "PhaseEncodingDirection": "j-",
  "PhaseEncodingSteps": 82,
  "PhaseResolution": 1,
  "PixelBandwidth": 3050,
  "ProcedureStepDescription": "Wager_Wager^1076_spacetop",
  "ProtocolName": "func_run-04_task-alignvideo_acq-ap-mb8",
  "PulseSequenceDetails": "%CustomerSeq%\\cmrr_mbep2d_bold",
  "ReceiveCoilActiveElements": "HEA;HEP",
  "ReceiveCoilName": "Head_32",
  "ReconMatrixPE": 82,
  "RepetitionTime": 0.46,
  "SAR": 0.0934385,
  "ScanOptions": "FS",
  "ScanningSequence": "EP",
  "SequenceName": "epfid2d1_82",
  "SequenceVariant": "SK\\SS",
  "SeriesDescription": "func_run-04_task-alignvideo_acq-ap-mb8",
  "SeriesNumber": 36,
  "ShimSetting": [4226, -7787, -7153, 352, -150, 17, 117, 58],
  "SliceThickness": 2.7,
  "SliceTiming": [0, 0.2525, 0.065, 0.315, 0.1275, 0.3775, 0.19, 0, 0.2525, 0.065, 0.315, 0.1275, 0.3775, 0.19, 0, 0.2525, 0.065, 0.315, 0.1275, 0.3775, 0.19, 0, 0.2525, 0.065, 0.315, 0.1275, 0.3775, 0.19, 0, 0.2525, 0.065, 0.315, 0.1275, 0.3775, 0.19, 0, 0.2525, 0.065, 0.315, 0.1275, 0.3775, 0.19, 0, 0.2525, 0.065, 0.315, 0.1275, 0.3775, 0.19, 0, 0.2525, 0.065, 0.315, 0.1275, 0.3775, 0.19],
  "SoftwareVersions": "syngo MR E11",
  "SpacingBetweenSlices": 2.7,
  "StationName": "AWP66112",
  "TaskName": "alignvideo",
  "TotalReadoutTime": 0.03969,
  "TxRefAmp": 244.584,
  "WipMemBlock": "8f13793a-21b7-49d8-a56e-ad5a65ccc052||Sequence: R016 ve11e/master r/434b28f1; Aug  7 2019 18:53:46 by eja",
  "dcmmeta_affine": [
    [-2.680359363555908, -0.0589536651968956, 0.10210645943880081, 113.15240478515625],
    [-0.03881854563951492, 2.6346187591552734, 0.508561372756958, -110.64530181884766],
    [0.11073821038007736, -0.5033939480781555, 2.649705410003662, -26.70807456970215],
    [0.0, 0.0, 0.0, 1.0]
],
  "dcmmeta_reorient_transform": [
    [0.0, -1.0, 0.0, 81.0],
    [1.0, 0.0, 0.0, 0.0],
    [0.0, 0.0, 1.0, 0.0],
    [0.0, 0.0, 0.0, 1.0]
],
  "dcmmeta_shape": [82, 82, 56, 914],
  "dcmmeta_slice_dim": 2,
  "dcmmeta_version": 0.6,
  "global": {
    "const": {
      "AccessionNumber": "A004631",
      "AcquisitionMatrix": [82, 0, 0, 82],
      "AngioFlag": "N",
      "BitsAllocated": 16,
      "BitsStored": 16,
      "BodyPartExamined": "BRAIN",
      "Columns": 656,
      "EchoNumbers": 1,
      "EchoTime": 27.2,
      "EchoTrainLength": 82,
      "FlipAngle": 44.0,
      "HighBit": 15,
      "ImageOrientationPatient": [0.99904305107154, 0.01446873084123, 0.0412751491035, -0.0219736382645, 0.98199422017609, 0.18762865122942],
      "ImagePositionPatient": [-860.72062059079, -870.03530455495, -243.73891507456],
      "ImageType": [
        "ORIGINAL",
        "PRIMARY",
        "M",
        "MB",
        "ND",
        "NORM",
        "MOSAIC"
],
      "ImagedNucleus": "1H",
      "ImagingFrequency": 123.259053,
      "InPlanePhaseEncodingDirection": "COL",
      "MRAcquisitionType": "2D",
      "MagneticFieldStrength": 3.0,
      "Manufacturer": "SIEMENS",
      "ManufacturerModelName": "Prisma",
      "Modality": "MR",
      "NumberOfAverages": 1.0,
      "NumberOfPhaseEncodingSteps": 82,
      "PercentPhaseFieldOfView": 100.0,
      "PercentSampling": 100.0,
      "PerformedProcedureStepStartTime": "192924.816000",
      "PhotometricInterpretation": "MONOCHROME2",
      "PixelBandwidth": 3050.0,
      "PixelRepresentation": 0,
      "PixelSpacing": [2.6829268932343, 2.6829268932343],
      "ProtocolName": "func_run-04_task-alignvideo_acq-ap-mb8",
      "RepetitionTime": 460.0,
      "Rows": 656,
      "SAR": 0.09343845631481,
      "SamplesPerPixel": 1,
      "ScanOptions": "FS",
      "ScanningSequence": "EP",
      "SequenceName": "epfid2d1_82",
      "SequenceVariant": [
        "SK",
        "SS"
],
      "SeriesDescription": "func_run-04_task-alignvideo_acq-ap-mb8",
      "SeriesNumber": 36,
      "SeriesTime": "215521.656000",
      "SliceLocation": -42.772173323765,
      "SliceThickness": 2.7000000476837,
      "SmallestImagePixelValue": 0,
      "SoftwareVersions": "syngo MR E11",
      "SpacingBetweenSlices": 2.6999999403764,
      "SpecificCharacterSet": "ISO_IR 100",
      "StudyID": "1",
      "StudyTime": "192924.746000",
      "TransmitCoilName": "Body",
      "VariableFlipAngleFlag": "N",
      "WindowCenterWidthExplanation": "Algo1"
    },
    "slices": {}
  },
  "time": {
    "samples": {
      "AcquisitionNumber": [1, 2, 3, 4, 5, 6, 7, 8, 9, 10, 11, 12, 13, 14, 15, 16, 17, 18, 19, 20, 21, 22, 23, 24, 25, 26, 27, 28, 29, 30, 31, 32, 33, 34, 35, 36, 37, 38, 39, 40, 41, 42, 43, 44, 45, 46, 47, 48, 49, 50, 51, 52, 53, 54, 55, 56, 57, 58, 59, 60, 61, 62, 63, 64, 65, 66, 67, 68, 69, 70, 71, 72, 73, 74, 75, 76, 77, 78, 79, 80, 81, 82, 83, 84, 85, 86, 87, 88, 89, 90, 91, 92, 93, 94, 95, 96, 97, 98, 99, 100, 101, 102, 103, 104, 105, 106, 107, 108, 109, 110, 111, 112, 113, 114, 115, 116, 117, 118, 119, 120, 121, 122, 123, 124, 125, 126, 127, 128, 129, 130, 131, 132, 133, 134, 135, 136, 137, 138, 139, 140, 141, 142, 143, 144, 145, 146, 147, 148, 149, 150, 151, 152, 153, 154, 155, 156, 157, 158, 159, 160, 161, 162, 163, 164, 165, 166, 167, 168, 169, 170, 171, 172, 173, 174, 175, 176, 177, 178, 179, 180, 181, 182, 183, 184, 185, 186, 187, 188, 189, 190, 191, 192, 193, 194, 195, 196, 197, 198, 199, 200, 201, 202, 203, 204, 205, 206, 207, 208, 209, 210, 211, 212, 213, 214, 215, 216, 217, 218, 219, 220, 221, 222, 223, 224, 225, 226, 227, 228, 229, 230, 231, 232, 233, 234, 235, 236, 237, 238, 239, 240, 241, 242, 243, 244, 245, 246, 247, 248, 249, 250, 251, 252, 253, 254, 255, 256, 257, 258, 259, 260, 261, 262, 263, 264, 265, 266, 267, 268, 269, 270, 271, 272, 273, 274, 275, 276, 277, 278, 279, 280, 281, 282, 283, 284, 285, 286, 287, 288, 289, 290, 291, 292, 293, 294, 295, 296, 297, 298, 299, 300, 301, 302, 303, 304, 305, 306, 307, 308, 309, 310, 311, 312, 313, 314, 315, 316, 317, 318, 319, 320, 321, 322, 323, 324, 325, 326, 327, 328, 329, 330, 331, 332, 333, 334, 335, 336, 337, 338, 339, 340, 341, 342, 343, 344, 345, 346, 347, 348, 349, 350, 351, 352, 353, 354, 355, 356, 357, 358, 359, 360, 361, 362, 363, 364, 365, 366, 367, 368, 369, 370, 371, 372, 373, 374, 375, 376, 377, 378, 379, 380, 381, 382, 383, 384, 385, 386, 387, 388, 389, 390, 391, 392, 393, 394, 395, 396, 397, 398, 399, 400, 401, 402, 403, 404, 405, 406, 407, 408, 409, 410, 411, 412, 413, 414, 415, 416, 417, 418, 419, 420, 421, 422, 423, 424, 425, 426, 427, 428, 429, 430, 431, 432, 433, 434, 435, 436, 437, 438, 439, 440, 441, 442, 443, 444, 445, 446, 447, 448, 449, 450, 451, 452, 453, 454, 455, 456, 457, 458, 459, 460, 461, 462, 463, 464, 465, 466, 467, 468, 469, 470, 471, 472, 473, 474, 475, 476, 477, 478, 479, 480, 481, 482, 483, 484, 485, 486, 487, 488, 489, 490, 491, 492, 493, 494, 495, 496, 497, 498, 499, 500, 501, 502, 503, 504, 505, 506, 507, 508, 509, 510, 511, 512, 513, 514, 515, 516, 517, 518, 519, 520, 521, 522, 523, 524, 525, 526, 527, 528, 529, 530, 531, 532, 533, 534, 535, 536, 537, 538, 539, 540, 541, 542, 543, 544, 545, 546, 547, 548, 549, 550, 551, 552, 553, 554, 555, 556, 557, 558, 559, 560, 561, 562, 563, 564, 565, 566, 567, 568, 569, 570, 571, 572, 573, 574, 575, 576, 577, 578, 579, 580, 581, 582, 583, 584, 585, 586, 587, 588, 589, 590, 591, 592, 593, 594, 595, 596, 597, 598, 599, 600, 601, 602, 603, 604, 605, 606, 607, 608, 609, 610, 611, 612, 613, 614, 615, 616, 617, 618, 619, 620, 621, 622, 623, 624, 625, 626, 627, 628, 629, 630, 631, 632, 633, 634, 635, 636, 637, 638, 639, 640, 641, 642, 643, 644, 645, 646, 647, 648, 649, 650, 651, 652, 653, 654, 655, 656, 657, 658, 659, 660, 661, 662, 663, 664, 665, 666, 667, 668, 669, 670, 671, 672, 673, 674, 675, 676, 677, 678, 679, 680, 681, 682, 683, 684, 685, 686, 687, 688, 689, 690, 691, 692, 693, 694, 695, 696, 697, 698, 699, 700, 701, 702, 703, 704, 705, 706, 707, 708, 709, 710, 711, 712, 713, 714, 715, 716, 717, 718, 719, 720, 721, 722, 723, 724, 725, 726, 727, 728, 729, 730, 731, 732, 733, 734, 735, 736, 737, 738, 739, 740, 741, 742, 743, 744, 745, 746, 747, 748, 749, 750, 751, 752, 753, 754, 755, 756, 757, 758, 759, 760, 761, 762, 763, 764, 765, 766, 767, 768, 769, 770, 771, 772, 773, 774, 775, 776, 777, 778, 779, 780, 781, 782, 783, 784, 785, 786, 787, 788, 789, 790, 791, 792, 793, 794, 795, 796, 797, 798, 799, 800, 801, 802, 803, 804, 805, 806, 807, 808, 809, 810, 811, 812, 813, 814, 815, 816, 817, 818, 819, 820, 821, 822, 823, 824, 825, 826, 827, 828, 829, 830, 831, 832, 833, 834, 835, 836, 837, 838, 839, 840, 841, 842, 843, 844, 845, 846, 847, 848, 849, 850, 851, 852, 853, 854, 855, 856, 857, 858, 859, 860, 861, 862, 863, 864, 865, 866, 867, 868, 869, 870, 871, 872, 873, 874, 875, 876, 877, 878, 879, 880, 881, 882, 883, 884, 885, 886, 887, 888, 889, 890, 891, 892, 893, 894, 895, 896, 897, 898, 899, 900, 901, 902, 903, 904, 905, 906, 907, 908, 909, 910, 911, 912, 913, 914],
      "AcquisitionTime": ["215454.990000", "215455.450000", "215455.910000", "215456.370000", "215456.830000", "215457.290000", "215457.750000", "215458.210000", "215458.670000", "215459.130000", "215459.590000", "215500.050000", "215500.510000", "215500.970000", "215501.430000", "215501.890000", "215502.350000", "215502.810000", "215503.270000", "215503.730000", "215504.190000", "215504.650000", "215505.110000", "215505.570000", "215506.030000", "215506.490000", "215506.950000", "215507.410000", "215507.870000", "215508.330000", "215508.790000", "215509.250000", "215509.710000", "215510.170000", "215510.630000", "215511.090000", "215511.550000", "215512.010000", "215512.470000", "215512.930000", "215513.390000", "215513.850000", "215514.310000", "215514.770000", "215515.230000", "215515.690000", "215516.150000", "215516.610000", "215517.070000", "215517.530000", "215517.990000", "215518.450000", "215518.910000", "215519.370000", "215519.830000", "215520.290000", "215520.750000", "215521.210000", "215521.670000", "215522.130000", "215522.590000", "215523.050000", "215523.510000", "215523.970000", "215524.430000", "215524.890000", "215525.350000", "215525.810000", "215526.270000", "215526.730000", "215527.190000", "215527.650000", "215528.110000", "215528.570000", "215529.030000", "215529.490000", "215529.950000", "215530.410000", "215530.870000", "215531.330000", "215531.790000", "215532.250000", "215532.710000", "215533.170000", "215533.630000", "215534.090000", "215534.550000", "215535.010000", "215535.470000", "215535.930000", "215536.390000", "215536.850000", "215537.310000", "215537.770000", "215538.230000", "215538.690000", "215539.150000", "215539.610000", "215540.070000", "215540.530000", "215540.990000", "215541.450000", "215541.910000", "215542.370000", "215542.830000", "215543.290000", "215543.750000", "215544.210000", "215544.670000", "215545.130000", "215545.590000", "215546.050000", "215546.510000", "215546.970000", "215547.430000", "215547.890000", "215548.350000", "215548.810000", "215549.270000", "215549.730000", "215550.190000", "215550.650000", "215551.110000", "215551.570000", "215552.030000", "215552.490000", "215552.950000", "215553.410000", "215553.870000", "215554.330000", "215554.790000", "215555.250000", "215555.710000", "215556.170000", "215556.630000", "215557.090000", "215557.550000", "215558.010000", "215558.470000", "215558.930000", "215559.390000", "215559.850000", "215600.310000", "215600.770000", "215601.230000", "215601.690000", "215602.150000", "215602.610000", "215603.070000", "215603.530000", "215603.990000", "215604.450000", "215604.910000", "215605.370000", "215605.830000", "215606.290000", "215606.750000", "215607.210000", "215607.670000", "215608.130000", "215608.590000", "215609.050000", "215609.510000", "215609.970000", "215610.430000", "215610.890000", "215611.350000", "215611.810000", "215612.270000", "215612.730000", "215613.190000", "215613.650000", "215614.110000", "215614.570000", "215615.030000", "215615.490000", "215615.950000", "215616.410000", "215616.870000", "215617.330000", "215617.790000", "215618.250000", "215618.710000", "215619.170000", "215619.630000", "215620.090000", "215620.550000", "215621.010000", "215621.470000", "215621.930000", "215622.390000", "215622.850000", "215623.310000", "215623.770000", "215624.230000", "215624.690000", "215625.150000", "215625.610000", "215626.070000", "215626.530000", "215626.990000", "215627.450000", "215627.910000", "215628.370000", "215628.830000", "215629.290000", "215629.750000", "215630.210000", "215630.670000", "215631.130000", "215631.590000", "215632.050000", "215632.510000", "215632.970000", "215633.430000", "215633.890000", "215634.350000", "215634.810000", "215635.270000", "215635.730000", "215636.190000", "215636.650000", "215637.110000", "215637.570000", "215638.030000", "215638.490000", "215638.950000", "215639.410000", "215639.870000", "215640.330000", "215640.790000", "215641.250000", "215641.710000", "215642.170000", "215642.630000", "215643.090000", "215643.550000", "215644.010000", "215644.470000", "215644.930000", "215645.390000", "215645.850000", "215646.310000", "215646.770000", "215647.230000", "215647.690000", "215648.150000", "215648.610000", "215649.070000", "215649.530000", "215649.990000", "215650.450000", "215650.910000", "215651.370000", "215651.830000", "215652.290000", "215652.750000", "215653.210000", "215653.670000", "215654.130000", "215654.590000", "215655.050000", "215655.510000", "215655.970000", "215656.430000", "215656.890000", "215657.350000", "215657.810000", "215658.270000", "215658.730000", "215659.190000", "215659.650000", "215700.110000", "215700.570000", "215701.030000", "215701.490000", "215701.950000", "215702.410000", "215702.870000", "215703.330000", "215703.790000", "215704.250000", "215704.710000", "215705.170000", "215705.630000", "215706.090000", "215706.550000", "215707.010000", "215707.470000", "215707.930000", "215708.390000", "215708.850000", "215709.310000", "215709.770000", "215710.230000", "215710.690000", "215711.150000", "215711.610000", "215712.070000", "215712.530000", "215712.990000", "215713.450000", "215713.910000", "215714.370000", "215714.830000", "215715.290000", "215715.750000", "215716.210000", "215716.670000", "215717.130000", "215717.590000", "215718.050000", "215718.510000", "215718.970000", "215719.430000", "215719.890000", "215720.350000", "215720.810000", "215721.270000", "215721.730000", "215722.190000", "215722.650000", "215723.110000", "215723.570000", "215724.030000", "215724.490000", "215724.950000", "215725.410000", "215725.870000", "215726.330000", "215726.790000", "215727.250000", "215727.710000", "215728.170000", "215728.630000", "215729.090000", "215729.550000", "215730.010000", "215730.470000", "215730.930000", "215731.390000", "215731.850000", "215732.310000", "215732.770000", "215733.230000", "215733.690000", "215734.150000", "215734.610000", "215735.070000", "215735.530000", "215735.990000", "215736.450000", "215736.910000", "215737.370000", "215737.830000", "215738.290000", "215738.750000", "215739.210000", "215739.670000", "215740.130000", "215740.590000", "215741.050000", "215741.510000", "215741.970000", "215742.430000", "215742.890000", "215743.350000", "215743.810000", "215744.270000", "215744.730000", "215745.190000", "215745.650000", "215746.110000", "215746.570000", "215747.030000", "215747.490000", "215747.950000", "215748.410000", "215748.870000", "215749.330000", "215749.790000", "215750.250000", "215750.710000", "215751.170000", "215751.630000", "215752.090000", "215752.550000", "215753.010000", "215753.470000", "215753.930000", "215754.390000", "215754.850000", "215755.310000", "215755.770000", "215756.230000", "215756.690000", "215757.150000", "215757.610000", "215758.070000", "215758.530000", "215758.990000", "215759.450000", "215759.910000", "215800.370000", "215800.830000", "215801.290000", "215801.750000", "215802.210000", "215802.670000", "215803.130000", "215803.590000", "215804.050000", "215804.510000", "215804.970000", "215805.430000", "215805.890000", "215806.350000", "215806.810000", "215807.270000", "215807.730000", "215808.190000", "215808.650000", "215809.110000", "215809.570000", "215810.030000", "215810.490000", "215810.950000", "215811.410000", "215811.870000", "215812.330000", "215812.790000", "215813.250000", "215813.710000", "215814.170000", "215814.630000", "215815.090000", "215815.550000", "215816.010000", "215816.470000", "215816.930000", "215817.390000", "215817.850000", "215818.310000", "215818.770000", "215819.230000", "215819.690000", "215820.150000", "215820.610000", "215821.070000", "215821.530000", "215821.990000", "215822.450000", "215822.910000", "215823.370000", "215823.830000", "215824.290000", "215824.750000", "215825.210000", "215825.670000", "215826.130000", "215826.590000", "215827.050000", "215827.510000", "215827.970000", "215828.430000", "215828.890000", "215829.350000", "215829.810000", "215830.270000", "215830.730000", "215831.190000", "215831.650000", "215832.110000", "215832.570000", "215833.030000", "215833.490000", "215833.950000", "215834.410000", "215834.870000", "215835.330000", "215835.790000", "215836.250000", "215836.710000", "215837.170000", "215837.630000", "215838.090000", "215838.550000", "215839.010000", "215839.470000", "215839.930000", "215840.390000", "215840.850000", "215841.310000", "215841.770000", "215842.230000", "215842.690000", "215843.150000", "215843.610000", "215844.070000", "215844.530000", "215844.990000", "215845.450000", "215845.910000", "215846.370000", "215846.830000", "215847.290000", "215847.750000", "215848.210000", "215848.670000", "215849.130000", "215849.590000", "215850.050000", "215850.510000", "215850.970000", "215851.430000", "215851.890000", "215852.350000", "215852.810000", "215853.270000", "215853.730000", "215854.190000", "215854.650000", "215855.110000", "215855.570000", "215856.030000", "215856.490000", "215856.950000", "215857.410000", "215857.870000", "215858.330000", "215858.790000", "215859.250000", "215859.710000", "215900.170000", "215900.630000", "215901.090000", "215901.550000", "215902.010000", "215902.470000", "215902.930000", "215903.390000", "215903.850000", "215904.310000", "215904.770000", "215905.230000", "215905.690000", "215906.150000", "215906.610000", "215907.070000", "215907.530000", "215907.990000", "215908.450000", "215908.910000", "215909.370000", "215909.830000", "215910.290000", "215910.750000", "215911.210000", "215911.670000", "215912.130000", "215912.590000", "215913.050000", "215913.510000", "215913.970000", "215914.430000", "215914.890000", "215915.350000", "215915.810000", "215916.270000", "215916.730000", "215917.190000", "215917.650000", "215918.110000", "215918.570000", "215919.030000", "215919.490000", "215919.950000", "215920.410000", "215920.870000", "215921.330000", "215921.790000", "215922.250000", "215922.710000", "215923.170000", "215923.630000", "215924.090000", "215924.550000", "215925.010000", "215925.470000", "215925.930000", "215926.390000", "215926.850000", "215927.310000", "215927.770000", "215928.230000", "215928.690000", "215929.150000", "215929.610000", "215930.070000", "215930.530000", "215930.990000", "215931.450000", "215931.910000", "215932.370000", "215932.830000", "215933.290000", "215933.750000", "215934.210000", "215934.670000", "215935.130000", "215935.590000", "215936.050000", "215936.510000", "215936.970000", "215937.430000", "215937.890000", "215938.350000", "215938.810000", "215939.270000", "215939.730000", "215940.190000", "215940.650000", "215941.110000", "215941.570000", "215942.030000", "215942.490000", "215942.950000", "215943.410000", "215943.870000", "215944.330000", "215944.790000", "215945.250000", "215945.710000", "215946.170000", "215946.630000", "215947.090000", "215947.550000", "215948.010000", "215948.470000", "215948.930000", "215949.390000", "215949.850000", "215950.310000", "215950.770000", "215951.230000", "215951.690000", "215952.150000", "215952.610000", "215953.070000", "215953.530000", "215953.990000", "215954.450000", "215954.910000", "215955.370000", "215955.830000", "215956.290000", "215956.750000", "215957.210000", "215957.670000", "215958.130000", "215958.590000", "215959.050000", "215959.510000", "215959.970000", "220000.430000", "220000.890000", "220001.350000", "220001.810000", "220002.270000", "220002.730000", "220003.190000", "220003.650000", "220004.110000", "220004.570000", "220005.030000", "220005.490000", "220005.950000", "220006.410000", "220006.870000", "220007.330000", "220007.790000", "220008.250000", "220008.710000", "220009.170000", "220009.630000", "220010.090000", "220010.550000", "220011.010000", "220011.470000", "220011.930000", "220012.390000", "220012.850000", "220013.310000", "220013.770000", "220014.230000", "220014.690000", "220015.150000", "220015.610000", "220016.070000", "220016.530000", "220016.990000", "220017.450000", "220017.910000", "220018.370000", "220018.830000", "220019.290000", "220019.750000", "220020.210000", "220020.670000", "220021.130000", "220021.590000", "220022.050000", "220022.510000", "220022.970000", "220023.430000", "220023.890000", "220024.350000", "220024.810000", "220025.270000", "220025.730000", "220026.190000", "220026.650000", "220027.110000", "220027.570000", "220028.030000", "220028.490000", "220028.950000", "220029.410000", "220029.870000", "220030.330000", "220030.790000", "220031.250000", "220031.710000", "220032.170000", "220032.630000", "220033.090000", "220033.550000", "220034.010000", "220034.470000", "220034.930000", "220035.390000", "220035.850000", "220036.310000", "220036.770000", "220037.230000", "220037.690000", "220038.150000", "220038.610000", "220039.070000", "220039.530000", "220039.990000", "220040.450000", "220040.910000", "220041.370000", "220041.830000", "220042.290000", "220042.750000", "220043.210000", "220043.670000", "220044.130000", "220044.590000", "220045.050000", "220045.510000", "220045.970000", "220046.430000", "220046.890000", "220047.350000", "220047.810000", "220048.270000", "220048.730000", "220049.190000", "220049.650000", "220050.110000", "220050.570000", "220051.030000", "220051.490000", "220051.950000", "220052.410000", "220052.870000", "220053.330000", "220053.790000", "220054.250000", "220054.710000", "220055.170000", "220055.630000", "220056.090000", "220056.550000", "220057.010000", "220057.470000", "220057.930000", "220058.390000", "220058.850000", "220059.310000", "220059.770000", "220100.230000", "220100.690000", "220101.150000", "220101.610000", "220102.070000", "220102.530000", "220102.990000", "220103.450000", "220103.910000", "220104.370000", "220104.830000", "220105.290000", "220105.750000", "220106.210000", "220106.670000", "220107.130000", "220107.590000", "220108.050000", "220108.510000", "220108.970000", "220109.430000", "220109.890000", "220110.350000", "220110.810000", "220111.270000", "220111.730000", "220112.190000", "220112.650000", "220113.110000", "220113.570000", "220114.030000", "220114.490000", "220114.950000", "220115.410000", "220115.870000", "220116.330000", "220116.790000", "220117.250000", "220117.710000", "220118.170000", "220118.630000", "220119.090000", "220119.550000", "220120.010000", "220120.470000", "220120.930000", "220121.390000", "220121.850000", "220122.310000", "220122.770000", "220123.230000", "220123.690000", "220124.150000", "220124.610000", "220125.070000", "220125.530000", "220125.990000", "220126.450000", "220126.910000", "220127.370000", "220127.830000", "220128.290000", "220128.750000", "220129.210000", "220129.670000", "220130.130000", "220130.590000", "220131.050000", "220131.510000", "220131.970000", "220132.430000", "220132.890000", "220133.350000", "220133.810000", "220134.270000", "220134.730000", "220135.190000", "220135.650000", "220136.110000", "220136.570000", "220137.030000", "220137.490000", "220137.950000", "220138.410000", "220138.870000", "220139.330000", "220139.790000", "220140.250000", "220140.710000", "220141.170000", "220141.630000", "220142.090000", "220142.550000", "220143.010000", "220143.470000", "220143.930000", "220144.390000", "220144.850000", "220145.310000", "220145.770000", "220146.230000", "220146.690000", "220147.150000", "220147.610000", "220148.070000", "220148.530000", "220148.990000", "220149.450000", "220149.910000", "220150.370000", "220150.830000", "220151.290000", "220151.750000", "220152.210000", "220152.670000", "220153.130000", "220153.590000", "220154.050000", "220154.510000", "220154.970000"],
