{
  "AcquisitionMatrixPE": 82,
  "AcquisitionNumber": 1,
  "AcquisitionTime": "20:27:57.727500",
  "BandwidthPerPixelPhaseEncode": 24.888,
  "BaseResolution": 82,
  "BodyPartExamined": "BRAIN",
  "ConsistencyInfo": "N4_VE11E_LATEST_20181129",
  "ConversionSoftware": "dcm2niix",
  "ConversionSoftwareVersion": "v1.0.20201102",
  "DerivedVendorReportedEchoSpacing": 0.00049,
  "DeviceSerialNumber": "66112",
  "DwellTime": 2e-06,
  "EchoTime": 0.0272,
  "EchoTrainLength": 82,
  "EffectiveEchoSpacing": 0.00049,
  "FlipAngle": 44,
  "ImageComments": "Unaliased MB8/PE3",
  "ImageOrientationPatientDICOM": [0.999198, 0.00528249, 0.0396893, -0.0122081, 0.984253, 0.176346],
  "ImageType": [
    "ORIGINAL",
    "PRIMARY",
    "M",
    "MB",
    "ND",
    "NORM",
    "MOSAIC"
],
  "ImagingFrequency": 123.259,
  "InPlanePhaseEncodingDirectionDICOM": "COL",
  "InstitutionAddress": "Maynard 3,Hanover,NH,US,03755",
  "InstitutionName": "Dartmouth College - PBS",
  "InstitutionalDepartmentName": "Department",
  "MRAcquisitionType": "2D",
  "MagneticFieldStrength": 3,
  "Manufacturer": "Siemens",
  "ManufacturersModelName": "Prisma",
  "Modality": "MR",
  "MultibandAccelerationFactor": 8,
  "PartialFourier": 1,
  "PatientPosition": "HFS",
  "PercentPhaseFOV": 100,
  "PercentSampling": 100,
  "PhaseEncodingDirection": "j-",
  "PhaseEncodingSteps": 82,
  "PhaseResolution": 1,
  "PixelBandwidth": 3050,
  "ProcedureStepDescription": "Wager_Wager^1076_spacetop",
  "ProtocolName": "func_run-02_task-narratives_acq-ap-mb8",
  "PulseSequenceDetails": "%CustomerSeq%\\cmrr_mbep2d_bold",
  "ReceiveCoilActiveElements": "HEA;HEP",
  "ReceiveCoilName": "Head_32",
  "ReconMatrixPE": 82,
  "RepetitionTime": 0.46,
  "SAR": 0.0935315,
  "ScanOptions": "FS",
  "ScanningSequence": "EP",
  "SequenceName": "epfid2d1_82",
  "SequenceVariant": "SK\\SS",
  "SeriesDescription": "func_run-02_task-narratives_acq-ap-mb8",
  "SeriesNumber": 12,
  "ShimSetting": [4227, -7786, -7150, 361, -148, 20, 115, 58],
  "SliceThickness": 2.7,
  "SliceTiming": [0, 0.2525, 0.065, 0.315, 0.1275, 0.3775, 0.19, 0, 0.2525, 0.065, 0.315, 0.1275, 0.3775, 0.19, 0, 0.2525, 0.065, 0.315, 0.1275, 0.3775, 0.19, 0, 0.2525, 0.065, 0.315, 0.1275, 0.3775, 0.19, 0, 0.2525, 0.065, 0.315, 0.1275, 0.3775, 0.19, 0, 0.2525, 0.065, 0.315, 0.1275, 0.3775, 0.19, 0, 0.2525, 0.065, 0.315, 0.1275, 0.3775, 0.19, 0, 0.2525, 0.065, 0.315, 0.1275, 0.3775, 0.19],
  "SoftwareVersions": "syngo MR E11",
  "SpacingBetweenSlices": 2.7,
  "StationName": "AWP66112",
  "TaskName": "narratives",
  "TotalReadoutTime": 0.03969,
  "TxRefAmp": 244.584,
  "WipMemBlock": "83457c93-c954-452c-bbda-d48332dbbb9c||Sequence: R016 ve11e/master r/434b28f1; Aug  7 2019 18:53:46 by eja",
  "dcmmeta_affine": [
    [-2.6807754039764404, -0.03275351971387863, 0.1029583066701889, 112.22000885009766],
    [-0.014172535389661789, 2.6406776905059814, 0.4770602583885193, -110.39244842529297],
    [0.10648337006568909, -0.47312307357788086, 2.655524969100952, -27.008602142333984],
    [0.0, 0.0, 0.0, 1.0]
],
  "dcmmeta_reorient_transform": [
    [0.0, -1.0, 0.0, 81.0],
    [1.0, 0.0, 0.0, 0.0],
    [0.0, 0.0, 1.0, 0.0],
    [0.0, 0.0, 0.0, 1.0]
],
  "dcmmeta_shape": [82, 82, 56, 1098],
  "dcmmeta_slice_dim": 2,
  "dcmmeta_version": 0.6,
  "global": {
    "const": {
      "AccessionNumber": "A004631",
      "AcquisitionMatrix": [82, 0, 0, 82],
      "AngioFlag": "N",
      "BitsAllocated": 16,
      "BitsStored": 16,
      "BodyPartExamined": "BRAIN",
      "Columns": 656,
      "EchoNumbers": 1,
      "EchoTime": 27.2,
      "EchoTrainLength": 82,
      "FlipAngle": 44.0,
      "HighBit": 15,
      "ImageOrientationPatient": [0.99919810762347, 0.00528249022216, 0.03968925570889, -0.0122081301974, 0.98425255799388, 0.17634586368723],
      "ImagePositionPatient": [-869.5492752552, -865.44444910218, -231.67861666295],
      "ImageType": [
        "ORIGINAL",
        "PRIMARY",
        "M",
        "MB",
        "ND",
        "NORM",
        "MOSAIC"
],
      "ImagedNucleus": "1H",
      "ImagingFrequency": 123.259019,
      "InPlanePhaseEncodingDirection": "COL",
      "MRAcquisitionType": "2D",
      "MagneticFieldStrength": 3.0,
      "Manufacturer": "SIEMENS",
      "ManufacturerModelName": "Prisma",
      "Modality": "MR",
      "NumberOfAverages": 1.0,
      "NumberOfPhaseEncodingSteps": 82,
      "PercentPhaseFieldOfView": 100.0,
      "PercentSampling": 100.0,
      "PerformedProcedureStepStartTime": "192924.816000",
      "PhotometricInterpretation": "MONOCHROME2",
      "PixelBandwidth": 3050.0,
      "PixelRepresentation": 0,
      "PixelSpacing": [2.6829268932343, 2.6829268932343],
      "ProtocolName": "func_run-02_task-narratives_acq-ap-mb8",
      "RepetitionTime": 460.0,
      "Rows": 656,
      "SAR": 0.09353152875467,
      "SamplesPerPixel": 1,
      "ScanOptions": "FS",
      "ScanningSequence": "EP",
      "SequenceName": "epfid2d1_82",
      "SequenceVariant": [
        "SK",
        "SS"
],
      "SeriesDescription": "func_run-02_task-narratives_acq-ap-mb8",
      "SeriesNumber": 12,
      "SeriesTime": "202821.679000",
      "SliceLocation": -41.789587958267,
      "SliceThickness": 2.7000000476837,
      "SmallestImagePixelValue": 0,
      "SoftwareVersions": "syngo MR E11",
      "SpacingBetweenSlices": 2.6999999830624,
      "SpecificCharacterSet": "ISO_IR 100",
      "StudyID": "1",
      "StudyTime": "192924.746000",
      "TransmitCoilName": "Body",
      "VariableFlipAngleFlag": "N",
      "WindowCenterWidthExplanation": "Algo1"
    },
    "slices": {}
  },
  "time": {
    "samples": {
      "AcquisitionNumber": [1, 2, 3, 4, 5, 6, 7, 8, 9, 10, 11, 12, 13, 14, 15, 16, 17, 18, 19, 20, 21, 22, 23, 24, 25, 26, 27, 28, 29, 30, 31, 32, 33, 34, 35, 36, 37, 38, 39, 40, 41, 42, 43, 44, 45, 46, 47, 48, 49, 50, 51, 52, 53, 54, 55, 56, 57, 58, 59, 60, 61, 62, 63, 64, 65, 66, 67, 68, 69, 70, 71, 72, 73, 74, 75, 76, 77, 78, 79, 80, 81, 82, 83, 84, 85, 86, 87, 88, 89, 90, 91, 92, 93, 94, 95, 96, 97, 98, 99, 100, 101, 102, 103, 104, 105, 106, 107, 108, 109, 110, 111, 112, 113, 114, 115, 116, 117, 118, 119, 120, 121, 122, 123, 124, 125, 126, 127, 128, 129, 130, 131, 132, 133, 134, 135, 136, 137, 138, 139, 140, 141, 142, 143, 144, 145, 146, 147, 148, 149, 150, 151, 152, 153, 154, 155, 156, 157, 158, 159, 160, 161, 162, 163, 164, 165, 166, 167, 168, 169, 170, 171, 172, 173, 174, 175, 176, 177, 178, 179, 180, 181, 182, 183, 184, 185, 186, 187, 188, 189, 190, 191, 192, 193, 194, 195, 196, 197, 198, 199, 200, 201, 202, 203, 204, 205, 206, 207, 208, 209, 210, 211, 212, 213, 214, 215, 216, 217, 218, 219, 220, 221, 222, 223, 224, 225, 226, 227, 228, 229, 230, 231, 232, 233, 234, 235, 236, 237, 238, 239, 240, 241, 242, 243, 244, 245, 246, 247, 248, 249, 250, 251, 252, 253, 254, 255, 256, 257, 258, 259, 260, 261, 262, 263, 264, 265, 266, 267, 268, 269, 270, 271, 272, 273, 274, 275, 276, 277, 278, 279, 280, 281, 282, 283, 284, 285, 286, 287, 288, 289, 290, 291, 292, 293, 294, 295, 296, 297, 298, 299, 300, 301, 302, 303, 304, 305, 306, 307, 308, 309, 310, 311, 312, 313, 314, 315, 316, 317, 318, 319, 320, 321, 322, 323, 324, 325, 326, 327, 328, 329, 330, 331, 332, 333, 334, 335, 336, 337, 338, 339, 340, 341, 342, 343, 344, 345, 346, 347, 348, 349, 350, 351, 352, 353, 354, 355, 356, 357, 358, 359, 360, 361, 362, 363, 364, 365, 366, 367, 368, 369, 370, 371, 372, 373, 374, 375, 376, 377, 378, 379, 380, 381, 382, 383, 384, 385, 386, 387, 388, 389, 390, 391, 392, 393, 394, 395, 396, 397, 398, 399, 400, 401, 402, 403, 404, 405, 406, 407, 408, 409, 410, 411, 412, 413, 414, 415, 416, 417, 418, 419, 420, 421, 422, 423, 424, 425, 426, 427, 428, 429, 430, 431, 432, 433, 434, 435, 436, 437, 438, 439, 440, 441, 442, 443, 444, 445, 446, 447, 448, 449, 450, 451, 452, 453, 454, 455, 456, 457, 458, 459, 460, 461, 462, 463, 464, 465, 466, 467, 468, 469, 470, 471, 472, 473, 474, 475, 476, 477, 478, 479, 480, 481, 482, 483, 484, 485, 486, 487, 488, 489, 490, 491, 492, 493, 494, 495, 496, 497, 498, 499, 500, 501, 502, 503, 504, 505, 506, 507, 508, 509, 510, 511, 512, 513, 514, 515, 516, 517, 518, 519, 520, 521, 522, 523, 524, 525, 526, 527, 528, 529, 530, 531, 532, 533, 534, 535, 536, 537, 538, 539, 540, 541, 542, 543, 544, 545, 546, 547, 548, 549, 550, 551, 552, 553, 554, 555, 556, 557, 558, 559, 560, 561, 562, 563, 564, 565, 566, 567, 568, 569, 570, 571, 572, 573, 574, 575, 576, 577, 578, 579, 580, 581, 582, 583, 584, 585, 586, 587, 588, 589, 590, 591, 592, 593, 594, 595, 596, 597, 598, 599, 600, 601, 602, 603, 604, 605, 606, 607, 608, 609, 610, 611, 612, 613, 614, 615, 616, 617, 618, 619, 620, 621, 622, 623, 624, 625, 626, 627, 628, 629, 630, 631, 632, 633, 634, 635, 636, 637, 638, 639, 640, 641, 642, 643, 644, 645, 646, 647, 648, 649, 650, 651, 652, 653, 654, 655, 656, 657, 658, 659, 660, 661, 662, 663, 664, 665, 666, 667, 668, 669, 670, 671, 672, 673, 674, 675, 676, 677, 678, 679, 680, 681, 682, 683, 684, 685, 686, 687, 688, 689, 690, 691, 692, 693, 694, 695, 696, 697, 698, 699, 700, 701, 702, 703, 704, 705, 706, 707, 708, 709, 710, 711, 712, 713, 714, 715, 716, 717, 718, 719, 720, 721, 722, 723, 724, 725, 726, 727, 728, 729, 730, 731, 732, 733, 734, 735, 736, 737, 738, 739, 740, 741, 742, 743, 744, 745, 746, 747, 748, 749, 750, 751, 752, 753, 754, 755, 756, 757, 758, 759, 760, 761, 762, 763, 764, 765, 766, 767, 768, 769, 770, 771, 772, 773, 774, 775, 776, 777, 778, 779, 780, 781, 782, 783, 784, 785, 786, 787, 788, 789, 790, 791, 792, 793, 794, 795, 796, 797, 798, 799, 800, 801, 802, 803, 804, 805, 806, 807, 808, 809, 810, 811, 812, 813, 814, 815, 816, 817, 818, 819, 820, 821, 822, 823, 824, 825, 826, 827, 828, 829, 830, 831, 832, 833, 834, 835, 836, 837, 838, 839, 840, 841, 842, 843, 844, 845, 846, 847, 848, 849, 850, 851, 852, 853, 854, 855, 856, 857, 858, 859, 860, 861, 862, 863, 864, 865, 866, 867, 868, 869, 870, 871, 872, 873, 874, 875, 876, 877, 878, 879, 880, 881, 882, 883, 884, 885, 886, 887, 888, 889, 890, 891, 892, 893, 894, 895, 896, 897, 898, 899, 900, 901, 902, 903, 904, 905, 906, 907, 908, 909, 910, 911, 912, 913, 914, 915, 916, 917, 918, 919, 920, 921, 922, 923, 924, 925, 926, 927, 928, 929, 930, 931, 932, 933, 934, 935, 936, 937, 938, 939, 940, 941, 942, 943, 944, 945, 946, 947, 948, 949, 950, 951, 952, 953, 954, 955, 956, 957, 958, 959, 960, 961, 962, 963, 964, 965, 966, 967, 968, 969, 970, 971, 972, 973, 974, 975, 976, 977, 978, 979, 980, 981, 982, 983, 984, 985, 986, 987, 988, 989, 990, 991, 992, 993, 994, 995, 996, 997, 998, 999, 1000, 1001, 1002, 1003, 1004, 1005, 1006, 1007, 1008, 1009, 1010, 1011, 1012, 1013, 1014, 1015, 1016, 1017, 1018, 1019, 1020, 1021, 1022, 1023, 1024, 1025, 1026, 1027, 1028, 1029, 1030, 1031, 1032, 1033, 1034, 1035, 1036, 1037, 1038, 1039, 1040, 1041, 1042, 1043, 1044, 1045, 1046, 1047, 1048, 1049, 1050, 1051, 1052, 1053, 1054, 1055, 1056, 1057, 1058, 1059, 1060, 1061, 1062, 1063, 1064, 1065, 1066, 1067, 1068, 1069, 1070, 1071, 1072, 1073, 1074, 1075, 1076, 1077, 1078, 1079, 1080, 1081, 1082, 1083, 1084, 1085, 1086, 1087, 1088, 1089, 1090, 1091, 1092, 1093, 1094, 1095, 1096, 1097, 1098],
      "AcquisitionTime": ["202757.727500", "202758.187500", "202758.647500", "202759.107500", "202759.567500", "202800.027500", "202800.487500", "202800.947500", "202801.407500", "202801.867500", "202802.327500", "202802.787500", "202803.247500", "202803.707500", "202804.167500", "202804.627500", "202805.087500", "202805.547500", "202806.007500", "202806.467500", "202806.927500", "202807.387500", "202807.847500", "202808.307500", "202808.767500", "202809.227500", "202809.687500", "202810.147500", "202810.607500", "202811.067500", "202811.527500", "202811.987500", "202812.447500", "202812.907500", "202813.367500", "202813.827500", "202814.287500", "202814.747500", "202815.207500", "202815.667500", "202816.127500", "202816.587500", "202817.047500", "202817.507500", "202817.967500", "202818.427500", "202818.887500", "202819.347500", "202819.807500", "202820.267500", "202820.727500", "202821.187500", "202821.647500", "202822.107500", "202822.567500", "202823.027500", "202823.487500", "202823.947500", "202824.407500", "202824.867500", "202825.327500", "202825.787500", "202826.247500", "202826.707500", "202827.167500", "202827.627500", "202828.087500", "202828.547500", "202829.007500", "202829.467500", "202829.927500", "202830.387500", "202830.847500", "202831.307500", "202831.767500", "202832.227500", "202832.687500", "202833.147500", "202833.607500", "202834.067500", "202834.527500", "202834.987500", "202835.447500", "202835.907500", "202836.367500", "202836.827500", "202837.287500", "202837.747500", "202838.207500", "202838.667500", "202839.127500", "202839.587500", "202840.047500", "202840.507500", "202840.967500", "202841.427500", "202841.887500", "202842.347500", "202842.807500", "202843.267500", "202843.727500", "202844.187500", "202844.647500", "202845.107500", "202845.567500", "202846.027500", "202846.487500", "202846.947500", "202847.407500", "202847.867500", "202848.327500", "202848.787500", "202849.247500", "202849.707500", "202850.167500", "202850.627500", "202851.087500", "202851.547500", "202852.007500", "202852.467500", "202852.927500", "202853.387500", "202853.847500", "202854.307500", "202854.767500", "202855.227500", "202855.687500", "202856.147500", "202856.607500", "202857.067500", "202857.527500", "202857.987500", "202858.447500", "202858.907500", "202859.367500", "202859.827500", "202900.287500", "202900.747500", "202901.207500", "202901.667500", "202902.127500", "202902.587500", "202903.047500", "202903.507500", "202903.967500", "202904.427500", "202904.887500", "202905.347500", "202905.807500", "202906.267500", "202906.727500", "202907.187500", "202907.647500", "202908.107500", "202908.567500", "202909.027500", "202909.487500", "202909.947500", "202910.407500", "202910.867500", "202911.327500", "202911.787500", "202912.247500", "202912.707500", "202913.167500", "202913.627500", "202914.087500", "202914.547500", "202915.007500", "202915.467500", "202915.927500", "202916.387500", "202916.847500", "202917.307500", "202917.767500", "202918.227500", "202918.687500", "202919.147500", "202919.607500", "202920.067500", "202920.527500", "202920.987500", "202921.447500", "202921.907500", "202922.367500", "202922.827500", "202923.287500", "202923.747500", "202924.207500", "202924.667500", "202925.127500", "202925.587500", "202926.047500", "202926.507500", "202926.967500", "202927.427500", "202927.887500", "202928.347500", "202928.807500", "202929.267500", "202929.727500", "202930.187500", "202930.647500", "202931.107500", "202931.567500", "202932.027500", "202932.487500", "202932.947500", "202933.407500", "202933.867500", "202934.327500", "202934.787500", "202935.247500", "202935.707500", "202936.167500", "202936.627500", "202937.087500", "202937.547500", "202938.007500", "202938.467500", "202938.927500", "202939.387500", "202939.847500", "202940.307500", "202940.767500", "202941.227500", "202941.687500", "202942.147500", "202942.607500", "202943.067500", "202943.527500", "202943.987500", "202944.447500", "202944.907500", "202945.367500", "202945.827500", "202946.287500", "202946.747500", "202947.207500", "202947.667500", "202948.127500", "202948.587500", "202949.047500", "202949.507500", "202949.967500", "202950.427500", "202950.887500", "202951.347500", "202951.807500", "202952.267500", "202952.727500", "202953.187500", "202953.647500", "202954.107500", "202954.567500", "202955.027500", "202955.487500", "202955.947500", "202956.407500", "202956.867500", "202957.327500", "202957.787500", "202958.247500", "202958.707500", "202959.167500", "202959.627500", "203000.087500", "203000.547500", "203001.007500", "203001.467500", "203001.927500", "203002.387500", "203002.847500", "203003.307500", "203003.767500", "203004.227500", "203004.687500", "203005.147500", "203005.607500", "203006.067500", "203006.527500", "203006.987500", "203007.447500", "203007.907500", "203008.367500", "203008.827500", "203009.287500", "203009.747500", "203010.207500", "203010.667500", "203011.127500", "203011.587500", "203012.047500", "203012.507500", "203012.967500", "203013.427500", "203013.887500", "203014.347500", "203014.807500", "203015.267500", "203015.727500", "203016.187500", "203016.647500", "203017.107500", "203017.567500", "203018.027500", "203018.487500", "203018.947500", "203019.407500", "203019.867500", "203020.327500", "203020.787500", "203021.247500", "203021.707500", "203022.167500", "203022.627500", "203023.087500", "203023.547500", "203024.007500", "203024.467500", "203024.927500", "203025.387500", "203025.847500", "203026.307500", "203026.767500", "203027.227500", "203027.687500", "203028.147500", "203028.607500", "203029.067500", "203029.527500", "203029.987500", "203030.447500", "203030.907500", "203031.367500", "203031.827500", "203032.287500", "203032.747500", "203033.207500", "203033.667500", "203034.127500", "203034.587500", "203035.047500", "203035.507500", "203035.967500", "203036.427500", "203036.887500", "203037.347500", "203037.807500", "203038.267500", "203038.727500", "203039.187500", "203039.647500", "203040.107500", "203040.567500", "203041.027500", "203041.487500", "203041.947500", "203042.407500", "203042.867500", "203043.327500", "203043.787500", "203044.247500", "203044.707500", "203045.167500", "203045.627500", "203046.087500", "203046.547500", "203047.007500", "203047.467500", "203047.927500", "203048.387500", "203048.847500", "203049.307500", "203049.767500", "203050.227500", "203050.687500", "203051.147500", "203051.607500", "203052.067500", "203052.527500", "203052.987500", "203053.447500", "203053.907500", "203054.367500", "203054.827500", "203055.287500", "203055.747500", "203056.207500", "203056.667500", "203057.127500", "203057.587500", "203058.047500", "203058.507500", "203058.967500", "203059.427500", "203059.887500", "203100.347500", "203100.807500", "203101.267500", "203101.727500", "203102.187500", "203102.647500", "203103.107500", "203103.567500", "203104.027500", "203104.487500", "203104.947500", "203105.407500", "203105.867500", "203106.327500", "203106.787500", "203107.247500", "203107.707500", "203108.167500", "203108.627500", "203109.087500", "203109.547500", "203110.007500", "203110.467500", "203110.927500", "203111.387500", "203111.847500", "203112.307500", "203112.767500", "203113.227500", "203113.687500", "203114.147500", "203114.607500", "203115.067500", "203115.527500", "203115.987500", "203116.447500", "203116.907500", "203117.367500", "203117.827500", "203118.287500", "203118.747500", "203119.207500", "203119.667500", "203120.127500", "203120.587500", "203121.047500", "203121.507500", "203121.967500", "203122.427500", "203122.887500", "203123.347500", "203123.807500", "203124.267500", "203124.727500", "203125.187500", "203125.647500", "203126.107500", "203126.567500", "203127.027500", "203127.487500", "203127.947500", "203128.407500", "203128.867500", "203129.327500", "203129.787500", "203130.247500", "203130.707500", "203131.167500", "203131.627500", "203132.087500", "203132.547500", "203133.007500", "203133.467500", "203133.927500", "203134.387500", "203134.847500", "203135.307500", "203135.767500", "203136.227500", "203136.687500", "203137.147500", "203137.607500", "203138.067500", "203138.527500", "203138.987500", "203139.447500", "203139.907500", "203140.367500", "203140.827500", "203141.287500", "203141.747500", "203142.207500", "203142.667500", "203143.127500", "203143.587500", "203144.047500", "203144.507500", "203144.967500", "203145.427500", "203145.887500", "203146.347500", "203146.807500", "203147.267500", "203147.727500", "203148.187500", "203148.647500", "203149.107500", "203149.567500", "203150.027500", "203150.487500", "203150.947500", "203151.407500", "203151.867500", "203152.327500", "203152.787500", "203153.247500", "203153.707500", "203154.167500", "203154.627500", "203155.087500", "203155.547500", "203156.007500", "203156.467500", "203156.927500", "203157.387500", "203157.847500", "203158.307500", "203158.767500", "203159.227500", "203159.687500", "203200.147500", "203200.607500", "203201.067500", "203201.527500", "203201.987500", "203202.447500", "203202.907500", "203203.367500", "203203.827500", "203204.287500", "203204.747500", "203205.207500", "203205.667500", "203206.127500", "203206.587500", "203207.047500", "203207.507500", "203207.967500", "203208.427500", "203208.887500", "203209.347500", "203209.807500", "203210.267500", "203210.727500", "203211.187500", "203211.647500", "203212.107500", "203212.567500", "203213.027500", "203213.487500", "203213.947500", "203214.407500", "203214.867500", "203215.327500", "203215.787500", "203216.247500", "203216.707500", "203217.167500", "203217.627500", "203218.087500", "203218.547500", "203219.007500", "203219.467500", "203219.927500", "203220.387500", "203220.847500", "203221.307500", "203221.767500", "203222.227500", "203222.687500", "203223.147500", "203223.607500", "203224.067500", "203224.527500", "203224.987500", "203225.447500", "203225.907500", "203226.367500", "203226.827500", "203227.287500", "203227.747500", "203228.207500", "203228.667500", "203229.127500", "203229.587500", "203230.047500", "203230.507500", "203230.967500", "203231.427500", "203231.887500", "203232.347500", "203232.807500", "203233.267500", "203233.727500", "203234.187500", "203234.647500", "203235.107500", "203235.567500", "203236.027500", "203236.487500", "203236.947500", "203237.407500", "203237.867500", "203238.327500", "203238.787500", "203239.247500", "203239.707500", "203240.167500", "203240.627500", "203241.087500", "203241.547500", "203242.007500", "203242.467500", "203242.927500", "203243.387500", "203243.847500", "203244.307500", "203244.767500", "203245.227500", "203245.687500", "203246.147500", "203246.607500", "203247.067500", "203247.527500", "203247.987500", "203248.447500", "203248.907500", "203249.367500", "203249.827500", "203250.287500", "203250.747500", "203251.207500", "203251.667500", "203252.127500", "203252.587500", "203253.047500", "203253.507500", "203253.967500", "203254.427500", "203254.887500", "203255.347500", "203255.807500", "203256.267500", "203256.727500", "203257.187500", "203257.647500", "203258.107500", "203258.567500", "203259.027500", "203259.487500", "203259.947500", "203300.407500", "203300.867500", "203301.327500", "203301.787500", "203302.247500", "203302.707500", "203303.167500", "203303.627500", "203304.087500", "203304.547500", "203305.007500", "203305.467500", "203305.927500", "203306.387500", "203306.847500", "203307.307500", "203307.767500", "203308.227500", "203308.687500", "203309.147500", "203309.607500", "203310.067500", "203310.527500", "203310.987500", "203311.447500", "203311.907500", "203312.367500", "203312.827500", "203313.287500", "203313.747500", "203314.207500", "203314.667500", "203315.127500", "203315.587500", "203316.047500", "203316.507500", "203316.967500", "203317.427500", "203317.887500", "203318.347500", "203318.807500", "203319.267500", "203319.727500", "203320.187500", "203320.647500", "203321.107500", "203321.567500", "203322.027500", "203322.487500", "203322.947500", "203323.407500", "203323.867500", "203324.327500", "203324.787500", "203325.247500", "203325.707500", "203326.167500", "203326.627500", "203327.087500", "203327.547500", "203328.007500", "203328.467500", "203328.927500", "203329.387500", "203329.847500", "203330.307500", "203330.767500", "203331.227500", "203331.687500", "203332.147500", "203332.607500", "203333.067500", "203333.527500", "203333.987500", "203334.447500", "203334.907500", "203335.367500", "203335.827500", "203336.287500", "203336.747500", "203337.207500", "203337.667500", "203338.127500", "203338.587500", "203339.047500", "203339.507500", "203339.967500", "203340.427500", "203340.887500", "203341.347500", "203341.807500", "203342.267500", "203342.727500", "203343.187500", "203343.647500", "203344.107500", "203344.567500", "203345.027500", "203345.487500", "203345.947500", "203346.407500", "203346.867500", "203347.327500", "203347.787500", "203348.247500", "203348.707500", "203349.167500", "203349.627500", "203350.087500", "203350.547500", "203351.007500", "203351.467500", "203351.927500", "203352.387500", "203352.847500", "203353.307500", "203353.767500", "203354.227500", "203354.687500", "203355.147500", "203355.607500", "203356.067500", "203356.527500", "203356.987500", "203357.447500", "203357.907500", "203358.367500", "203358.827500", "203359.287500", "203359.747500", "203400.207500", "203400.667500", "203401.127500", "203401.587500", "203402.047500", "203402.507500", "203402.967500", "203403.427500", "203403.887500", "203404.347500", "203404.807500", "203405.267500", "203405.727500", "203406.187500", "203406.647500", "203407.107500", "203407.567500", "203408.027500", "203408.487500", "203408.947500", "203409.407500", "203409.867500", "203410.327500", "203410.787500", "203411.247500", "203411.707500", "203412.167500", "203412.627500", "203413.087500", "203413.547500", "203414.007500", "203414.467500", "203414.927500", "203415.387500", "203415.847500", "203416.307500", "203416.767500", "203417.227500", "203417.687500", "203418.147500", "203418.607500", "203419.067500", "203419.527500", "203419.987500", "203420.447500", "203420.907500", "203421.367500", "203421.827500", "203422.287500", "203422.747500", "203423.207500", "203423.667500", "203424.127500", "203424.587500", "203425.047500", "203425.507500", "203425.967500", "203426.427500", "203426.887500", "203427.347500", "203427.807500", "203428.267500", "203428.727500", "203429.187500", "203429.647500", "203430.107500", "203430.567500", "203431.027500", "203431.487500", "203431.947500", "203432.407500", "203432.867500", "203433.327500", "203433.787500", "203434.247500", "203434.707500", "203435.167500", "203435.627500", "203436.087500", "203436.547500", "203437.007500", "203437.467500", "203437.927500", "203438.387500", "203438.847500", "203439.307500", "203439.767500", "203440.227500", "203440.687500", "203441.147500", "203441.607500", "203442.067500", "203442.527500", "203442.987500", "203443.447500", "203443.907500", "203444.367500", "203444.827500", "203445.287500", "203445.747500", "203446.207500", "203446.667500", "203447.127500", "203447.587500", "203448.047500", "203448.507500", "203448.967500", "203449.427500", "203449.887500", "203450.347500", "203450.807500", "203451.267500", "203451.727500", "203452.187500", "203452.647500", "203453.107500", "203453.567500", "203454.027500", "203454.487500", "203454.947500", "203455.407500", "203455.867500", "203456.327500", "203456.787500", "203457.247500", "203457.707500", "203458.167500", "203458.627500", "203459.087500", "203459.547500", "203500.007500", "203500.467500", "203500.927500", "203501.387500", "203501.847500", "203502.307500", "203502.767500", "203503.227500", "203503.687500", "203504.147500", "203504.607500", "203505.067500", "203505.527500", "203505.987500", "203506.447500", "203506.907500", "203507.367500", "203507.827500", "203508.287500", "203508.747500", "203509.207500", "203509.667500", "203510.127500", "203510.587500", "203511.047500", "203511.507500", "203511.967500", "203512.427500", "203512.887500", "203513.347500", "203513.807500", "203514.267500", "203514.727500", "203515.187500", "203515.647500", "203516.107500", "203516.567500", "203517.027500", "203517.487500", "203517.947500", "203518.407500", "203518.867500", "203519.327500", "203519.787500", "203520.247500", "203520.707500", "203521.167500", "203521.627500", "203522.087500", "203522.547500", "203523.007500", "203523.467500", "203523.927500", "203524.387500", "203524.847500", "203525.307500", "203525.767500", "203526.227500", "203526.687500", "203527.147500", "203527.607500", "203528.067500", "203528.527500", "203528.987500", "203529.447500", "203529.907500", "203530.367500", "203530.827500", "203531.287500", "203531.747500", "203532.207500", "203532.667500", "203533.127500", "203533.587500", "203534.047500", "203534.507500", "203534.967500", "203535.427500", "203535.887500", "203536.347500", "203536.807500", "203537.267500", "203537.727500", "203538.187500", "203538.647500", "203539.107500", "203539.567500", "203540.027500", "203540.487500", "203540.947500", "203541.407500", "203541.867500", "203542.327500", "203542.787500", "203543.247500", "203543.707500", "203544.167500", "203544.627500", "203545.087500", "203545.547500", "203546.007500", "203546.467500", "203546.927500", "203547.387500", "203547.847500", "203548.307500", "203548.767500", "203549.227500", "203549.687500", "203550.147500", "203550.607500", "203551.067500", "203551.527500", "203551.987500", "203552.447500", "203552.907500", "203553.367500", "203553.827500", "203554.287500", "203554.747500", "203555.207500", "203555.667500", "203556.127500", "203556.587500", "203557.047500", "203557.507500", "203557.967500", "203558.427500", "203558.887500", "203559.347500", "203559.807500", "203600.267500", "203600.727500", "203601.187500", "203601.647500", "203602.107500", "203602.567500", "203603.027500", "203603.487500", "203603.947500", "203604.407500", "203604.867500", "203605.327500", "203605.787500", "203606.247500", "203606.707500", "203607.167500", "203607.627500", "203608.087500", "203608.547500", "203609.007500", "203609.467500", "203609.927500", "203610.387500", "203610.847500", "203611.307500", "203611.767500", "203612.227500", "203612.687500", "203613.147500", "203613.607500", "203614.067500", "203614.527500", "203614.987500", "203615.447500", "203615.907500", "203616.367500", "203616.827500", "203617.287500", "203617.747500", "203618.207500", "203618.667500", "203619.127500", "203619.587500", "203620.047500", "203620.507500", "203620.967500", "203621.427500", "203621.887500", "203622.347500"],
