{
  "AcquisitionMatrixPE": 82,
  "AcquisitionNumber": 1,
  "AcquisitionTime": "21:58:56.582500",
  "BandwidthPerPixelPhaseEncode": 24.888,
  "BaseResolution": 82,
  "BodyPartExamined": "BRAIN",
  "ConsistencyInfo": "N4_VE11E_LATEST_20181129",
  "ConversionSoftware": "dcm2niix",
  "ConversionSoftwareVersion": "v1.0.20201102",
  "DerivedVendorReportedEchoSpacing": 0.00049,
  "DeviceSerialNumber": "66112",
  "DwellTime": 2e-06,
  "EchoTime": 0.0272,
  "EchoTrainLength": 82,
  "EffectiveEchoSpacing": 0.00049,
  "FlipAngle": 44,
  "ImageComments": "Unaliased MB8/PE3",
  "ImageOrientationPatientDICOM": [0.9992, -0.0212247, 0.0339007, 0.0214537, 0.999749, -0.00640466],
  "ImageType": [
    "ORIGINAL",
    "PRIMARY",
    "M",
    "MB",
    "ND",
    "NORM",
    "MOSAIC"
],
  "ImagingFrequency": 123.252,
  "InPlanePhaseEncodingDirectionDICOM": "COL",
  "InstitutionAddress": "Maynard 3,Hanover,NH,US,03755",
  "InstitutionName": "Dartmouth College - PBS",
  "InstitutionalDepartmentName": "Department",
  "MRAcquisitionType": "2D",
  "MagneticFieldStrength": 3,
  "Manufacturer": "Siemens",
  "ManufacturersModelName": "Prisma",
  "Modality": "MR",
  "MultibandAccelerationFactor": 8,
  "PartialFourier": 1,
  "PatientPosition": "HFS",
  "PercentPhaseFOV": 100,
  "PercentSampling": 100,
  "PhaseEncodingDirection": "j-",
  "PhaseEncodingSteps": 82,
  "PhaseResolution": 1,
  "PixelBandwidth": 3050,
  "ProcedureStepDescription": "Wager_Wager^1076_spacetop",
  "ProtocolName": "func_run-01_task-alignvideo_acq-ap-mb8",
  "PulseSequenceDetails": "%CustomerSeq%\\cmrr_mbep2d_bold",
  "ReceiveCoilActiveElements": "HEA;HEP",
  "ReceiveCoilName": "Head_32",
  "ReconMatrixPE": 82,
  "RepetitionTime": 0.46,
  "SAR": 0.0990632,
  "ScanOptions": "FS",
  "ScanningSequence": "EP",
  "SequenceName": "epfid2d1_82",
  "SequenceVariant": "SK\\SS",
  "SeriesDescription": "func_run-01_task-alignvideo_acq-ap-mb8",
  "SeriesNumber": 30,
  "ShimSetting": [4126, -7726, -7214, 574, -142, -150, -96, 59],
  "SliceThickness": 2.7,
  "SliceTiming": [0, 0.25, 0.0625, 0.315, 0.125, 0.3775, 0.1875, 0, 0.25, 0.0625, 0.315, 0.125, 0.3775, 0.1875, 0, 0.25, 0.0625, 0.315, 0.125, 0.3775, 0.1875, 0, 0.25, 0.0625, 0.315, 0.125, 0.3775, 0.1875, 0, 0.25, 0.0625, 0.315, 0.125, 0.3775, 0.1875, 0, 0.25, 0.0625, 0.315, 0.125, 0.3775, 0.1875, 0, 0.25, 0.0625, 0.315, 0.125, 0.3775, 0.1875, 0, 0.25, 0.0625, 0.315, 0.125, 0.3775, 0.1875],
  "SoftwareVersions": "syngo MR E11",
  "SpacingBetweenSlices": 2.7,
  "StationName": "AWP66112",
  "TaskName": "alignvideo",
  "TotalReadoutTime": 0.03969,
  "TxRefAmp": 228.938,
  "WipMemBlock": "2050889e-4fe9-4ba3-a6b6-4f8d217eb45f||Sequence: R016 ve11e/master r/434b28f1; Aug  7 2019 18:53:46 by eja",
  "dcmmeta_affine": [
    [-2.6807799339294434, 0.05755865201354027, 0.09114199131727219, 109.66912078857422],
    [0.0569443441927433, 2.6822543144226074, -0.019242452457547188, -99.73812866210938],
    [0.09095317870378494, 0.017183244228363037, 2.698392629623413, -48.87458419799805],
    [0.0, 0.0, 0.0, 1.0]
],
  "dcmmeta_reorient_transform": [
    [0.0, -1.0, 0.0, 81.0],
    [1.0, 0.0, 0.0, 0.0],
    [0.0, 0.0, 1.0, 0.0],
    [0.0, 0.0, 0.0, 1.0]
],
  "dcmmeta_shape": [82, 82, 56, 1073],
  "dcmmeta_slice_dim": 2,
  "dcmmeta_version": 0.6,
  "global": {
    "const": {
      "AccessionNumber": "A004035",
      "AcquisitionMatrix": [82, 0, 0, 82],
      "AngioFlag": "N",
      "BitsAllocated": 16,
      "BitsStored": 16,
      "BodyPartExamined": "BRAIN",
      "Columns": 656,
      "EchoNumbers": 1,
      "EchoTime": 27.2,
      "EchoTrainLength": 82,
      "FlipAngle": 44.0,
      "HighBit": 15,
      "ImageOrientationPatient": [0.99919980602394, -0.0212247090119, 0.0339007281496, 0.0214536784552, 0.99974932856291, -0.0064046638278],
      "ImagePositionPatient": [-900.23457223762, -870.98844740046, -68.654712839292],
      "ImageType": [
        "ORIGINAL",
        "PRIMARY",
        "M",
        "MB",
        "ND",
        "NORM",
        "MOSAIC"
],
      "ImagedNucleus": "1H",
      "ImagingFrequency": 123.252308,
      "InPlanePhaseEncodingDirection": "COL",
      "MRAcquisitionType": "2D",
      "MagneticFieldStrength": 3.0,
      "Manufacturer": "SIEMENS",
      "ManufacturerModelName": "Prisma",
      "Modality": "MR",
      "NumberOfAverages": 1.0,
      "NumberOfPhaseEncodingSteps": 82,
      "PercentPhaseFieldOfView": 100.0,
      "PercentSampling": 100.0,
      "PerformedProcedureStepStartTime": "204927.339000",
      "PhotometricInterpretation": "MONOCHROME2",
      "PixelBandwidth": 3050.0,
      "PixelRepresentation": 0,
      "PixelSpacing": [2.6829268932343, 2.6829268932343],
      "ProtocolName": "func_run-01_task-alignvideo_acq-ap-mb8",
      "RepetitionTime": 460.0,
      "Rows": 656,
      "SAR": 0.09906317879917,
      "SamplesPerPixel": 1,
      "ScanOptions": "FS",
      "ScanningSequence": "EP",
      "SequenceName": "epfid2d1_82",
      "SequenceVariant": [
        "SK",
        "SS"
],
      "SeriesDescription": "func_run-01_task-alignvideo_acq-ap-mb8",
      "SeriesNumber": 30,
      "SeriesTime": "215911.827000",
      "SliceLocation": -44.432649711922,
      "SliceThickness": 2.7000000476837,
      "SmallestImagePixelValue": 0,
      "SoftwareVersions": "syngo MR E11",
      "SpacingBetweenSlices": 2.7000000497331,
      "SpecificCharacterSet": "ISO_IR 100",
      "StudyID": "1",
      "StudyTime": "204927.192000",
      "TransmitCoilName": "Body",
      "VariableFlipAngleFlag": "N",
      "WindowCenterWidthExplanation": "Algo1"
    },
    "slices": {}
  },
  "time": {
    "samples": {
      "AcquisitionNumber": [1, 2, 3, 4, 5, 6, 7, 8, 9, 10, 11, 12, 13, 14, 15, 16, 17, 18, 19, 20, 21, 22, 23, 24, 25, 26, 27, 28, 29, 30, 31, 32, 33, 34, 35, 36, 37, 38, 39, 40, 41, 42, 43, 44, 45, 46, 47, 48, 49, 50, 51, 52, 53, 54, 55, 56, 57, 58, 59, 60, 61, 62, 63, 64, 65, 66, 67, 68, 69, 70, 71, 72, 73, 74, 75, 76, 77, 78, 79, 80, 81, 82, 83, 84, 85, 86, 87, 88, 89, 90, 91, 92, 93, 94, 95, 96, 97, 98, 99, 100, 101, 102, 103, 104, 105, 106, 107, 108, 109, 110, 111, 112, 113, 114, 115, 116, 117, 118, 119, 120, 121, 122, 123, 124, 125, 126, 127, 128, 129, 130, 131, 132, 133, 134, 135, 136, 137, 138, 139, 140, 141, 142, 143, 144, 145, 146, 147, 148, 149, 150, 151, 152, 153, 154, 155, 156, 157, 158, 159, 160, 161, 162, 163, 164, 165, 166, 167, 168, 169, 170, 171, 172, 173, 174, 175, 176, 177, 178, 179, 180, 181, 182, 183, 184, 185, 186, 187, 188, 189, 190, 191, 192, 193, 194, 195, 196, 197, 198, 199, 200, 201, 202, 203, 204, 205, 206, 207, 208, 209, 210, 211, 212, 213, 214, 215, 216, 217, 218, 219, 220, 221, 222, 223, 224, 225, 226, 227, 228, 229, 230, 231, 232, 233, 234, 235, 236, 237, 238, 239, 240, 241, 242, 243, 244, 245, 246, 247, 248, 249, 250, 251, 252, 253, 254, 255, 256, 257, 258, 259, 260, 261, 262, 263, 264, 265, 266, 267, 268, 269, 270, 271, 272, 273, 274, 275, 276, 277, 278, 279, 280, 281, 282, 283, 284, 285, 286, 287, 288, 289, 290, 291, 292, 293, 294, 295, 296, 297, 298, 299, 300, 301, 302, 303, 304, 305, 306, 307, 308, 309, 310, 311, 312, 313, 314, 315, 316, 317, 318, 319, 320, 321, 322, 323, 324, 325, 326, 327, 328, 329, 330, 331, 332, 333, 334, 335, 336, 337, 338, 339, 340, 341, 342, 343, 344, 345, 346, 347, 348, 349, 350, 351, 352, 353, 354, 355, 356, 357, 358, 359, 360, 361, 362, 363, 364, 365, 366, 367, 368, 369, 370, 371, 372, 373, 374, 375, 376, 377, 378, 379, 380, 381, 382, 383, 384, 385, 386, 387, 388, 389, 390, 391, 392, 393, 394, 395, 396, 397, 398, 399, 400, 401, 402, 403, 404, 405, 406, 407, 408, 409, 410, 411, 412, 413, 414, 415, 416, 417, 418, 419, 420, 421, 422, 423, 424, 425, 426, 427, 428, 429, 430, 431, 432, 433, 434, 435, 436, 437, 438, 439, 440, 441, 442, 443, 444, 445, 446, 447, 448, 449, 450, 451, 452, 453, 454, 455, 456, 457, 458, 459, 460, 461, 462, 463, 464, 465, 466, 467, 468, 469, 470, 471, 472, 473, 474, 475, 476, 477, 478, 479, 480, 481, 482, 483, 484, 485, 486, 487, 488, 489, 490, 491, 492, 493, 494, 495, 496, 497, 498, 499, 500, 501, 502, 503, 504, 505, 506, 507, 508, 509, 510, 511, 512, 513, 514, 515, 516, 517, 518, 519, 520, 521, 522, 523, 524, 525, 526, 527, 528, 529, 530, 531, 532, 533, 534, 535, 536, 537, 538, 539, 540, 541, 542, 543, 544, 545, 546, 547, 548, 549, 550, 551, 552, 553, 554, 555, 556, 557, 558, 559, 560, 561, 562, 563, 564, 565, 566, 567, 568, 569, 570, 571, 572, 573, 574, 575, 576, 577, 578, 579, 580, 581, 582, 583, 584, 585, 586, 587, 588, 589, 590, 591, 592, 593, 594, 595, 596, 597, 598, 599, 600, 601, 602, 603, 604, 605, 606, 607, 608, 609, 610, 611, 612, 613, 614, 615, 616, 617, 618, 619, 620, 621, 622, 623, 624, 625, 626, 627, 628, 629, 630, 631, 632, 633, 634, 635, 636, 637, 638, 639, 640, 641, 642, 643, 644, 645, 646, 647, 648, 649, 650, 651, 652, 653, 654, 655, 656, 657, 658, 659, 660, 661, 662, 663, 664, 665, 666, 667, 668, 669, 670, 671, 672, 673, 674, 675, 676, 677, 678, 679, 680, 681, 682, 683, 684, 685, 686, 687, 688, 689, 690, 691, 692, 693, 694, 695, 696, 697, 698, 699, 700, 701, 702, 703, 704, 705, 706, 707, 708, 709, 710, 711, 712, 713, 714, 715, 716, 717, 718, 719, 720, 721, 722, 723, 724, 725, 726, 727, 728, 729, 730, 731, 732, 733, 734, 735, 736, 737, 738, 739, 740, 741, 742, 743, 744, 745, 746, 747, 748, 749, 750, 751, 752, 753, 754, 755, 756, 757, 758, 759, 760, 761, 762, 763, 764, 765, 766, 767, 768, 769, 770, 771, 772, 773, 774, 775, 776, 777, 778, 779, 780, 781, 782, 783, 784, 785, 786, 787, 788, 789, 790, 791, 792, 793, 794, 795, 796, 797, 798, 799, 800, 801, 802, 803, 804, 805, 806, 807, 808, 809, 810, 811, 812, 813, 814, 815, 816, 817, 818, 819, 820, 821, 822, 823, 824, 825, 826, 827, 828, 829, 830, 831, 832, 833, 834, 835, 836, 837, 838, 839, 840, 841, 842, 843, 844, 845, 846, 847, 848, 849, 850, 851, 852, 853, 854, 855, 856, 857, 858, 859, 860, 861, 862, 863, 864, 865, 866, 867, 868, 869, 870, 871, 872, 873, 874, 875, 876, 877, 878, 879, 880, 881, 882, 883, 884, 885, 886, 887, 888, 889, 890, 891, 892, 893, 894, 895, 896, 897, 898, 899, 900, 901, 902, 903, 904, 905, 906, 907, 908, 909, 910, 911, 912, 913, 914, 915, 916, 917, 918, 919, 920, 921, 922, 923, 924, 925, 926, 927, 928, 929, 930, 931, 932, 933, 934, 935, 936, 937, 938, 939, 940, 941, 942, 943, 944, 945, 946, 947, 948, 949, 950, 951, 952, 953, 954, 955, 956, 957, 958, 959, 960, 961, 962, 963, 964, 965, 966, 967, 968, 969, 970, 971, 972, 973, 974, 975, 976, 977, 978, 979, 980, 981, 982, 983, 984, 985, 986, 987, 988, 989, 990, 991, 992, 993, 994, 995, 996, 997, 998, 999, 1000, 1001, 1002, 1003, 1004, 1005, 1006, 1007, 1008, 1009, 1010, 1011, 1012, 1013, 1014, 1015, 1016, 1017, 1018, 1019, 1020, 1021, 1022, 1023, 1024, 1025, 1026, 1027, 1028, 1029, 1030, 1031, 1032, 1033, 1034, 1035, 1036, 1037, 1038, 1039, 1040, 1041, 1042, 1043, 1044, 1045, 1046, 1047, 1048, 1049, 1050, 1051, 1052, 1053, 1054, 1055, 1056, 1057, 1058, 1059, 1060, 1061, 1062, 1063, 1064, 1065, 1066, 1067, 1068, 1069, 1070, 1071, 1072, 1073],
      "AcquisitionTime": ["215856.582500", "215857.042500", "215857.502500", "215857.962500", "215858.422500", "215858.882500", "215859.342500", "215859.802500", "215900.262500", "215900.722500", "215901.182500", "215901.642500", "215902.102500", "215902.562500", "215903.022500", "215903.482500", "215903.942500", "215904.402500", "215904.862500", "215905.322500", "215905.782500", "215906.242500", "215906.702500", "215907.162500", "215907.622500", "215908.082500", "215908.542500", "215909.002500", "215909.462500", "215909.922500", "215910.382500", "215910.842500", "215911.302500", "215911.762500", "215912.222500", "215912.682500", "215913.142500", "215913.602500", "215914.062500", "215914.522500", "215914.982500", "215915.442500", "215915.902500", "215916.362500", "215916.822500", "215917.282500", "215917.742500", "215918.202500", "215918.662500", "215919.122500", "215919.582500", "215920.042500", "215920.502500", "215920.962500", "215921.422500", "215921.882500", "215922.342500", "215922.802500", "215923.262500", "215923.722500", "215924.182500", "215924.642500", "215925.102500", "215925.562500", "215926.022500", "215926.482500", "215926.942500", "215927.402500", "215927.862500", "215928.322500", "215928.782500", "215929.242500", "215929.702500", "215930.162500", "215930.622500", "215931.082500", "215931.542500", "215932.002500", "215932.462500", "215932.922500", "215933.382500", "215933.842500", "215934.302500", "215934.762500", "215935.222500", "215935.682500", "215936.142500", "215936.602500", "215937.062500", "215937.522500", "215937.982500", "215938.442500", "215938.902500", "215939.362500", "215939.822500", "215940.282500", "215940.742500", "215941.202500", "215941.662500", "215942.122500", "215942.582500", "215943.042500", "215943.502500", "215943.962500", "215944.422500", "215944.882500", "215945.342500", "215945.802500", "215946.262500", "215946.722500", "215947.182500", "215947.642500", "215948.102500", "215948.562500", "215949.022500", "215949.482500", "215949.942500", "215950.402500", "215950.862500", "215951.322500", "215951.782500", "215952.242500", "215952.702500", "215953.162500", "215953.622500", "215954.082500", "215954.542500", "215955.002500", "215955.462500", "215955.922500", "215956.382500", "215956.842500", "215957.302500", "215957.762500", "215958.222500", "215958.682500", "215959.142500", "215959.602500", "220000.062500", "220000.522500", "220000.982500", "220001.442500", "220001.902500", "220002.362500", "220002.822500", "220003.282500", "220003.742500", "220004.202500", "220004.662500", "220005.122500", "220005.582500", "220006.042500", "220006.502500", "220006.962500", "220007.422500", "220007.882500", "220008.342500", "220008.802500", "220009.262500", "220009.722500", "220010.182500", "220010.642500", "220011.102500", "220011.562500", "220012.022500", "220012.482500", "220012.942500", "220013.402500", "220013.862500", "220014.322500", "220014.782500", "220015.242500", "220015.702500", "220016.162500", "220016.622500", "220017.082500", "220017.542500", "220018.002500", "220018.462500", "220018.922500", "220019.382500", "220019.842500", "220020.302500", "220020.762500", "220021.222500", "220021.682500", "220022.142500", "220022.602500", "220023.062500", "220023.522500", "220023.982500", "220024.442500", "220024.902500", "220025.362500", "220025.822500", "220026.282500", "220026.742500", "220027.202500", "220027.662500", "220028.122500", "220028.582500", "220029.042500", "220029.502500", "220029.962500", "220030.422500", "220030.882500", "220031.342500", "220031.802500", "220032.262500", "220032.722500", "220033.182500", "220033.642500", "220034.102500", "220034.562500", "220035.022500", "220035.482500", "220035.942500", "220036.402500", "220036.862500", "220037.322500", "220037.782500", "220038.242500", "220038.702500", "220039.162500", "220039.622500", "220040.082500", "220040.542500", "220041.002500", "220041.462500", "220041.922500", "220042.382500", "220042.842500", "220043.302500", "220043.762500", "220044.222500", "220044.682500", "220045.142500", "220045.602500", "220046.062500", "220046.522500", "220046.982500", "220047.442500", "220047.902500", "220048.362500", "220048.822500", "220049.282500", "220049.742500", "220050.202500", "220050.662500", "220051.122500", "220051.582500", "220052.042500", "220052.502500", "220052.962500", "220053.422500", "220053.882500", "220054.342500", "220054.802500", "220055.262500", "220055.722500", "220056.182500", "220056.642500", "220057.102500", "220057.562500", "220058.022500", "220058.482500", "220058.942500", "220059.402500", "220059.862500", "220100.322500", "220100.782500", "220101.242500", "220101.702500", "220102.162500", "220102.622500", "220103.082500", "220103.542500", "220104.002500", "220104.462500", "220104.922500", "220105.382500", "220105.842500", "220106.302500", "220106.762500", "220107.222500", "220107.682500", "220108.142500", "220108.602500", "220109.062500", "220109.522500", "220109.982500", "220110.442500", "220110.902500", "220111.362500", "220111.822500", "220112.282500", "220112.742500", "220113.202500", "220113.662500", "220114.122500", "220114.582500", "220115.042500", "220115.502500", "220115.962500", "220116.422500", "220116.882500", "220117.342500", "220117.802500", "220118.262500", "220118.722500", "220119.182500", "220119.642500", "220120.102500", "220120.562500", "220121.022500", "220121.482500", "220121.942500", "220122.402500", "220122.862500", "220123.322500", "220123.782500", "220124.242500", "220124.702500", "220125.162500", "220125.622500", "220126.082500", "220126.542500", "220127.002500", "220127.462500", "220127.922500", "220128.382500", "220128.842500", "220129.302500", "220129.762500", "220130.222500", "220130.682500", "220131.142500", "220131.602500", "220132.062500", "220132.522500", "220132.982500", "220133.442500", "220133.902500", "220134.362500", "220134.822500", "220135.282500", "220135.742500", "220136.202500", "220136.662500", "220137.122500", "220137.582500", "220138.042500", "220138.502500", "220138.962500", "220139.422500", "220139.882500", "220140.342500", "220140.802500", "220141.262500", "220141.722500", "220142.182500", "220142.642500", "220143.102500", "220143.562500", "220144.022500", "220144.482500", "220144.942500", "220145.402500", "220145.862500", "220146.322500", "220146.782500", "220147.242500", "220147.702500", "220148.162500", "220148.622500", "220149.082500", "220149.542500", "220150.002500", "220150.462500", "220150.922500", "220151.382500", "220151.842500", "220152.302500", "220152.762500", "220153.222500", "220153.682500", "220154.142500", "220154.602500", "220155.062500", "220155.522500", "220155.982500", "220156.442500", "220156.902500", "220157.362500", "220157.822500", "220158.282500", "220158.742500", "220159.202500", "220159.662500", "220200.122500", "220200.582500", "220201.042500", "220201.502500", "220201.962500", "220202.422500", "220202.882500", "220203.342500", "220203.802500", "220204.262500", "220204.722500", "220205.182500", "220205.642500", "220206.102500", "220206.562500", "220207.022500", "220207.482500", "220207.942500", "220208.402500", "220208.862500", "220209.322500", "220209.782500", "220210.242500", "220210.702500", "220211.162500", "220211.622500", "220212.082500", "220212.542500", "220213.002500", "220213.462500", "220213.922500", "220214.382500", "220214.842500", "220215.302500", "220215.762500", "220216.222500", "220216.682500", "220217.142500", "220217.602500", "220218.062500", "220218.522500", "220218.982500", "220219.442500", "220219.902500", "220220.362500", "220220.822500", "220221.282500", "220221.742500", "220222.202500", "220222.662500", "220223.122500", "220223.582500", "220224.042500", "220224.502500", "220224.962500", "220225.422500", "220225.882500", "220226.342500", "220226.802500", "220227.262500", "220227.722500", "220228.182500", "220228.642500", "220229.102500", "220229.562500", "220230.022500", "220230.482500", "220230.942500", "220231.402500", "220231.862500", "220232.322500", "220232.782500", "220233.242500", "220233.702500", "220234.162500", "220234.622500", "220235.082500", "220235.542500", "220236.002500", "220236.462500", "220236.922500", "220237.382500", "220237.842500", "220238.302500", "220238.762500", "220239.222500", "220239.682500", "220240.142500", "220240.602500", "220241.062500", "220241.522500", "220241.982500", "220242.442500", "220242.902500", "220243.362500", "220243.822500", "220244.282500", "220244.742500", "220245.202500", "220245.662500", "220246.122500", "220246.582500", "220247.042500", "220247.502500", "220247.962500", "220248.422500", "220248.882500", "220249.342500", "220249.802500", "220250.262500", "220250.722500", "220251.182500", "220251.642500", "220252.102500", "220252.562500", "220253.022500", "220253.482500", "220253.942500", "220254.402500", "220254.862500", "220255.322500", "220255.782500", "220256.242500", "220256.702500", "220257.162500", "220257.622500", "220258.082500", "220258.542500", "220259.002500", "220259.462500", "220259.922500", "220300.382500", "220300.842500", "220301.302500", "220301.762500", "220302.222500", "220302.682500", "220303.142500", "220303.602500", "220304.062500", "220304.522500", "220304.982500", "220305.442500", "220305.902500", "220306.362500", "220306.822500", "220307.282500", "220307.742500", "220308.202500", "220308.662500", "220309.122500", "220309.582500", "220310.042500", "220310.502500", "220310.962500", "220311.422500", "220311.882500", "220312.342500", "220312.802500", "220313.262500", "220313.722500", "220314.182500", "220314.642500", "220315.102500", "220315.562500", "220316.022500", "220316.482500", "220316.942500", "220317.402500", "220317.862500", "220318.322500", "220318.782500", "220319.242500", "220319.702500", "220320.162500", "220320.622500", "220321.082500", "220321.542500", "220322.002500", "220322.462500", "220322.922500", "220323.382500", "220323.842500", "220324.302500", "220324.762500", "220325.222500", "220325.682500", "220326.142500", "220326.602500", "220327.062500", "220327.522500", "220327.982500", "220328.442500", "220328.902500", "220329.362500", "220329.822500", "220330.282500", "220330.742500", "220331.202500", "220331.662500", "220332.122500", "220332.582500", "220333.042500", "220333.502500", "220333.962500", "220334.422500", "220334.882500", "220335.342500", "220335.802500", "220336.262500", "220336.722500", "220337.182500", "220337.642500", "220338.102500", "220338.562500", "220339.022500", "220339.482500", "220339.942500", "220340.402500", "220340.862500", "220341.322500", "220341.782500", "220342.242500", "220342.702500", "220343.162500", "220343.622500", "220344.082500", "220344.542500", "220345.002500", "220345.462500", "220345.922500", "220346.382500", "220346.842500", "220347.302500", "220347.762500", "220348.222500", "220348.682500", "220349.142500", "220349.602500", "220350.062500", "220350.522500", "220350.982500", "220351.442500", "220351.902500", "220352.362500", "220352.822500", "220353.282500", "220353.742500", "220354.202500", "220354.662500", "220355.122500", "220355.582500", "220356.042500", "220356.502500", "220356.962500", "220357.422500", "220357.882500", "220358.342500", "220358.802500", "220359.262500", "220359.722500", "220400.182500", "220400.642500", "220401.102500", "220401.562500", "220402.022500", "220402.482500", "220402.942500", "220403.402500", "220403.862500", "220404.322500", "220404.782500", "220405.242500", "220405.702500", "220406.162500", "220406.622500", "220407.082500", "220407.542500", "220408.002500", "220408.462500", "220408.922500", "220409.382500", "220409.842500", "220410.302500", "220410.762500", "220411.222500", "220411.682500", "220412.142500", "220412.602500", "220413.062500", "220413.522500", "220413.982500", "220414.442500", "220414.902500", "220415.362500", "220415.822500", "220416.282500", "220416.742500", "220417.202500", "220417.662500", "220418.122500", "220418.582500", "220419.042500", "220419.502500", "220419.962500", "220420.422500", "220420.882500", "220421.342500", "220421.802500", "220422.262500", "220422.722500", "220423.182500", "220423.642500", "220424.102500", "220424.562500", "220425.022500", "220425.482500", "220425.942500", "220426.402500", "220426.862500", "220427.322500", "220427.782500", "220428.242500", "220428.702500", "220429.162500", "220429.622500", "220430.082500", "220430.542500", "220431.002500", "220431.462500", "220431.922500", "220432.382500", "220432.842500", "220433.302500", "220433.762500", "220434.222500", "220434.682500", "220435.142500", "220435.602500", "220436.062500", "220436.522500", "220436.982500", "220437.442500", "220437.902500", "220438.362500", "220438.822500", "220439.282500", "220439.742500", "220440.202500", "220440.662500", "220441.122500", "220441.582500", "220442.042500", "220442.502500", "220442.962500", "220443.422500", "220443.882500", "220444.342500", "220444.802500", "220445.262500", "220445.722500", "220446.182500", "220446.642500", "220447.102500", "220447.562500", "220448.022500", "220448.482500", "220448.942500", "220449.402500", "220449.862500", "220450.322500", "220450.782500", "220451.242500", "220451.702500", "220452.162500", "220452.622500", "220453.082500", "220453.542500", "220454.002500", "220454.462500", "220454.922500", "220455.382500", "220455.842500", "220456.302500", "220456.762500", "220457.222500", "220457.682500", "220458.142500", "220458.602500", "220459.062500", "220459.522500", "220459.982500", "220500.442500", "220500.902500", "220501.362500", "220501.822500", "220502.282500", "220502.742500", "220503.202500", "220503.662500", "220504.122500", "220504.582500", "220505.042500", "220505.502500", "220505.962500", "220506.422500", "220506.882500", "220507.342500", "220507.802500", "220508.262500", "220508.722500", "220509.182500", "220509.642500", "220510.102500", "220510.562500", "220511.022500", "220511.482500", "220511.942500", "220512.402500", "220512.862500", "220513.322500", "220513.782500", "220514.242500", "220514.702500", "220515.162500", "220515.622500", "220516.082500", "220516.542500", "220517.002500", "220517.462500", "220517.922500", "220518.382500", "220518.842500", "220519.302500", "220519.762500", "220520.222500", "220520.682500", "220521.142500", "220521.602500", "220522.062500", "220522.522500", "220522.982500", "220523.442500", "220523.902500", "220524.362500", "220524.822500", "220525.282500", "220525.742500", "220526.202500", "220526.662500", "220527.122500", "220527.582500", "220528.042500", "220528.502500", "220528.962500", "220529.422500", "220529.882500", "220530.342500", "220530.802500", "220531.262500", "220531.722500", "220532.182500", "220532.642500", "220533.102500", "220533.562500", "220534.022500", "220534.482500", "220534.942500", "220535.402500", "220535.862500", "220536.322500", "220536.782500", "220537.242500", "220537.702500", "220538.162500", "220538.622500", "220539.082500", "220539.542500", "220540.002500", "220540.462500", "220540.922500", "220541.382500", "220541.842500", "220542.302500", "220542.762500", "220543.222500", "220543.682500", "220544.142500", "220544.602500", "220545.062500", "220545.522500", "220545.982500", "220546.442500", "220546.902500", "220547.362500", "220547.822500", "220548.282500", "220548.742500", "220549.202500", "220549.662500", "220550.122500", "220550.582500", "220551.042500", "220551.502500", "220551.962500", "220552.422500", "220552.882500", "220553.342500", "220553.802500", "220554.262500", "220554.722500", "220555.182500", "220555.642500", "220556.102500", "220556.562500", "220557.022500", "220557.482500", "220557.942500", "220558.402500", "220558.862500", "220559.322500", "220559.782500", "220600.242500", "220600.702500", "220601.162500", "220601.622500", "220602.082500", "220602.542500", "220603.002500", "220603.462500", "220603.922500", "220604.382500", "220604.842500", "220605.302500", "220605.762500", "220606.222500", "220606.682500", "220607.142500", "220607.602500", "220608.062500", "220608.522500", "220608.982500", "220609.442500", "220609.902500", "220610.362500", "220610.822500", "220611.282500", "220611.742500", "220612.202500", "220612.662500", "220613.122500", "220613.582500", "220614.042500", "220614.502500", "220614.962500", "220615.422500", "220615.882500", "220616.342500", "220616.802500", "220617.262500", "220617.722500", "220618.182500", "220618.642500", "220619.102500", "220619.562500", "220620.022500", "220620.482500", "220620.942500", "220621.402500", "220621.862500", "220622.322500", "220622.782500", "220623.242500", "220623.702500", "220624.162500", "220624.622500", "220625.082500", "220625.542500", "220626.002500", "220626.462500", "220626.922500", "220627.382500", "220627.842500", "220628.302500", "220628.762500", "220629.222500", "220629.682500", "220630.142500", "220630.602500", "220631.062500", "220631.522500", "220631.982500", "220632.442500", "220632.902500", "220633.362500", "220633.822500", "220634.282500", "220634.742500", "220635.202500", "220635.662500", "220636.122500", "220636.582500", "220637.042500", "220637.502500", "220637.962500", "220638.422500", "220638.882500", "220639.342500", "220639.802500", "220640.262500", "220640.722500", "220641.182500", "220641.642500", "220642.102500", "220642.562500", "220643.022500", "220643.482500", "220643.942500", "220644.402500", "220644.862500", "220645.322500", "220645.782500", "220646.242500", "220646.702500", "220647.162500", "220647.622500", "220648.082500", "220648.542500", "220649.002500", "220649.462500", "220649.922500", "220650.382500", "220650.842500", "220651.302500", "220651.762500", "220652.222500", "220652.682500", "220653.142500", "220653.602500", "220654.062500", "220654.522500", "220654.982500", "220655.442500", "220655.902500", "220656.362500", "220656.822500", "220657.282500", "220657.742500", "220658.202500", "220658.662500", "220659.122500", "220659.582500", "220700.042500", "220700.502500", "220700.962500", "220701.422500", "220701.882500", "220702.342500", "220702.802500", "220703.262500", "220703.722500", "220704.182500", "220704.642500", "220705.102500", "220705.562500", "220706.022500", "220706.482500", "220706.942500", "220707.402500", "220707.862500", "220708.322500", "220708.782500", "220709.242500", "220709.702500"],
