{
  "AcquisitionMatrixPE": 82,
  "AcquisitionNumber": 1,
  "AcquisitionTime": "21:42:27.597500",
  "BandwidthPerPixelPhaseEncode": 24.888,
  "BaseResolution": 82,
  "BodyPartExamined": "BRAIN",
  "ConsistencyInfo": "N4_VE11E_LATEST_20181129",
  "ConversionSoftware": "dcm2niix",
  "ConversionSoftwareVersion": "v1.0.20201102",
  "DerivedVendorReportedEchoSpacing": 0.00049,
  "DeviceSerialNumber": "66112",
  "DwellTime": 2e-06,
  "EchoTime": 0.0272,
  "EchoTrainLength": 82,
  "EffectiveEchoSpacing": 0.00049,
  "FlipAngle": 44,
  "ImageComments": "Unaliased MB8/PE3",
  "ImageOrientationPatientDICOM": [0.999073, -0.0306153, 0.0302706, 0.0308736, 0.99949, -0.0081007],
  "ImageType": [
    "ORIGINAL",
    "PRIMARY",
    "M",
    "MB",
    "ND",
    "NORM",
    "MOSAIC"
],
  "ImagingFrequency": 123.252,
  "InPlanePhaseEncodingDirectionDICOM": "COL",
  "InstitutionAddress": "Maynard 3,Hanover,NH,US,03755",
  "InstitutionName": "Dartmouth College - PBS",
  "InstitutionalDepartmentName": "Department",
  "MRAcquisitionType": "2D",
  "MagneticFieldStrength": 3,
  "Manufacturer": "Siemens",
  "ManufacturersModelName": "Prisma",
  "Modality": "MR",
  "MultibandAccelerationFactor": 8,
  "PartialFourier": 1,
  "PatientPosition": "HFS",
  "PercentPhaseFOV": 100,
  "PercentSampling": 100,
  "PhaseEncodingDirection": "j-",
  "PhaseEncodingSteps": 82,
  "PhaseResolution": 1,
  "PixelBandwidth": 3050,
  "ProcedureStepDescription": "Wager_Wager^1076_spacetop",
  "ProtocolName": "func_run-05_task-social_acq-ap-mb8",
  "PulseSequenceDetails": "%CustomerSeq%\\cmrr_mbep2d_bold",
  "ReceiveCoilActiveElements": "HEA;HEP",
  "ReceiveCoilName": "Head_32",
  "ReconMatrixPE": 82,
  "RepetitionTime": 0.46,
  "SAR": 0.0989478,
  "ScanOptions": "FS",
  "ScanningSequence": "EP",
  "SequenceName": "epfid2d1_82",
  "SequenceVariant": "SK\\SS",
  "SeriesDescription": "func_run-05_task-social_acq-ap-mb8",
  "SeriesNumber": 20,
  "ShimSetting": [4127, -7732, -7219, 562, -141, -179, -101, 62],
  "SliceThickness": 2.7,
  "SliceTiming": [0, 0.2525, 0.0625, 0.315, 0.1275, 0.3775, 0.19, 0, 0.2525, 0.0625, 0.315, 0.1275, 0.3775, 0.19, 0, 0.2525, 0.0625, 0.315, 0.1275, 0.3775, 0.19, 0, 0.2525, 0.0625, 0.315, 0.1275, 0.3775, 0.19, 0, 0.2525, 0.0625, 0.315, 0.1275, 0.3775, 0.19, 0, 0.2525, 0.0625, 0.315, 0.1275, 0.3775, 0.19, 0, 0.2525, 0.0625, 0.315, 0.1275, 0.3775, 0.19, 0, 0.2525, 0.0625, 0.315, 0.1275, 0.3775, 0.19],
  "SoftwareVersions": "syngo MR E11",
  "SpacingBetweenSlices": 2.7,
  "StationName": "AWP66112",
  "TaskName": "social",
  "TotalReadoutTime": 0.03969,
  "TxRefAmp": 228.938,
  "WipMemBlock": "5a5ee34f-b3ae-43f7-8cc9-b1876814944b||Sequence: R016 ve11e/master r/434b28f1; Aug  7 2019 18:53:46 by eja",
  "dcmmeta_affine": [
    [-2.6804392337799072, 0.08283152431249619, 0.08101928979158401, 108.51210021972656],
    [0.08213867992162704, 2.6815598011016846, -0.02437492273747921, -100.71482849121094],
    [0.08121374249458313, 0.021733585745096207, 2.698673963546753, -53.65828323364258],
    [0.0, 0.0, 0.0, 1.0]
],
  "dcmmeta_reorient_transform": [
    [0.0, -1.0, 0.0, 81.0],
    [1.0, 0.0, 0.0, 0.0],
    [0.0, 0.0, 1.0, 0.0],
    [0.0, 0.0, 0.0, 1.0]
],
  "dcmmeta_shape": [82, 82, 56, 872],
  "dcmmeta_slice_dim": 2,
  "dcmmeta_version": 0.6,
  "global": {
    "const": {
      "AccessionNumber": "A004035",
      "AcquisitionMatrix": [82, 0, 0, 82],
      "AngioFlag": "N",
      "BitsAllocated": 16,
      "BitsStored": 16,
      "BodyPartExamined": "BRAIN",
      "Columns": 656,
      "EchoNumbers": 1,
      "EchoTime": 27.2,
      "EchoTrainLength": 82,
      "FlipAngle": 44.0,
      "HighBit": 15,
      "ImageOrientationPatient": [0.99907276715163, -0.0306153263307, 0.03027057531094, 0.03087356676076, 0.99949047095939, -0.0081006997755],
      "ImagePositionPatient": [-908.28014740363, -862.52540028657, -68.968666046166],
      "ImageType": [
        "ORIGINAL",
        "PRIMARY",
        "M",
        "MB",
        "ND",
        "NORM",
        "MOSAIC"
],
      "ImagedNucleus": "1H",
      "ImagingFrequency": 123.252315,
      "InPlanePhaseEncodingDirection": "COL",
      "MRAcquisitionType": "2D",
      "MagneticFieldStrength": 3.0,
      "Manufacturer": "SIEMENS",
      "ManufacturerModelName": "Prisma",
      "Modality": "MR",
      "NumberOfAverages": 1.0,
      "NumberOfPhaseEncodingSteps": 82,
      "PercentPhaseFieldOfView": 100.0,
      "PercentSampling": 100.0,
      "PerformedProcedureStepStartTime": "204927.339000",
      "PhotometricInterpretation": "MONOCHROME2",
      "PixelBandwidth": 3050.0,
      "PixelRepresentation": 0,
      "PixelSpacing": [2.6829268932343, 2.6829268932343],
      "ProtocolName": "func_run-05_task-social_acq-ap-mb8",
      "RepetitionTime": 460.0,
      "Rows": 656,
      "SAR": 0.09894778355011,
      "SamplesPerPixel": 1,
      "ScanOptions": "FS",
      "ScanningSequence": "EP",
      "SequenceName": "epfid2d1_82",
      "SequenceVariant": [
        "SK",
        "SS"
],
      "SeriesDescription": "func_run-05_task-social_acq-ap-mb8",
      "SeriesNumber": 20,
      "SeriesTime": "214251.658000",
      "SliceLocation": -49.466564527908,
      "SliceThickness": 2.7000000476837,
      "SmallestImagePixelValue": 0,
      "SoftwareVersions": "syngo MR E11",
      "SpacingBetweenSlices": 2.6999999410536,
      "SpecificCharacterSet": "ISO_IR 100",
      "StudyID": "1",
      "StudyTime": "204927.192000",
      "TransmitCoilName": "Body",
      "VariableFlipAngleFlag": "N",
      "WindowCenterWidthExplanation": "Algo1"
    },
    "slices": {}
  },
  "time": {
    "samples": {
      "AcquisitionNumber": [1, 2, 3, 4, 5, 6, 7, 8, 9, 10, 11, 12, 13, 14, 15, 16, 17, 18, 19, 20, 21, 22, 23, 24, 25, 26, 27, 28, 29, 30, 31, 32, 33, 34, 35, 36, 37, 38, 39, 40, 41, 42, 43, 44, 45, 46, 47, 48, 49, 50, 51, 52, 53, 54, 55, 56, 57, 58, 59, 60, 61, 62, 63, 64, 65, 66, 67, 68, 69, 70, 71, 72, 73, 74, 75, 76, 77, 78, 79, 80, 81, 82, 83, 84, 85, 86, 87, 88, 89, 90, 91, 92, 93, 94, 95, 96, 97, 98, 99, 100, 101, 102, 103, 104, 105, 106, 107, 108, 109, 110, 111, 112, 113, 114, 115, 116, 117, 118, 119, 120, 121, 122, 123, 124, 125, 126, 127, 128, 129, 130, 131, 132, 133, 134, 135, 136, 137, 138, 139, 140, 141, 142, 143, 144, 145, 146, 147, 148, 149, 150, 151, 152, 153, 154, 155, 156, 157, 158, 159, 160, 161, 162, 163, 164, 165, 166, 167, 168, 169, 170, 171, 172, 173, 174, 175, 176, 177, 178, 179, 180, 181, 182, 183, 184, 185, 186, 187, 188, 189, 190, 191, 192, 193, 194, 195, 196, 197, 198, 199, 200, 201, 202, 203, 204, 205, 206, 207, 208, 209, 210, 211, 212, 213, 214, 215, 216, 217, 218, 219, 220, 221, 222, 223, 224, 225, 226, 227, 228, 229, 230, 231, 232, 233, 234, 235, 236, 237, 238, 239, 240, 241, 242, 243, 244, 245, 246, 247, 248, 249, 250, 251, 252, 253, 254, 255, 256, 257, 258, 259, 260, 261, 262, 263, 264, 265, 266, 267, 268, 269, 270, 271, 272, 273, 274, 275, 276, 277, 278, 279, 280, 281, 282, 283, 284, 285, 286, 287, 288, 289, 290, 291, 292, 293, 294, 295, 296, 297, 298, 299, 300, 301, 302, 303, 304, 305, 306, 307, 308, 309, 310, 311, 312, 313, 314, 315, 316, 317, 318, 319, 320, 321, 322, 323, 324, 325, 326, 327, 328, 329, 330, 331, 332, 333, 334, 335, 336, 337, 338, 339, 340, 341, 342, 343, 344, 345, 346, 347, 348, 349, 350, 351, 352, 353, 354, 355, 356, 357, 358, 359, 360, 361, 362, 363, 364, 365, 366, 367, 368, 369, 370, 371, 372, 373, 374, 375, 376, 377, 378, 379, 380, 381, 382, 383, 384, 385, 386, 387, 388, 389, 390, 391, 392, 393, 394, 395, 396, 397, 398, 399, 400, 401, 402, 403, 404, 405, 406, 407, 408, 409, 410, 411, 412, 413, 414, 415, 416, 417, 418, 419, 420, 421, 422, 423, 424, 425, 426, 427, 428, 429, 430, 431, 432, 433, 434, 435, 436, 437, 438, 439, 440, 441, 442, 443, 444, 445, 446, 447, 448, 449, 450, 451, 452, 453, 454, 455, 456, 457, 458, 459, 460, 461, 462, 463, 464, 465, 466, 467, 468, 469, 470, 471, 472, 473, 474, 475, 476, 477, 478, 479, 480, 481, 482, 483, 484, 485, 486, 487, 488, 489, 490, 491, 492, 493, 494, 495, 496, 497, 498, 499, 500, 501, 502, 503, 504, 505, 506, 507, 508, 509, 510, 511, 512, 513, 514, 515, 516, 517, 518, 519, 520, 521, 522, 523, 524, 525, 526, 527, 528, 529, 530, 531, 532, 533, 534, 535, 536, 537, 538, 539, 540, 541, 542, 543, 544, 545, 546, 547, 548, 549, 550, 551, 552, 553, 554, 555, 556, 557, 558, 559, 560, 561, 562, 563, 564, 565, 566, 567, 568, 569, 570, 571, 572, 573, 574, 575, 576, 577, 578, 579, 580, 581, 582, 583, 584, 585, 586, 587, 588, 589, 590, 591, 592, 593, 594, 595, 596, 597, 598, 599, 600, 601, 602, 603, 604, 605, 606, 607, 608, 609, 610, 611, 612, 613, 614, 615, 616, 617, 618, 619, 620, 621, 622, 623, 624, 625, 626, 627, 628, 629, 630, 631, 632, 633, 634, 635, 636, 637, 638, 639, 640, 641, 642, 643, 644, 645, 646, 647, 648, 649, 650, 651, 652, 653, 654, 655, 656, 657, 658, 659, 660, 661, 662, 663, 664, 665, 666, 667, 668, 669, 670, 671, 672, 673, 674, 675, 676, 677, 678, 679, 680, 681, 682, 683, 684, 685, 686, 687, 688, 689, 690, 691, 692, 693, 694, 695, 696, 697, 698, 699, 700, 701, 702, 703, 704, 705, 706, 707, 708, 709, 710, 711, 712, 713, 714, 715, 716, 717, 718, 719, 720, 721, 722, 723, 724, 725, 726, 727, 728, 729, 730, 731, 732, 733, 734, 735, 736, 737, 738, 739, 740, 741, 742, 743, 744, 745, 746, 747, 748, 749, 750, 751, 752, 753, 754, 755, 756, 757, 758, 759, 760, 761, 762, 763, 764, 765, 766, 767, 768, 769, 770, 771, 772, 773, 774, 775, 776, 777, 778, 779, 780, 781, 782, 783, 784, 785, 786, 787, 788, 789, 790, 791, 792, 793, 794, 795, 796, 797, 798, 799, 800, 801, 802, 803, 804, 805, 806, 807, 808, 809, 810, 811, 812, 813, 814, 815, 816, 817, 818, 819, 820, 821, 822, 823, 824, 825, 826, 827, 828, 829, 830, 831, 832, 833, 834, 835, 836, 837, 838, 839, 840, 841, 842, 843, 844, 845, 846, 847, 848, 849, 850, 851, 852, 853, 854, 855, 856, 857, 858, 859, 860, 861, 862, 863, 864, 865, 866, 867, 868, 869, 870, 871, 872],
      "AcquisitionTime": ["214227.597500", "214228.057500", "214228.517500", "214228.977500", "214229.437500", "214229.897500", "214230.357500", "214230.817500", "214231.277500", "214231.737500", "214232.197500", "214232.657500", "214233.117500", "214233.577500", "214234.037500", "214234.497500", "214234.957500", "214235.417500", "214235.877500", "214236.337500", "214236.797500", "214237.257500", "214237.717500", "214238.177500", "214238.637500", "214239.097500", "214239.557500", "214240.017500", "214240.477500", "214240.937500", "214241.397500", "214241.857500", "214242.317500", "214242.777500", "214243.237500", "214243.697500", "214244.157500", "214244.617500", "214245.077500", "214245.537500", "214245.997500", "214246.457500", "214246.917500", "214247.377500", "214247.837500", "214248.297500", "214248.757500", "214249.217500", "214249.677500", "214250.137500", "214250.597500", "214251.057500", "214251.517500", "214251.977500", "214252.437500", "214252.897500", "214253.357500", "214253.817500", "214254.277500", "214254.737500", "214255.197500", "214255.657500", "214256.117500", "214256.577500", "214257.037500", "214257.497500", "214257.957500", "214258.417500", "214258.877500", "214259.337500", "214259.797500", "214300.257500", "214300.717500", "214301.177500", "214301.637500", "214302.097500", "214302.557500", "214303.017500", "214303.477500", "214303.937500", "214304.397500", "214304.857500", "214305.317500", "214305.777500", "214306.237500", "214306.697500", "214307.157500", "214307.617500", "214308.077500", "214308.537500", "214308.997500", "214309.457500", "214309.917500", "214310.377500", "214310.837500", "214311.297500", "214311.757500", "214312.217500", "214312.677500", "214313.137500", "214313.597500", "214314.057500", "214314.517500", "214314.977500", "214315.437500", "214315.897500", "214316.357500", "214316.817500", "214317.277500", "214317.737500", "214318.197500", "214318.657500", "214319.117500", "214319.577500", "214320.037500", "214320.497500", "214320.957500", "214321.417500", "214321.877500", "214322.337500", "214322.797500", "214323.257500", "214323.717500", "214324.177500", "214324.637500", "214325.097500", "214325.557500", "214326.017500", "214326.477500", "214326.937500", "214327.397500", "214327.857500", "214328.317500", "214328.777500", "214329.237500", "214329.697500", "214330.157500", "214330.617500", "214331.077500", "214331.537500", "214331.997500", "214332.457500", "214332.917500", "214333.377500", "214333.837500", "214334.297500", "214334.757500", "214335.217500", "214335.677500", "214336.137500", "214336.597500", "214337.057500", "214337.517500", "214337.977500", "214338.437500", "214338.897500", "214339.357500", "214339.817500", "214340.277500", "214340.737500", "214341.197500", "214341.657500", "214342.117500", "214342.577500", "214343.037500", "214343.497500", "214343.957500", "214344.417500", "214344.877500", "214345.337500", "214345.797500", "214346.257500", "214346.717500", "214347.177500", "214347.637500", "214348.097500", "214348.557500", "214349.017500", "214349.477500", "214349.937500", "214350.397500", "214350.857500", "214351.317500", "214351.777500", "214352.237500", "214352.697500", "214353.157500", "214353.617500", "214354.077500", "214354.537500", "214354.997500", "214355.457500", "214355.917500", "214356.377500", "214356.837500", "214357.297500", "214357.757500", "214358.217500", "214358.677500", "214359.137500", "214359.597500", "214400.057500", "214400.517500", "214400.977500", "214401.437500", "214401.897500", "214402.357500", "214402.817500", "214403.277500", "214403.737500", "214404.197500", "214404.657500", "214405.117500", "214405.577500", "214406.037500", "214406.497500", "214406.957500", "214407.417500", "214407.877500", "214408.337500", "214408.797500", "214409.257500", "214409.717500", "214410.177500", "214410.637500", "214411.097500", "214411.557500", "214412.017500", "214412.477500", "214412.937500", "214413.397500", "214413.857500", "214414.317500", "214414.777500", "214415.237500", "214415.697500", "214416.157500", "214416.617500", "214417.077500", "214417.537500", "214417.997500", "214418.457500", "214418.917500", "214419.377500", "214419.837500", "214420.297500", "214420.757500", "214421.217500", "214421.677500", "214422.137500", "214422.597500", "214423.057500", "214423.517500", "214423.977500", "214424.437500", "214424.897500", "214425.357500", "214425.817500", "214426.277500", "214426.737500", "214427.197500", "214427.657500", "214428.117500", "214428.577500", "214429.037500", "214429.497500", "214429.957500", "214430.417500", "214430.877500", "214431.337500", "214431.797500", "214432.257500", "214432.717500", "214433.177500", "214433.637500", "214434.097500", "214434.557500", "214435.017500", "214435.477500", "214435.937500", "214436.397500", "214436.857500", "214437.317500", "214437.777500", "214438.237500", "214438.697500", "214439.157500", "214439.617500", "214440.077500", "214440.537500", "214440.997500", "214441.457500", "214441.917500", "214442.377500", "214442.837500", "214443.297500", "214443.757500", "214444.217500", "214444.677500", "214445.137500", "214445.597500", "214446.057500", "214446.517500", "214446.977500", "214447.437500", "214447.897500", "214448.357500", "214448.817500", "214449.277500", "214449.737500", "214450.197500", "214450.657500", "214451.117500", "214451.577500", "214452.037500", "214452.497500", "214452.957500", "214453.417500", "214453.877500", "214454.337500", "214454.797500", "214455.257500", "214455.717500", "214456.177500", "214456.637500", "214457.097500", "214457.557500", "214458.017500", "214458.477500", "214458.937500", "214459.397500", "214459.857500", "214500.317500", "214500.777500", "214501.237500", "214501.697500", "214502.157500", "214502.617500", "214503.077500", "214503.537500", "214503.997500", "214504.457500", "214504.917500", "214505.377500", "214505.837500", "214506.297500", "214506.757500", "214507.217500", "214507.677500", "214508.137500", "214508.597500", "214509.057500", "214509.517500", "214509.977500", "214510.437500", "214510.897500", "214511.357500", "214511.817500", "214512.277500", "214512.737500", "214513.197500", "214513.657500", "214514.117500", "214514.577500", "214515.037500", "214515.497500", "214515.957500", "214516.417500", "214516.877500", "214517.337500", "214517.797500", "214518.257500", "214518.717500", "214519.177500", "214519.637500", "214520.097500", "214520.557500", "214521.017500", "214521.477500", "214521.937500", "214522.397500", "214522.857500", "214523.317500", "214523.777500", "214524.237500", "214524.697500", "214525.157500", "214525.617500", "214526.077500", "214526.537500", "214526.997500", "214527.457500", "214527.917500", "214528.377500", "214528.837500", "214529.297500", "214529.757500", "214530.217500", "214530.677500", "214531.137500", "214531.597500", "214532.057500", "214532.517500", "214532.977500", "214533.437500", "214533.897500", "214534.357500", "214534.817500", "214535.277500", "214535.737500", "214536.197500", "214536.657500", "214537.117500", "214537.577500", "214538.037500", "214538.497500", "214538.957500", "214539.417500", "214539.877500", "214540.337500", "214540.797500", "214541.257500", "214541.717500", "214542.177500", "214542.637500", "214543.097500", "214543.557500", "214544.017500", "214544.477500", "214544.937500", "214545.397500", "214545.857500", "214546.317500", "214546.777500", "214547.237500", "214547.697500", "214548.157500", "214548.617500", "214549.077500", "214549.537500", "214549.997500", "214550.457500", "214550.917500", "214551.377500", "214551.837500", "214552.297500", "214552.757500", "214553.217500", "214553.677500", "214554.137500", "214554.597500", "214555.057500", "214555.517500", "214555.977500", "214556.437500", "214556.897500", "214557.357500", "214557.817500", "214558.277500", "214558.737500", "214559.197500", "214559.657500", "214600.117500", "214600.577500", "214601.037500", "214601.497500", "214601.957500", "214602.417500", "214602.877500", "214603.337500", "214603.797500", "214604.257500", "214604.717500", "214605.177500", "214605.637500", "214606.097500", "214606.557500", "214607.017500", "214607.477500", "214607.937500", "214608.397500", "214608.857500", "214609.317500", "214609.777500", "214610.237500", "214610.697500", "214611.157500", "214611.617500", "214612.077500", "214612.537500", "214612.997500", "214613.457500", "214613.917500", "214614.377500", "214614.837500", "214615.297500", "214615.757500", "214616.217500", "214616.677500", "214617.137500", "214617.597500", "214618.057500", "214618.517500", "214618.977500", "214619.437500", "214619.897500", "214620.357500", "214620.817500", "214621.277500", "214621.737500", "214622.197500", "214622.657500", "214623.117500", "214623.577500", "214624.037500", "214624.497500", "214624.957500", "214625.417500", "214625.877500", "214626.337500", "214626.797500", "214627.257500", "214627.717500", "214628.177500", "214628.637500", "214629.097500", "214629.557500", "214630.017500", "214630.477500", "214630.937500", "214631.397500", "214631.857500", "214632.317500", "214632.777500", "214633.237500", "214633.697500", "214634.157500", "214634.617500", "214635.077500", "214635.537500", "214635.997500", "214636.457500", "214636.917500", "214637.377500", "214637.837500", "214638.297500", "214638.757500", "214639.217500", "214639.677500", "214640.137500", "214640.597500", "214641.057500", "214641.517500", "214641.977500", "214642.437500", "214642.897500", "214643.357500", "214643.817500", "214644.277500", "214644.737500", "214645.197500", "214645.657500", "214646.117500", "214646.577500", "214647.037500", "214647.497500", "214647.957500", "214648.417500", "214648.877500", "214649.337500", "214649.797500", "214650.257500", "214650.717500", "214651.177500", "214651.637500", "214652.097500", "214652.557500", "214653.017500", "214653.477500", "214653.937500", "214654.397500", "214654.857500", "214655.317500", "214655.777500", "214656.237500", "214656.697500", "214657.157500", "214657.617500", "214658.077500", "214658.537500", "214658.997500", "214659.457500", "214659.917500", "214700.377500", "214700.837500", "214701.297500", "214701.757500", "214702.217500", "214702.677500", "214703.137500", "214703.597500", "214704.057500", "214704.517500", "214704.977500", "214705.437500", "214705.897500", "214706.357500", "214706.817500", "214707.277500", "214707.737500", "214708.197500", "214708.657500", "214709.117500", "214709.577500", "214710.037500", "214710.497500", "214710.957500", "214711.417500", "214711.877500", "214712.337500", "214712.797500", "214713.257500", "214713.717500", "214714.177500", "214714.637500", "214715.097500", "214715.557500", "214716.017500", "214716.477500", "214716.937500", "214717.397500", "214717.857500", "214718.317500", "214718.777500", "214719.237500", "214719.697500", "214720.157500", "214720.617500", "214721.077500", "214721.537500", "214721.997500", "214722.457500", "214722.917500", "214723.377500", "214723.837500", "214724.297500", "214724.757500", "214725.217500", "214725.677500", "214726.137500", "214726.597500", "214727.057500", "214727.517500", "214727.977500", "214728.437500", "214728.897500", "214729.357500", "214729.817500", "214730.277500", "214730.737500", "214731.197500", "214731.657500", "214732.117500", "214732.577500", "214733.037500", "214733.497500", "214733.957500", "214734.417500", "214734.877500", "214735.337500", "214735.797500", "214736.257500", "214736.717500", "214737.177500", "214737.637500", "214738.097500", "214738.557500", "214739.017500", "214739.477500", "214739.937500", "214740.397500", "214740.857500", "214741.317500", "214741.777500", "214742.237500", "214742.697500", "214743.157500", "214743.617500", "214744.077500", "214744.537500", "214744.997500", "214745.457500", "214745.917500", "214746.377500", "214746.837500", "214747.297500", "214747.757500", "214748.217500", "214748.677500", "214749.137500", "214749.597500", "214750.057500", "214750.517500", "214750.977500", "214751.437500", "214751.897500", "214752.357500", "214752.817500", "214753.277500", "214753.737500", "214754.197500", "214754.657500", "214755.117500", "214755.577500", "214756.037500", "214756.497500", "214756.957500", "214757.417500", "214757.877500", "214758.337500", "214758.797500", "214759.257500", "214759.717500", "214800.177500", "214800.637500", "214801.097500", "214801.557500", "214802.017500", "214802.477500", "214802.937500", "214803.397500", "214803.857500", "214804.317500", "214804.777500", "214805.237500", "214805.697500", "214806.157500", "214806.617500", "214807.077500", "214807.537500", "214807.997500", "214808.457500", "214808.917500", "214809.377500", "214809.837500", "214810.297500", "214810.757500", "214811.217500", "214811.677500", "214812.137500", "214812.597500", "214813.057500", "214813.517500", "214813.977500", "214814.437500", "214814.897500", "214815.357500", "214815.817500", "214816.277500", "214816.737500", "214817.197500", "214817.657500", "214818.117500", "214818.577500", "214819.037500", "214819.497500", "214819.957500", "214820.417500", "214820.877500", "214821.337500", "214821.797500", "214822.257500", "214822.717500", "214823.177500", "214823.637500", "214824.097500", "214824.557500", "214825.017500", "214825.477500", "214825.937500", "214826.397500", "214826.857500", "214827.317500", "214827.777500", "214828.237500", "214828.697500", "214829.157500", "214829.617500", "214830.077500", "214830.537500", "214830.997500", "214831.457500", "214831.917500", "214832.377500", "214832.837500", "214833.297500", "214833.757500", "214834.217500", "214834.677500", "214835.137500", "214835.597500", "214836.057500", "214836.517500", "214836.977500", "214837.437500", "214837.897500", "214838.357500", "214838.817500", "214839.277500", "214839.737500", "214840.197500", "214840.657500", "214841.117500", "214841.577500", "214842.037500", "214842.497500", "214842.957500", "214843.417500", "214843.877500", "214844.337500", "214844.797500", "214845.257500", "214845.717500", "214846.177500", "214846.637500", "214847.097500", "214847.557500", "214848.017500", "214848.477500", "214848.937500", "214849.397500", "214849.857500", "214850.317500", "214850.777500", "214851.237500", "214851.697500", "214852.157500", "214852.617500", "214853.077500", "214853.537500", "214853.997500", "214854.457500", "214854.917500", "214855.377500", "214855.837500", "214856.297500", "214856.757500", "214857.217500", "214857.677500", "214858.137500", "214858.597500", "214859.057500", "214859.517500", "214859.977500", "214900.437500", "214900.897500", "214901.357500", "214901.817500", "214902.277500", "214902.737500", "214903.197500", "214903.657500", "214904.117500", "214904.577500", "214905.037500", "214905.497500", "214905.957500", "214906.417500", "214906.877500", "214907.337500", "214907.797500", "214908.257500"],
