{
  "AcquisitionMatrixPE": 82,
  "AcquisitionNumber": 1,
  "AcquisitionTime": "21:34:15.022500",
  "BandwidthPerPixelPhaseEncode": 24.888,
  "BaseResolution": 82,
  "BodyPartExamined": "BRAIN",
  "ConsistencyInfo": "N4_VE11E_LATEST_20181129",
  "ConversionSoftware": "dcm2niix",
  "ConversionSoftwareVersion": "v1.0.20201102",
  "DerivedVendorReportedEchoSpacing": 0.00049,
  "DeviceSerialNumber": "66112",
  "DwellTime": 2e-06,
  "EchoTime": 0.0272,
  "EchoTrainLength": 82,
  "EffectiveEchoSpacing": 0.00049,
  "FlipAngle": 44,
  "ImageComments": "Unaliased MB8/PE3",
  "ImageOrientationPatientDICOM": [0.999073, -0.0306153, 0.0302706, 0.0308736, 0.99949, -0.0081007],
  "ImageType": [
    "ORIGINAL",
    "PRIMARY",
    "M",
    "MB",
    "ND",
    "NORM",
    "MOSAIC"
],
  "ImagingFrequency": 123.252,
  "InPlanePhaseEncodingDirectionDICOM": "COL",
  "InstitutionAddress": "Maynard 3,Hanover,NH,US,03755",
  "InstitutionName": "Dartmouth College - PBS",
  "InstitutionalDepartmentName": "Department",
  "MRAcquisitionType": "2D",
  "MagneticFieldStrength": 3,
  "Manufacturer": "Siemens",
  "ManufacturersModelName": "Prisma",
  "Modality": "MR",
  "MultibandAccelerationFactor": 8,
  "PartialFourier": 1,
  "PatientPosition": "HFS",
  "PercentPhaseFOV": 100,
  "PercentSampling": 100,
  "PhaseEncodingDirection": "j-",
  "PhaseEncodingSteps": 82,
  "PhaseResolution": 1,
  "PixelBandwidth": 3050,
  "ProcedureStepDescription": "Wager_Wager^1076_spacetop",
  "ProtocolName": "func_run-04_task-social_acq-ap-mb8",
  "PulseSequenceDetails": "%CustomerSeq%\\cmrr_mbep2d_bold",
  "ReceiveCoilActiveElements": "HEA;HEP",
  "ReceiveCoilName": "Head_32",
  "ReconMatrixPE": 82,
  "RepetitionTime": 0.46,
  "SAR": 0.0989478,
  "ScanOptions": "FS",
  "ScanningSequence": "EP",
  "SequenceName": "epfid2d1_82",
  "SequenceVariant": "SK\\SS",
  "SeriesDescription": "func_run-04_task-social_acq-ap-mb8",
  "SeriesNumber": 18,
  "ShimSetting": [4127, -7732, -7219, 562, -141, -179, -101, 62],
  "SliceThickness": 2.7,
  "SliceTiming": [0, 0.2525, 0.0625, 0.315, 0.125, 0.3775, 0.19, 0, 0.2525, 0.0625, 0.315, 0.125, 0.3775, 0.19, 0, 0.2525, 0.0625, 0.315, 0.125, 0.3775, 0.19, 0, 0.2525, 0.0625, 0.315, 0.125, 0.3775, 0.19, 0, 0.2525, 0.0625, 0.315, 0.125, 0.3775, 0.19, 0, 0.2525, 0.0625, 0.315, 0.125, 0.3775, 0.19, 0, 0.2525, 0.0625, 0.315, 0.125, 0.3775, 0.19, 0, 0.2525, 0.0625, 0.315, 0.125, 0.3775, 0.19],
  "SoftwareVersions": "syngo MR E11",
  "SpacingBetweenSlices": 2.7,
  "StationName": "AWP66112",
  "TaskName": "social",
  "TotalReadoutTime": 0.03969,
  "TxRefAmp": 228.938,
  "WipMemBlock": "11438e62-b6ff-4466-a316-b8888a4ff057||Sequence: R016 ve11e/master r/434b28f1; Aug  7 2019 18:53:46 by eja",
  "dcmmeta_affine": [
    [-2.6804392337799072, 0.08283152431249619, 0.08101928979158401, 108.51210021972656],
    [0.08213867992162704, 2.6815598011016846, -0.02437492273747921, -100.71482849121094],
    [0.08121374249458313, 0.021733585745096207, 2.698673963546753, -53.65828323364258],
    [0.0, 0.0, 0.0, 1.0]
],
  "dcmmeta_reorient_transform": [
    [0.0, -1.0, 0.0, 81.0],
    [1.0, 0.0, 0.0, 0.0],
    [0.0, 0.0, 1.0, 0.0],
    [0.0, 0.0, 0.0, 1.0]
],
  "dcmmeta_shape": [82, 82, 56, 872],
  "dcmmeta_slice_dim": 2,
  "dcmmeta_version": 0.6,
  "global": {
    "const": {
      "AccessionNumber": "A004035",
      "AcquisitionMatrix": [82, 0, 0, 82],
      "AngioFlag": "N",
      "BitsAllocated": 16,
      "BitsStored": 16,
      "BodyPartExamined": "BRAIN",
      "Columns": 656,
      "EchoNumbers": 1,
      "EchoTime": 27.2,
      "EchoTrainLength": 82,
      "FlipAngle": 44.0,
      "HighBit": 15,
      "ImageOrientationPatient": [0.99907276715163, -0.0306153263307, 0.03027057531094, 0.03087356676076, 0.99949047095939, -0.0081006997755],
      "ImagePositionPatient": [-908.28014740363, -862.52540028657, -68.968666046166],
      "ImageType": [
        "ORIGINAL",
        "PRIMARY",
        "M",
        "MB",
        "ND",
        "NORM",
        "MOSAIC"
],
      "ImagedNucleus": "1H",
      "ImagingFrequency": 123.252315,
      "InPlanePhaseEncodingDirection": "COL",
      "MRAcquisitionType": "2D",
      "MagneticFieldStrength": 3.0,
      "Manufacturer": "SIEMENS",
      "ManufacturerModelName": "Prisma",
      "Modality": "MR",
      "NumberOfAverages": 1.0,
      "NumberOfPhaseEncodingSteps": 82,
      "PercentPhaseFieldOfView": 100.0,
      "PercentSampling": 100.0,
      "PerformedProcedureStepStartTime": "204927.339000",
      "PhotometricInterpretation": "MONOCHROME2",
      "PixelBandwidth": 3050.0,
      "PixelRepresentation": 0,
      "PixelSpacing": [2.6829268932343, 2.6829268932343],
      "ProtocolName": "func_run-04_task-social_acq-ap-mb8",
      "RepetitionTime": 460.0,
      "Rows": 656,
      "SAR": 0.09894778355011,
      "SamplesPerPixel": 1,
      "ScanOptions": "FS",
      "ScanningSequence": "EP",
      "SequenceName": "epfid2d1_82",
      "SequenceVariant": [
        "SK",
        "SS"
],
      "SeriesDescription": "func_run-04_task-social_acq-ap-mb8",
      "SeriesNumber": 18,
      "SeriesTime": "213431.838000",
      "SliceLocation": -49.466564527908,
      "SliceThickness": 2.7000000476837,
      "SmallestImagePixelValue": 0,
      "SoftwareVersions": "syngo MR E11",
      "SpacingBetweenSlices": 2.6999999410536,
      "SpecificCharacterSet": "ISO_IR 100",
      "StudyID": "1",
      "StudyTime": "204927.192000",
      "TransmitCoilName": "Body",
      "VariableFlipAngleFlag": "N",
      "WindowCenterWidthExplanation": "Algo1"
    },
    "slices": {}
  },
  "time": {
    "samples": {
      "AcquisitionNumber": [1, 2, 3, 4, 5, 6, 7, 8, 9, 10, 11, 12, 13, 14, 15, 16, 17, 18, 19, 20, 21, 22, 23, 24, 25, 26, 27, 28, 29, 30, 31, 32, 33, 34, 35, 36, 37, 38, 39, 40, 41, 42, 43, 44, 45, 46, 47, 48, 49, 50, 51, 52, 53, 54, 55, 56, 57, 58, 59, 60, 61, 62, 63, 64, 65, 66, 67, 68, 69, 70, 71, 72, 73, 74, 75, 76, 77, 78, 79, 80, 81, 82, 83, 84, 85, 86, 87, 88, 89, 90, 91, 92, 93, 94, 95, 96, 97, 98, 99, 100, 101, 102, 103, 104, 105, 106, 107, 108, 109, 110, 111, 112, 113, 114, 115, 116, 117, 118, 119, 120, 121, 122, 123, 124, 125, 126, 127, 128, 129, 130, 131, 132, 133, 134, 135, 136, 137, 138, 139, 140, 141, 142, 143, 144, 145, 146, 147, 148, 149, 150, 151, 152, 153, 154, 155, 156, 157, 158, 159, 160, 161, 162, 163, 164, 165, 166, 167, 168, 169, 170, 171, 172, 173, 174, 175, 176, 177, 178, 179, 180, 181, 182, 183, 184, 185, 186, 187, 188, 189, 190, 191, 192, 193, 194, 195, 196, 197, 198, 199, 200, 201, 202, 203, 204, 205, 206, 207, 208, 209, 210, 211, 212, 213, 214, 215, 216, 217, 218, 219, 220, 221, 222, 223, 224, 225, 226, 227, 228, 229, 230, 231, 232, 233, 234, 235, 236, 237, 238, 239, 240, 241, 242, 243, 244, 245, 246, 247, 248, 249, 250, 251, 252, 253, 254, 255, 256, 257, 258, 259, 260, 261, 262, 263, 264, 265, 266, 267, 268, 269, 270, 271, 272, 273, 274, 275, 276, 277, 278, 279, 280, 281, 282, 283, 284, 285, 286, 287, 288, 289, 290, 291, 292, 293, 294, 295, 296, 297, 298, 299, 300, 301, 302, 303, 304, 305, 306, 307, 308, 309, 310, 311, 312, 313, 314, 315, 316, 317, 318, 319, 320, 321, 322, 323, 324, 325, 326, 327, 328, 329, 330, 331, 332, 333, 334, 335, 336, 337, 338, 339, 340, 341, 342, 343, 344, 345, 346, 347, 348, 349, 350, 351, 352, 353, 354, 355, 356, 357, 358, 359, 360, 361, 362, 363, 364, 365, 366, 367, 368, 369, 370, 371, 372, 373, 374, 375, 376, 377, 378, 379, 380, 381, 382, 383, 384, 385, 386, 387, 388, 389, 390, 391, 392, 393, 394, 395, 396, 397, 398, 399, 400, 401, 402, 403, 404, 405, 406, 407, 408, 409, 410, 411, 412, 413, 414, 415, 416, 417, 418, 419, 420, 421, 422, 423, 424, 425, 426, 427, 428, 429, 430, 431, 432, 433, 434, 435, 436, 437, 438, 439, 440, 441, 442, 443, 444, 445, 446, 447, 448, 449, 450, 451, 452, 453, 454, 455, 456, 457, 458, 459, 460, 461, 462, 463, 464, 465, 466, 467, 468, 469, 470, 471, 472, 473, 474, 475, 476, 477, 478, 479, 480, 481, 482, 483, 484, 485, 486, 487, 488, 489, 490, 491, 492, 493, 494, 495, 496, 497, 498, 499, 500, 501, 502, 503, 504, 505, 506, 507, 508, 509, 510, 511, 512, 513, 514, 515, 516, 517, 518, 519, 520, 521, 522, 523, 524, 525, 526, 527, 528, 529, 530, 531, 532, 533, 534, 535, 536, 537, 538, 539, 540, 541, 542, 543, 544, 545, 546, 547, 548, 549, 550, 551, 552, 553, 554, 555, 556, 557, 558, 559, 560, 561, 562, 563, 564, 565, 566, 567, 568, 569, 570, 571, 572, 573, 574, 575, 576, 577, 578, 579, 580, 581, 582, 583, 584, 585, 586, 587, 588, 589, 590, 591, 592, 593, 594, 595, 596, 597, 598, 599, 600, 601, 602, 603, 604, 605, 606, 607, 608, 609, 610, 611, 612, 613, 614, 615, 616, 617, 618, 619, 620, 621, 622, 623, 624, 625, 626, 627, 628, 629, 630, 631, 632, 633, 634, 635, 636, 637, 638, 639, 640, 641, 642, 643, 644, 645, 646, 647, 648, 649, 650, 651, 652, 653, 654, 655, 656, 657, 658, 659, 660, 661, 662, 663, 664, 665, 666, 667, 668, 669, 670, 671, 672, 673, 674, 675, 676, 677, 678, 679, 680, 681, 682, 683, 684, 685, 686, 687, 688, 689, 690, 691, 692, 693, 694, 695, 696, 697, 698, 699, 700, 701, 702, 703, 704, 705, 706, 707, 708, 709, 710, 711, 712, 713, 714, 715, 716, 717, 718, 719, 720, 721, 722, 723, 724, 725, 726, 727, 728, 729, 730, 731, 732, 733, 734, 735, 736, 737, 738, 739, 740, 741, 742, 743, 744, 745, 746, 747, 748, 749, 750, 751, 752, 753, 754, 755, 756, 757, 758, 759, 760, 761, 762, 763, 764, 765, 766, 767, 768, 769, 770, 771, 772, 773, 774, 775, 776, 777, 778, 779, 780, 781, 782, 783, 784, 785, 786, 787, 788, 789, 790, 791, 792, 793, 794, 795, 796, 797, 798, 799, 800, 801, 802, 803, 804, 805, 806, 807, 808, 809, 810, 811, 812, 813, 814, 815, 816, 817, 818, 819, 820, 821, 822, 823, 824, 825, 826, 827, 828, 829, 830, 831, 832, 833, 834, 835, 836, 837, 838, 839, 840, 841, 842, 843, 844, 845, 846, 847, 848, 849, 850, 851, 852, 853, 854, 855, 856, 857, 858, 859, 860, 861, 862, 863, 864, 865, 866, 867, 868, 869, 870, 871, 872],
      "AcquisitionTime": ["213415.022500", "213415.482500", "213415.942500", "213416.402500", "213416.862500", "213417.322500", "213417.782500", "213418.242500", "213418.702500", "213419.162500", "213419.622500", "213420.082500", "213420.542500", "213421.002500", "213421.462500", "213421.922500", "213422.382500", "213422.842500", "213423.302500", "213423.762500", "213424.222500", "213424.682500", "213425.142500", "213425.602500", "213426.062500", "213426.522500", "213426.982500", "213427.442500", "213427.902500", "213428.362500", "213428.822500", "213429.282500", "213429.742500", "213430.202500", "213430.662500", "213431.122500", "213431.582500", "213432.042500", "213432.502500", "213432.962500", "213433.422500", "213433.882500", "213434.342500", "213434.802500", "213435.262500", "213435.722500", "213436.182500", "213436.642500", "213437.102500", "213437.562500", "213438.022500", "213438.482500", "213438.942500", "213439.402500", "213439.862500", "213440.322500", "213440.782500", "213441.242500", "213441.702500", "213442.162500", "213442.622500", "213443.082500", "213443.542500", "213444.002500", "213444.462500", "213444.922500", "213445.382500", "213445.842500", "213446.302500", "213446.762500", "213447.222500", "213447.682500", "213448.142500", "213448.602500", "213449.062500", "213449.522500", "213449.982500", "213450.442500", "213450.902500", "213451.362500", "213451.822500", "213452.282500", "213452.742500", "213453.202500", "213453.662500", "213454.122500", "213454.582500", "213455.042500", "213455.502500", "213455.962500", "213456.422500", "213456.882500", "213457.342500", "213457.802500", "213458.262500", "213458.722500", "213459.182500", "213459.642500", "213500.102500", "213500.562500", "213501.022500", "213501.482500", "213501.942500", "213502.402500", "213502.862500", "213503.322500", "213503.782500", "213504.242500", "213504.702500", "213505.162500", "213505.622500", "213506.082500", "213506.542500", "213507.002500", "213507.462500", "213507.922500", "213508.382500", "213508.842500", "213509.302500", "213509.762500", "213510.222500", "213510.682500", "213511.142500", "213511.602500", "213512.062500", "213512.522500", "213512.982500", "213513.442500", "213513.902500", "213514.362500", "213514.822500", "213515.282500", "213515.742500", "213516.202500", "213516.662500", "213517.122500", "213517.582500", "213518.042500", "213518.502500", "213518.962500", "213519.422500", "213519.882500", "213520.342500", "213520.802500", "213521.262500", "213521.722500", "213522.182500", "213522.642500", "213523.102500", "213523.562500", "213524.022500", "213524.482500", "213524.942500", "213525.402500", "213525.862500", "213526.322500", "213526.782500", "213527.242500", "213527.702500", "213528.162500", "213528.622500", "213529.082500", "213529.542500", "213530.002500", "213530.462500", "213530.922500", "213531.382500", "213531.842500", "213532.302500", "213532.762500", "213533.222500", "213533.682500", "213534.142500", "213534.602500", "213535.062500", "213535.522500", "213535.982500", "213536.442500", "213536.902500", "213537.362500", "213537.822500", "213538.282500", "213538.742500", "213539.202500", "213539.662500", "213540.122500", "213540.582500", "213541.042500", "213541.502500", "213541.962500", "213542.422500", "213542.882500", "213543.342500", "213543.802500", "213544.262500", "213544.722500", "213545.182500", "213545.642500", "213546.102500", "213546.562500", "213547.022500", "213547.482500", "213547.942500", "213548.402500", "213548.862500", "213549.322500", "213549.782500", "213550.242500", "213550.702500", "213551.162500", "213551.622500", "213552.082500", "213552.542500", "213553.002500", "213553.462500", "213553.922500", "213554.382500", "213554.842500", "213555.302500", "213555.762500", "213556.222500", "213556.682500", "213557.142500", "213557.602500", "213558.062500", "213558.522500", "213558.982500", "213559.442500", "213559.902500", "213600.362500", "213600.822500", "213601.282500", "213601.742500", "213602.202500", "213602.662500", "213603.122500", "213603.582500", "213604.042500", "213604.502500", "213604.962500", "213605.422500", "213605.882500", "213606.342500", "213606.802500", "213607.262500", "213607.722500", "213608.182500", "213608.642500", "213609.102500", "213609.562500", "213610.022500", "213610.482500", "213610.942500", "213611.402500", "213611.862500", "213612.322500", "213612.782500", "213613.242500", "213613.702500", "213614.162500", "213614.622500", "213615.082500", "213615.542500", "213616.002500", "213616.462500", "213616.922500", "213617.382500", "213617.842500", "213618.302500", "213618.762500", "213619.222500", "213619.682500", "213620.142500", "213620.602500", "213621.062500", "213621.522500", "213621.982500", "213622.442500", "213622.902500", "213623.362500", "213623.822500", "213624.282500", "213624.742500", "213625.202500", "213625.662500", "213626.122500", "213626.582500", "213627.042500", "213627.502500", "213627.962500", "213628.422500", "213628.882500", "213629.342500", "213629.802500", "213630.262500", "213630.722500", "213631.182500", "213631.642500", "213632.102500", "213632.562500", "213633.022500", "213633.482500", "213633.942500", "213634.402500", "213634.862500", "213635.322500", "213635.782500", "213636.242500", "213636.702500", "213637.162500", "213637.622500", "213638.082500", "213638.542500", "213639.002500", "213639.462500", "213639.922500", "213640.382500", "213640.842500", "213641.302500", "213641.762500", "213642.222500", "213642.682500", "213643.142500", "213643.602500", "213644.062500", "213644.522500", "213644.982500", "213645.442500", "213645.902500", "213646.362500", "213646.822500", "213647.282500", "213647.742500", "213648.202500", "213648.662500", "213649.122500", "213649.582500", "213650.042500", "213650.502500", "213650.962500", "213651.422500", "213651.882500", "213652.342500", "213652.802500", "213653.262500", "213653.722500", "213654.182500", "213654.642500", "213655.102500", "213655.562500", "213656.022500", "213656.482500", "213656.942500", "213657.402500", "213657.862500", "213658.322500", "213658.782500", "213659.242500", "213659.702500", "213700.162500", "213700.622500", "213701.082500", "213701.542500", "213702.002500", "213702.462500", "213702.922500", "213703.382500", "213703.842500", "213704.302500", "213704.762500", "213705.222500", "213705.682500", "213706.142500", "213706.602500", "213707.062500", "213707.522500", "213707.982500", "213708.442500", "213708.902500", "213709.362500", "213709.822500", "213710.282500", "213710.742500", "213711.202500", "213711.662500", "213712.122500", "213712.582500", "213713.042500", "213713.502500", "213713.962500", "213714.422500", "213714.882500", "213715.342500", "213715.802500", "213716.262500", "213716.722500", "213717.182500", "213717.642500", "213718.102500", "213718.562500", "213719.022500", "213719.482500", "213719.942500", "213720.402500", "213720.862500", "213721.322500", "213721.782500", "213722.242500", "213722.702500", "213723.162500", "213723.622500", "213724.082500", "213724.542500", "213725.002500", "213725.462500", "213725.922500", "213726.382500", "213726.842500", "213727.302500", "213727.762500", "213728.222500", "213728.682500", "213729.142500", "213729.602500", "213730.062500", "213730.522500", "213730.982500", "213731.442500", "213731.902500", "213732.362500", "213732.822500", "213733.282500", "213733.742500", "213734.202500", "213734.662500", "213735.122500", "213735.582500", "213736.042500", "213736.502500", "213736.962500", "213737.422500", "213737.882500", "213738.342500", "213738.802500", "213739.262500", "213739.722500", "213740.182500", "213740.642500", "213741.102500", "213741.562500", "213742.022500", "213742.482500", "213742.942500", "213743.402500", "213743.862500", "213744.322500", "213744.782500", "213745.242500", "213745.702500", "213746.162500", "213746.622500", "213747.082500", "213747.542500", "213748.002500", "213748.462500", "213748.922500", "213749.382500", "213749.842500", "213750.302500", "213750.762500", "213751.222500", "213751.682500", "213752.142500", "213752.602500", "213753.062500", "213753.522500", "213753.982500", "213754.442500", "213754.902500", "213755.362500", "213755.822500", "213756.282500", "213756.742500", "213757.202500", "213757.662500", "213758.122500", "213758.582500", "213759.042500", "213759.502500", "213759.962500", "213800.422500", "213800.882500", "213801.342500", "213801.802500", "213802.262500", "213802.722500", "213803.182500", "213803.642500", "213804.102500", "213804.562500", "213805.022500", "213805.482500", "213805.942500", "213806.402500", "213806.862500", "213807.322500", "213807.782500", "213808.242500", "213808.702500", "213809.162500", "213809.622500", "213810.082500", "213810.542500", "213811.002500", "213811.462500", "213811.922500", "213812.382500", "213812.842500", "213813.302500", "213813.762500", "213814.222500", "213814.682500", "213815.142500", "213815.602500", "213816.062500", "213816.522500", "213816.982500", "213817.442500", "213817.902500", "213818.362500", "213818.822500", "213819.282500", "213819.742500", "213820.202500", "213820.662500", "213821.122500", "213821.582500", "213822.042500", "213822.502500", "213822.962500", "213823.422500", "213823.882500", "213824.342500", "213824.802500", "213825.262500", "213825.722500", "213826.182500", "213826.642500", "213827.102500", "213827.562500", "213828.022500", "213828.482500", "213828.942500", "213829.402500", "213829.862500", "213830.322500", "213830.782500", "213831.242500", "213831.702500", "213832.162500", "213832.622500", "213833.082500", "213833.542500", "213834.002500", "213834.462500", "213834.922500", "213835.382500", "213835.842500", "213836.302500", "213836.762500", "213837.222500", "213837.682500", "213838.142500", "213838.602500", "213839.062500", "213839.522500", "213839.982500", "213840.442500", "213840.902500", "213841.362500", "213841.822500", "213842.282500", "213842.742500", "213843.202500", "213843.662500", "213844.122500", "213844.582500", "213845.042500", "213845.502500", "213845.962500", "213846.422500", "213846.882500", "213847.342500", "213847.802500", "213848.262500", "213848.722500", "213849.182500", "213849.642500", "213850.102500", "213850.562500", "213851.022500", "213851.482500", "213851.942500", "213852.402500", "213852.862500", "213853.322500", "213853.782500", "213854.242500", "213854.702500", "213855.162500", "213855.622500", "213856.082500", "213856.542500", "213857.002500", "213857.462500", "213857.922500", "213858.382500", "213858.842500", "213859.302500", "213859.762500", "213900.222500", "213900.682500", "213901.142500", "213901.602500", "213902.062500", "213902.522500", "213902.982500", "213903.442500", "213903.902500", "213904.362500", "213904.822500", "213905.282500", "213905.742500", "213906.202500", "213906.662500", "213907.122500", "213907.582500", "213908.042500", "213908.502500", "213908.962500", "213909.422500", "213909.882500", "213910.342500", "213910.802500", "213911.262500", "213911.722500", "213912.182500", "213912.642500", "213913.102500", "213913.562500", "213914.022500", "213914.482500", "213914.942500", "213915.402500", "213915.862500", "213916.322500", "213916.782500", "213917.242500", "213917.702500", "213918.162500", "213918.622500", "213919.082500", "213919.542500", "213920.002500", "213920.462500", "213920.922500", "213921.382500", "213921.842500", "213922.302500", "213922.762500", "213923.222500", "213923.682500", "213924.142500", "213924.602500", "213925.062500", "213925.522500", "213925.982500", "213926.442500", "213926.902500", "213927.362500", "213927.822500", "213928.282500", "213928.742500", "213929.202500", "213929.662500", "213930.122500", "213930.582500", "213931.042500", "213931.502500", "213931.962500", "213932.422500", "213932.882500", "213933.342500", "213933.802500", "213934.262500", "213934.722500", "213935.182500", "213935.642500", "213936.102500", "213936.562500", "213937.022500", "213937.482500", "213937.942500", "213938.402500", "213938.862500", "213939.322500", "213939.782500", "213940.242500", "213940.702500", "213941.162500", "213941.622500", "213942.082500", "213942.542500", "213943.002500", "213943.462500", "213943.922500", "213944.382500", "213944.842500", "213945.302500", "213945.762500", "213946.222500", "213946.682500", "213947.142500", "213947.602500", "213948.062500", "213948.522500", "213948.982500", "213949.442500", "213949.902500", "213950.362500", "213950.822500", "213951.282500", "213951.742500", "213952.202500", "213952.662500", "213953.122500", "213953.582500", "213954.042500", "213954.502500", "213954.962500", "213955.422500", "213955.882500", "213956.342500", "213956.802500", "213957.262500", "213957.722500", "213958.182500", "213958.642500", "213959.102500", "213959.562500", "214000.022500", "214000.482500", "214000.942500", "214001.402500", "214001.862500", "214002.322500", "214002.782500", "214003.242500", "214003.702500", "214004.162500", "214004.622500", "214005.082500", "214005.542500", "214006.002500", "214006.462500", "214006.922500", "214007.382500", "214007.842500", "214008.302500", "214008.762500", "214009.222500", "214009.682500", "214010.142500", "214010.602500", "214011.062500", "214011.522500", "214011.982500", "214012.442500", "214012.902500", "214013.362500", "214013.822500", "214014.282500", "214014.742500", "214015.202500", "214015.662500", "214016.122500", "214016.582500", "214017.042500", "214017.502500", "214017.962500", "214018.422500", "214018.882500", "214019.342500", "214019.802500", "214020.262500", "214020.722500", "214021.182500", "214021.642500", "214022.102500", "214022.562500", "214023.022500", "214023.482500", "214023.942500", "214024.402500", "214024.862500", "214025.322500", "214025.782500", "214026.242500", "214026.702500", "214027.162500", "214027.622500", "214028.082500", "214028.542500", "214029.002500", "214029.462500", "214029.922500", "214030.382500", "214030.842500", "214031.302500", "214031.762500", "214032.222500", "214032.682500", "214033.142500", "214033.602500", "214034.062500", "214034.522500", "214034.982500", "214035.442500", "214035.902500", "214036.362500", "214036.822500", "214037.282500", "214037.742500", "214038.202500", "214038.662500", "214039.122500", "214039.582500", "214040.042500", "214040.502500", "214040.962500", "214041.422500", "214041.882500", "214042.342500", "214042.802500", "214043.262500", "214043.722500", "214044.182500", "214044.642500", "214045.102500", "214045.562500", "214046.022500", "214046.482500", "214046.942500", "214047.402500", "214047.862500", "214048.322500", "214048.782500", "214049.242500", "214049.702500", "214050.162500", "214050.622500", "214051.082500", "214051.542500", "214052.002500", "214052.462500", "214052.922500", "214053.382500", "214053.842500", "214054.302500", "214054.762500", "214055.222500", "214055.682500"],
