{
  "AcquisitionMatrixPE": 82,
  "AcquisitionNumber": 1,
  "AcquisitionTime": "21:24:57.650000",
  "BandwidthPerPixelPhaseEncode": 24.888,
  "BaseResolution": 82,
  "BodyPartExamined": "BRAIN",
  "ConsistencyInfo": "N4_VE11E_LATEST_20181129",
  "ConversionSoftware": "dcm2niix",
  "ConversionSoftwareVersion": "v1.0.20201102",
  "DerivedVendorReportedEchoSpacing": 0.00049,
  "DeviceSerialNumber": "66112",
  "DwellTime": 2e-06,
  "EchoTime": 0.0272,
  "EchoTrainLength": 82,
  "EffectiveEchoSpacing": 0.00049,
  "FlipAngle": 44,
  "ImageComments": "Unaliased MB8/PE3",
  "ImageOrientationPatientDICOM": [0.999073, -0.0306153, 0.0302706, 0.0308736, 0.99949, -0.0081007],
  "ImageType": [
    "ORIGINAL",
    "PRIMARY",
    "M",
    "MB",
    "ND",
    "NORM",
    "MOSAIC"
],
  "ImagingFrequency": 123.252,
  "InPlanePhaseEncodingDirectionDICOM": "COL",
  "InstitutionAddress": "Maynard 3,Hanover,NH,US,03755",
  "InstitutionName": "Dartmouth College - PBS",
  "InstitutionalDepartmentName": "Department",
  "MRAcquisitionType": "2D",
  "MagneticFieldStrength": 3,
  "Manufacturer": "Siemens",
  "ManufacturersModelName": "Prisma",
  "Modality": "MR",
  "MultibandAccelerationFactor": 8,
  "PartialFourier": 1,
  "PatientPosition": "HFS",
  "PercentPhaseFOV": 100,
  "PercentSampling": 100,
  "PhaseEncodingDirection": "j-",
  "PhaseEncodingSteps": 82,
  "PhaseResolution": 1,
  "PixelBandwidth": 3050,
  "ProcedureStepDescription": "Wager_Wager^1076_spacetop",
  "ProtocolName": "func_run-03_task-social_acq-ap-mb8",
  "PulseSequenceDetails": "%CustomerSeq%\\cmrr_mbep2d_bold",
  "ReceiveCoilActiveElements": "HEA;HEP",
  "ReceiveCoilName": "Head_32",
  "ReconMatrixPE": 82,
  "RepetitionTime": 0.46,
  "SAR": 0.0989478,
  "ScanOptions": "FS",
  "ScanningSequence": "EP",
  "SequenceName": "epfid2d1_82",
  "SequenceVariant": "SK\\SS",
  "SeriesDescription": "func_run-03_task-social_acq-ap-mb8",
  "SeriesNumber": 16,
  "ShimSetting": [4127, -7732, -7219, 562, -141, -179, -101, 62],
  "SliceThickness": 2.7,
  "SliceTiming": [0, 0.2525, 0.065, 0.315, 0.1275, 0.3775, 0.19, 0, 0.2525, 0.065, 0.315, 0.1275, 0.3775, 0.19, 0, 0.2525, 0.065, 0.315, 0.1275, 0.3775, 0.19, 0, 0.2525, 0.065, 0.315, 0.1275, 0.3775, 0.19, 0, 0.2525, 0.065, 0.315, 0.1275, 0.3775, 0.19, 0, 0.2525, 0.065, 0.315, 0.1275, 0.3775, 0.19, 0, 0.2525, 0.065, 0.315, 0.1275, 0.3775, 0.19, 0, 0.2525, 0.065, 0.315, 0.1275, 0.3775, 0.19],
  "SoftwareVersions": "syngo MR E11",
  "SpacingBetweenSlices": 2.7,
  "StationName": "AWP66112",
  "TaskName": "social",
  "TotalReadoutTime": 0.03969,
  "TxRefAmp": 228.938,
  "WipMemBlock": "871fea63-6f3c-446a-8f5f-0d5a2b37757d||Sequence: R016 ve11e/master r/434b28f1; Aug  7 2019 18:53:46 by eja",
  "dcmmeta_affine": [
    [-2.6804392337799072, 0.08283152431249619, 0.08101928979158401, 108.51210021972656],
    [0.08213867992162704, 2.6815598011016846, -0.02437492273747921, -100.71482849121094],
    [0.08121374249458313, 0.021733585745096207, 2.698673963546753, -53.65828323364258],
    [0.0, 0.0, 0.0, 1.0]
],
  "dcmmeta_reorient_transform": [
    [0.0, -1.0, 0.0, 81.0],
    [1.0, 0.0, 0.0, 0.0],
    [0.0, 0.0, 1.0, 0.0],
    [0.0, 0.0, 0.0, 1.0]
],
  "dcmmeta_shape": [82, 82, 56, 872],
  "dcmmeta_slice_dim": 2,
  "dcmmeta_version": 0.6,
  "global": {
    "const": {
      "AccessionNumber": "A004035",
      "AcquisitionMatrix": [82, 0, 0, 82],
      "AngioFlag": "N",
      "BitsAllocated": 16,
      "BitsStored": 16,
      "BodyPartExamined": "BRAIN",
      "Columns": 656,
      "EchoNumbers": 1,
      "EchoTime": 27.2,
      "EchoTrainLength": 82,
      "FlipAngle": 44.0,
      "HighBit": 15,
      "ImageOrientationPatient": [0.99907276715163, -0.0306153263307, 0.03027057531094, 0.03087356676076, 0.99949047095939, -0.0081006997755],
      "ImagePositionPatient": [-908.28014740363, -862.52540028657, -68.968666046166],
      "ImageType": [
        "ORIGINAL",
        "PRIMARY",
        "M",
        "MB",
        "ND",
        "NORM",
        "MOSAIC"
],
      "ImagedNucleus": "1H",
      "ImagingFrequency": 123.252316,
      "InPlanePhaseEncodingDirection": "COL",
      "MRAcquisitionType": "2D",
      "MagneticFieldStrength": 3.0,
      "Manufacturer": "SIEMENS",
      "ManufacturerModelName": "Prisma",
      "Modality": "MR",
      "NumberOfAverages": 1.0,
      "NumberOfPhaseEncodingSteps": 82,
      "PercentPhaseFieldOfView": 100.0,
      "PercentSampling": 100.0,
      "PerformedProcedureStepStartTime": "204927.339000",
      "PhotometricInterpretation": "MONOCHROME2",
      "PixelBandwidth": 3050.0,
      "PixelRepresentation": 0,
      "PixelSpacing": [2.6829268932343, 2.6829268932343],
      "ProtocolName": "func_run-03_task-social_acq-ap-mb8",
      "RepetitionTime": 460.0,
      "Rows": 656,
      "SAR": 0.09894778355011,
      "SamplesPerPixel": 1,
      "ScanOptions": "FS",
      "ScanningSequence": "EP",
      "SequenceName": "epfid2d1_82",
      "SequenceVariant": [
        "SK",
        "SS"
],
      "SeriesDescription": "func_run-03_task-social_acq-ap-mb8",
      "SeriesNumber": 16,
      "SeriesTime": "212511.775000",
      "SliceLocation": -49.466564527908,
      "SliceThickness": 2.7000000476837,
      "SmallestImagePixelValue": 0,
      "SoftwareVersions": "syngo MR E11",
      "SpacingBetweenSlices": 2.6999999410536,
      "SpecificCharacterSet": "ISO_IR 100",
      "StudyID": "1",
      "StudyTime": "204927.192000",
      "TransmitCoilName": "Body",
      "VariableFlipAngleFlag": "N",
      "WindowCenterWidthExplanation": "Algo1"
    },
    "slices": {}
  },
  "time": {
    "samples": {
      "AcquisitionNumber": [1, 2, 3, 4, 5, 6, 7, 8, 9, 10, 11, 12, 13, 14, 15, 16, 17, 18, 19, 20, 21, 22, 23, 24, 25, 26, 27, 28, 29, 30, 31, 32, 33, 34, 35, 36, 37, 38, 39, 40, 41, 42, 43, 44, 45, 46, 47, 48, 49, 50, 51, 52, 53, 54, 55, 56, 57, 58, 59, 60, 61, 62, 63, 64, 65, 66, 67, 68, 69, 70, 71, 72, 73, 74, 75, 76, 77, 78, 79, 80, 81, 82, 83, 84, 85, 86, 87, 88, 89, 90, 91, 92, 93, 94, 95, 96, 97, 98, 99, 100, 101, 102, 103, 104, 105, 106, 107, 108, 109, 110, 111, 112, 113, 114, 115, 116, 117, 118, 119, 120, 121, 122, 123, 124, 125, 126, 127, 128, 129, 130, 131, 132, 133, 134, 135, 136, 137, 138, 139, 140, 141, 142, 143, 144, 145, 146, 147, 148, 149, 150, 151, 152, 153, 154, 155, 156, 157, 158, 159, 160, 161, 162, 163, 164, 165, 166, 167, 168, 169, 170, 171, 172, 173, 174, 175, 176, 177, 178, 179, 180, 181, 182, 183, 184, 185, 186, 187, 188, 189, 190, 191, 192, 193, 194, 195, 196, 197, 198, 199, 200, 201, 202, 203, 204, 205, 206, 207, 208, 209, 210, 211, 212, 213, 214, 215, 216, 217, 218, 219, 220, 221, 222, 223, 224, 225, 226, 227, 228, 229, 230, 231, 232, 233, 234, 235, 236, 237, 238, 239, 240, 241, 242, 243, 244, 245, 246, 247, 248, 249, 250, 251, 252, 253, 254, 255, 256, 257, 258, 259, 260, 261, 262, 263, 264, 265, 266, 267, 268, 269, 270, 271, 272, 273, 274, 275, 276, 277, 278, 279, 280, 281, 282, 283, 284, 285, 286, 287, 288, 289, 290, 291, 292, 293, 294, 295, 296, 297, 298, 299, 300, 301, 302, 303, 304, 305, 306, 307, 308, 309, 310, 311, 312, 313, 314, 315, 316, 317, 318, 319, 320, 321, 322, 323, 324, 325, 326, 327, 328, 329, 330, 331, 332, 333, 334, 335, 336, 337, 338, 339, 340, 341, 342, 343, 344, 345, 346, 347, 348, 349, 350, 351, 352, 353, 354, 355, 356, 357, 358, 359, 360, 361, 362, 363, 364, 365, 366, 367, 368, 369, 370, 371, 372, 373, 374, 375, 376, 377, 378, 379, 380, 381, 382, 383, 384, 385, 386, 387, 388, 389, 390, 391, 392, 393, 394, 395, 396, 397, 398, 399, 400, 401, 402, 403, 404, 405, 406, 407, 408, 409, 410, 411, 412, 413, 414, 415, 416, 417, 418, 419, 420, 421, 422, 423, 424, 425, 426, 427, 428, 429, 430, 431, 432, 433, 434, 435, 436, 437, 438, 439, 440, 441, 442, 443, 444, 445, 446, 447, 448, 449, 450, 451, 452, 453, 454, 455, 456, 457, 458, 459, 460, 461, 462, 463, 464, 465, 466, 467, 468, 469, 470, 471, 472, 473, 474, 475, 476, 477, 478, 479, 480, 481, 482, 483, 484, 485, 486, 487, 488, 489, 490, 491, 492, 493, 494, 495, 496, 497, 498, 499, 500, 501, 502, 503, 504, 505, 506, 507, 508, 509, 510, 511, 512, 513, 514, 515, 516, 517, 518, 519, 520, 521, 522, 523, 524, 525, 526, 527, 528, 529, 530, 531, 532, 533, 534, 535, 536, 537, 538, 539, 540, 541, 542, 543, 544, 545, 546, 547, 548, 549, 550, 551, 552, 553, 554, 555, 556, 557, 558, 559, 560, 561, 562, 563, 564, 565, 566, 567, 568, 569, 570, 571, 572, 573, 574, 575, 576, 577, 578, 579, 580, 581, 582, 583, 584, 585, 586, 587, 588, 589, 590, 591, 592, 593, 594, 595, 596, 597, 598, 599, 600, 601, 602, 603, 604, 605, 606, 607, 608, 609, 610, 611, 612, 613, 614, 615, 616, 617, 618, 619, 620, 621, 622, 623, 624, 625, 626, 627, 628, 629, 630, 631, 632, 633, 634, 635, 636, 637, 638, 639, 640, 641, 642, 643, 644, 645, 646, 647, 648, 649, 650, 651, 652, 653, 654, 655, 656, 657, 658, 659, 660, 661, 662, 663, 664, 665, 666, 667, 668, 669, 670, 671, 672, 673, 674, 675, 676, 677, 678, 679, 680, 681, 682, 683, 684, 685, 686, 687, 688, 689, 690, 691, 692, 693, 694, 695, 696, 697, 698, 699, 700, 701, 702, 703, 704, 705, 706, 707, 708, 709, 710, 711, 712, 713, 714, 715, 716, 717, 718, 719, 720, 721, 722, 723, 724, 725, 726, 727, 728, 729, 730, 731, 732, 733, 734, 735, 736, 737, 738, 739, 740, 741, 742, 743, 744, 745, 746, 747, 748, 749, 750, 751, 752, 753, 754, 755, 756, 757, 758, 759, 760, 761, 762, 763, 764, 765, 766, 767, 768, 769, 770, 771, 772, 773, 774, 775, 776, 777, 778, 779, 780, 781, 782, 783, 784, 785, 786, 787, 788, 789, 790, 791, 792, 793, 794, 795, 796, 797, 798, 799, 800, 801, 802, 803, 804, 805, 806, 807, 808, 809, 810, 811, 812, 813, 814, 815, 816, 817, 818, 819, 820, 821, 822, 823, 824, 825, 826, 827, 828, 829, 830, 831, 832, 833, 834, 835, 836, 837, 838, 839, 840, 841, 842, 843, 844, 845, 846, 847, 848, 849, 850, 851, 852, 853, 854, 855, 856, 857, 858, 859, 860, 861, 862, 863, 864, 865, 866, 867, 868, 869, 870, 871, 872],
      "AcquisitionTime": ["212457.650000", "212458.110000", "212458.570000", "212459.030000", "212459.490000", "212459.950000", "212500.410000", "212500.870000", "212501.330000", "212501.790000", "212502.250000", "212502.710000", "212503.170000", "212503.630000", "212504.090000", "212504.550000", "212505.010000", "212505.470000", "212505.930000", "212506.390000", "212506.850000", "212507.310000", "212507.770000", "212508.230000", "212508.690000", "212509.150000", "212509.610000", "212510.070000", "212510.530000", "212510.990000", "212511.450000", "212511.910000", "212512.370000", "212512.830000", "212513.290000", "212513.750000", "212514.210000", "212514.670000", "212515.130000", "212515.590000", "212516.050000", "212516.510000", "212516.970000", "212517.430000", "212517.890000", "212518.350000", "212518.810000", "212519.270000", "212519.730000", "212520.190000", "212520.650000", "212521.110000", "212521.570000", "212522.030000", "212522.490000", "212522.950000", "212523.410000", "212523.870000", "212524.330000", "212524.790000", "212525.250000", "212525.710000", "212526.170000", "212526.630000", "212527.090000", "212527.550000", "212528.010000", "212528.470000", "212528.930000", "212529.390000", "212529.850000", "212530.310000", "212530.770000", "212531.230000", "212531.690000", "212532.150000", "212532.610000", "212533.070000", "212533.530000", "212533.990000", "212534.450000", "212534.910000", "212535.370000", "212535.830000", "212536.290000", "212536.750000", "212537.210000", "212537.670000", "212538.130000", "212538.590000", "212539.050000", "212539.510000", "212539.970000", "212540.430000", "212540.890000", "212541.350000", "212541.810000", "212542.270000", "212542.730000", "212543.190000", "212543.650000", "212544.110000", "212544.570000", "212545.030000", "212545.490000", "212545.950000", "212546.410000", "212546.870000", "212547.330000", "212547.790000", "212548.250000", "212548.710000", "212549.170000", "212549.630000", "212550.090000", "212550.550000", "212551.010000", "212551.470000", "212551.930000", "212552.390000", "212552.850000", "212553.310000", "212553.770000", "212554.230000", "212554.690000", "212555.150000", "212555.610000", "212556.070000", "212556.530000", "212556.990000", "212557.450000", "212557.910000", "212558.370000", "212558.830000", "212559.290000", "212559.750000", "212600.210000", "212600.670000", "212601.130000", "212601.590000", "212602.050000", "212602.510000", "212602.970000", "212603.430000", "212603.890000", "212604.350000", "212604.810000", "212605.270000", "212605.730000", "212606.190000", "212606.650000", "212607.110000", "212607.570000", "212608.030000", "212608.490000", "212608.950000", "212609.410000", "212609.870000", "212610.330000", "212610.790000", "212611.250000", "212611.710000", "212612.170000", "212612.630000", "212613.090000", "212613.550000", "212614.010000", "212614.470000", "212614.930000", "212615.390000", "212615.850000", "212616.310000", "212616.770000", "212617.230000", "212617.690000", "212618.150000", "212618.610000", "212619.070000", "212619.530000", "212619.990000", "212620.450000", "212620.910000", "212621.370000", "212621.830000", "212622.290000", "212622.750000", "212623.210000", "212623.670000", "212624.130000", "212624.590000", "212625.050000", "212625.510000", "212625.970000", "212626.430000", "212626.890000", "212627.350000", "212627.810000", "212628.270000", "212628.730000", "212629.190000", "212629.650000", "212630.110000", "212630.570000", "212631.030000", "212631.490000", "212631.950000", "212632.410000", "212632.870000", "212633.330000", "212633.790000", "212634.250000", "212634.710000", "212635.170000", "212635.630000", "212636.090000", "212636.550000", "212637.010000", "212637.470000", "212637.930000", "212638.390000", "212638.850000", "212639.310000", "212639.770000", "212640.230000", "212640.690000", "212641.150000", "212641.610000", "212642.070000", "212642.530000", "212642.990000", "212643.450000", "212643.910000", "212644.370000", "212644.830000", "212645.290000", "212645.750000", "212646.210000", "212646.670000", "212647.130000", "212647.590000", "212648.050000", "212648.510000", "212648.970000", "212649.430000", "212649.890000", "212650.350000", "212650.810000", "212651.270000", "212651.730000", "212652.190000", "212652.650000", "212653.110000", "212653.570000", "212654.030000", "212654.490000", "212654.950000", "212655.410000", "212655.870000", "212656.330000", "212656.790000", "212657.250000", "212657.710000", "212658.170000", "212658.630000", "212659.090000", "212659.550000", "212700.010000", "212700.470000", "212700.930000", "212701.390000", "212701.850000", "212702.310000", "212702.770000", "212703.230000", "212703.690000", "212704.150000", "212704.610000", "212705.070000", "212705.530000", "212705.990000", "212706.450000", "212706.910000", "212707.370000", "212707.830000", "212708.290000", "212708.750000", "212709.210000", "212709.670000", "212710.130000", "212710.590000", "212711.050000", "212711.510000", "212711.970000", "212712.430000", "212712.890000", "212713.350000", "212713.810000", "212714.270000", "212714.730000", "212715.190000", "212715.650000", "212716.110000", "212716.570000", "212717.030000", "212717.490000", "212717.950000", "212718.410000", "212718.870000", "212719.330000", "212719.790000", "212720.250000", "212720.710000", "212721.170000", "212721.630000", "212722.090000", "212722.550000", "212723.010000", "212723.470000", "212723.930000", "212724.390000", "212724.850000", "212725.310000", "212725.770000", "212726.230000", "212726.690000", "212727.150000", "212727.610000", "212728.070000", "212728.530000", "212728.990000", "212729.450000", "212729.910000", "212730.370000", "212730.830000", "212731.290000", "212731.750000", "212732.210000", "212732.670000", "212733.130000", "212733.590000", "212734.050000", "212734.510000", "212734.970000", "212735.430000", "212735.890000", "212736.350000", "212736.810000", "212737.270000", "212737.730000", "212738.190000", "212738.650000", "212739.110000", "212739.570000", "212740.030000", "212740.490000", "212740.950000", "212741.410000", "212741.870000", "212742.330000", "212742.790000", "212743.250000", "212743.710000", "212744.170000", "212744.630000", "212745.090000", "212745.550000", "212746.010000", "212746.470000", "212746.930000", "212747.390000", "212747.850000", "212748.310000", "212748.770000", "212749.230000", "212749.690000", "212750.150000", "212750.610000", "212751.070000", "212751.530000", "212751.990000", "212752.450000", "212752.910000", "212753.370000", "212753.830000", "212754.290000", "212754.750000", "212755.210000", "212755.670000", "212756.130000", "212756.590000", "212757.050000", "212757.510000", "212757.970000", "212758.430000", "212758.890000", "212759.350000", "212759.810000", "212800.270000", "212800.730000", "212801.190000", "212801.650000", "212802.110000", "212802.570000", "212803.030000", "212803.490000", "212803.950000", "212804.410000", "212804.870000", "212805.330000", "212805.790000", "212806.250000", "212806.710000", "212807.170000", "212807.630000", "212808.090000", "212808.550000", "212809.010000", "212809.470000", "212809.930000", "212810.390000", "212810.850000", "212811.310000", "212811.770000", "212812.230000", "212812.690000", "212813.150000", "212813.610000", "212814.070000", "212814.530000", "212814.990000", "212815.450000", "212815.910000", "212816.370000", "212816.830000", "212817.290000", "212817.750000", "212818.210000", "212818.670000", "212819.130000", "212819.590000", "212820.050000", "212820.510000", "212820.970000", "212821.430000", "212821.890000", "212822.350000", "212822.810000", "212823.270000", "212823.730000", "212824.190000", "212824.650000", "212825.110000", "212825.570000", "212826.030000", "212826.490000", "212826.950000", "212827.410000", "212827.870000", "212828.330000", "212828.790000", "212829.250000", "212829.710000", "212830.170000", "212830.630000", "212831.090000", "212831.550000", "212832.010000", "212832.470000", "212832.930000", "212833.390000", "212833.850000", "212834.310000", "212834.770000", "212835.230000", "212835.690000", "212836.150000", "212836.610000", "212837.070000", "212837.530000", "212837.990000", "212838.450000", "212838.910000", "212839.370000", "212839.830000", "212840.290000", "212840.750000", "212841.210000", "212841.670000", "212842.130000", "212842.590000", "212843.050000", "212843.510000", "212843.970000", "212844.430000", "212844.890000", "212845.350000", "212845.810000", "212846.270000", "212846.730000", "212847.190000", "212847.650000", "212848.110000", "212848.570000", "212849.030000", "212849.490000", "212849.950000", "212850.410000", "212850.870000", "212851.330000", "212851.790000", "212852.250000", "212852.710000", "212853.170000", "212853.630000", "212854.090000", "212854.550000", "212855.010000", "212855.470000", "212855.930000", "212856.390000", "212856.850000", "212857.310000", "212857.770000", "212858.230000", "212858.690000", "212859.150000", "212859.610000", "212900.070000", "212900.530000", "212900.990000", "212901.450000", "212901.910000", "212902.370000", "212902.830000", "212903.290000", "212903.750000", "212904.210000", "212904.670000", "212905.130000", "212905.590000", "212906.050000", "212906.510000", "212906.970000", "212907.430000", "212907.890000", "212908.350000", "212908.810000", "212909.270000", "212909.730000", "212910.190000", "212910.650000", "212911.110000", "212911.570000", "212912.030000", "212912.490000", "212912.950000", "212913.410000", "212913.870000", "212914.330000", "212914.790000", "212915.250000", "212915.710000", "212916.170000", "212916.630000", "212917.090000", "212917.550000", "212918.010000", "212918.470000", "212918.930000", "212919.390000", "212919.850000", "212920.310000", "212920.770000", "212921.230000", "212921.690000", "212922.150000", "212922.610000", "212923.070000", "212923.530000", "212923.990000", "212924.450000", "212924.910000", "212925.370000", "212925.830000", "212926.290000", "212926.750000", "212927.210000", "212927.670000", "212928.130000", "212928.590000", "212929.050000", "212929.510000", "212929.970000", "212930.430000", "212930.890000", "212931.350000", "212931.810000", "212932.270000", "212932.730000", "212933.190000", "212933.650000", "212934.110000", "212934.570000", "212935.030000", "212935.490000", "212935.950000", "212936.410000", "212936.870000", "212937.330000", "212937.790000", "212938.250000", "212938.710000", "212939.170000", "212939.630000", "212940.090000", "212940.550000", "212941.010000", "212941.470000", "212941.930000", "212942.390000", "212942.850000", "212943.310000", "212943.770000", "212944.230000", "212944.690000", "212945.150000", "212945.610000", "212946.070000", "212946.530000", "212946.990000", "212947.450000", "212947.910000", "212948.370000", "212948.830000", "212949.290000", "212949.750000", "212950.210000", "212950.670000", "212951.130000", "212951.590000", "212952.050000", "212952.510000", "212952.970000", "212953.430000", "212953.890000", "212954.350000", "212954.810000", "212955.270000", "212955.730000", "212956.190000", "212956.650000", "212957.110000", "212957.570000", "212958.030000", "212958.490000", "212958.950000", "212959.410000", "212959.870000", "213000.330000", "213000.790000", "213001.250000", "213001.710000", "213002.170000", "213002.630000", "213003.090000", "213003.550000", "213004.010000", "213004.470000", "213004.930000", "213005.390000", "213005.850000", "213006.310000", "213006.770000", "213007.230000", "213007.690000", "213008.150000", "213008.610000", "213009.070000", "213009.530000", "213009.990000", "213010.450000", "213010.910000", "213011.370000", "213011.830000", "213012.290000", "213012.750000", "213013.210000", "213013.670000", "213014.130000", "213014.590000", "213015.050000", "213015.510000", "213015.970000", "213016.430000", "213016.890000", "213017.350000", "213017.810000", "213018.270000", "213018.730000", "213019.190000", "213019.650000", "213020.110000", "213020.570000", "213021.030000", "213021.490000", "213021.950000", "213022.410000", "213022.870000", "213023.330000", "213023.790000", "213024.250000", "213024.710000", "213025.170000", "213025.630000", "213026.090000", "213026.550000", "213027.010000", "213027.470000", "213027.930000", "213028.390000", "213028.850000", "213029.310000", "213029.770000", "213030.230000", "213030.690000", "213031.150000", "213031.610000", "213032.070000", "213032.530000", "213032.990000", "213033.450000", "213033.910000", "213034.370000", "213034.830000", "213035.290000", "213035.750000", "213036.210000", "213036.670000", "213037.130000", "213037.590000", "213038.050000", "213038.510000", "213038.970000", "213039.430000", "213039.890000", "213040.350000", "213040.810000", "213041.270000", "213041.730000", "213042.190000", "213042.650000", "213043.110000", "213043.570000", "213044.030000", "213044.490000", "213044.950000", "213045.410000", "213045.870000", "213046.330000", "213046.790000", "213047.250000", "213047.710000", "213048.170000", "213048.630000", "213049.090000", "213049.550000", "213050.010000", "213050.470000", "213050.930000", "213051.390000", "213051.850000", "213052.310000", "213052.770000", "213053.230000", "213053.690000", "213054.150000", "213054.610000", "213055.070000", "213055.530000", "213055.990000", "213056.450000", "213056.910000", "213057.370000", "213057.830000", "213058.290000", "213058.750000", "213059.210000", "213059.670000", "213100.130000", "213100.590000", "213101.050000", "213101.510000", "213101.970000", "213102.430000", "213102.890000", "213103.350000", "213103.810000", "213104.270000", "213104.730000", "213105.190000", "213105.650000", "213106.110000", "213106.570000", "213107.030000", "213107.490000", "213107.950000", "213108.410000", "213108.870000", "213109.330000", "213109.790000", "213110.250000", "213110.710000", "213111.170000", "213111.630000", "213112.090000", "213112.550000", "213113.010000", "213113.470000", "213113.930000", "213114.390000", "213114.850000", "213115.310000", "213115.770000", "213116.230000", "213116.690000", "213117.150000", "213117.610000", "213118.070000", "213118.530000", "213118.990000", "213119.450000", "213119.910000", "213120.370000", "213120.830000", "213121.290000", "213121.750000", "213122.210000", "213122.670000", "213123.130000", "213123.590000", "213124.050000", "213124.510000", "213124.970000", "213125.430000", "213125.890000", "213126.350000", "213126.810000", "213127.270000", "213127.730000", "213128.190000", "213128.650000", "213129.110000", "213129.570000", "213130.030000", "213130.490000", "213130.950000", "213131.410000", "213131.870000", "213132.330000", "213132.790000", "213133.250000", "213133.710000", "213134.170000", "213134.630000", "213135.090000", "213135.550000", "213136.010000", "213136.470000", "213136.930000", "213137.390000", "213137.850000", "213138.310000"],
