{
  "AcquisitionMatrixPE": 82,
  "AcquisitionNumber": 1,
  "AcquisitionTime": "09:37:3.782500",
  "BandwidthPerPixelPhaseEncode": 24.888,
  "BaseResolution": 82,
  "BodyPartExamined": "BRAIN",
  "ConsistencyInfo": "N4_VE11C_LATEST_20160120",
  "ConversionSoftware": "dcm2niix",
  "ConversionSoftwareVersion": "v1.0.20201102",
  "DerivedVendorReportedEchoSpacing": 0.00049,
  "DeviceSerialNumber": "66112",
  "DwellTime": 2e-06,
  "EchoTime": 0.0272,
  "EchoTrainLength": 82,
  "EffectiveEchoSpacing": 0.00049,
  "FlipAngle": 44,
  "ImageComments": "Unaliased MB8/PE3",
  "ImageOrientationPatientDICOM": [0.999003, 0.0308328, 0.0322912, -0.0266832, 0.992187, -0.12187],
  "ImageType": [
    "ORIGINAL",
    "PRIMARY",
    "M",
    "MB",
    "ND",
    "NORM",
    "MOSAIC"
],
  "ImagingFrequency": 123.252,
  "InPlanePhaseEncodingDirectionDICOM": "COL",
  "InstitutionAddress": "Maynard 3,Hanover,NH,US,03755",
  "InstitutionName": "Dartmouth College - PBS",
  "InstitutionalDepartmentName": "Department",
  "MRAcquisitionType": "2D",
  "MagneticFieldStrength": 3,
  "Manufacturer": "Siemens",
  "ManufacturersModelName": "Prisma",
  "Modality": "MR",
  "MultibandAccelerationFactor": 8,
  "PartialFourier": 1,
  "PatientPosition": "HFS",
  "PercentPhaseFOV": 100,
  "PercentSampling": 100,
  "PhaseEncodingDirection": "j-",
  "PhaseEncodingSteps": 82,
  "PhaseResolution": 1,
  "PixelBandwidth": 3050,
  "ProcedureStepDescription": "Wager_Wager^1076_spacetop",
  "ProtocolName": "func_run-04_task-social_acq-ap-mb8",
  "PulseSequenceDetails": "%CustomerSeq%\\cmrr_mbep2d_bold",
  "ReceiveCoilActiveElements": "HEA;HEP",
  "ReceiveCoilName": "Head_32",
  "ReconMatrixPE": 82,
  "RepetitionTime": 0.46,
  "SAR": 0.084214,
  "ScanOptions": "FS",
  "ScanningSequence": "EP",
  "SequenceName": "epfid2d1_82",
  "SequenceVariant": "SK\\SS",
  "SeriesDescription": "func_run-04_task-social_acq-ap-mb8",
  "SeriesNumber": 14,
  "ShimSetting": [4163, -7697, -7335, 545, -16, -174, 34, 86],
  "SliceThickness": 2.7,
  "SliceTiming": [0, 0.25, 0.0625, 0.3125, 0.125, 0.3775, 0.1875, 0, 0.25, 0.0625, 0.3125, 0.125, 0.3775, 0.1875, 0, 0.25, 0.0625, 0.3125, 0.125, 0.3775, 0.1875, 0, 0.25, 0.0625, 0.3125, 0.125, 0.3775, 0.1875, 0, 0.25, 0.0625, 0.3125, 0.125, 0.3775, 0.1875, 0, 0.25, 0.0625, 0.3125, 0.125, 0.3775, 0.1875, 0, 0.25, 0.0625, 0.3125, 0.125, 0.3775, 0.1875, 0, 0.25, 0.0625, 0.3125, 0.125, 0.3775, 0.1875],
  "SoftwareVersions": "syngo MR E11",
  "SpacingBetweenSlices": 2.7,
  "StationName": "AWP66112",
  "TaskName": "social",
  "TotalReadoutTime": 0.03969,
  "TxRefAmp": 265.751,
  "WipMemBlock": "3fefcabd-228e-4545-92cf-9449d52b2d24||Sequence: R016 ve11c/master r/e634e98; Dec 19 2017 11:00:25 by eja",
  "dcmmeta_affine": [
    [-2.6802515983581543, -0.07158919423818588, 0.09665048867464066, 112.81173706054688],
    [-0.08272223174571991, 2.661966323852539, -0.32639333605766296, -78.74846649169922],
    [0.08663485199213028, 0.32696717977523804, 2.6784560680389404, -111.80175018310547],
    [0.0, 0.0, 0.0, 1.0]
],
  "dcmmeta_reorient_transform": [
    [0.0, -1.0, 0.0, 81.0],
    [1.0, 0.0, 0.0, 0.0],
    [0.0, 0.0, 1.0, 0.0],
    [0.0, 0.0, 0.0, 1.0]
],
  "dcmmeta_shape": [82, 82, 56, 872],
  "dcmmeta_slice_dim": 2,
  "dcmmeta_version": 0.6,
  "global": {
    "const": {
      "AccessionNumber": "A003841",
      "AcquisitionMatrix": [82, 0, 0, 82],
      "AngioFlag": "N",
      "BitsAllocated": 16,
      "BitsStored": 16,
      "BodyPartExamined": "BRAIN",
      "Columns": 656,
      "EchoNumbers": 1,
      "EchoTime": 27.2,
      "EchoTrainLength": 82,
      "FlipAngle": 44.0,
      "HighBit": 15,
      "ImageOrientationPatient": [0.99900281119217, 0.03083283230284, 0.03229117034628, -0.0266832441017, 0.99218738629392, -0.1218695817809],
      "ImagePositionPatient": [-855.69909403626, -924.59638537743, -16.342031824724],
      "ImageType": [
        "ORIGINAL",
        "PRIMARY",
        "M",
        "MB",
        "ND",
        "NORM",
        "MOSAIC"
],
      "ImagedNucleus": "1H",
      "ImagingFrequency": 123.252237,
      "InPlanePhaseEncodingDirection": "COL",
      "MRAcquisitionType": "2D",
      "MagneticFieldStrength": 3.0,
      "Manufacturer": "SIEMENS",
      "ManufacturerModelName": "Prisma",
      "Modality": "MR",
      "NumberOfAverages": 1.0,
      "NumberOfPhaseEncodingSteps": 82,
      "PercentPhaseFieldOfView": 100.0,
      "PercentSampling": 100.0,
      "PerformedProcedureStepStartTime": "085253.866000",
      "PhotometricInterpretation": "MONOCHROME2",
      "PixelBandwidth": 3050.0,
      "PixelRepresentation": 0,
      "PixelSpacing": [2.6829268932343, 2.6829268932343],
      "ProtocolName": "func_run-04_task-social_acq-ap-mb8",
      "RepetitionTime": 460.0,
      "Rows": 656,
      "SAR": 0.08421397360587,
      "SamplesPerPixel": 1,
      "ScanOptions": "FS",
      "ScanningSequence": "EP",
      "SequenceName": "epfid2d1_82",
      "SequenceVariant": [
        "SK",
        "SS"
],
      "SeriesDescription": "func_run-04_task-social_acq-ap-mb8",
      "SeriesNumber": 14,
      "SeriesTime": "093715.706000",
      "SliceLocation": -97.351770125509,
      "SliceThickness": 2.7000000476837,
      "SmallestImagePixelValue": 0,
      "SoftwareVersions": "syngo MR E11",
      "SpacingBetweenSlices": 2.7000000642971,
      "SpecificCharacterSet": "ISO_IR 100",
      "StudyID": "2",
      "StudyTime": "085253.773000",
      "TransmitCoilName": "Body",
      "VariableFlipAngleFlag": "N",
      "WindowCenterWidthExplanation": "Algo1",
      "dBdt": 0.0},
    "slices": {}
  },
  "time": {
    "samples": {
      "AcquisitionNumber": [1, 2, 3, 4, 5, 6, 7, 8, 9, 10, 11, 12, 13, 14, 15, 16, 17, 18, 19, 20, 21, 22, 23, 24, 25, 26, 27, 28, 29, 30, 31, 32, 33, 34, 35, 36, 37, 38, 39, 40, 41, 42, 43, 44, 45, 46, 47, 48, 49, 50, 51, 52, 53, 54, 55, 56, 57, 58, 59, 60, 61, 62, 63, 64, 65, 66, 67, 68, 69, 70, 71, 72, 73, 74, 75, 76, 77, 78, 79, 80, 81, 82, 83, 84, 85, 86, 87, 88, 89, 90, 91, 92, 93, 94, 95, 96, 97, 98, 99, 100, 101, 102, 103, 104, 105, 106, 107, 108, 109, 110, 111, 112, 113, 114, 115, 116, 117, 118, 119, 120, 121, 122, 123, 124, 125, 126, 127, 128, 129, 130, 131, 132, 133, 134, 135, 136, 137, 138, 139, 140, 141, 142, 143, 144, 145, 146, 147, 148, 149, 150, 151, 152, 153, 154, 155, 156, 157, 158, 159, 160, 161, 162, 163, 164, 165, 166, 167, 168, 169, 170, 171, 172, 173, 174, 175, 176, 177, 178, 179, 180, 181, 182, 183, 184, 185, 186, 187, 188, 189, 190, 191, 192, 193, 194, 195, 196, 197, 198, 199, 200, 201, 202, 203, 204, 205, 206, 207, 208, 209, 210, 211, 212, 213, 214, 215, 216, 217, 218, 219, 220, 221, 222, 223, 224, 225, 226, 227, 228, 229, 230, 231, 232, 233, 234, 235, 236, 237, 238, 239, 240, 241, 242, 243, 244, 245, 246, 247, 248, 249, 250, 251, 252, 253, 254, 255, 256, 257, 258, 259, 260, 261, 262, 263, 264, 265, 266, 267, 268, 269, 270, 271, 272, 273, 274, 275, 276, 277, 278, 279, 280, 281, 282, 283, 284, 285, 286, 287, 288, 289, 290, 291, 292, 293, 294, 295, 296, 297, 298, 299, 300, 301, 302, 303, 304, 305, 306, 307, 308, 309, 310, 311, 312, 313, 314, 315, 316, 317, 318, 319, 320, 321, 322, 323, 324, 325, 326, 327, 328, 329, 330, 331, 332, 333, 334, 335, 336, 337, 338, 339, 340, 341, 342, 343, 344, 345, 346, 347, 348, 349, 350, 351, 352, 353, 354, 355, 356, 357, 358, 359, 360, 361, 362, 363, 364, 365, 366, 367, 368, 369, 370, 371, 372, 373, 374, 375, 376, 377, 378, 379, 380, 381, 382, 383, 384, 385, 386, 387, 388, 389, 390, 391, 392, 393, 394, 395, 396, 397, 398, 399, 400, 401, 402, 403, 404, 405, 406, 407, 408, 409, 410, 411, 412, 413, 414, 415, 416, 417, 418, 419, 420, 421, 422, 423, 424, 425, 426, 427, 428, 429, 430, 431, 432, 433, 434, 435, 436, 437, 438, 439, 440, 441, 442, 443, 444, 445, 446, 447, 448, 449, 450, 451, 452, 453, 454, 455, 456, 457, 458, 459, 460, 461, 462, 463, 464, 465, 466, 467, 468, 469, 470, 471, 472, 473, 474, 475, 476, 477, 478, 479, 480, 481, 482, 483, 484, 485, 486, 487, 488, 489, 490, 491, 492, 493, 494, 495, 496, 497, 498, 499, 500, 501, 502, 503, 504, 505, 506, 507, 508, 509, 510, 511, 512, 513, 514, 515, 516, 517, 518, 519, 520, 521, 522, 523, 524, 525, 526, 527, 528, 529, 530, 531, 532, 533, 534, 535, 536, 537, 538, 539, 540, 541, 542, 543, 544, 545, 546, 547, 548, 549, 550, 551, 552, 553, 554, 555, 556, 557, 558, 559, 560, 561, 562, 563, 564, 565, 566, 567, 568, 569, 570, 571, 572, 573, 574, 575, 576, 577, 578, 579, 580, 581, 582, 583, 584, 585, 586, 587, 588, 589, 590, 591, 592, 593, 594, 595, 596, 597, 598, 599, 600, 601, 602, 603, 604, 605, 606, 607, 608, 609, 610, 611, 612, 613, 614, 615, 616, 617, 618, 619, 620, 621, 622, 623, 624, 625, 626, 627, 628, 629, 630, 631, 632, 633, 634, 635, 636, 637, 638, 639, 640, 641, 642, 643, 644, 645, 646, 647, 648, 649, 650, 651, 652, 653, 654, 655, 656, 657, 658, 659, 660, 661, 662, 663, 664, 665, 666, 667, 668, 669, 670, 671, 672, 673, 674, 675, 676, 677, 678, 679, 680, 681, 682, 683, 684, 685, 686, 687, 688, 689, 690, 691, 692, 693, 694, 695, 696, 697, 698, 699, 700, 701, 702, 703, 704, 705, 706, 707, 708, 709, 710, 711, 712, 713, 714, 715, 716, 717, 718, 719, 720, 721, 722, 723, 724, 725, 726, 727, 728, 729, 730, 731, 732, 733, 734, 735, 736, 737, 738, 739, 740, 741, 742, 743, 744, 745, 746, 747, 748, 749, 750, 751, 752, 753, 754, 755, 756, 757, 758, 759, 760, 761, 762, 763, 764, 765, 766, 767, 768, 769, 770, 771, 772, 773, 774, 775, 776, 777, 778, 779, 780, 781, 782, 783, 784, 785, 786, 787, 788, 789, 790, 791, 792, 793, 794, 795, 796, 797, 798, 799, 800, 801, 802, 803, 804, 805, 806, 807, 808, 809, 810, 811, 812, 813, 814, 815, 816, 817, 818, 819, 820, 821, 822, 823, 824, 825, 826, 827, 828, 829, 830, 831, 832, 833, 834, 835, 836, 837, 838, 839, 840, 841, 842, 843, 844, 845, 846, 847, 848, 849, 850, 851, 852, 853, 854, 855, 856, 857, 858, 859, 860, 861, 862, 863, 864, 865, 866, 867, 868, 869, 870, 871, 872],
      "AcquisitionTime": ["093703.782500", "093704.242500", "093704.702500", "093705.162500", "093705.622500", "093706.082500", "093706.542500", "093707.002500", "093707.462500", "093707.922500", "093708.382500", "093708.842500", "093709.302500", "093709.762500", "093710.222500", "093710.682500", "093711.142500", "093711.602500", "093712.062500", "093712.522500", "093712.982500", "093713.442500", "093713.902500", "093714.362500", "093714.822500", "093715.282500", "093715.742500", "093716.202500", "093716.662500", "093717.122500", "093717.582500", "093718.042500", "093718.502500", "093718.962500", "093719.422500", "093719.882500", "093720.342500", "093720.802500", "093721.262500", "093721.722500", "093722.182500", "093722.642500", "093723.102500", "093723.562500", "093724.022500", "093724.482500", "093724.942500", "093725.402500", "093725.862500", "093726.322500", "093726.782500", "093727.242500", "093727.702500", "093728.162500", "093728.622500", "093729.082500", "093729.542500", "093730.002500", "093730.462500", "093730.922500", "093731.382500", "093731.842500", "093732.302500", "093732.762500", "093733.222500", "093733.682500", "093734.142500", "093734.602500", "093735.062500", "093735.522500", "093735.982500", "093736.442500", "093736.902500", "093737.362500", "093737.822500", "093738.282500", "093738.742500", "093739.202500", "093739.662500", "093740.122500", "093740.582500", "093741.042500", "093741.502500", "093741.962500", "093742.422500", "093742.882500", "093743.342500", "093743.802500", "093744.262500", "093744.722500", "093745.182500", "093745.642500", "093746.102500", "093746.562500", "093747.022500", "093747.482500", "093747.942500", "093748.402500", "093748.862500", "093749.322500", "093749.782500", "093750.242500", "093750.702500", "093751.162500", "093751.622500", "093752.082500", "093752.542500", "093753.002500", "093753.462500", "093753.922500", "093754.382500", "093754.842500", "093755.302500", "093755.762500", "093756.222500", "093756.682500", "093757.142500", "093757.602500", "093758.062500", "093758.522500", "093758.982500", "093759.442500", "093759.902500", "093800.362500", "093800.822500", "093801.282500", "093801.742500", "093802.202500", "093802.662500", "093803.122500", "093803.582500", "093804.042500", "093804.502500", "093804.962500", "093805.422500", "093805.882500", "093806.342500", "093806.802500", "093807.262500", "093807.722500", "093808.182500", "093808.642500", "093809.102500", "093809.562500", "093810.022500", "093810.482500", "093810.942500", "093811.402500", "093811.862500", "093812.322500", "093812.782500", "093813.242500", "093813.702500", "093814.162500", "093814.622500", "093815.082500", "093815.542500", "093816.002500", "093816.462500", "093816.922500", "093817.382500", "093817.842500", "093818.302500", "093818.762500", "093819.222500", "093819.682500", "093820.142500", "093820.602500", "093821.062500", "093821.522500", "093821.982500", "093822.442500", "093822.902500", "093823.362500", "093823.822500", "093824.282500", "093824.742500", "093825.202500", "093825.662500", "093826.122500", "093826.582500", "093827.042500", "093827.502500", "093827.962500", "093828.422500", "093828.882500", "093829.342500", "093829.802500", "093830.262500", "093830.722500", "093831.182500", "093831.642500", "093832.102500", "093832.562500", "093833.022500", "093833.482500", "093833.942500", "093834.402500", "093834.862500", "093835.322500", "093835.782500", "093836.242500", "093836.702500", "093837.162500", "093837.622500", "093838.082500", "093838.542500", "093839.002500", "093839.462500", "093839.922500", "093840.382500", "093840.842500", "093841.302500", "093841.762500", "093842.222500", "093842.682500", "093843.142500", "093843.602500", "093844.062500", "093844.522500", "093844.982500", "093845.442500", "093845.902500", "093846.362500", "093846.822500", "093847.282500", "093847.742500", "093848.202500", "093848.662500", "093849.122500", "093849.582500", "093850.042500", "093850.502500", "093850.962500", "093851.422500", "093851.882500", "093852.342500", "093852.802500", "093853.262500", "093853.722500", "093854.182500", "093854.642500", "093855.102500", "093855.562500", "093856.022500", "093856.482500", "093856.942500", "093857.402500", "093857.862500", "093858.322500", "093858.782500", "093859.242500", "093859.702500", "093900.162500", "093900.622500", "093901.082500", "093901.542500", "093902.002500", "093902.462500", "093902.922500", "093903.382500", "093903.842500", "093904.302500", "093904.762500", "093905.222500", "093905.682500", "093906.142500", "093906.602500", "093907.062500", "093907.522500", "093907.982500", "093908.442500", "093908.902500", "093909.362500", "093909.822500", "093910.282500", "093910.742500", "093911.202500", "093911.662500", "093912.122500", "093912.582500", "093913.042500", "093913.502500", "093913.962500", "093914.422500", "093914.882500", "093915.342500", "093915.802500", "093916.262500", "093916.722500", "093917.182500", "093917.642500", "093918.102500", "093918.562500", "093919.022500", "093919.482500", "093919.942500", "093920.402500", "093920.862500", "093921.322500", "093921.782500", "093922.242500", "093922.702500", "093923.162500", "093923.622500", "093924.082500", "093924.542500", "093925.002500", "093925.462500", "093925.922500", "093926.382500", "093926.842500", "093927.302500", "093927.762500", "093928.222500", "093928.682500", "093929.142500", "093929.602500", "093930.062500", "093930.522500", "093930.982500", "093931.442500", "093931.902500", "093932.362500", "093932.822500", "093933.282500", "093933.742500", "093934.202500", "093934.662500", "093935.122500", "093935.582500", "093936.042500", "093936.502500", "093936.962500", "093937.422500", "093937.882500", "093938.342500", "093938.802500", "093939.262500", "093939.722500", "093940.182500", "093940.642500", "093941.102500", "093941.562500", "093942.022500", "093942.482500", "093942.942500", "093943.402500", "093943.862500", "093944.322500", "093944.782500", "093945.242500", "093945.702500", "093946.162500", "093946.622500", "093947.082500", "093947.542500", "093948.002500", "093948.462500", "093948.922500", "093949.382500", "093949.842500", "093950.302500", "093950.762500", "093951.222500", "093951.682500", "093952.142500", "093952.602500", "093953.062500", "093953.522500", "093953.982500", "093954.442500", "093954.902500", "093955.362500", "093955.822500", "093956.282500", "093956.742500", "093957.202500", "093957.662500", "093958.122500", "093958.582500", "093959.042500", "093959.502500", "093959.962500", "094000.422500", "094000.882500", "094001.342500", "094001.802500", "094002.262500", "094002.722500", "094003.182500", "094003.642500", "094004.102500", "094004.562500", "094005.022500", "094005.482500", "094005.942500", "094006.402500", "094006.862500", "094007.322500", "094007.782500", "094008.242500", "094008.702500", "094009.162500", "094009.622500", "094010.082500", "094010.542500", "094011.002500", "094011.462500", "094011.922500", "094012.382500", "094012.842500", "094013.302500", "094013.762500", "094014.222500", "094014.682500", "094015.142500", "094015.602500", "094016.062500", "094016.522500", "094016.982500", "094017.442500", "094017.902500", "094018.362500", "094018.822500", "094019.282500", "094019.742500", "094020.202500", "094020.662500", "094021.122500", "094021.582500", "094022.042500", "094022.502500", "094022.962500", "094023.422500", "094023.882500", "094024.342500", "094024.802500", "094025.262500", "094025.722500", "094026.182500", "094026.642500", "094027.102500", "094027.562500", "094028.022500", "094028.482500", "094028.942500", "094029.402500", "094029.862500", "094030.322500", "094030.782500", "094031.242500", "094031.702500", "094032.162500", "094032.622500", "094033.082500", "094033.542500", "094034.002500", "094034.462500", "094034.922500", "094035.382500", "094035.842500", "094036.302500", "094036.762500", "094037.222500", "094037.682500", "094038.142500", "094038.602500", "094039.062500", "094039.522500", "094039.982500", "094040.442500", "094040.902500", "094041.362500", "094041.822500", "094042.282500", "094042.742500", "094043.202500", "094043.662500", "094044.122500", "094044.582500", "094045.042500", "094045.502500", "094045.962500", "094046.422500", "094046.882500", "094047.342500", "094047.802500", "094048.262500", "094048.722500", "094049.182500", "094049.642500", "094050.102500", "094050.562500", "094051.022500", "094051.482500", "094051.942500", "094052.402500", "094052.862500", "094053.322500", "094053.782500", "094054.242500", "094054.702500", "094055.162500", "094055.622500", "094056.082500", "094056.542500", "094057.002500", "094057.462500", "094057.922500", "094058.382500", "094058.842500", "094059.302500", "094059.762500", "094100.222500", "094100.682500", "094101.142500", "094101.602500", "094102.062500", "094102.522500", "094102.982500", "094103.442500", "094103.902500", "094104.362500", "094104.822500", "094105.282500", "094105.742500", "094106.202500", "094106.662500", "094107.122500", "094107.582500", "094108.042500", "094108.502500", "094108.962500", "094109.422500", "094109.882500", "094110.342500", "094110.802500", "094111.262500", "094111.722500", "094112.182500", "094112.642500", "094113.102500", "094113.562500", "094114.022500", "094114.482500", "094114.942500", "094115.402500", "094115.862500", "094116.322500", "094116.782500", "094117.242500", "094117.702500", "094118.162500", "094118.622500", "094119.082500", "094119.542500", "094120.002500", "094120.462500", "094120.922500", "094121.382500", "094121.842500", "094122.302500", "094122.762500", "094123.222500", "094123.682500", "094124.142500", "094124.602500", "094125.062500", "094125.522500", "094125.982500", "094126.442500", "094126.902500", "094127.362500", "094127.822500", "094128.282500", "094128.742500", "094129.202500", "094129.662500", "094130.122500", "094130.582500", "094131.042500", "094131.502500", "094131.962500", "094132.422500", "094132.882500", "094133.342500", "094133.802500", "094134.262500", "094134.722500", "094135.182500", "094135.642500", "094136.102500", "094136.562500", "094137.022500", "094137.482500", "094137.942500", "094138.402500", "094138.862500", "094139.322500", "094139.782500", "094140.242500", "094140.702500", "094141.162500", "094141.622500", "094142.082500", "094142.542500", "094143.002500", "094143.462500", "094143.922500", "094144.382500", "094144.842500", "094145.302500", "094145.762500", "094146.222500", "094146.682500", "094147.142500", "094147.602500", "094148.062500", "094148.522500", "094148.982500", "094149.442500", "094149.902500", "094150.362500", "094150.822500", "094151.282500", "094151.742500", "094152.202500", "094152.662500", "094153.122500", "094153.582500", "094154.042500", "094154.502500", "094154.962500", "094155.422500", "094155.882500", "094156.342500", "094156.802500", "094157.262500", "094157.722500", "094158.182500", "094158.642500", "094159.102500", "094159.562500", "094200.022500", "094200.482500", "094200.942500", "094201.402500", "094201.862500", "094202.322500", "094202.782500", "094203.242500", "094203.702500", "094204.162500", "094204.622500", "094205.082500", "094205.542500", "094206.002500", "094206.462500", "094206.922500", "094207.382500", "094207.842500", "094208.302500", "094208.762500", "094209.222500", "094209.682500", "094210.142500", "094210.602500", "094211.062500", "094211.522500", "094211.982500", "094212.442500", "094212.902500", "094213.362500", "094213.822500", "094214.282500", "094214.742500", "094215.202500", "094215.662500", "094216.122500", "094216.582500", "094217.042500", "094217.502500", "094217.962500", "094218.422500", "094218.882500", "094219.342500", "094219.802500", "094220.262500", "094220.722500", "094221.182500", "094221.642500", "094222.102500", "094222.562500", "094223.022500", "094223.482500", "094223.942500", "094224.402500", "094224.862500", "094225.322500", "094225.782500", "094226.242500", "094226.702500", "094227.162500", "094227.622500", "094228.082500", "094228.542500", "094229.002500", "094229.462500", "094229.922500", "094230.382500", "094230.842500", "094231.302500", "094231.762500", "094232.222500", "094232.682500", "094233.142500", "094233.602500", "094234.062500", "094234.522500", "094234.982500", "094235.442500", "094235.902500", "094236.362500", "094236.822500", "094237.282500", "094237.742500", "094238.202500", "094238.662500", "094239.122500", "094239.582500", "094240.042500", "094240.502500", "094240.962500", "094241.422500", "094241.882500", "094242.342500", "094242.802500", "094243.262500", "094243.722500", "094244.182500", "094244.642500", "094245.102500", "094245.562500", "094246.022500", "094246.482500", "094246.942500", "094247.402500", "094247.862500", "094248.322500", "094248.782500", "094249.242500", "094249.702500", "094250.162500", "094250.622500", "094251.082500", "094251.542500", "094252.002500", "094252.462500", "094252.922500", "094253.382500", "094253.842500", "094254.302500", "094254.762500", "094255.222500", "094255.682500", "094256.142500", "094256.602500", "094257.062500", "094257.522500", "094257.982500", "094258.442500", "094258.902500", "094259.362500", "094259.822500", "094300.282500", "094300.742500", "094301.202500", "094301.662500", "094302.122500", "094302.582500", "094303.042500", "094303.502500", "094303.962500", "094304.422500", "094304.882500", "094305.342500", "094305.802500", "094306.262500", "094306.722500", "094307.182500", "094307.642500", "094308.102500", "094308.562500", "094309.022500", "094309.482500", "094309.942500", "094310.402500", "094310.862500", "094311.322500", "094311.782500", "094312.242500", "094312.702500", "094313.162500", "094313.622500", "094314.082500", "094314.542500", "094315.002500", "094315.462500", "094315.922500", "094316.382500", "094316.842500", "094317.302500", "094317.762500", "094318.222500", "094318.682500", "094319.142500", "094319.602500", "094320.062500", "094320.522500", "094320.982500", "094321.442500", "094321.902500", "094322.362500", "094322.822500", "094323.282500", "094323.742500", "094324.202500", "094324.662500", "094325.122500", "094325.582500", "094326.042500", "094326.502500", "094326.962500", "094327.422500", "094327.882500", "094328.342500", "094328.802500", "094329.262500", "094329.722500", "094330.182500", "094330.642500", "094331.102500", "094331.562500", "094332.022500", "094332.482500", "094332.942500", "094333.402500", "094333.862500", "094334.322500", "094334.782500", "094335.242500", "094335.702500", "094336.162500", "094336.622500", "094337.082500", "094337.542500", "094338.002500", "094338.462500", "094338.922500", "094339.382500", "094339.842500", "094340.302500", "094340.762500", "094341.222500", "094341.682500", "094342.142500", "094342.602500", "094343.062500", "094343.522500", "094343.982500", "094344.442500"],
