{
  "AcquisitionMatrixPE": 82,
  "AcquisitionNumber": 1,
  "AcquisitionTime": "09:22:50.275000",
  "BandwidthPerPixelPhaseEncode": 24.888,
  "BaseResolution": 82,
  "BodyPartExamined": "BRAIN",
  "ConsistencyInfo": "N4_VE11C_LATEST_20160120",
  "ConversionSoftware": "dcm2niix",
  "ConversionSoftwareVersion": "v1.0.20201102",
  "DerivedVendorReportedEchoSpacing": 0.00049,
  "DeviceSerialNumber": "66112",
  "DwellTime": 2e-06,
  "EchoTime": 0.0272,
  "EchoTrainLength": 82,
  "EffectiveEchoSpacing": 0.00049,
  "FlipAngle": 44,
  "ImageComments": "Unaliased MB8/PE3",
  "ImageOrientationPatientDICOM": [0.999003, 0.0308328, 0.0322912, -0.0266832, 0.992187, -0.12187],
  "ImageType": [
    "ORIGINAL",
    "PRIMARY",
    "M",
    "MB",
    "ND",
    "NORM",
    "MOSAIC"
],
  "ImagingFrequency": 123.252,
  "InPlanePhaseEncodingDirectionDICOM": "COL",
  "InstitutionAddress": "Maynard 3,Hanover,NH,US,03755",
  "InstitutionName": "Dartmouth College - PBS",
  "InstitutionalDepartmentName": "Department",
  "MRAcquisitionType": "2D",
  "MagneticFieldStrength": 3,
  "Manufacturer": "Siemens",
  "ManufacturersModelName": "Prisma",
  "Modality": "MR",
  "MultibandAccelerationFactor": 8,
  "PartialFourier": 1,
  "PatientPosition": "HFS",
  "PercentPhaseFOV": 100,
  "PercentSampling": 100,
  "PhaseEncodingDirection": "j-",
  "PhaseEncodingSteps": 82,
  "PhaseResolution": 1,
  "PixelBandwidth": 3050,
  "ProcedureStepDescription": "Wager_Wager^1076_spacetop",
  "ProtocolName": "func_run-02_task-social_acq-ap-mb8",
  "PulseSequenceDetails": "%CustomerSeq%\\cmrr_mbep2d_bold",
  "ReceiveCoilActiveElements": "HEA;HEP",
  "ReceiveCoilName": "Head_32",
  "ReconMatrixPE": 82,
  "RepetitionTime": 0.46,
  "SAR": 0.084214,
  "ScanOptions": "FS",
  "ScanningSequence": "EP",
  "SequenceName": "epfid2d1_82",
  "SequenceVariant": "SK\\SS",
  "SeriesDescription": "func_run-02_task-social_acq-ap-mb8",
  "SeriesNumber": 10,
  "ShimSetting": [4163, -7697, -7335, 545, -16, -174, 34, 86],
  "SliceThickness": 2.7,
  "SliceTiming": [0, 0.25, 0.0625, 0.3125, 0.125, 0.3775, 0.1875, 0, 0.25, 0.0625, 0.3125, 0.125, 0.3775, 0.1875, 0, 0.25, 0.0625, 0.3125, 0.125, 0.3775, 0.1875, 0, 0.25, 0.0625, 0.3125, 0.125, 0.3775, 0.1875, 0, 0.25, 0.0625, 0.3125, 0.125, 0.3775, 0.1875, 0, 0.25, 0.0625, 0.3125, 0.125, 0.3775, 0.1875, 0, 0.25, 0.0625, 0.3125, 0.125, 0.3775, 0.1875, 0, 0.25, 0.0625, 0.3125, 0.125, 0.3775, 0.1875],
  "SoftwareVersions": "syngo MR E11",
  "SpacingBetweenSlices": 2.7,
  "StationName": "AWP66112",
  "TaskName": "social",
  "TotalReadoutTime": 0.03969,
  "TxRefAmp": 265.751,
  "WipMemBlock": "e8f7d707-3476-44ed-bf65-87c35765b072||Sequence: R016 ve11c/master r/e634e98; Dec 19 2017 11:00:25 by eja",
  "dcmmeta_affine": [
    [-2.6802515983581543, -0.07158919423818588, 0.09665048867464066, 112.81173706054688],
    [-0.08272223174571991, 2.661966323852539, -0.32639333605766296, -78.74846649169922],
    [0.08663485199213028, 0.32696717977523804, 2.6784560680389404, -111.80175018310547],
    [0.0, 0.0, 0.0, 1.0]
],
  "dcmmeta_reorient_transform": [
    [0.0, -1.0, 0.0, 81.0],
    [1.0, 0.0, 0.0, 0.0],
    [0.0, 0.0, 1.0, 0.0],
    [0.0, 0.0, 0.0, 1.0]
],
  "dcmmeta_shape": [82, 82, 56, 872],
  "dcmmeta_slice_dim": 2,
  "dcmmeta_version": 0.6,
  "global": {
    "const": {
      "AccessionNumber": "A003841",
      "AcquisitionMatrix": [82, 0, 0, 82],
      "AngioFlag": "N",
      "BitsAllocated": 16,
      "BitsStored": 16,
      "BodyPartExamined": "BRAIN",
      "Columns": 656,
      "EchoNumbers": 1,
      "EchoTime": 27.2,
      "EchoTrainLength": 82,
      "FlipAngle": 44.0,
      "HighBit": 15,
      "ImageOrientationPatient": [0.99900281119217, 0.03083283230284, 0.03229117034628, -0.0266832441017, 0.99218738629392, -0.1218695817809],
      "ImagePositionPatient": [-855.69909403626, -924.59638537743, -16.342031824724],
      "ImageType": [
        "ORIGINAL",
        "PRIMARY",
        "M",
        "MB",
        "ND",
        "NORM",
        "MOSAIC"
],
      "ImagedNucleus": "1H",
      "ImagingFrequency": 123.252231,
      "InPlanePhaseEncodingDirection": "COL",
      "MRAcquisitionType": "2D",
      "MagneticFieldStrength": 3.0,
      "Manufacturer": "SIEMENS",
      "ManufacturerModelName": "Prisma",
      "Modality": "MR",
      "NumberOfAverages": 1.0,
      "NumberOfPhaseEncodingSteps": 82,
      "PercentPhaseFieldOfView": 100.0,
      "PercentSampling": 100.0,
      "PerformedProcedureStepStartTime": "085253.866000",
      "PhotometricInterpretation": "MONOCHROME2",
      "PixelBandwidth": 3050.0,
      "PixelRepresentation": 0,
      "PixelSpacing": [2.6829268932343, 2.6829268932343],
      "ProtocolName": "func_run-02_task-social_acq-ap-mb8",
      "RepetitionTime": 460.0,
      "Rows": 656,
      "SAR": 0.08421397360587,
      "SamplesPerPixel": 1,
      "ScanOptions": "FS",
      "ScanningSequence": "EP",
      "SequenceName": "epfid2d1_82",
      "SequenceVariant": [
        "SK",
        "SS"
],
      "SeriesDescription": "func_run-02_task-social_acq-ap-mb8",
      "SeriesNumber": 10,
      "SeriesTime": "092315.774000",
      "SliceLocation": -97.351770125509,
      "SliceThickness": 2.7000000476837,
      "SmallestImagePixelValue": 0,
      "SoftwareVersions": "syngo MR E11",
      "SpacingBetweenSlices": 2.7000000642971,
      "SpecificCharacterSet": "ISO_IR 100",
      "StudyID": "2",
      "StudyTime": "085253.773000",
      "TransmitCoilName": "Body",
      "VariableFlipAngleFlag": "N",
      "WindowCenterWidthExplanation": "Algo1",
      "dBdt": 0.0},
    "slices": {}
  },
  "time": {
    "samples": {
      "AcquisitionNumber": [1, 2, 3, 4, 5, 6, 7, 8, 9, 10, 11, 12, 13, 14, 15, 16, 17, 18, 19, 20, 21, 22, 23, 24, 25, 26, 27, 28, 29, 30, 31, 32, 33, 34, 35, 36, 37, 38, 39, 40, 41, 42, 43, 44, 45, 46, 47, 48, 49, 50, 51, 52, 53, 54, 55, 56, 57, 58, 59, 60, 61, 62, 63, 64, 65, 66, 67, 68, 69, 70, 71, 72, 73, 74, 75, 76, 77, 78, 79, 80, 81, 82, 83, 84, 85, 86, 87, 88, 89, 90, 91, 92, 93, 94, 95, 96, 97, 98, 99, 100, 101, 102, 103, 104, 105, 106, 107, 108, 109, 110, 111, 112, 113, 114, 115, 116, 117, 118, 119, 120, 121, 122, 123, 124, 125, 126, 127, 128, 129, 130, 131, 132, 133, 134, 135, 136, 137, 138, 139, 140, 141, 142, 143, 144, 145, 146, 147, 148, 149, 150, 151, 152, 153, 154, 155, 156, 157, 158, 159, 160, 161, 162, 163, 164, 165, 166, 167, 168, 169, 170, 171, 172, 173, 174, 175, 176, 177, 178, 179, 180, 181, 182, 183, 184, 185, 186, 187, 188, 189, 190, 191, 192, 193, 194, 195, 196, 197, 198, 199, 200, 201, 202, 203, 204, 205, 206, 207, 208, 209, 210, 211, 212, 213, 214, 215, 216, 217, 218, 219, 220, 221, 222, 223, 224, 225, 226, 227, 228, 229, 230, 231, 232, 233, 234, 235, 236, 237, 238, 239, 240, 241, 242, 243, 244, 245, 246, 247, 248, 249, 250, 251, 252, 253, 254, 255, 256, 257, 258, 259, 260, 261, 262, 263, 264, 265, 266, 267, 268, 269, 270, 271, 272, 273, 274, 275, 276, 277, 278, 279, 280, 281, 282, 283, 284, 285, 286, 287, 288, 289, 290, 291, 292, 293, 294, 295, 296, 297, 298, 299, 300, 301, 302, 303, 304, 305, 306, 307, 308, 309, 310, 311, 312, 313, 314, 315, 316, 317, 318, 319, 320, 321, 322, 323, 324, 325, 326, 327, 328, 329, 330, 331, 332, 333, 334, 335, 336, 337, 338, 339, 340, 341, 342, 343, 344, 345, 346, 347, 348, 349, 350, 351, 352, 353, 354, 355, 356, 357, 358, 359, 360, 361, 362, 363, 364, 365, 366, 367, 368, 369, 370, 371, 372, 373, 374, 375, 376, 377, 378, 379, 380, 381, 382, 383, 384, 385, 386, 387, 388, 389, 390, 391, 392, 393, 394, 395, 396, 397, 398, 399, 400, 401, 402, 403, 404, 405, 406, 407, 408, 409, 410, 411, 412, 413, 414, 415, 416, 417, 418, 419, 420, 421, 422, 423, 424, 425, 426, 427, 428, 429, 430, 431, 432, 433, 434, 435, 436, 437, 438, 439, 440, 441, 442, 443, 444, 445, 446, 447, 448, 449, 450, 451, 452, 453, 454, 455, 456, 457, 458, 459, 460, 461, 462, 463, 464, 465, 466, 467, 468, 469, 470, 471, 472, 473, 474, 475, 476, 477, 478, 479, 480, 481, 482, 483, 484, 485, 486, 487, 488, 489, 490, 491, 492, 493, 494, 495, 496, 497, 498, 499, 500, 501, 502, 503, 504, 505, 506, 507, 508, 509, 510, 511, 512, 513, 514, 515, 516, 517, 518, 519, 520, 521, 522, 523, 524, 525, 526, 527, 528, 529, 530, 531, 532, 533, 534, 535, 536, 537, 538, 539, 540, 541, 542, 543, 544, 545, 546, 547, 548, 549, 550, 551, 552, 553, 554, 555, 556, 557, 558, 559, 560, 561, 562, 563, 564, 565, 566, 567, 568, 569, 570, 571, 572, 573, 574, 575, 576, 577, 578, 579, 580, 581, 582, 583, 584, 585, 586, 587, 588, 589, 590, 591, 592, 593, 594, 595, 596, 597, 598, 599, 600, 601, 602, 603, 604, 605, 606, 607, 608, 609, 610, 611, 612, 613, 614, 615, 616, 617, 618, 619, 620, 621, 622, 623, 624, 625, 626, 627, 628, 629, 630, 631, 632, 633, 634, 635, 636, 637, 638, 639, 640, 641, 642, 643, 644, 645, 646, 647, 648, 649, 650, 651, 652, 653, 654, 655, 656, 657, 658, 659, 660, 661, 662, 663, 664, 665, 666, 667, 668, 669, 670, 671, 672, 673, 674, 675, 676, 677, 678, 679, 680, 681, 682, 683, 684, 685, 686, 687, 688, 689, 690, 691, 692, 693, 694, 695, 696, 697, 698, 699, 700, 701, 702, 703, 704, 705, 706, 707, 708, 709, 710, 711, 712, 713, 714, 715, 716, 717, 718, 719, 720, 721, 722, 723, 724, 725, 726, 727, 728, 729, 730, 731, 732, 733, 734, 735, 736, 737, 738, 739, 740, 741, 742, 743, 744, 745, 746, 747, 748, 749, 750, 751, 752, 753, 754, 755, 756, 757, 758, 759, 760, 761, 762, 763, 764, 765, 766, 767, 768, 769, 770, 771, 772, 773, 774, 775, 776, 777, 778, 779, 780, 781, 782, 783, 784, 785, 786, 787, 788, 789, 790, 791, 792, 793, 794, 795, 796, 797, 798, 799, 800, 801, 802, 803, 804, 805, 806, 807, 808, 809, 810, 811, 812, 813, 814, 815, 816, 817, 818, 819, 820, 821, 822, 823, 824, 825, 826, 827, 828, 829, 830, 831, 832, 833, 834, 835, 836, 837, 838, 839, 840, 841, 842, 843, 844, 845, 846, 847, 848, 849, 850, 851, 852, 853, 854, 855, 856, 857, 858, 859, 860, 861, 862, 863, 864, 865, 866, 867, 868, 869, 870, 871, 872],
      "AcquisitionTime": ["092250.275000", "092250.735000", "092251.195000", "092251.655000", "092252.115000", "092252.575000", "092253.035000", "092253.495000", "092253.955000", "092254.415000", "092254.875000", "092255.335000", "092255.795000", "092256.255000", "092256.715000", "092257.175000", "092257.635000", "092258.095000", "092258.555000", "092259.015000", "092259.475000", "092259.935000", "092300.395000", "092300.855000", "092301.315000", "092301.775000", "092302.235000", "092302.695000", "092303.155000", "092303.615000", "092304.075000", "092304.535000", "092304.995000", "092305.455000", "092305.915000", "092306.375000", "092306.835000", "092307.295000", "092307.755000", "092308.215000", "092308.675000", "092309.135000", "092309.595000", "092310.055000", "092310.515000", "092310.975000", "092311.435000", "092311.895000", "092312.355000", "092312.815000", "092313.275000", "092313.735000", "092314.195000", "092314.655000", "092315.115000", "092315.575000", "092316.035000", "092316.495000", "092316.955000", "092317.415000", "092317.875000", "092318.335000", "092318.795000", "092319.255000", "092319.715000", "092320.175000", "092320.635000", "092321.095000", "092321.555000", "092322.015000", "092322.475000", "092322.935000", "092323.395000", "092323.855000", "092324.315000", "092324.775000", "092325.235000", "092325.695000", "092326.155000", "092326.615000", "092327.075000", "092327.535000", "092327.995000", "092328.455000", "092328.915000", "092329.375000", "092329.835000", "092330.295000", "092330.755000", "092331.215000", "092331.675000", "092332.135000", "092332.595000", "092333.055000", "092333.515000", "092333.975000", "092334.435000", "092334.895000", "092335.355000", "092335.815000", "092336.275000", "092336.735000", "092337.195000", "092337.655000", "092338.115000", "092338.575000", "092339.035000", "092339.495000", "092339.955000", "092340.415000", "092340.875000", "092341.335000", "092341.795000", "092342.255000", "092342.715000", "092343.175000", "092343.635000", "092344.095000", "092344.555000", "092345.015000", "092345.475000", "092345.935000", "092346.395000", "092346.855000", "092347.315000", "092347.775000", "092348.235000", "092348.695000", "092349.155000", "092349.615000", "092350.075000", "092350.535000", "092350.995000", "092351.455000", "092351.915000", "092352.375000", "092352.835000", "092353.295000", "092353.755000", "092354.215000", "092354.675000", "092355.135000", "092355.595000", "092356.055000", "092356.515000", "092356.975000", "092357.435000", "092357.895000", "092358.355000", "092358.815000", "092359.275000", "092359.735000", "092400.195000", "092400.655000", "092401.115000", "092401.575000", "092402.035000", "092402.495000", "092402.955000", "092403.415000", "092403.875000", "092404.335000", "092404.795000", "092405.255000", "092405.715000", "092406.175000", "092406.635000", "092407.095000", "092407.555000", "092408.015000", "092408.475000", "092408.935000", "092409.395000", "092409.855000", "092410.315000", "092410.775000", "092411.235000", "092411.695000", "092412.155000", "092412.615000", "092413.075000", "092413.535000", "092413.995000", "092414.455000", "092414.915000", "092415.375000", "092415.835000", "092416.295000", "092416.755000", "092417.215000", "092417.675000", "092418.135000", "092418.595000", "092419.055000", "092419.515000", "092419.975000", "092420.435000", "092420.895000", "092421.355000", "092421.815000", "092422.275000", "092422.735000", "092423.195000", "092423.655000", "092424.115000", "092424.575000", "092425.035000", "092425.495000", "092425.955000", "092426.415000", "092426.875000", "092427.335000", "092427.795000", "092428.255000", "092428.715000", "092429.175000", "092429.635000", "092430.095000", "092430.555000", "092431.015000", "092431.475000", "092431.935000", "092432.395000", "092432.855000", "092433.315000", "092433.775000", "092434.235000", "092434.695000", "092435.155000", "092435.615000", "092436.075000", "092436.535000", "092436.995000", "092437.455000", "092437.915000", "092438.375000", "092438.835000", "092439.295000", "092439.755000", "092440.215000", "092440.675000", "092441.135000", "092441.595000", "092442.055000", "092442.515000", "092442.975000", "092443.435000", "092443.895000", "092444.355000", "092444.815000", "092445.275000", "092445.735000", "092446.195000", "092446.655000", "092447.115000", "092447.575000", "092448.035000", "092448.495000", "092448.955000", "092449.415000", "092449.875000", "092450.335000", "092450.795000", "092451.255000", "092451.715000", "092452.175000", "092452.635000", "092453.095000", "092453.555000", "092454.015000", "092454.475000", "092454.935000", "092455.395000", "092455.855000", "092456.315000", "092456.775000", "092457.235000", "092457.695000", "092458.155000", "092458.615000", "092459.075000", "092459.535000", "092459.995000", "092500.455000", "092500.915000", "092501.375000", "092501.835000", "092502.295000", "092502.755000", "092503.215000", "092503.675000", "092504.135000", "092504.595000", "092505.055000", "092505.515000", "092505.975000", "092506.435000", "092506.895000", "092507.355000", "092507.815000", "092508.275000", "092508.735000", "092509.195000", "092509.655000", "092510.115000", "092510.575000", "092511.035000", "092511.495000", "092511.955000", "092512.415000", "092512.875000", "092513.335000", "092513.795000", "092514.255000", "092514.715000", "092515.175000", "092515.635000", "092516.095000", "092516.555000", "092517.015000", "092517.475000", "092517.935000", "092518.395000", "092518.855000", "092519.315000", "092519.775000", "092520.235000", "092520.695000", "092521.155000", "092521.615000", "092522.075000", "092522.535000", "092522.995000", "092523.455000", "092523.915000", "092524.375000", "092524.835000", "092525.295000", "092525.755000", "092526.215000", "092526.675000", "092527.135000", "092527.595000", "092528.055000", "092528.515000", "092528.975000", "092529.435000", "092529.895000", "092530.355000", "092530.815000", "092531.275000", "092531.735000", "092532.195000", "092532.655000", "092533.115000", "092533.575000", "092534.035000", "092534.495000", "092534.955000", "092535.415000", "092535.875000", "092536.335000", "092536.795000", "092537.255000", "092537.715000", "092538.175000", "092538.635000", "092539.095000", "092539.555000", "092540.015000", "092540.475000", "092540.935000", "092541.395000", "092541.855000", "092542.315000", "092542.775000", "092543.235000", "092543.695000", "092544.155000", "092544.615000", "092545.075000", "092545.535000", "092545.995000", "092546.455000", "092546.915000", "092547.375000", "092547.835000", "092548.295000", "092548.755000", "092549.215000", "092549.675000", "092550.135000", "092550.595000", "092551.055000", "092551.515000", "092551.975000", "092552.435000", "092552.895000", "092553.355000", "092553.815000", "092554.275000", "092554.735000", "092555.195000", "092555.655000", "092556.115000", "092556.575000", "092557.035000", "092557.495000", "092557.955000", "092558.415000", "092558.875000", "092559.335000", "092559.795000", "092600.255000", "092600.715000", "092601.175000", "092601.635000", "092602.095000", "092602.555000", "092603.015000", "092603.475000", "092603.935000", "092604.395000", "092604.855000", "092605.315000", "092605.775000", "092606.235000", "092606.695000", "092607.155000", "092607.615000", "092608.075000", "092608.535000", "092608.995000", "092609.455000", "092609.915000", "092610.375000", "092610.835000", "092611.295000", "092611.755000", "092612.215000", "092612.675000", "092613.135000", "092613.595000", "092614.055000", "092614.515000", "092614.975000", "092615.435000", "092615.895000", "092616.355000", "092616.815000", "092617.275000", "092617.735000", "092618.195000", "092618.655000", "092619.115000", "092619.575000", "092620.035000", "092620.495000", "092620.955000", "092621.415000", "092621.875000", "092622.335000", "092622.795000", "092623.255000", "092623.715000", "092624.175000", "092624.635000", "092625.095000", "092625.555000", "092626.015000", "092626.475000", "092626.935000", "092627.395000", "092627.855000", "092628.315000", "092628.775000", "092629.235000", "092629.695000", "092630.155000", "092630.615000", "092631.075000", "092631.535000", "092631.995000", "092632.455000", "092632.915000", "092633.375000", "092633.835000", "092634.295000", "092634.755000", "092635.215000", "092635.675000", "092636.135000", "092636.595000", "092637.055000", "092637.515000", "092637.975000", "092638.435000", "092638.895000", "092639.355000", "092639.815000", "092640.275000", "092640.735000", "092641.195000", "092641.655000", "092642.115000", "092642.575000", "092643.035000", "092643.495000", "092643.955000", "092644.415000", "092644.875000", "092645.335000", "092645.795000", "092646.255000", "092646.715000", "092647.175000", "092647.635000", "092648.095000", "092648.555000", "092649.015000", "092649.475000", "092649.935000", "092650.395000", "092650.855000", "092651.315000", "092651.775000", "092652.235000", "092652.695000", "092653.155000", "092653.615000", "092654.075000", "092654.535000", "092654.995000", "092655.455000", "092655.915000", "092656.375000", "092656.835000", "092657.295000", "092657.755000", "092658.215000", "092658.675000", "092659.135000", "092659.595000", "092700.055000", "092700.515000", "092700.975000", "092701.435000", "092701.895000", "092702.355000", "092702.815000", "092703.275000", "092703.735000", "092704.195000", "092704.655000", "092705.115000", "092705.575000", "092706.035000", "092706.495000", "092706.955000", "092707.415000", "092707.875000", "092708.335000", "092708.795000", "092709.255000", "092709.715000", "092710.175000", "092710.635000", "092711.095000", "092711.555000", "092712.015000", "092712.475000", "092712.935000", "092713.395000", "092713.855000", "092714.315000", "092714.775000", "092715.235000", "092715.695000", "092716.155000", "092716.615000", "092717.075000", "092717.535000", "092717.995000", "092718.455000", "092718.915000", "092719.375000", "092719.835000", "092720.295000", "092720.755000", "092721.215000", "092721.675000", "092722.135000", "092722.595000", "092723.055000", "092723.515000", "092723.975000", "092724.435000", "092724.895000", "092725.355000", "092725.815000", "092726.275000", "092726.735000", "092727.195000", "092727.655000", "092728.115000", "092728.575000", "092729.035000", "092729.495000", "092729.955000", "092730.415000", "092730.875000", "092731.335000", "092731.795000", "092732.255000", "092732.715000", "092733.175000", "092733.635000", "092734.095000", "092734.555000", "092735.015000", "092735.475000", "092735.935000", "092736.395000", "092736.855000", "092737.315000", "092737.775000", "092738.235000", "092738.695000", "092739.155000", "092739.615000", "092740.075000", "092740.535000", "092740.995000", "092741.455000", "092741.915000", "092742.375000", "092742.835000", "092743.295000", "092743.755000", "092744.215000", "092744.675000", "092745.135000", "092745.595000", "092746.055000", "092746.515000", "092746.975000", "092747.435000", "092747.895000", "092748.355000", "092748.815000", "092749.275000", "092749.735000", "092750.195000", "092750.655000", "092751.115000", "092751.575000", "092752.035000", "092752.495000", "092752.955000", "092753.415000", "092753.875000", "092754.335000", "092754.795000", "092755.255000", "092755.715000", "092756.175000", "092756.635000", "092757.095000", "092757.555000", "092758.015000", "092758.475000", "092758.935000", "092759.395000", "092759.855000", "092800.315000", "092800.775000", "092801.235000", "092801.695000", "092802.155000", "092802.615000", "092803.075000", "092803.535000", "092803.995000", "092804.455000", "092804.915000", "092805.375000", "092805.835000", "092806.295000", "092806.755000", "092807.215000", "092807.675000", "092808.135000", "092808.595000", "092809.055000", "092809.515000", "092809.975000", "092810.435000", "092810.895000", "092811.355000", "092811.815000", "092812.275000", "092812.735000", "092813.195000", "092813.655000", "092814.115000", "092814.575000", "092815.035000", "092815.495000", "092815.955000", "092816.415000", "092816.875000", "092817.335000", "092817.795000", "092818.255000", "092818.715000", "092819.175000", "092819.635000", "092820.095000", "092820.555000", "092821.015000", "092821.475000", "092821.935000", "092822.395000", "092822.855000", "092823.315000", "092823.775000", "092824.235000", "092824.695000", "092825.155000", "092825.615000", "092826.075000", "092826.535000", "092826.995000", "092827.455000", "092827.915000", "092828.375000", "092828.835000", "092829.295000", "092829.755000", "092830.215000", "092830.675000", "092831.135000", "092831.595000", "092832.055000", "092832.515000", "092832.975000", "092833.435000", "092833.895000", "092834.355000", "092834.815000", "092835.275000", "092835.735000", "092836.195000", "092836.655000", "092837.115000", "092837.575000", "092838.035000", "092838.495000", "092838.955000", "092839.415000", "092839.875000", "092840.335000", "092840.795000", "092841.255000", "092841.715000", "092842.175000", "092842.635000", "092843.095000", "092843.555000", "092844.015000", "092844.475000", "092844.935000", "092845.395000", "092845.855000", "092846.315000", "092846.775000", "092847.235000", "092847.695000", "092848.155000", "092848.615000", "092849.075000", "092849.535000", "092849.995000", "092850.455000", "092850.915000", "092851.375000", "092851.835000", "092852.295000", "092852.755000", "092853.215000", "092853.675000", "092854.135000", "092854.595000", "092855.055000", "092855.515000", "092855.975000", "092856.435000", "092856.895000", "092857.355000", "092857.815000", "092858.275000", "092858.735000", "092859.195000", "092859.655000", "092900.115000", "092900.575000", "092901.035000", "092901.495000", "092901.955000", "092902.415000", "092902.875000", "092903.335000", "092903.795000", "092904.255000", "092904.715000", "092905.175000", "092905.635000", "092906.095000", "092906.555000", "092907.015000", "092907.475000", "092907.935000", "092908.395000", "092908.855000", "092909.315000", "092909.775000", "092910.235000", "092910.695000", "092911.155000", "092911.615000", "092912.075000", "092912.535000", "092912.995000", "092913.455000", "092913.915000", "092914.375000", "092914.835000", "092915.295000", "092915.755000", "092916.215000", "092916.675000", "092917.135000", "092917.595000", "092918.055000", "092918.515000", "092918.975000", "092919.435000", "092919.895000", "092920.355000", "092920.815000", "092921.275000", "092921.735000", "092922.195000", "092922.655000", "092923.115000", "092923.575000", "092924.035000", "092924.495000", "092924.955000", "092925.415000", "092925.875000", "092926.335000", "092926.795000", "092927.255000", "092927.715000", "092928.175000", "092928.635000", "092929.095000", "092929.555000", "092930.015000", "092930.475000", "092930.935000"],
