{
  "AcquisitionMatrixPE": 82,
  "AcquisitionNumber": 1,
  "AcquisitionTime": "16:00:43.350000",
  "BandwidthPerPixelPhaseEncode": 24.888,
  "BaseResolution": 82,
  "BodyPartExamined": "BRAIN",
  "ConsistencyInfo": "N4_VE11C_LATEST_20160120",
  "ConversionSoftware": "dcm2niix",
  "ConversionSoftwareVersion": "v1.0.20201102",
  "DerivedVendorReportedEchoSpacing": 0.00049,
  "DeviceSerialNumber": "66112",
  "DwellTime": 2e-06,
  "EchoTime": 0.0272,
  "EchoTrainLength": 82,
  "EffectiveEchoSpacing": 0.00049,
  "FlipAngle": 44,
  "ImageComments": "Unaliased MB8/PE3",
  "ImageOrientationPatientDICOM": [0.999813, 0.0189415, 0.00380707, -0.0190228, 0.999564, 0.0225947],
  "ImageType": [
    "ORIGINAL",
    "PRIMARY",
    "M",
    "MB",
    "ND",
    "NORM",
    "MOSAIC"
],
  "ImagingFrequency": 123.252,
  "InPlanePhaseEncodingDirectionDICOM": "COL",
  "InstitutionAddress": "Maynard 3,Hanover,NH,US,03755",
  "InstitutionName": "Dartmouth College - PBS",
  "InstitutionalDepartmentName": "Department",
  "MRAcquisitionType": "2D",
  "MagneticFieldStrength": 3,
  "Manufacturer": "Siemens",
  "ManufacturersModelName": "Prisma",
  "Modality": "MR",
  "MultibandAccelerationFactor": 8,
  "PartialFourier": 1,
  "PatientPosition": "HFS",
  "PercentPhaseFOV": 100,
  "PercentSampling": 100,
  "PhaseEncodingDirection": "j-",
  "PhaseEncodingSteps": 82,
  "PhaseResolution": 1,
  "PixelBandwidth": 3050,
  "ProcedureStepDescription": "Wager_Wager^1076_spacetop",
  "ProtocolName": "func_run-02_task-faces_acq-ap-mb8",
  "PulseSequenceDetails": "%CustomerSeq%\\cmrr_mbep2d_bold",
  "ReceiveCoilActiveElements": "HEA;HEP",
  "ReceiveCoilName": "Head_32",
  "ReconMatrixPE": 82,
  "RepetitionTime": 0.46,
  "SAR": 0.0934971,
  "ScanOptions": "FS",
  "ScanningSequence": "EP",
  "SequenceName": "epfid2d1_82",
  "SequenceVariant": "SK\\SS",
  "SeriesDescription": "func_run-02_task-faces_acq-ap-mb8",
  "SeriesNumber": 22,
  "ShimSetting": [4164, -7773, -7153, 634, -32, -208, 18, 20],
  "SliceThickness": 2.7,
  "SliceTiming": [0, 0.25, 0.0625, 0.315, 0.125, 0.3775, 0.1875, 0, 0.25, 0.0625, 0.315, 0.125, 0.3775, 0.1875, 0, 0.25, 0.0625, 0.315, 0.125, 0.3775, 0.1875, 0, 0.25, 0.0625, 0.315, 0.125, 0.3775, 0.1875, 0, 0.25, 0.0625, 0.315, 0.125, 0.3775, 0.1875, 0, 0.25, 0.0625, 0.315, 0.125, 0.3775, 0.1875, 0, 0.25, 0.0625, 0.315, 0.125, 0.3775, 0.1875, 0, 0.25, 0.0625, 0.315, 0.125, 0.3775, 0.1875],
  "SoftwareVersions": "syngo MR E11",
  "SpacingBetweenSlices": 2.7,
  "StationName": "AWP66112",
  "TaskName": "faces",
  "TotalReadoutTime": 0.03969,
  "TxRefAmp": 239.614,
  "WipMemBlock": "3e45bd13-bd3c-4a40-882d-fd40e942b883||Sequence: R016 ve11c/master r/e634e98; Dec 19 2017 11:00:25 by eja",
  "dcmmeta_affine": [
    [-2.6824262142181396, -0.05103689059615135, 0.009119054302573204, 112.94798278808594],
    [-0.050818752497434616, 2.6817562580108643, 0.06118994951248169, -92.594482421875],
    [0.010214084759354591, -0.060620035976171494, 2.6992909908294678, -26.609756469726562],
    [0.0, 0.0, 0.0, 1.0]
],
  "dcmmeta_reorient_transform": [
    [0.0, -1.0, 0.0, 81.0],
    [1.0, 0.0, 0.0, 0.0],
    [0.0, 0.0, 1.0, 0.0],
    [0.0, 0.0, 0.0, 1.0]
],
  "dcmmeta_shape": [82, 82, 56, 914],
  "dcmmeta_slice_dim": 2,
  "dcmmeta_version": 0.6,
  "global": {
    "const": {
      "AccessionNumber": "A003475",
      "AcquisitionMatrix": [82, 0, 0, 82],
      "AngioFlag": "N",
      "BitsAllocated": 16,
      "BitsStored": 16,
      "BodyPartExamined": "BRAIN",
      "Columns": 656,
      "EchoNumbers": 1,
      "EchoTime": 27.2,
      "EchoTrainLength": 82,
      "FlipAngle": 44.0,
      "HighBit": 15,
      "ImageOrientationPatient": [0.99981334482889, 0.01894153470145, 0.00380706779829, -0.0190228411097, 0.99956370943096, 0.02259474064324],
      "ImagePositionPatient": [-864.02270216267, -908.87683743852, -51.849371859194],
      "ImageType": [
        "ORIGINAL",
        "PRIMARY",
        "M",
        "MB",
        "ND",
        "NORM",
        "MOSAIC"
],
      "ImagedNucleus": "1H",
      "ImagingFrequency": 123.252095,
      "InPlanePhaseEncodingDirection": "COL",
      "MRAcquisitionType": "2D",
      "MagneticFieldStrength": 3.0,
      "Manufacturer": "SIEMENS",
      "ManufacturerModelName": "Prisma",
      "Modality": "MR",
      "NumberOfAverages": 1.0,
      "NumberOfPhaseEncodingSteps": 82,
      "PercentPhaseFieldOfView": 100.0,
      "PercentSampling": 100.0,
      "PerformedProcedureStepStartTime": "144227.196000",
      "PhotometricInterpretation": "MONOCHROME2",
      "PixelBandwidth": 3050.0,
      "PixelRepresentation": 0,
      "PixelSpacing": [2.6829268932343, 2.6829268932343],
      "ProtocolName": "func_run-02_task-faces_acq-ap-mb8",
      "RepetitionTime": 460.0,
      "Rows": 656,
      "SAR": 0.09349713379373,
      "SamplesPerPixel": 1,
      "ScanOptions": "FS",
      "ScanningSequence": "EP",
      "SequenceName": "epfid2d1_82",
      "SequenceVariant": [
        "SK",
        "SS"
],
      "SeriesDescription": "func_run-02_task-faces_acq-ap-mb8",
      "SeriesNumber": 22,
      "SeriesTime": "160054.268000",
      "SliceLocation": -28.319759656205,
      "SliceThickness": 2.7000000476837,
      "SmallestImagePixelValue": 0,
      "SoftwareVersions": "syngo MR E11",
      "SpacingBetweenSlices": 2.6999999556005,
      "SpecificCharacterSet": "ISO_IR 100",
      "StudyID": "2",
      "StudyTime": "144227.139000",
      "TransmitCoilName": "Body",
      "VariableFlipAngleFlag": "N",
      "WindowCenterWidthExplanation": "Algo1",
      "dBdt": 0.0},
    "slices": {}
  },
  "time": {
    "samples": {
      "AcquisitionNumber": [1, 2, 3, 4, 5, 6, 7, 8, 9, 10, 11, 12, 13, 14, 15, 16, 17, 18, 19, 20, 21, 22, 23, 24, 25, 26, 27, 28, 29, 30, 31, 32, 33, 34, 35, 36, 37, 38, 39, 40, 41, 42, 43, 44, 45, 46, 47, 48, 49, 50, 51, 52, 53, 54, 55, 56, 57, 58, 59, 60, 61, 62, 63, 64, 65, 66, 67, 68, 69, 70, 71, 72, 73, 74, 75, 76, 77, 78, 79, 80, 81, 82, 83, 84, 85, 86, 87, 88, 89, 90, 91, 92, 93, 94, 95, 96, 97, 98, 99, 100, 101, 102, 103, 104, 105, 106, 107, 108, 109, 110, 111, 112, 113, 114, 115, 116, 117, 118, 119, 120, 121, 122, 123, 124, 125, 126, 127, 128, 129, 130, 131, 132, 133, 134, 135, 136, 137, 138, 139, 140, 141, 142, 143, 144, 145, 146, 147, 148, 149, 150, 151, 152, 153, 154, 155, 156, 157, 158, 159, 160, 161, 162, 163, 164, 165, 166, 167, 168, 169, 170, 171, 172, 173, 174, 175, 176, 177, 178, 179, 180, 181, 182, 183, 184, 185, 186, 187, 188, 189, 190, 191, 192, 193, 194, 195, 196, 197, 198, 199, 200, 201, 202, 203, 204, 205, 206, 207, 208, 209, 210, 211, 212, 213, 214, 215, 216, 217, 218, 219, 220, 221, 222, 223, 224, 225, 226, 227, 228, 229, 230, 231, 232, 233, 234, 235, 236, 237, 238, 239, 240, 241, 242, 243, 244, 245, 246, 247, 248, 249, 250, 251, 252, 253, 254, 255, 256, 257, 258, 259, 260, 261, 262, 263, 264, 265, 266, 267, 268, 269, 270, 271, 272, 273, 274, 275, 276, 277, 278, 279, 280, 281, 282, 283, 284, 285, 286, 287, 288, 289, 290, 291, 292, 293, 294, 295, 296, 297, 298, 299, 300, 301, 302, 303, 304, 305, 306, 307, 308, 309, 310, 311, 312, 313, 314, 315, 316, 317, 318, 319, 320, 321, 322, 323, 324, 325, 326, 327, 328, 329, 330, 331, 332, 333, 334, 335, 336, 337, 338, 339, 340, 341, 342, 343, 344, 345, 346, 347, 348, 349, 350, 351, 352, 353, 354, 355, 356, 357, 358, 359, 360, 361, 362, 363, 364, 365, 366, 367, 368, 369, 370, 371, 372, 373, 374, 375, 376, 377, 378, 379, 380, 381, 382, 383, 384, 385, 386, 387, 388, 389, 390, 391, 392, 393, 394, 395, 396, 397, 398, 399, 400, 401, 402, 403, 404, 405, 406, 407, 408, 409, 410, 411, 412, 413, 414, 415, 416, 417, 418, 419, 420, 421, 422, 423, 424, 425, 426, 427, 428, 429, 430, 431, 432, 433, 434, 435, 436, 437, 438, 439, 440, 441, 442, 443, 444, 445, 446, 447, 448, 449, 450, 451, 452, 453, 454, 455, 456, 457, 458, 459, 460, 461, 462, 463, 464, 465, 466, 467, 468, 469, 470, 471, 472, 473, 474, 475, 476, 477, 478, 479, 480, 481, 482, 483, 484, 485, 486, 487, 488, 489, 490, 491, 492, 493, 494, 495, 496, 497, 498, 499, 500, 501, 502, 503, 504, 505, 506, 507, 508, 509, 510, 511, 512, 513, 514, 515, 516, 517, 518, 519, 520, 521, 522, 523, 524, 525, 526, 527, 528, 529, 530, 531, 532, 533, 534, 535, 536, 537, 538, 539, 540, 541, 542, 543, 544, 545, 546, 547, 548, 549, 550, 551, 552, 553, 554, 555, 556, 557, 558, 559, 560, 561, 562, 563, 564, 565, 566, 567, 568, 569, 570, 571, 572, 573, 574, 575, 576, 577, 578, 579, 580, 581, 582, 583, 584, 585, 586, 587, 588, 589, 590, 591, 592, 593, 594, 595, 596, 597, 598, 599, 600, 601, 602, 603, 604, 605, 606, 607, 608, 609, 610, 611, 612, 613, 614, 615, 616, 617, 618, 619, 620, 621, 622, 623, 624, 625, 626, 627, 628, 629, 630, 631, 632, 633, 634, 635, 636, 637, 638, 639, 640, 641, 642, 643, 644, 645, 646, 647, 648, 649, 650, 651, 652, 653, 654, 655, 656, 657, 658, 659, 660, 661, 662, 663, 664, 665, 666, 667, 668, 669, 670, 671, 672, 673, 674, 675, 676, 677, 678, 679, 680, 681, 682, 683, 684, 685, 686, 687, 688, 689, 690, 691, 692, 693, 694, 695, 696, 697, 698, 699, 700, 701, 702, 703, 704, 705, 706, 707, 708, 709, 710, 711, 712, 713, 714, 715, 716, 717, 718, 719, 720, 721, 722, 723, 724, 725, 726, 727, 728, 729, 730, 731, 732, 733, 734, 735, 736, 737, 738, 739, 740, 741, 742, 743, 744, 745, 746, 747, 748, 749, 750, 751, 752, 753, 754, 755, 756, 757, 758, 759, 760, 761, 762, 763, 764, 765, 766, 767, 768, 769, 770, 771, 772, 773, 774, 775, 776, 777, 778, 779, 780, 781, 782, 783, 784, 785, 786, 787, 788, 789, 790, 791, 792, 793, 794, 795, 796, 797, 798, 799, 800, 801, 802, 803, 804, 805, 806, 807, 808, 809, 810, 811, 812, 813, 814, 815, 816, 817, 818, 819, 820, 821, 822, 823, 824, 825, 826, 827, 828, 829, 830, 831, 832, 833, 834, 835, 836, 837, 838, 839, 840, 841, 842, 843, 844, 845, 846, 847, 848, 849, 850, 851, 852, 853, 854, 855, 856, 857, 858, 859, 860, 861, 862, 863, 864, 865, 866, 867, 868, 869, 870, 871, 872, 873, 874, 875, 876, 877, 878, 879, 880, 881, 882, 883, 884, 885, 886, 887, 888, 889, 890, 891, 892, 893, 894, 895, 896, 897, 898, 899, 900, 901, 902, 903, 904, 905, 906, 907, 908, 909, 910, 911, 912, 913, 914],
      "AcquisitionTime": ["160043.350000", "160043.810000", "160044.270000", "160044.730000", "160045.190000", "160045.650000", "160046.110000", "160046.570000", "160047.030000", "160047.490000", "160047.950000", "160048.410000", "160048.870000", "160049.330000", "160049.790000", "160050.250000", "160050.710000", "160051.170000", "160051.630000", "160052.090000", "160052.550000", "160053.010000", "160053.470000", "160053.930000", "160054.390000", "160054.850000", "160055.310000", "160055.770000", "160056.230000", "160056.690000", "160057.150000", "160057.610000", "160058.070000", "160058.530000", "160058.990000", "160059.450000", "160059.910000", "160100.370000", "160100.830000", "160101.290000", "160101.750000", "160102.210000", "160102.670000", "160103.130000", "160103.590000", "160104.050000", "160104.510000", "160104.970000", "160105.430000", "160105.890000", "160106.350000", "160106.810000", "160107.270000", "160107.730000", "160108.190000", "160108.650000", "160109.110000", "160109.570000", "160110.030000", "160110.490000", "160110.950000", "160111.410000", "160111.870000", "160112.330000", "160112.790000", "160113.250000", "160113.710000", "160114.170000", "160114.630000", "160115.090000", "160115.550000", "160116.010000", "160116.470000", "160116.930000", "160117.390000", "160117.850000", "160118.310000", "160118.770000", "160119.230000", "160119.690000", "160120.150000", "160120.610000", "160121.070000", "160121.530000", "160121.990000", "160122.450000", "160122.910000", "160123.370000", "160123.830000", "160124.290000", "160124.750000", "160125.210000", "160125.670000", "160126.130000", "160126.590000", "160127.050000", "160127.510000", "160127.970000", "160128.430000", "160128.890000", "160129.350000", "160129.810000", "160130.270000", "160130.730000", "160131.190000", "160131.650000", "160132.110000", "160132.570000", "160133.030000", "160133.490000", "160133.950000", "160134.410000", "160134.870000", "160135.330000", "160135.790000", "160136.250000", "160136.710000", "160137.170000", "160137.630000", "160138.090000", "160138.550000", "160139.010000", "160139.470000", "160139.930000", "160140.390000", "160140.850000", "160141.310000", "160141.770000", "160142.230000", "160142.690000", "160143.150000", "160143.610000", "160144.070000", "160144.530000", "160144.990000", "160145.450000", "160145.910000", "160146.370000", "160146.830000", "160147.290000", "160147.750000", "160148.210000", "160148.670000", "160149.130000", "160149.590000", "160150.050000", "160150.510000", "160150.970000", "160151.430000", "160151.890000", "160152.350000", "160152.810000", "160153.270000", "160153.730000", "160154.190000", "160154.650000", "160155.110000", "160155.570000", "160156.030000", "160156.490000", "160156.950000", "160157.410000", "160157.870000", "160158.330000", "160158.790000", "160159.250000", "160159.710000", "160200.170000", "160200.630000", "160201.090000", "160201.550000", "160202.010000", "160202.470000", "160202.930000", "160203.390000", "160203.850000", "160204.310000", "160204.770000", "160205.230000", "160205.690000", "160206.150000", "160206.610000", "160207.070000", "160207.530000", "160207.990000", "160208.450000", "160208.910000", "160209.370000", "160209.830000", "160210.290000", "160210.750000", "160211.210000", "160211.670000", "160212.130000", "160212.590000", "160213.050000", "160213.510000", "160213.970000", "160214.430000", "160214.890000", "160215.350000", "160215.810000", "160216.270000", "160216.730000", "160217.190000", "160217.650000", "160218.110000", "160218.570000", "160219.030000", "160219.490000", "160219.950000", "160220.410000", "160220.870000", "160221.330000", "160221.790000", "160222.250000", "160222.710000", "160223.170000", "160223.630000", "160224.090000", "160224.550000", "160225.010000", "160225.470000", "160225.930000", "160226.390000", "160226.850000", "160227.310000", "160227.770000", "160228.230000", "160228.690000", "160229.150000", "160229.610000", "160230.070000", "160230.530000", "160230.990000", "160231.450000", "160231.910000", "160232.370000", "160232.830000", "160233.290000", "160233.750000", "160234.210000", "160234.670000", "160235.130000", "160235.590000", "160236.050000", "160236.510000", "160236.970000", "160237.430000", "160237.890000", "160238.350000", "160238.810000", "160239.270000", "160239.730000", "160240.190000", "160240.650000", "160241.110000", "160241.570000", "160242.030000", "160242.490000", "160242.950000", "160243.410000", "160243.870000", "160244.330000", "160244.790000", "160245.250000", "160245.710000", "160246.170000", "160246.630000", "160247.090000", "160247.550000", "160248.010000", "160248.470000", "160248.930000", "160249.390000", "160249.850000", "160250.310000", "160250.770000", "160251.230000", "160251.690000", "160252.150000", "160252.610000", "160253.070000", "160253.530000", "160253.990000", "160254.450000", "160254.910000", "160255.370000", "160255.830000", "160256.290000", "160256.750000", "160257.210000", "160257.670000", "160258.130000", "160258.590000", "160259.050000", "160259.510000", "160259.970000", "160300.430000", "160300.890000", "160301.350000", "160301.810000", "160302.270000", "160302.730000", "160303.190000", "160303.650000", "160304.110000", "160304.570000", "160305.030000", "160305.490000", "160305.950000", "160306.410000", "160306.870000", "160307.330000", "160307.790000", "160308.250000", "160308.710000", "160309.170000", "160309.630000", "160310.090000", "160310.550000", "160311.010000", "160311.470000", "160311.930000", "160312.390000", "160312.850000", "160313.310000", "160313.770000", "160314.230000", "160314.690000", "160315.150000", "160315.610000", "160316.070000", "160316.530000", "160316.990000", "160317.450000", "160317.910000", "160318.370000", "160318.830000", "160319.290000", "160319.750000", "160320.210000", "160320.670000", "160321.130000", "160321.590000", "160322.050000", "160322.510000", "160322.970000", "160323.430000", "160323.890000", "160324.350000", "160324.810000", "160325.270000", "160325.730000", "160326.190000", "160326.650000", "160327.110000", "160327.570000", "160328.030000", "160328.490000", "160328.950000", "160329.410000", "160329.870000", "160330.330000", "160330.790000", "160331.250000", "160331.710000", "160332.170000", "160332.630000", "160333.090000", "160333.550000", "160334.010000", "160334.470000", "160334.930000", "160335.390000", "160335.850000", "160336.310000", "160336.770000", "160337.230000", "160337.690000", "160338.150000", "160338.610000", "160339.070000", "160339.530000", "160339.990000", "160340.450000", "160340.910000", "160341.370000", "160341.830000", "160342.290000", "160342.750000", "160343.210000", "160343.670000", "160344.130000", "160344.590000", "160345.050000", "160345.510000", "160345.970000", "160346.430000", "160346.890000", "160347.350000", "160347.810000", "160348.270000", "160348.730000", "160349.190000", "160349.650000", "160350.110000", "160350.570000", "160351.030000", "160351.490000", "160351.950000", "160352.410000", "160352.870000", "160353.330000", "160353.790000", "160354.250000", "160354.710000", "160355.170000", "160355.630000", "160356.090000", "160356.550000", "160357.010000", "160357.470000", "160357.930000", "160358.390000", "160358.850000", "160359.310000", "160359.770000", "160400.230000", "160400.690000", "160401.150000", "160401.610000", "160402.070000", "160402.530000", "160402.990000", "160403.450000", "160403.910000", "160404.370000", "160404.830000", "160405.290000", "160405.750000", "160406.210000", "160406.670000", "160407.130000", "160407.590000", "160408.050000", "160408.510000", "160408.970000", "160409.430000", "160409.890000", "160410.350000", "160410.810000", "160411.270000", "160411.730000", "160412.190000", "160412.650000", "160413.110000", "160413.570000", "160414.030000", "160414.490000", "160414.950000", "160415.410000", "160415.870000", "160416.330000", "160416.790000", "160417.250000", "160417.710000", "160418.170000", "160418.630000", "160419.090000", "160419.550000", "160420.010000", "160420.470000", "160420.930000", "160421.390000", "160421.850000", "160422.310000", "160422.770000", "160423.230000", "160423.690000", "160424.150000", "160424.610000", "160425.070000", "160425.530000", "160425.990000", "160426.450000", "160426.910000", "160427.370000", "160427.830000", "160428.290000", "160428.750000", "160429.210000", "160429.670000", "160430.130000", "160430.590000", "160431.050000", "160431.510000", "160431.970000", "160432.430000", "160432.890000", "160433.350000", "160433.810000", "160434.270000", "160434.730000", "160435.190000", "160435.650000", "160436.110000", "160436.570000", "160437.030000", "160437.490000", "160437.950000", "160438.410000", "160438.870000", "160439.330000", "160439.790000", "160440.250000", "160440.710000", "160441.170000", "160441.630000", "160442.090000", "160442.550000", "160443.010000", "160443.470000", "160443.930000", "160444.390000", "160444.850000", "160445.310000", "160445.770000", "160446.230000", "160446.690000", "160447.150000", "160447.610000", "160448.070000", "160448.530000", "160448.990000", "160449.450000", "160449.910000", "160450.370000", "160450.830000", "160451.290000", "160451.750000", "160452.210000", "160452.670000", "160453.130000", "160453.590000", "160454.050000", "160454.510000", "160454.970000", "160455.430000", "160455.890000", "160456.350000", "160456.810000", "160457.270000", "160457.730000", "160458.190000", "160458.650000", "160459.110000", "160459.570000", "160500.030000", "160500.490000", "160500.950000", "160501.410000", "160501.870000", "160502.330000", "160502.790000", "160503.250000", "160503.710000", "160504.170000", "160504.630000", "160505.090000", "160505.550000", "160506.010000", "160506.470000", "160506.930000", "160507.390000", "160507.850000", "160508.310000", "160508.770000", "160509.230000", "160509.690000", "160510.150000", "160510.610000", "160511.070000", "160511.530000", "160511.990000", "160512.450000", "160512.910000", "160513.370000", "160513.830000", "160514.290000", "160514.750000", "160515.210000", "160515.670000", "160516.130000", "160516.590000", "160517.050000", "160517.510000", "160517.970000", "160518.430000", "160518.890000", "160519.350000", "160519.810000", "160520.270000", "160520.730000", "160521.190000", "160521.650000", "160522.110000", "160522.570000", "160523.030000", "160523.490000", "160523.950000", "160524.410000", "160524.870000", "160525.330000", "160525.790000", "160526.250000", "160526.710000", "160527.170000", "160527.630000", "160528.090000", "160528.550000", "160529.010000", "160529.470000", "160529.930000", "160530.390000", "160530.850000", "160531.310000", "160531.770000", "160532.230000", "160532.690000", "160533.150000", "160533.610000", "160534.070000", "160534.530000", "160534.990000", "160535.450000", "160535.910000", "160536.370000", "160536.830000", "160537.290000", "160537.750000", "160538.210000", "160538.670000", "160539.130000", "160539.590000", "160540.050000", "160540.510000", "160540.970000", "160541.430000", "160541.890000", "160542.350000", "160542.810000", "160543.270000", "160543.730000", "160544.190000", "160544.650000", "160545.110000", "160545.570000", "160546.030000", "160546.490000", "160546.950000", "160547.410000", "160547.870000", "160548.330000", "160548.790000", "160549.250000", "160549.710000", "160550.170000", "160550.630000", "160551.090000", "160551.550000", "160552.010000", "160552.470000", "160552.930000", "160553.390000", "160553.850000", "160554.310000", "160554.770000", "160555.230000", "160555.690000", "160556.150000", "160556.610000", "160557.070000", "160557.530000", "160557.990000", "160558.450000", "160558.910000", "160559.370000", "160559.830000", "160600.290000", "160600.750000", "160601.210000", "160601.670000", "160602.130000", "160602.590000", "160603.050000", "160603.510000", "160603.970000", "160604.430000", "160604.890000", "160605.350000", "160605.810000", "160606.270000", "160606.730000", "160607.190000", "160607.650000", "160608.110000", "160608.570000", "160609.030000", "160609.490000", "160609.950000", "160610.410000", "160610.870000", "160611.330000", "160611.790000", "160612.250000", "160612.710000", "160613.170000", "160613.630000", "160614.090000", "160614.550000", "160615.010000", "160615.470000", "160615.930000", "160616.390000", "160616.850000", "160617.310000", "160617.770000", "160618.230000", "160618.690000", "160619.150000", "160619.610000", "160620.070000", "160620.530000", "160620.990000", "160621.450000", "160621.910000", "160622.370000", "160622.830000", "160623.290000", "160623.750000", "160624.210000", "160624.670000", "160625.130000", "160625.590000", "160626.050000", "160626.510000", "160626.970000", "160627.430000", "160627.890000", "160628.350000", "160628.810000", "160629.270000", "160629.730000", "160630.190000", "160630.650000", "160631.110000", "160631.570000", "160632.030000", "160632.490000", "160632.950000", "160633.410000", "160633.870000", "160634.330000", "160634.790000", "160635.250000", "160635.710000", "160636.170000", "160636.630000", "160637.090000", "160637.550000", "160638.010000", "160638.470000", "160638.930000", "160639.390000", "160639.850000", "160640.310000", "160640.770000", "160641.230000", "160641.690000", "160642.150000", "160642.610000", "160643.070000", "160643.530000", "160643.990000", "160644.450000", "160644.910000", "160645.370000", "160645.830000", "160646.290000", "160646.750000", "160647.210000", "160647.670000", "160648.130000", "160648.590000", "160649.050000", "160649.510000", "160649.970000", "160650.430000", "160650.890000", "160651.350000", "160651.810000", "160652.270000", "160652.730000", "160653.190000", "160653.650000", "160654.110000", "160654.570000", "160655.030000", "160655.490000", "160655.950000", "160656.410000", "160656.870000", "160657.330000", "160657.790000", "160658.250000", "160658.710000", "160659.170000", "160659.630000", "160700.090000", "160700.550000", "160701.010000", "160701.470000", "160701.930000", "160702.390000", "160702.850000", "160703.310000", "160703.770000", "160704.230000", "160704.690000", "160705.150000", "160705.610000", "160706.070000", "160706.530000", "160706.990000", "160707.450000", "160707.910000", "160708.370000", "160708.830000", "160709.290000", "160709.750000", "160710.210000", "160710.670000", "160711.130000", "160711.590000", "160712.050000", "160712.510000", "160712.970000", "160713.430000", "160713.890000", "160714.350000", "160714.810000", "160715.270000", "160715.730000", "160716.190000", "160716.650000", "160717.110000", "160717.570000", "160718.030000", "160718.490000", "160718.950000", "160719.410000", "160719.870000", "160720.330000", "160720.790000", "160721.250000", "160721.710000", "160722.170000", "160722.630000", "160723.090000", "160723.550000", "160724.010000", "160724.470000", "160724.930000", "160725.390000", "160725.850000", "160726.310000", "160726.770000", "160727.230000", "160727.690000", "160728.150000", "160728.610000", "160729.070000", "160729.530000", "160729.990000", "160730.450000", "160730.910000", "160731.370000", "160731.830000", "160732.290000", "160732.750000", "160733.210000", "160733.670000", "160734.130000", "160734.590000", "160735.050000", "160735.510000", "160735.970000", "160736.430000", "160736.890000", "160737.350000", "160737.810000", "160738.270000", "160738.730000", "160739.190000", "160739.650000", "160740.110000", "160740.570000", "160741.030000", "160741.490000", "160741.950000", "160742.410000", "160742.870000", "160743.330000"],
