{
  "AcquisitionMatrixPE": 82,
  "AcquisitionNumber": 1,
  "AcquisitionTime": "15:23:4.512500",
  "BandwidthPerPixelPhaseEncode": 24.888,
  "BaseResolution": 82,
  "BodyPartExamined": "BRAIN",
  "ConsistencyInfo": "N4_VE11C_LATEST_20160120",
  "ConversionSoftware": "dcm2niix",
  "ConversionSoftwareVersion": "v1.0.20201102",
  "DerivedVendorReportedEchoSpacing": 0.00049,
  "DeviceSerialNumber": "66112",
  "DwellTime": 2e-06,
  "EchoTime": 0.0272,
  "EchoTrainLength": 82,
  "EffectiveEchoSpacing": 0.00049,
  "FlipAngle": 44,
  "ImageComments": "Unaliased MB8/PE3",
  "ImageOrientationPatientDICOM": [0.999813, 0.0189415, 0.00380707, -0.0190228, 0.999564, 0.0225947],
  "ImageType": [
    "ORIGINAL",
    "PRIMARY",
    "M",
    "MB",
    "ND",
    "NORM",
    "MOSAIC"
],
  "ImagingFrequency": 123.252,
  "InPlanePhaseEncodingDirectionDICOM": "COL",
  "InstitutionAddress": "Maynard 3,Hanover,NH,US,03755",
  "InstitutionName": "Dartmouth College - PBS",
  "InstitutionalDepartmentName": "Department",
  "MRAcquisitionType": "2D",
  "MagneticFieldStrength": 3,
  "Manufacturer": "Siemens",
  "ManufacturersModelName": "Prisma",
  "Modality": "MR",
  "MultibandAccelerationFactor": 8,
  "PartialFourier": 1,
  "PatientPosition": "HFS",
  "PercentPhaseFOV": 100,
  "PercentSampling": 100,
  "PhaseEncodingDirection": "j-",
  "PhaseEncodingSteps": 82,
  "PhaseResolution": 1,
  "PixelBandwidth": 3050,
  "ProcedureStepDescription": "Wager_Wager^1076_spacetop",
  "ProtocolName": "func_run-02_task-narratives_acq-ap-mb8",
  "PulseSequenceDetails": "%CustomerSeq%\\cmrr_mbep2d_bold",
  "ReceiveCoilActiveElements": "HEA;HEP",
  "ReceiveCoilName": "Head_32",
  "ReconMatrixPE": 82,
  "RepetitionTime": 0.46,
  "SAR": 0.0935903,
  "ScanOptions": "FS",
  "ScanningSequence": "EP",
  "SequenceName": "epfid2d1_82",
  "SequenceVariant": "SK\\SS",
  "SeriesDescription": "func_run-02_task-narratives_acq-ap-mb8",
  "SeriesNumber": 14,
  "ShimSetting": [4164, -7773, -7153, 634, -32, -208, 18, 20],
  "SliceThickness": 2.7,
  "SliceTiming": [0, 0.2525, 0.0625, 0.315, 0.125, 0.3775, 0.1875, 0, 0.2525, 0.0625, 0.315, 0.125, 0.3775, 0.1875, 0, 0.2525, 0.0625, 0.315, 0.125, 0.3775, 0.1875, 0, 0.2525, 0.0625, 0.315, 0.125, 0.3775, 0.1875, 0, 0.2525, 0.0625, 0.315, 0.125, 0.3775, 0.1875, 0, 0.2525, 0.0625, 0.315, 0.125, 0.3775, 0.1875, 0, 0.2525, 0.0625, 0.315, 0.125, 0.3775, 0.1875, 0, 0.2525, 0.0625, 0.315, 0.125, 0.3775, 0.1875],
  "SoftwareVersions": "syngo MR E11",
  "SpacingBetweenSlices": 2.7,
  "StationName": "AWP66112",
  "TaskName": "narratives",
  "TotalReadoutTime": 0.03969,
  "TxRefAmp": 239.614,
  "WipMemBlock": "d4d34f5d-a8cb-4b6b-ac46-25e1f4568722||Sequence: R016 ve11c/master r/e634e98; Dec 19 2017 11:00:25 by eja",
  "dcmmeta_affine": [
    [-2.6824262142181396, -0.05103689059615135, 0.009119054302573204, 112.94798278808594],
    [-0.050818752497434616, 2.6817562580108643, 0.06118994951248169, -92.594482421875],
    [0.010214084759354591, -0.060620035976171494, 2.6992909908294678, -26.609756469726562],
    [0.0, 0.0, 0.0, 1.0]
],
  "dcmmeta_reorient_transform": [
    [0.0, -1.0, 0.0, 81.0],
    [1.0, 0.0, 0.0, 0.0],
    [0.0, 0.0, 1.0, 0.0],
    [0.0, 0.0, 0.0, 1.0]
],
  "dcmmeta_shape": [82, 82, 56, 1098],
  "dcmmeta_slice_dim": 2,
  "dcmmeta_version": 0.6,
  "global": {
    "const": {
      "AccessionNumber": "A003475",
      "AcquisitionMatrix": [82, 0, 0, 82],
      "AngioFlag": "N",
      "BitsAllocated": 16,
      "BitsStored": 16,
      "BodyPartExamined": "BRAIN",
      "Columns": 656,
      "EchoNumbers": 1,
      "EchoTime": 27.2,
      "EchoTrainLength": 82,
      "FlipAngle": 44.0,
      "HighBit": 15,
      "ImageOrientationPatient": [0.99981334482889, 0.01894153470145, 0.00380706779829, -0.0190228411097, 0.99956370943096, 0.02259474064324],
      "ImagePositionPatient": [-864.02270216267, -908.87683743852, -51.849371859194],
      "ImageType": [
        "ORIGINAL",
        "PRIMARY",
        "M",
        "MB",
        "ND",
        "NORM",
        "MOSAIC"
],
      "ImagedNucleus": "1H",
      "ImagingFrequency": 123.252081,
      "InPlanePhaseEncodingDirection": "COL",
      "MRAcquisitionType": "2D",
      "MagneticFieldStrength": 3.0,
      "Manufacturer": "SIEMENS",
      "ManufacturerModelName": "Prisma",
      "Modality": "MR",
      "NumberOfAverages": 1.0,
      "NumberOfPhaseEncodingSteps": 82,
      "PercentPhaseFieldOfView": 100.0,
      "PercentSampling": 100.0,
      "PerformedProcedureStepStartTime": "144227.196000",
      "PhotometricInterpretation": "MONOCHROME2",
      "PixelBandwidth": 3050.0,
      "PixelRepresentation": 0,
      "PixelSpacing": [2.6829268932343, 2.6829268932343],
      "ProtocolName": "func_run-02_task-narratives_acq-ap-mb8",
      "RepetitionTime": 460.0,
      "Rows": 656,
      "SAR": 0.09359025983318,
      "SamplesPerPixel": 1,
      "ScanOptions": "FS",
      "ScanningSequence": "EP",
      "SequenceName": "epfid2d1_82",
      "SequenceVariant": [
        "SK",
        "SS"
],
      "SeriesDescription": "func_run-02_task-narratives_acq-ap-mb8",
      "SeriesNumber": 14,
      "SeriesTime": "152334.191000",
      "SliceLocation": -28.319759656205,
      "SliceThickness": 2.7000000476837,
      "SmallestImagePixelValue": 0,
      "SoftwareVersions": "syngo MR E11",
      "SpacingBetweenSlices": 2.6999999556005,
      "SpecificCharacterSet": "ISO_IR 100",
      "StudyID": "2",
      "StudyTime": "144227.139000",
      "TransmitCoilName": "Body",
      "VariableFlipAngleFlag": "N",
      "WindowCenterWidthExplanation": "Algo1",
      "dBdt": 0.0},
    "slices": {}
  },
  "time": {
    "samples": {
      "AcquisitionNumber": [1, 2, 3, 4, 5, 6, 7, 8, 9, 10, 11, 12, 13, 14, 15, 16, 17, 18, 19, 20, 21, 22, 23, 24, 25, 26, 27, 28, 29, 30, 31, 32, 33, 34, 35, 36, 37, 38, 39, 40, 41, 42, 43, 44, 45, 46, 47, 48, 49, 50, 51, 52, 53, 54, 55, 56, 57, 58, 59, 60, 61, 62, 63, 64, 65, 66, 67, 68, 69, 70, 71, 72, 73, 74, 75, 76, 77, 78, 79, 80, 81, 82, 83, 84, 85, 86, 87, 88, 89, 90, 91, 92, 93, 94, 95, 96, 97, 98, 99, 100, 101, 102, 103, 104, 105, 106, 107, 108, 109, 110, 111, 112, 113, 114, 115, 116, 117, 118, 119, 120, 121, 122, 123, 124, 125, 126, 127, 128, 129, 130, 131, 132, 133, 134, 135, 136, 137, 138, 139, 140, 141, 142, 143, 144, 145, 146, 147, 148, 149, 150, 151, 152, 153, 154, 155, 156, 157, 158, 159, 160, 161, 162, 163, 164, 165, 166, 167, 168, 169, 170, 171, 172, 173, 174, 175, 176, 177, 178, 179, 180, 181, 182, 183, 184, 185, 186, 187, 188, 189, 190, 191, 192, 193, 194, 195, 196, 197, 198, 199, 200, 201, 202, 203, 204, 205, 206, 207, 208, 209, 210, 211, 212, 213, 214, 215, 216, 217, 218, 219, 220, 221, 222, 223, 224, 225, 226, 227, 228, 229, 230, 231, 232, 233, 234, 235, 236, 237, 238, 239, 240, 241, 242, 243, 244, 245, 246, 247, 248, 249, 250, 251, 252, 253, 254, 255, 256, 257, 258, 259, 260, 261, 262, 263, 264, 265, 266, 267, 268, 269, 270, 271, 272, 273, 274, 275, 276, 277, 278, 279, 280, 281, 282, 283, 284, 285, 286, 287, 288, 289, 290, 291, 292, 293, 294, 295, 296, 297, 298, 299, 300, 301, 302, 303, 304, 305, 306, 307, 308, 309, 310, 311, 312, 313, 314, 315, 316, 317, 318, 319, 320, 321, 322, 323, 324, 325, 326, 327, 328, 329, 330, 331, 332, 333, 334, 335, 336, 337, 338, 339, 340, 341, 342, 343, 344, 345, 346, 347, 348, 349, 350, 351, 352, 353, 354, 355, 356, 357, 358, 359, 360, 361, 362, 363, 364, 365, 366, 367, 368, 369, 370, 371, 372, 373, 374, 375, 376, 377, 378, 379, 380, 381, 382, 383, 384, 385, 386, 387, 388, 389, 390, 391, 392, 393, 394, 395, 396, 397, 398, 399, 400, 401, 402, 403, 404, 405, 406, 407, 408, 409, 410, 411, 412, 413, 414, 415, 416, 417, 418, 419, 420, 421, 422, 423, 424, 425, 426, 427, 428, 429, 430, 431, 432, 433, 434, 435, 436, 437, 438, 439, 440, 441, 442, 443, 444, 445, 446, 447, 448, 449, 450, 451, 452, 453, 454, 455, 456, 457, 458, 459, 460, 461, 462, 463, 464, 465, 466, 467, 468, 469, 470, 471, 472, 473, 474, 475, 476, 477, 478, 479, 480, 481, 482, 483, 484, 485, 486, 487, 488, 489, 490, 491, 492, 493, 494, 495, 496, 497, 498, 499, 500, 501, 502, 503, 504, 505, 506, 507, 508, 509, 510, 511, 512, 513, 514, 515, 516, 517, 518, 519, 520, 521, 522, 523, 524, 525, 526, 527, 528, 529, 530, 531, 532, 533, 534, 535, 536, 537, 538, 539, 540, 541, 542, 543, 544, 545, 546, 547, 548, 549, 550, 551, 552, 553, 554, 555, 556, 557, 558, 559, 560, 561, 562, 563, 564, 565, 566, 567, 568, 569, 570, 571, 572, 573, 574, 575, 576, 577, 578, 579, 580, 581, 582, 583, 584, 585, 586, 587, 588, 589, 590, 591, 592, 593, 594, 595, 596, 597, 598, 599, 600, 601, 602, 603, 604, 605, 606, 607, 608, 609, 610, 611, 612, 613, 614, 615, 616, 617, 618, 619, 620, 621, 622, 623, 624, 625, 626, 627, 628, 629, 630, 631, 632, 633, 634, 635, 636, 637, 638, 639, 640, 641, 642, 643, 644, 645, 646, 647, 648, 649, 650, 651, 652, 653, 654, 655, 656, 657, 658, 659, 660, 661, 662, 663, 664, 665, 666, 667, 668, 669, 670, 671, 672, 673, 674, 675, 676, 677, 678, 679, 680, 681, 682, 683, 684, 685, 686, 687, 688, 689, 690, 691, 692, 693, 694, 695, 696, 697, 698, 699, 700, 701, 702, 703, 704, 705, 706, 707, 708, 709, 710, 711, 712, 713, 714, 715, 716, 717, 718, 719, 720, 721, 722, 723, 724, 725, 726, 727, 728, 729, 730, 731, 732, 733, 734, 735, 736, 737, 738, 739, 740, 741, 742, 743, 744, 745, 746, 747, 748, 749, 750, 751, 752, 753, 754, 755, 756, 757, 758, 759, 760, 761, 762, 763, 764, 765, 766, 767, 768, 769, 770, 771, 772, 773, 774, 775, 776, 777, 778, 779, 780, 781, 782, 783, 784, 785, 786, 787, 788, 789, 790, 791, 792, 793, 794, 795, 796, 797, 798, 799, 800, 801, 802, 803, 804, 805, 806, 807, 808, 809, 810, 811, 812, 813, 814, 815, 816, 817, 818, 819, 820, 821, 822, 823, 824, 825, 826, 827, 828, 829, 830, 831, 832, 833, 834, 835, 836, 837, 838, 839, 840, 841, 842, 843, 844, 845, 846, 847, 848, 849, 850, 851, 852, 853, 854, 855, 856, 857, 858, 859, 860, 861, 862, 863, 864, 865, 866, 867, 868, 869, 870, 871, 872, 873, 874, 875, 876, 877, 878, 879, 880, 881, 882, 883, 884, 885, 886, 887, 888, 889, 890, 891, 892, 893, 894, 895, 896, 897, 898, 899, 900, 901, 902, 903, 904, 905, 906, 907, 908, 909, 910, 911, 912, 913, 914, 915, 916, 917, 918, 919, 920, 921, 922, 923, 924, 925, 926, 927, 928, 929, 930, 931, 932, 933, 934, 935, 936, 937, 938, 939, 940, 941, 942, 943, 944, 945, 946, 947, 948, 949, 950, 951, 952, 953, 954, 955, 956, 957, 958, 959, 960, 961, 962, 963, 964, 965, 966, 967, 968, 969, 970, 971, 972, 973, 974, 975, 976, 977, 978, 979, 980, 981, 982, 983, 984, 985, 986, 987, 988, 989, 990, 991, 992, 993, 994, 995, 996, 997, 998, 999, 1000, 1001, 1002, 1003, 1004, 1005, 1006, 1007, 1008, 1009, 1010, 1011, 1012, 1013, 1014, 1015, 1016, 1017, 1018, 1019, 1020, 1021, 1022, 1023, 1024, 1025, 1026, 1027, 1028, 1029, 1030, 1031, 1032, 1033, 1034, 1035, 1036, 1037, 1038, 1039, 1040, 1041, 1042, 1043, 1044, 1045, 1046, 1047, 1048, 1049, 1050, 1051, 1052, 1053, 1054, 1055, 1056, 1057, 1058, 1059, 1060, 1061, 1062, 1063, 1064, 1065, 1066, 1067, 1068, 1069, 1070, 1071, 1072, 1073, 1074, 1075, 1076, 1077, 1078, 1079, 1080, 1081, 1082, 1083, 1084, 1085, 1086, 1087, 1088, 1089, 1090, 1091, 1092, 1093, 1094, 1095, 1096, 1097, 1098],
      "AcquisitionTime": ["152304.512500", "152304.972500", "152305.432500", "152305.892500", "152306.352500", "152306.812500", "152307.272500", "152307.732500", "152308.192500", "152308.652500", "152309.112500", "152309.572500", "152310.032500", "152310.492500", "152310.952500", "152311.412500", "152311.872500", "152312.332500", "152312.792500", "152313.252500", "152313.712500", "152314.172500", "152314.632500", "152315.092500", "152315.552500", "152316.012500", "152316.472500", "152316.932500", "152317.392500", "152317.852500", "152318.312500", "152318.772500", "152319.232500", "152319.692500", "152320.152500", "152320.612500", "152321.072500", "152321.532500", "152321.992500", "152322.452500", "152322.912500", "152323.372500", "152323.832500", "152324.292500", "152324.752500", "152325.212500", "152325.672500", "152326.132500", "152326.592500", "152327.052500", "152327.512500", "152327.972500", "152328.432500", "152328.892500", "152329.352500", "152329.812500", "152330.272500", "152330.732500", "152331.192500", "152331.652500", "152332.112500", "152332.572500", "152333.032500", "152333.492500", "152333.952500", "152334.412500", "152334.872500", "152335.332500", "152335.792500", "152336.252500", "152336.712500", "152337.172500", "152337.632500", "152338.092500", "152338.552500", "152339.012500", "152339.472500", "152339.932500", "152340.392500", "152340.852500", "152341.312500", "152341.772500", "152342.232500", "152342.692500", "152343.152500", "152343.612500", "152344.072500", "152344.532500", "152344.992500", "152345.452500", "152345.912500", "152346.372500", "152346.832500", "152347.292500", "152347.752500", "152348.212500", "152348.672500", "152349.132500", "152349.592500", "152350.052500", "152350.512500", "152350.972500", "152351.432500", "152351.892500", "152352.352500", "152352.812500", "152353.272500", "152353.732500", "152354.192500", "152354.652500", "152355.112500", "152355.572500", "152356.032500", "152356.492500", "152356.952500", "152357.412500", "152357.872500", "152358.332500", "152358.792500", "152359.252500", "152359.712500", "152400.172500", "152400.632500", "152401.092500", "152401.552500", "152402.012500", "152402.472500", "152402.932500", "152403.392500", "152403.852500", "152404.312500", "152404.772500", "152405.232500", "152405.692500", "152406.152500", "152406.612500", "152407.072500", "152407.532500", "152407.992500", "152408.452500", "152408.912500", "152409.372500", "152409.832500", "152410.292500", "152410.752500", "152411.212500", "152411.672500", "152412.132500", "152412.592500", "152413.052500", "152413.512500", "152413.972500", "152414.432500", "152414.892500", "152415.352500", "152415.812500", "152416.272500", "152416.732500", "152417.192500", "152417.652500", "152418.112500", "152418.572500", "152419.032500", "152419.492500", "152419.952500", "152420.412500", "152420.872500", "152421.332500", "152421.792500", "152422.252500", "152422.712500", "152423.172500", "152423.632500", "152424.092500", "152424.552500", "152425.012500", "152425.472500", "152425.932500", "152426.392500", "152426.852500", "152427.312500", "152427.772500", "152428.232500", "152428.692500", "152429.152500", "152429.612500", "152430.072500", "152430.532500", "152430.992500", "152431.452500", "152431.912500", "152432.372500", "152432.832500", "152433.292500", "152433.752500", "152434.212500", "152434.672500", "152435.132500", "152435.592500", "152436.052500", "152436.512500", "152436.972500", "152437.432500", "152437.892500", "152438.352500", "152438.812500", "152439.272500", "152439.732500", "152440.192500", "152440.652500", "152441.112500", "152441.572500", "152442.032500", "152442.492500", "152442.952500", "152443.412500", "152443.872500", "152444.332500", "152444.792500", "152445.252500", "152445.712500", "152446.172500", "152446.632500", "152447.092500", "152447.552500", "152448.012500", "152448.472500", "152448.932500", "152449.392500", "152449.852500", "152450.312500", "152450.772500", "152451.232500", "152451.692500", "152452.152500", "152452.612500", "152453.072500", "152453.532500", "152453.992500", "152454.452500", "152454.912500", "152455.372500", "152455.832500", "152456.292500", "152456.752500", "152457.212500", "152457.672500", "152458.132500", "152458.592500", "152459.052500", "152459.512500", "152459.972500", "152500.432500", "152500.892500", "152501.352500", "152501.812500", "152502.272500", "152502.732500", "152503.192500", "152503.652500", "152504.112500", "152504.572500", "152505.032500", "152505.492500", "152505.952500", "152506.412500", "152506.872500", "152507.332500", "152507.792500", "152508.252500", "152508.712500", "152509.172500", "152509.632500", "152510.092500", "152510.552500", "152511.012500", "152511.472500", "152511.932500", "152512.392500", "152512.852500", "152513.312500", "152513.772500", "152514.232500", "152514.692500", "152515.152500", "152515.612500", "152516.072500", "152516.532500", "152516.992500", "152517.452500", "152517.912500", "152518.372500", "152518.832500", "152519.292500", "152519.752500", "152520.212500", "152520.672500", "152521.132500", "152521.592500", "152522.052500", "152522.512500", "152522.972500", "152523.432500", "152523.892500", "152524.352500", "152524.812500", "152525.272500", "152525.732500", "152526.192500", "152526.652500", "152527.112500", "152527.572500", "152528.032500", "152528.492500", "152528.952500", "152529.412500", "152529.872500", "152530.332500", "152530.792500", "152531.252500", "152531.712500", "152532.172500", "152532.632500", "152533.092500", "152533.552500", "152534.012500", "152534.472500", "152534.932500", "152535.392500", "152535.852500", "152536.312500", "152536.772500", "152537.232500", "152537.692500", "152538.152500", "152538.612500", "152539.072500", "152539.532500", "152539.992500", "152540.452500", "152540.912500", "152541.372500", "152541.832500", "152542.292500", "152542.752500", "152543.212500", "152543.672500", "152544.132500", "152544.592500", "152545.052500", "152545.512500", "152545.972500", "152546.432500", "152546.892500", "152547.352500", "152547.812500", "152548.272500", "152548.732500", "152549.192500", "152549.652500", "152550.112500", "152550.572500", "152551.032500", "152551.492500", "152551.952500", "152552.412500", "152552.872500", "152553.332500", "152553.792500", "152554.252500", "152554.712500", "152555.172500", "152555.632500", "152556.092500", "152556.552500", "152557.012500", "152557.472500", "152557.932500", "152558.392500", "152558.852500", "152559.312500", "152559.772500", "152600.232500", "152600.692500", "152601.152500", "152601.612500", "152602.072500", "152602.532500", "152602.992500", "152603.452500", "152603.912500", "152604.372500", "152604.832500", "152605.292500", "152605.752500", "152606.212500", "152606.672500", "152607.132500", "152607.592500", "152608.052500", "152608.512500", "152608.972500", "152609.432500", "152609.892500", "152610.352500", "152610.812500", "152611.272500", "152611.732500", "152612.192500", "152612.652500", "152613.112500", "152613.572500", "152614.032500", "152614.492500", "152614.952500", "152615.412500", "152615.872500", "152616.332500", "152616.792500", "152617.252500", "152617.712500", "152618.172500", "152618.632500", "152619.092500", "152619.552500", "152620.012500", "152620.472500", "152620.932500", "152621.392500", "152621.852500", "152622.312500", "152622.772500", "152623.232500", "152623.692500", "152624.152500", "152624.612500", "152625.072500", "152625.532500", "152625.992500", "152626.452500", "152626.912500", "152627.372500", "152627.832500", "152628.292500", "152628.752500", "152629.212500", "152629.672500", "152630.132500", "152630.592500", "152631.052500", "152631.512500", "152631.972500", "152632.432500", "152632.892500", "152633.352500", "152633.812500", "152634.272500", "152634.732500", "152635.192500", "152635.652500", "152636.112500", "152636.572500", "152637.032500", "152637.492500", "152637.952500", "152638.412500", "152638.872500", "152639.332500", "152639.792500", "152640.252500", "152640.712500", "152641.172500", "152641.632500", "152642.092500", "152642.552500", "152643.012500", "152643.472500", "152643.932500", "152644.392500", "152644.852500", "152645.312500", "152645.772500", "152646.232500", "152646.692500", "152647.152500", "152647.612500", "152648.072500", "152648.532500", "152648.992500", "152649.452500", "152649.912500", "152650.372500", "152650.832500", "152651.292500", "152651.752500", "152652.212500", "152652.672500", "152653.132500", "152653.592500", "152654.052500", "152654.512500", "152654.972500", "152655.432500", "152655.892500", "152656.352500", "152656.812500", "152657.272500", "152657.732500", "152658.192500", "152658.652500", "152659.112500", "152659.572500", "152700.032500", "152700.492500", "152700.952500", "152701.412500", "152701.872500", "152702.332500", "152702.792500", "152703.252500", "152703.712500", "152704.172500", "152704.632500", "152705.092500", "152705.552500", "152706.012500", "152706.472500", "152706.932500", "152707.392500", "152707.852500", "152708.312500", "152708.772500", "152709.232500", "152709.692500", "152710.152500", "152710.612500", "152711.072500", "152711.532500", "152711.992500", "152712.452500", "152712.912500", "152713.372500", "152713.832500", "152714.292500", "152714.752500", "152715.212500", "152715.672500", "152716.132500", "152716.592500", "152717.052500", "152717.512500", "152717.972500", "152718.432500", "152718.892500", "152719.352500", "152719.812500", "152720.272500", "152720.732500", "152721.192500", "152721.652500", "152722.112500", "152722.572500", "152723.032500", "152723.492500", "152723.952500", "152724.412500", "152724.872500", "152725.332500", "152725.792500", "152726.252500", "152726.712500", "152727.172500", "152727.632500", "152728.092500", "152728.552500", "152729.012500", "152729.472500", "152729.932500", "152730.392500", "152730.852500", "152731.312500", "152731.772500", "152732.232500", "152732.692500", "152733.152500", "152733.612500", "152734.072500", "152734.532500", "152734.992500", "152735.452500", "152735.912500", "152736.372500", "152736.832500", "152737.292500", "152737.752500", "152738.212500", "152738.672500", "152739.132500", "152739.592500", "152740.052500", "152740.512500", "152740.972500", "152741.432500", "152741.892500", "152742.352500", "152742.812500", "152743.272500", "152743.732500", "152744.192500", "152744.652500", "152745.112500", "152745.572500", "152746.032500", "152746.492500", "152746.952500", "152747.412500", "152747.872500", "152748.332500", "152748.792500", "152749.252500", "152749.712500", "152750.172500", "152750.632500", "152751.092500", "152751.552500", "152752.012500", "152752.472500", "152752.932500", "152753.392500", "152753.852500", "152754.312500", "152754.772500", "152755.232500", "152755.692500", "152756.152500", "152756.612500", "152757.072500", "152757.532500", "152757.992500", "152758.452500", "152758.912500", "152759.372500", "152759.832500", "152800.292500", "152800.752500", "152801.212500", "152801.672500", "152802.132500", "152802.592500", "152803.052500", "152803.512500", "152803.972500", "152804.432500", "152804.892500", "152805.352500", "152805.812500", "152806.272500", "152806.732500", "152807.192500", "152807.652500", "152808.112500", "152808.572500", "152809.032500", "152809.492500", "152809.952500", "152810.412500", "152810.872500", "152811.332500", "152811.792500", "152812.252500", "152812.712500", "152813.172500", "152813.632500", "152814.092500", "152814.552500", "152815.012500", "152815.472500", "152815.932500", "152816.392500", "152816.852500", "152817.312500", "152817.772500", "152818.232500", "152818.692500", "152819.152500", "152819.612500", "152820.072500", "152820.532500", "152820.992500", "152821.452500", "152821.912500", "152822.372500", "152822.832500", "152823.292500", "152823.752500", "152824.212500", "152824.672500", "152825.132500", "152825.592500", "152826.052500", "152826.512500", "152826.972500", "152827.432500", "152827.892500", "152828.352500", "152828.812500", "152829.272500", "152829.732500", "152830.192500", "152830.652500", "152831.112500", "152831.572500", "152832.032500", "152832.492500", "152832.952500", "152833.412500", "152833.872500", "152834.332500", "152834.792500", "152835.252500", "152835.712500", "152836.172500", "152836.632500", "152837.092500", "152837.552500", "152838.012500", "152838.472500", "152838.932500", "152839.392500", "152839.852500", "152840.312500", "152840.772500", "152841.232500", "152841.692500", "152842.152500", "152842.612500", "152843.072500", "152843.532500", "152843.992500", "152844.452500", "152844.912500", "152845.372500", "152845.832500", "152846.292500", "152846.752500", "152847.212500", "152847.672500", "152848.132500", "152848.592500", "152849.052500", "152849.512500", "152849.972500", "152850.432500", "152850.892500", "152851.352500", "152851.812500", "152852.272500", "152852.732500", "152853.192500", "152853.652500", "152854.112500", "152854.572500", "152855.032500", "152855.492500", "152855.952500", "152856.412500", "152856.872500", "152857.332500", "152857.792500", "152858.252500", "152858.712500", "152859.172500", "152859.632500", "152900.092500", "152900.552500", "152901.012500", "152901.472500", "152901.932500", "152902.392500", "152902.852500", "152903.312500", "152903.772500", "152904.232500", "152904.692500", "152905.152500", "152905.612500", "152906.072500", "152906.532500", "152906.992500", "152907.452500", "152907.912500", "152908.372500", "152908.832500", "152909.292500", "152909.752500", "152910.212500", "152910.672500", "152911.132500", "152911.592500", "152912.052500", "152912.512500", "152912.972500", "152913.432500", "152913.892500", "152914.352500", "152914.812500", "152915.272500", "152915.732500", "152916.192500", "152916.652500", "152917.112500", "152917.572500", "152918.032500", "152918.492500", "152918.952500", "152919.412500", "152919.872500", "152920.332500", "152920.792500", "152921.252500", "152921.712500", "152922.172500", "152922.632500", "152923.092500", "152923.552500", "152924.012500", "152924.472500", "152924.932500", "152925.392500", "152925.852500", "152926.312500", "152926.772500", "152927.232500", "152927.692500", "152928.152500", "152928.612500", "152929.072500", "152929.532500", "152929.992500", "152930.452500", "152930.912500", "152931.372500", "152931.832500", "152932.292500", "152932.752500", "152933.212500", "152933.672500", "152934.132500", "152934.592500", "152935.052500", "152935.512500", "152935.972500", "152936.432500", "152936.892500", "152937.352500", "152937.812500", "152938.272500", "152938.732500", "152939.192500", "152939.652500", "152940.112500", "152940.572500", "152941.032500", "152941.492500", "152941.952500", "152942.412500", "152942.872500", "152943.332500", "152943.792500", "152944.252500", "152944.712500", "152945.172500", "152945.632500", "152946.092500", "152946.552500", "152947.012500", "152947.472500", "152947.932500", "152948.392500", "152948.852500", "152949.312500", "152949.772500", "152950.232500", "152950.692500", "152951.152500", "152951.612500", "152952.072500", "152952.532500", "152952.992500", "152953.452500", "152953.912500", "152954.372500", "152954.832500", "152955.292500", "152955.752500", "152956.212500", "152956.672500", "152957.132500", "152957.592500", "152958.052500", "152958.512500", "152958.972500", "152959.432500", "152959.892500", "153000.352500", "153000.812500", "153001.272500", "153001.732500", "153002.192500", "153002.652500", "153003.112500", "153003.572500", "153004.032500", "153004.492500", "153004.952500", "153005.412500", "153005.872500", "153006.332500", "153006.792500", "153007.252500", "153007.712500", "153008.172500", "153008.632500", "153009.092500", "153009.552500", "153010.012500", "153010.472500", "153010.932500", "153011.392500", "153011.852500", "153012.312500", "153012.772500", "153013.232500", "153013.692500", "153014.152500", "153014.612500", "153015.072500", "153015.532500", "153015.992500", "153016.452500", "153016.912500", "153017.372500", "153017.832500", "153018.292500", "153018.752500", "153019.212500", "153019.672500", "153020.132500", "153020.592500", "153021.052500", "153021.512500", "153021.972500", "153022.432500", "153022.892500", "153023.352500", "153023.812500", "153024.272500", "153024.732500", "153025.192500", "153025.652500", "153026.112500", "153026.572500", "153027.032500", "153027.492500", "153027.952500", "153028.412500", "153028.872500", "153029.332500", "153029.792500", "153030.252500", "153030.712500", "153031.172500", "153031.632500", "153032.092500", "153032.552500", "153033.012500", "153033.472500", "153033.932500", "153034.392500", "153034.852500", "153035.312500", "153035.772500", "153036.232500", "153036.692500", "153037.152500", "153037.612500", "153038.072500", "153038.532500", "153038.992500", "153039.452500", "153039.912500", "153040.372500", "153040.832500", "153041.292500", "153041.752500", "153042.212500", "153042.672500", "153043.132500", "153043.592500", "153044.052500", "153044.512500", "153044.972500", "153045.432500", "153045.892500", "153046.352500", "153046.812500", "153047.272500", "153047.732500", "153048.192500", "153048.652500", "153049.112500", "153049.572500", "153050.032500", "153050.492500", "153050.952500", "153051.412500", "153051.872500", "153052.332500", "153052.792500", "153053.252500", "153053.712500", "153054.172500", "153054.632500", "153055.092500", "153055.552500", "153056.012500", "153056.472500", "153056.932500", "153057.392500", "153057.852500", "153058.312500", "153058.772500", "153059.232500", "153059.692500", "153100.152500", "153100.612500", "153101.072500", "153101.532500", "153101.992500", "153102.452500", "153102.912500", "153103.372500", "153103.832500", "153104.292500", "153104.752500", "153105.212500", "153105.672500", "153106.132500", "153106.592500", "153107.052500", "153107.512500", "153107.972500", "153108.432500", "153108.892500", "153109.352500", "153109.812500", "153110.272500", "153110.732500", "153111.192500", "153111.652500", "153112.112500", "153112.572500", "153113.032500", "153113.492500", "153113.952500", "153114.412500", "153114.872500", "153115.332500", "153115.792500", "153116.252500", "153116.712500", "153117.172500", "153117.632500", "153118.092500", "153118.552500", "153119.012500", "153119.472500", "153119.932500", "153120.392500", "153120.852500", "153121.312500", "153121.772500", "153122.232500", "153122.692500", "153123.152500", "153123.612500", "153124.072500", "153124.532500", "153124.992500", "153125.452500", "153125.912500", "153126.372500", "153126.832500", "153127.292500", "153127.752500", "153128.212500", "153128.672500", "153129.132500"],
