{
  "AcquisitionMatrixPE": 82,
  "AcquisitionNumber": 1,
  "AcquisitionTime": "15:51:54.875000",
  "BandwidthPerPixelPhaseEncode": 24.888,
  "BaseResolution": 82,
  "BodyPartExamined": "BRAIN",
  "ConsistencyInfo": "N4_VE11C_LATEST_20160120",
  "ConversionSoftware": "dcm2niix",
  "ConversionSoftwareVersion": "v1.0.20201102",
  "DerivedVendorReportedEchoSpacing": 0.00049,
  "DeviceSerialNumber": "66112",
  "DwellTime": 2e-06,
  "EchoTime": 0.0272,
  "EchoTrainLength": 82,
  "EffectiveEchoSpacing": 0.00049,
  "FlipAngle": 44,
  "ImageComments": "Unaliased MB8/PE3",
  "ImageOrientationPatientDICOM": [0.999813, 0.0189415, 0.00380707, -0.0190228, 0.999564, 0.0225947],
  "ImageType": [
    "ORIGINAL",
    "PRIMARY",
    "M",
    "MB",
    "ND",
    "NORM",
    "MOSAIC"
],
  "ImagingFrequency": 123.252,
  "InPlanePhaseEncodingDirectionDICOM": "COL",
  "InstitutionAddress": "Maynard 3,Hanover,NH,US,03755",
  "InstitutionName": "Dartmouth College - PBS",
  "InstitutionalDepartmentName": "Department",
  "MRAcquisitionType": "2D",
  "MagneticFieldStrength": 3,
  "Manufacturer": "Siemens",
  "ManufacturersModelName": "Prisma",
  "Modality": "MR",
  "MultibandAccelerationFactor": 8,
  "PartialFourier": 1,
  "PatientPosition": "HFS",
  "PercentPhaseFOV": 100,
  "PercentSampling": 100,
  "PhaseEncodingDirection": "j-",
  "PhaseEncodingSteps": 82,
  "PhaseResolution": 1,
  "PixelBandwidth": 3050,
  "ProcedureStepDescription": "Wager_Wager^1076_spacetop",
  "ProtocolName": "func_run-01_task-faces_acq-ap-mb8",
  "PulseSequenceDetails": "%CustomerSeq%\\cmrr_mbep2d_bold",
  "ReceiveCoilActiveElements": "HEA;HEP",
  "ReceiveCoilName": "Head_32",
  "ReconMatrixPE": 82,
  "RepetitionTime": 0.46,
  "SAR": 0.0934971,
  "ScanOptions": "FS",
  "ScanningSequence": "EP",
  "SequenceName": "epfid2d1_82",
  "SequenceVariant": "SK\\SS",
  "SeriesDescription": "func_run-01_task-faces_acq-ap-mb8",
  "SeriesNumber": 20,
  "ShimSetting": [4164, -7773, -7153, 634, -32, -208, 18, 20],
  "SliceThickness": 2.7,
  "SliceTiming": [0, 0.25, 0.0625, 0.3125, 0.125, 0.375, 0.1875, 0, 0.25, 0.0625, 0.3125, 0.125, 0.375, 0.1875, 0, 0.25, 0.0625, 0.3125, 0.125, 0.375, 0.1875, 0, 0.25, 0.0625, 0.3125, 0.125, 0.375, 0.1875, 0, 0.25, 0.0625, 0.3125, 0.125, 0.375, 0.1875, 0, 0.25, 0.0625, 0.3125, 0.125, 0.375, 0.1875, 0, 0.25, 0.0625, 0.3125, 0.125, 0.375, 0.1875, 0, 0.25, 0.0625, 0.3125, 0.125, 0.375, 0.1875],
  "SoftwareVersions": "syngo MR E11",
  "SpacingBetweenSlices": 2.7,
  "StationName": "AWP66112",
  "TaskName": "faces",
  "TotalReadoutTime": 0.03969,
  "TxRefAmp": 239.614,
  "WipMemBlock": "98bbc7cd-5d22-49d3-aef8-3846ac8e1f99||Sequence: R016 ve11c/master r/e634e98; Dec 19 2017 11:00:25 by eja",
  "dcmmeta_affine": [
    [-2.6824262142181396, -0.05103689059615135, 0.009119054302573204, 112.94798278808594],
    [-0.050818752497434616, 2.6817562580108643, 0.06118994951248169, -92.594482421875],
    [0.010214084759354591, -0.060620035976171494, 2.6992909908294678, -26.609756469726562],
    [0.0, 0.0, 0.0, 1.0]
],
  "dcmmeta_reorient_transform": [
    [0.0, -1.0, 0.0, 81.0],
    [1.0, 0.0, 0.0, 0.0],
    [0.0, 0.0, 1.0, 0.0],
    [0.0, 0.0, 0.0, 1.0]
],
  "dcmmeta_shape": [82, 82, 56, 914],
  "dcmmeta_slice_dim": 2,
  "dcmmeta_version": 0.6,
  "global": {
    "const": {
      "AccessionNumber": "A003475",
      "AcquisitionMatrix": [82, 0, 0, 82],
      "AngioFlag": "N",
      "BitsAllocated": 16,
      "BitsStored": 16,
      "BodyPartExamined": "BRAIN",
      "Columns": 656,
      "EchoNumbers": 1,
      "EchoTime": 27.2,
      "EchoTrainLength": 82,
      "FlipAngle": 44.0,
      "HighBit": 15,
      "ImageOrientationPatient": [0.99981334482889, 0.01894153470145, 0.00380706779829, -0.0190228411097, 0.99956370943096, 0.02259474064324],
      "ImagePositionPatient": [-864.02270216267, -908.87683743852, -51.849371859194],
      "ImageType": [
        "ORIGINAL",
        "PRIMARY",
        "M",
        "MB",
        "ND",
        "NORM",
        "MOSAIC"
],
      "ImagedNucleus": "1H",
      "ImagingFrequency": 123.252092,
      "InPlanePhaseEncodingDirection": "COL",
      "MRAcquisitionType": "2D",
      "MagneticFieldStrength": 3.0,
      "Manufacturer": "SIEMENS",
      "ManufacturerModelName": "Prisma",
      "Modality": "MR",
      "NumberOfAverages": 1.0,
      "NumberOfPhaseEncodingSteps": 82,
      "PercentPhaseFieldOfView": 100.0,
      "PercentSampling": 100.0,
      "PerformedProcedureStepStartTime": "144227.196000",
      "PhotometricInterpretation": "MONOCHROME2",
      "PixelBandwidth": 3050.0,
      "PixelRepresentation": 0,
      "PixelSpacing": [2.6829268932343, 2.6829268932343],
      "ProtocolName": "func_run-01_task-faces_acq-ap-mb8",
      "RepetitionTime": 460.0,
      "Rows": 656,
      "SAR": 0.09349713379373,
      "SamplesPerPixel": 1,
      "ScanOptions": "FS",
      "ScanningSequence": "EP",
      "SequenceName": "epfid2d1_82",
      "SequenceVariant": [
        "SK",
        "SS"
],
      "SeriesDescription": "func_run-01_task-faces_acq-ap-mb8",
      "SeriesNumber": 20,
      "SeriesTime": "155214.186000",
      "SliceLocation": -28.319759656205,
      "SliceThickness": 2.7000000476837,
      "SmallestImagePixelValue": 0,
      "SoftwareVersions": "syngo MR E11",
      "SpacingBetweenSlices": 2.6999999556005,
      "SpecificCharacterSet": "ISO_IR 100",
      "StudyID": "2",
      "StudyTime": "144227.139000",
      "TransmitCoilName": "Body",
      "VariableFlipAngleFlag": "N",
      "WindowCenterWidthExplanation": "Algo1",
      "dBdt": 0.0},
    "slices": {}
  },
  "time": {
    "samples": {
      "AcquisitionNumber": [1, 2, 3, 4, 5, 6, 7, 8, 9, 10, 11, 12, 13, 14, 15, 16, 17, 18, 19, 20, 21, 22, 23, 24, 25, 26, 27, 28, 29, 30, 31, 32, 33, 34, 35, 36, 37, 38, 39, 40, 41, 42, 43, 44, 45, 46, 47, 48, 49, 50, 51, 52, 53, 54, 55, 56, 57, 58, 59, 60, 61, 62, 63, 64, 65, 66, 67, 68, 69, 70, 71, 72, 73, 74, 75, 76, 77, 78, 79, 80, 81, 82, 83, 84, 85, 86, 87, 88, 89, 90, 91, 92, 93, 94, 95, 96, 97, 98, 99, 100, 101, 102, 103, 104, 105, 106, 107, 108, 109, 110, 111, 112, 113, 114, 115, 116, 117, 118, 119, 120, 121, 122, 123, 124, 125, 126, 127, 128, 129, 130, 131, 132, 133, 134, 135, 136, 137, 138, 139, 140, 141, 142, 143, 144, 145, 146, 147, 148, 149, 150, 151, 152, 153, 154, 155, 156, 157, 158, 159, 160, 161, 162, 163, 164, 165, 166, 167, 168, 169, 170, 171, 172, 173, 174, 175, 176, 177, 178, 179, 180, 181, 182, 183, 184, 185, 186, 187, 188, 189, 190, 191, 192, 193, 194, 195, 196, 197, 198, 199, 200, 201, 202, 203, 204, 205, 206, 207, 208, 209, 210, 211, 212, 213, 214, 215, 216, 217, 218, 219, 220, 221, 222, 223, 224, 225, 226, 227, 228, 229, 230, 231, 232, 233, 234, 235, 236, 237, 238, 239, 240, 241, 242, 243, 244, 245, 246, 247, 248, 249, 250, 251, 252, 253, 254, 255, 256, 257, 258, 259, 260, 261, 262, 263, 264, 265, 266, 267, 268, 269, 270, 271, 272, 273, 274, 275, 276, 277, 278, 279, 280, 281, 282, 283, 284, 285, 286, 287, 288, 289, 290, 291, 292, 293, 294, 295, 296, 297, 298, 299, 300, 301, 302, 303, 304, 305, 306, 307, 308, 309, 310, 311, 312, 313, 314, 315, 316, 317, 318, 319, 320, 321, 322, 323, 324, 325, 326, 327, 328, 329, 330, 331, 332, 333, 334, 335, 336, 337, 338, 339, 340, 341, 342, 343, 344, 345, 346, 347, 348, 349, 350, 351, 352, 353, 354, 355, 356, 357, 358, 359, 360, 361, 362, 363, 364, 365, 366, 367, 368, 369, 370, 371, 372, 373, 374, 375, 376, 377, 378, 379, 380, 381, 382, 383, 384, 385, 386, 387, 388, 389, 390, 391, 392, 393, 394, 395, 396, 397, 398, 399, 400, 401, 402, 403, 404, 405, 406, 407, 408, 409, 410, 411, 412, 413, 414, 415, 416, 417, 418, 419, 420, 421, 422, 423, 424, 425, 426, 427, 428, 429, 430, 431, 432, 433, 434, 435, 436, 437, 438, 439, 440, 441, 442, 443, 444, 445, 446, 447, 448, 449, 450, 451, 452, 453, 454, 455, 456, 457, 458, 459, 460, 461, 462, 463, 464, 465, 466, 467, 468, 469, 470, 471, 472, 473, 474, 475, 476, 477, 478, 479, 480, 481, 482, 483, 484, 485, 486, 487, 488, 489, 490, 491, 492, 493, 494, 495, 496, 497, 498, 499, 500, 501, 502, 503, 504, 505, 506, 507, 508, 509, 510, 511, 512, 513, 514, 515, 516, 517, 518, 519, 520, 521, 522, 523, 524, 525, 526, 527, 528, 529, 530, 531, 532, 533, 534, 535, 536, 537, 538, 539, 540, 541, 542, 543, 544, 545, 546, 547, 548, 549, 550, 551, 552, 553, 554, 555, 556, 557, 558, 559, 560, 561, 562, 563, 564, 565, 566, 567, 568, 569, 570, 571, 572, 573, 574, 575, 576, 577, 578, 579, 580, 581, 582, 583, 584, 585, 586, 587, 588, 589, 590, 591, 592, 593, 594, 595, 596, 597, 598, 599, 600, 601, 602, 603, 604, 605, 606, 607, 608, 609, 610, 611, 612, 613, 614, 615, 616, 617, 618, 619, 620, 621, 622, 623, 624, 625, 626, 627, 628, 629, 630, 631, 632, 633, 634, 635, 636, 637, 638, 639, 640, 641, 642, 643, 644, 645, 646, 647, 648, 649, 650, 651, 652, 653, 654, 655, 656, 657, 658, 659, 660, 661, 662, 663, 664, 665, 666, 667, 668, 669, 670, 671, 672, 673, 674, 675, 676, 677, 678, 679, 680, 681, 682, 683, 684, 685, 686, 687, 688, 689, 690, 691, 692, 693, 694, 695, 696, 697, 698, 699, 700, 701, 702, 703, 704, 705, 706, 707, 708, 709, 710, 711, 712, 713, 714, 715, 716, 717, 718, 719, 720, 721, 722, 723, 724, 725, 726, 727, 728, 729, 730, 731, 732, 733, 734, 735, 736, 737, 738, 739, 740, 741, 742, 743, 744, 745, 746, 747, 748, 749, 750, 751, 752, 753, 754, 755, 756, 757, 758, 759, 760, 761, 762, 763, 764, 765, 766, 767, 768, 769, 770, 771, 772, 773, 774, 775, 776, 777, 778, 779, 780, 781, 782, 783, 784, 785, 786, 787, 788, 789, 790, 791, 792, 793, 794, 795, 796, 797, 798, 799, 800, 801, 802, 803, 804, 805, 806, 807, 808, 809, 810, 811, 812, 813, 814, 815, 816, 817, 818, 819, 820, 821, 822, 823, 824, 825, 826, 827, 828, 829, 830, 831, 832, 833, 834, 835, 836, 837, 838, 839, 840, 841, 842, 843, 844, 845, 846, 847, 848, 849, 850, 851, 852, 853, 854, 855, 856, 857, 858, 859, 860, 861, 862, 863, 864, 865, 866, 867, 868, 869, 870, 871, 872, 873, 874, 875, 876, 877, 878, 879, 880, 881, 882, 883, 884, 885, 886, 887, 888, 889, 890, 891, 892, 893, 894, 895, 896, 897, 898, 899, 900, 901, 902, 903, 904, 905, 906, 907, 908, 909, 910, 911, 912, 913, 914],
      "AcquisitionTime": ["155154.875000", "155155.335000", "155155.795000", "155156.255000", "155156.715000", "155157.175000", "155157.635000", "155158.095000", "155158.555000", "155159.015000", "155159.475000", "155159.935000", "155200.395000", "155200.855000", "155201.315000", "155201.775000", "155202.235000", "155202.695000", "155203.155000", "155203.615000", "155204.075000", "155204.535000", "155204.995000", "155205.455000", "155205.915000", "155206.375000", "155206.835000", "155207.295000", "155207.755000", "155208.215000", "155208.675000", "155209.135000", "155209.595000", "155210.055000", "155210.515000", "155210.975000", "155211.435000", "155211.895000", "155212.355000", "155212.815000", "155213.275000", "155213.735000", "155214.195000", "155214.655000", "155215.115000", "155215.575000", "155216.035000", "155216.495000", "155216.955000", "155217.415000", "155217.875000", "155218.335000", "155218.795000", "155219.255000", "155219.715000", "155220.175000", "155220.635000", "155221.095000", "155221.555000", "155222.015000", "155222.475000", "155222.935000", "155223.395000", "155223.855000", "155224.315000", "155224.775000", "155225.235000", "155225.695000", "155226.155000", "155226.615000", "155227.075000", "155227.535000", "155227.995000", "155228.455000", "155228.915000", "155229.375000", "155229.835000", "155230.295000", "155230.755000", "155231.215000", "155231.675000", "155232.135000", "155232.595000", "155233.055000", "155233.515000", "155233.975000", "155234.435000", "155234.895000", "155235.355000", "155235.815000", "155236.275000", "155236.735000", "155237.195000", "155237.655000", "155238.115000", "155238.575000", "155239.035000", "155239.495000", "155239.955000", "155240.415000", "155240.875000", "155241.335000", "155241.795000", "155242.255000", "155242.715000", "155243.175000", "155243.635000", "155244.095000", "155244.555000", "155245.015000", "155245.475000", "155245.935000", "155246.395000", "155246.855000", "155247.315000", "155247.775000", "155248.235000", "155248.695000", "155249.155000", "155249.615000", "155250.075000", "155250.535000", "155250.995000", "155251.455000", "155251.915000", "155252.375000", "155252.835000", "155253.295000", "155253.755000", "155254.215000", "155254.675000", "155255.135000", "155255.595000", "155256.055000", "155256.515000", "155256.975000", "155257.435000", "155257.895000", "155258.355000", "155258.815000", "155259.275000", "155259.735000", "155300.195000", "155300.655000", "155301.115000", "155301.575000", "155302.035000", "155302.495000", "155302.955000", "155303.415000", "155303.875000", "155304.335000", "155304.795000", "155305.255000", "155305.715000", "155306.175000", "155306.635000", "155307.095000", "155307.555000", "155308.015000", "155308.475000", "155308.935000", "155309.395000", "155309.855000", "155310.315000", "155310.775000", "155311.235000", "155311.695000", "155312.155000", "155312.615000", "155313.075000", "155313.535000", "155313.995000", "155314.455000", "155314.915000", "155315.375000", "155315.835000", "155316.295000", "155316.755000", "155317.215000", "155317.675000", "155318.135000", "155318.595000", "155319.055000", "155319.515000", "155319.975000", "155320.435000", "155320.895000", "155321.355000", "155321.815000", "155322.275000", "155322.735000", "155323.195000", "155323.655000", "155324.115000", "155324.575000", "155325.035000", "155325.495000", "155325.955000", "155326.415000", "155326.875000", "155327.335000", "155327.795000", "155328.255000", "155328.715000", "155329.175000", "155329.635000", "155330.095000", "155330.555000", "155331.015000", "155331.475000", "155331.935000", "155332.395000", "155332.855000", "155333.315000", "155333.775000", "155334.235000", "155334.695000", "155335.155000", "155335.615000", "155336.075000", "155336.535000", "155336.995000", "155337.455000", "155337.915000", "155338.375000", "155338.835000", "155339.295000", "155339.755000", "155340.215000", "155340.675000", "155341.135000", "155341.595000", "155342.055000", "155342.515000", "155342.975000", "155343.435000", "155343.895000", "155344.355000", "155344.815000", "155345.275000", "155345.735000", "155346.195000", "155346.655000", "155347.115000", "155347.575000", "155348.035000", "155348.495000", "155348.955000", "155349.415000", "155349.875000", "155350.335000", "155350.795000", "155351.255000", "155351.715000", "155352.175000", "155352.635000", "155353.095000", "155353.555000", "155354.015000", "155354.475000", "155354.935000", "155355.395000", "155355.855000", "155356.315000", "155356.775000", "155357.235000", "155357.695000", "155358.155000", "155358.615000", "155359.075000", "155359.535000", "155359.995000", "155400.455000", "155400.915000", "155401.375000", "155401.835000", "155402.295000", "155402.755000", "155403.215000", "155403.675000", "155404.135000", "155404.595000", "155405.055000", "155405.515000", "155405.975000", "155406.435000", "155406.895000", "155407.355000", "155407.815000", "155408.275000", "155408.735000", "155409.195000", "155409.655000", "155410.115000", "155410.575000", "155411.035000", "155411.495000", "155411.955000", "155412.415000", "155412.875000", "155413.335000", "155413.795000", "155414.255000", "155414.715000", "155415.175000", "155415.635000", "155416.095000", "155416.555000", "155417.015000", "155417.475000", "155417.935000", "155418.395000", "155418.855000", "155419.315000", "155419.775000", "155420.235000", "155420.695000", "155421.155000", "155421.615000", "155422.075000", "155422.535000", "155422.995000", "155423.455000", "155423.915000", "155424.375000", "155424.835000", "155425.295000", "155425.755000", "155426.215000", "155426.675000", "155427.135000", "155427.595000", "155428.055000", "155428.515000", "155428.975000", "155429.435000", "155429.895000", "155430.355000", "155430.815000", "155431.275000", "155431.735000", "155432.195000", "155432.655000", "155433.115000", "155433.575000", "155434.035000", "155434.495000", "155434.955000", "155435.415000", "155435.875000", "155436.335000", "155436.795000", "155437.255000", "155437.715000", "155438.175000", "155438.635000", "155439.095000", "155439.555000", "155440.015000", "155440.475000", "155440.935000", "155441.395000", "155441.855000", "155442.315000", "155442.775000", "155443.235000", "155443.695000", "155444.155000", "155444.615000", "155445.075000", "155445.535000", "155445.995000", "155446.455000", "155446.915000", "155447.375000", "155447.835000", "155448.295000", "155448.755000", "155449.215000", "155449.675000", "155450.135000", "155450.595000", "155451.055000", "155451.515000", "155451.975000", "155452.435000", "155452.895000", "155453.355000", "155453.815000", "155454.275000", "155454.735000", "155455.195000", "155455.655000", "155456.115000", "155456.575000", "155457.035000", "155457.495000", "155457.955000", "155458.415000", "155458.875000", "155459.335000", "155459.795000", "155500.255000", "155500.715000", "155501.175000", "155501.635000", "155502.095000", "155502.555000", "155503.015000", "155503.475000", "155503.935000", "155504.395000", "155504.855000", "155505.315000", "155505.775000", "155506.235000", "155506.695000", "155507.155000", "155507.615000", "155508.075000", "155508.535000", "155508.995000", "155509.455000", "155509.915000", "155510.375000", "155510.835000", "155511.295000", "155511.755000", "155512.215000", "155512.675000", "155513.135000", "155513.595000", "155514.055000", "155514.515000", "155514.975000", "155515.435000", "155515.895000", "155516.355000", "155516.815000", "155517.275000", "155517.735000", "155518.195000", "155518.655000", "155519.115000", "155519.575000", "155520.035000", "155520.495000", "155520.955000", "155521.415000", "155521.875000", "155522.335000", "155522.795000", "155523.255000", "155523.715000", "155524.175000", "155524.635000", "155525.095000", "155525.555000", "155526.015000", "155526.475000", "155526.935000", "155527.395000", "155527.855000", "155528.315000", "155528.775000", "155529.235000", "155529.695000", "155530.155000", "155530.615000", "155531.075000", "155531.535000", "155531.995000", "155532.455000", "155532.915000", "155533.375000", "155533.835000", "155534.295000", "155534.755000", "155535.215000", "155535.675000", "155536.135000", "155536.595000", "155537.055000", "155537.515000", "155537.975000", "155538.435000", "155538.895000", "155539.355000", "155539.815000", "155540.275000", "155540.735000", "155541.195000", "155541.655000", "155542.115000", "155542.575000", "155543.035000", "155543.495000", "155543.955000", "155544.415000", "155544.875000", "155545.335000", "155545.795000", "155546.255000", "155546.715000", "155547.175000", "155547.635000", "155548.095000", "155548.555000", "155549.015000", "155549.475000", "155549.935000", "155550.395000", "155550.855000", "155551.315000", "155551.775000", "155552.235000", "155552.695000", "155553.155000", "155553.615000", "155554.075000", "155554.535000", "155554.995000", "155555.455000", "155555.915000", "155556.375000", "155556.835000", "155557.295000", "155557.755000", "155558.215000", "155558.675000", "155559.135000", "155559.595000", "155600.055000", "155600.515000", "155600.975000", "155601.435000", "155601.895000", "155602.355000", "155602.815000", "155603.275000", "155603.735000", "155604.195000", "155604.655000", "155605.115000", "155605.575000", "155606.035000", "155606.495000", "155606.955000", "155607.415000", "155607.875000", "155608.335000", "155608.795000", "155609.255000", "155609.715000", "155610.175000", "155610.635000", "155611.095000", "155611.555000", "155612.015000", "155612.475000", "155612.935000", "155613.395000", "155613.855000", "155614.315000", "155614.775000", "155615.235000", "155615.695000", "155616.155000", "155616.615000", "155617.075000", "155617.535000", "155617.995000", "155618.455000", "155618.915000", "155619.375000", "155619.835000", "155620.295000", "155620.755000", "155621.215000", "155621.675000", "155622.135000", "155622.595000", "155623.055000", "155623.515000", "155623.975000", "155624.435000", "155624.895000", "155625.355000", "155625.815000", "155626.275000", "155626.735000", "155627.195000", "155627.655000", "155628.115000", "155628.575000", "155629.035000", "155629.495000", "155629.955000", "155630.415000", "155630.875000", "155631.335000", "155631.795000", "155632.255000", "155632.715000", "155633.175000", "155633.635000", "155634.095000", "155634.555000", "155635.015000", "155635.475000", "155635.935000", "155636.395000", "155636.855000", "155637.315000", "155637.775000", "155638.235000", "155638.695000", "155639.155000", "155639.615000", "155640.075000", "155640.535000", "155640.995000", "155641.455000", "155641.915000", "155642.375000", "155642.835000", "155643.295000", "155643.755000", "155644.215000", "155644.675000", "155645.135000", "155645.595000", "155646.055000", "155646.515000", "155646.975000", "155647.435000", "155647.895000", "155648.355000", "155648.815000", "155649.275000", "155649.735000", "155650.195000", "155650.655000", "155651.115000", "155651.575000", "155652.035000", "155652.495000", "155652.955000", "155653.415000", "155653.875000", "155654.335000", "155654.795000", "155655.255000", "155655.715000", "155656.175000", "155656.635000", "155657.095000", "155657.555000", "155658.015000", "155658.475000", "155658.935000", "155659.395000", "155659.855000", "155700.315000", "155700.775000", "155701.235000", "155701.695000", "155702.155000", "155702.615000", "155703.075000", "155703.535000", "155703.995000", "155704.455000", "155704.915000", "155705.375000", "155705.835000", "155706.295000", "155706.755000", "155707.215000", "155707.675000", "155708.135000", "155708.595000", "155709.055000", "155709.515000", "155709.975000", "155710.435000", "155710.895000", "155711.355000", "155711.815000", "155712.275000", "155712.735000", "155713.195000", "155713.655000", "155714.115000", "155714.575000", "155715.035000", "155715.495000", "155715.955000", "155716.415000", "155716.875000", "155717.335000", "155717.795000", "155718.255000", "155718.715000", "155719.175000", "155719.635000", "155720.095000", "155720.555000", "155721.015000", "155721.475000", "155721.935000", "155722.395000", "155722.855000", "155723.315000", "155723.775000", "155724.235000", "155724.695000", "155725.155000", "155725.615000", "155726.075000", "155726.535000", "155726.995000", "155727.455000", "155727.915000", "155728.375000", "155728.835000", "155729.295000", "155729.755000", "155730.215000", "155730.675000", "155731.135000", "155731.595000", "155732.055000", "155732.515000", "155732.975000", "155733.435000", "155733.895000", "155734.355000", "155734.815000", "155735.275000", "155735.735000", "155736.195000", "155736.655000", "155737.115000", "155737.575000", "155738.035000", "155738.495000", "155738.955000", "155739.415000", "155739.875000", "155740.335000", "155740.795000", "155741.255000", "155741.715000", "155742.175000", "155742.635000", "155743.095000", "155743.555000", "155744.015000", "155744.475000", "155744.935000", "155745.395000", "155745.855000", "155746.315000", "155746.775000", "155747.235000", "155747.695000", "155748.155000", "155748.615000", "155749.075000", "155749.535000", "155749.995000", "155750.455000", "155750.915000", "155751.375000", "155751.835000", "155752.295000", "155752.755000", "155753.215000", "155753.675000", "155754.135000", "155754.595000", "155755.055000", "155755.515000", "155755.975000", "155756.435000", "155756.895000", "155757.355000", "155757.815000", "155758.275000", "155758.735000", "155759.195000", "155759.655000", "155800.115000", "155800.575000", "155801.035000", "155801.495000", "155801.955000", "155802.415000", "155802.875000", "155803.335000", "155803.795000", "155804.255000", "155804.715000", "155805.175000", "155805.635000", "155806.095000", "155806.555000", "155807.015000", "155807.475000", "155807.935000", "155808.395000", "155808.855000", "155809.315000", "155809.775000", "155810.235000", "155810.695000", "155811.155000", "155811.615000", "155812.075000", "155812.535000", "155812.995000", "155813.455000", "155813.915000", "155814.375000", "155814.835000", "155815.295000", "155815.755000", "155816.215000", "155816.675000", "155817.135000", "155817.595000", "155818.055000", "155818.515000", "155818.975000", "155819.435000", "155819.895000", "155820.355000", "155820.815000", "155821.275000", "155821.735000", "155822.195000", "155822.655000", "155823.115000", "155823.575000", "155824.035000", "155824.495000", "155824.955000", "155825.415000", "155825.875000", "155826.335000", "155826.795000", "155827.255000", "155827.715000", "155828.175000", "155828.635000", "155829.095000", "155829.555000", "155830.015000", "155830.475000", "155830.935000", "155831.395000", "155831.855000", "155832.315000", "155832.775000", "155833.235000", "155833.695000", "155834.155000", "155834.615000", "155835.075000", "155835.535000", "155835.995000", "155836.455000", "155836.915000", "155837.375000", "155837.835000", "155838.295000", "155838.755000", "155839.215000", "155839.675000", "155840.135000", "155840.595000", "155841.055000", "155841.515000", "155841.975000", "155842.435000", "155842.895000", "155843.355000", "155843.815000", "155844.275000", "155844.735000", "155845.195000", "155845.655000", "155846.115000", "155846.575000", "155847.035000", "155847.495000", "155847.955000", "155848.415000", "155848.875000", "155849.335000", "155849.795000", "155850.255000", "155850.715000", "155851.175000", "155851.635000", "155852.095000", "155852.555000", "155853.015000", "155853.475000", "155853.935000", "155854.395000", "155854.855000"],
