{
  "AcquisitionMatrixPE": 82,
  "AcquisitionNumber": 1,
  "AcquisitionTime": "16:48:38.057500",
  "BandwidthPerPixelPhaseEncode": 24.888,
  "BaseResolution": 82,
  "BodyPartExamined": "BRAIN",
  "ConsistencyInfo": "N4_VE11C_LATEST_20160120",
  "ConversionSoftware": "dcm2niix",
  "ConversionSoftwareVersion": "v1.0.20201102",
  "DerivedVendorReportedEchoSpacing": 0.00049,
  "DeviceSerialNumber": "66112",
  "DwellTime": 2e-06,
  "EchoTime": 0.0272,
  "EchoTrainLength": 82,
  "EffectiveEchoSpacing": 0.00049,
  "FlipAngle": 44,
  "ImageComments": "Unaliased MB8/PE3",
  "ImageOrientationPatientDICOM": [0.999818, 0.0187103, 0.00379972, -0.019023, 0.993201, 0.114845],
  "ImageType": [
    "ORIGINAL",
    "PRIMARY",
    "M",
    "MB",
    "ND",
    "NORM",
    "MOSAIC"
],
  "ImagingFrequency": 123.252,
  "InPlanePhaseEncodingDirectionDICOM": "COL",
  "InstitutionAddress": "Maynard 3,Hanover,NH,US,03755",
  "InstitutionName": "Dartmouth College - PBS",
  "InstitutionalDepartmentName": "Department",
  "MRAcquisitionType": "2D",
  "MagneticFieldStrength": 3,
  "Manufacturer": "Siemens",
  "ManufacturersModelName": "Prisma",
  "Modality": "MR",
  "MultibandAccelerationFactor": 8,
  "PartialFourier": 1,
  "PatientPosition": "HFS",
  "PercentPhaseFOV": 100,
  "PercentSampling": 100,
  "PhaseEncodingDirection": "j-",
  "PhaseEncodingSteps": 82,
  "PhaseResolution": 1,
  "PixelBandwidth": 3050,
  "ProcedureStepDescription": "Wager_Wager^1076_spacetop",
  "ProtocolName": "func_run-04_task-alignvideo_acq-ap-mb8",
  "PulseSequenceDetails": "%CustomerSeq%\\cmrr_mbep2d_bold",
  "ReceiveCoilActiveElements": "HEA;HEP",
  "ReceiveCoilName": "Head_32",
  "ReconMatrixPE": 82,
  "RepetitionTime": 0.46,
  "SAR": 0.0934971,
  "ScanOptions": "FS",
  "ScanningSequence": "EP",
  "SequenceName": "epfid2d1_82",
  "SequenceVariant": "SK\\SS",
  "SeriesDescription": "func_run-04_task-alignvideo_acq-ap-mb8",
  "SeriesNumber": 38,
  "ShimSetting": [4164, -7776, -7169, 596, -30, -218, 25, 20],
  "SliceThickness": 2.7,
  "SliceTiming": [0, 0.2525, 0.065, 0.315, 0.1275, 0.3775, 0.19, 0, 0.2525, 0.065, 0.315, 0.1275, 0.3775, 0.19, 0, 0.2525, 0.065, 0.315, 0.1275, 0.3775, 0.19, 0, 0.2525, 0.065, 0.315, 0.1275, 0.3775, 0.19, 0, 0.2525, 0.065, 0.315, 0.1275, 0.3775, 0.19, 0, 0.2525, 0.065, 0.315, 0.1275, 0.3775, 0.19, 0, 0.2525, 0.065, 0.315, 0.1275, 0.3775, 0.19, 0, 0.2525, 0.065, 0.315, 0.1275, 0.3775, 0.19],
  "SoftwareVersions": "syngo MR E11",
  "SpacingBetweenSlices": 2.7,
  "StationName": "AWP66112",
  "TaskName": "alignvideo",
  "TotalReadoutTime": 0.03969,
  "TxRefAmp": 239.614,
  "WipMemBlock": "1f493254-275a-40f1-aaeb-58904040fc65||Sequence: R016 ve11c/master r/e634e98; Dec 19 2017 11:00:25 by eja",
  "dcmmeta_affine": [
    [-2.6824378967285156, -0.05103723332285881, 0.0043877423740923405, 113.08210754394531],
    [-0.05019844323396683, 2.6646862030029297, 0.3102211058139801, -99.345947265625],
    [0.010194364003837109, -0.3081217110157013, 2.6821155548095703, -18.072921752929688],
    [0.0, 0.0, 0.0, 1.0]
],
  "dcmmeta_reorient_transform": [
    [0.0, -1.0, 0.0, 81.0],
    [1.0, 0.0, 0.0, 0.0],
    [0.0, 0.0, 1.0, 0.0],
    [0.0, 0.0, 0.0, 1.0]
],
  "dcmmeta_shape": [82, 82, 56, 914],
  "dcmmeta_slice_dim": 2,
  "dcmmeta_version": 0.6,
  "global": {
    "const": {
      "AccessionNumber": "A003475",
      "AcquisitionMatrix": [82, 0, 0, 82],
      "AngioFlag": "N",
      "BitsAllocated": 16,
      "BitsStored": 16,
      "BodyPartExamined": "BRAIN",
      "Columns": 656,
      "EchoNumbers": 1,
      "EchoTime": 27.2,
      "EchoTrainLength": 82,
      "FlipAngle": 44.0,
      "HighBit": 15,
      "ImageOrientationPatient": [0.99981772626232, 0.01871032864669, 0.00379971756653, -0.0190229686143, 0.9932012236654, 0.11484535678315],
      "ImagePositionPatient": [-864.16007386931, -895.66555737876, -134.38748816846],
      "ImageType": [
        "ORIGINAL",
        "PRIMARY",
        "M",
        "MB",
        "ND",
        "NORM",
        "MOSAIC"
],
      "ImagedNucleus": "1H",
      "ImagingFrequency": 123.252112,
      "InPlanePhaseEncodingDirection": "COL",
      "MRAcquisitionType": "2D",
      "MagneticFieldStrength": 3.0,
      "Manufacturer": "SIEMENS",
      "ManufacturerModelName": "Prisma",
      "Modality": "MR",
      "NumberOfAverages": 1.0,
      "NumberOfPhaseEncodingSteps": 82,
      "PercentPhaseFieldOfView": 100.0,
      "PercentSampling": 100.0,
      "PerformedProcedureStepStartTime": "144227.196000",
      "PhotometricInterpretation": "MONOCHROME2",
      "PixelBandwidth": 3050.0,
      "PixelRepresentation": 0,
      "PixelSpacing": [2.6829268932343, 2.6829268932343],
      "ProtocolName": "func_run-04_task-alignvideo_acq-ap-mb8",
      "RepetitionTime": 460.0,
      "Rows": 656,
      "SAR": 0.09349713379373,
      "SamplesPerPixel": 1,
      "ScanOptions": "FS",
      "ScanningSequence": "EP",
      "SequenceName": "epfid2d1_82",
      "SequenceVariant": [
        "SK",
        "SS"
],
      "SeriesDescription": "func_run-04_task-alignvideo_acq-ap-mb8",
      "SeriesNumber": 38,
      "SeriesTime": "164854.192000",
      "SliceLocation": -29.183961547352,
      "SliceThickness": 2.7000000476837,
      "SmallestImagePixelValue": 0,
      "SoftwareVersions": "syngo MR E11",
      "SpacingBetweenSlices": 2.6999999407158,
      "SpecificCharacterSet": "ISO_IR 100",
      "StudyID": "2",
      "StudyTime": "144227.139000",
      "TransmitCoilName": "Body",
      "VariableFlipAngleFlag": "N",
      "WindowCenterWidthExplanation": "Algo1",
      "dBdt": 0.0},
    "slices": {}
  },
  "time": {
    "samples": {
      "AcquisitionNumber": [1, 2, 3, 4, 5, 6, 7, 8, 9, 10, 11, 12, 13, 14, 15, 16, 17, 18, 19, 20, 21, 22, 23, 24, 25, 26, 27, 28, 29, 30, 31, 32, 33, 34, 35, 36, 37, 38, 39, 40, 41, 42, 43, 44, 45, 46, 47, 48, 49, 50, 51, 52, 53, 54, 55, 56, 57, 58, 59, 60, 61, 62, 63, 64, 65, 66, 67, 68, 69, 70, 71, 72, 73, 74, 75, 76, 77, 78, 79, 80, 81, 82, 83, 84, 85, 86, 87, 88, 89, 90, 91, 92, 93, 94, 95, 96, 97, 98, 99, 100, 101, 102, 103, 104, 105, 106, 107, 108, 109, 110, 111, 112, 113, 114, 115, 116, 117, 118, 119, 120, 121, 122, 123, 124, 125, 126, 127, 128, 129, 130, 131, 132, 133, 134, 135, 136, 137, 138, 139, 140, 141, 142, 143, 144, 145, 146, 147, 148, 149, 150, 151, 152, 153, 154, 155, 156, 157, 158, 159, 160, 161, 162, 163, 164, 165, 166, 167, 168, 169, 170, 171, 172, 173, 174, 175, 176, 177, 178, 179, 180, 181, 182, 183, 184, 185, 186, 187, 188, 189, 190, 191, 192, 193, 194, 195, 196, 197, 198, 199, 200, 201, 202, 203, 204, 205, 206, 207, 208, 209, 210, 211, 212, 213, 214, 215, 216, 217, 218, 219, 220, 221, 222, 223, 224, 225, 226, 227, 228, 229, 230, 231, 232, 233, 234, 235, 236, 237, 238, 239, 240, 241, 242, 243, 244, 245, 246, 247, 248, 249, 250, 251, 252, 253, 254, 255, 256, 257, 258, 259, 260, 261, 262, 263, 264, 265, 266, 267, 268, 269, 270, 271, 272, 273, 274, 275, 276, 277, 278, 279, 280, 281, 282, 283, 284, 285, 286, 287, 288, 289, 290, 291, 292, 293, 294, 295, 296, 297, 298, 299, 300, 301, 302, 303, 304, 305, 306, 307, 308, 309, 310, 311, 312, 313, 314, 315, 316, 317, 318, 319, 320, 321, 322, 323, 324, 325, 326, 327, 328, 329, 330, 331, 332, 333, 334, 335, 336, 337, 338, 339, 340, 341, 342, 343, 344, 345, 346, 347, 348, 349, 350, 351, 352, 353, 354, 355, 356, 357, 358, 359, 360, 361, 362, 363, 364, 365, 366, 367, 368, 369, 370, 371, 372, 373, 374, 375, 376, 377, 378, 379, 380, 381, 382, 383, 384, 385, 386, 387, 388, 389, 390, 391, 392, 393, 394, 395, 396, 397, 398, 399, 400, 401, 402, 403, 404, 405, 406, 407, 408, 409, 410, 411, 412, 413, 414, 415, 416, 417, 418, 419, 420, 421, 422, 423, 424, 425, 426, 427, 428, 429, 430, 431, 432, 433, 434, 435, 436, 437, 438, 439, 440, 441, 442, 443, 444, 445, 446, 447, 448, 449, 450, 451, 452, 453, 454, 455, 456, 457, 458, 459, 460, 461, 462, 463, 464, 465, 466, 467, 468, 469, 470, 471, 472, 473, 474, 475, 476, 477, 478, 479, 480, 481, 482, 483, 484, 485, 486, 487, 488, 489, 490, 491, 492, 493, 494, 495, 496, 497, 498, 499, 500, 501, 502, 503, 504, 505, 506, 507, 508, 509, 510, 511, 512, 513, 514, 515, 516, 517, 518, 519, 520, 521, 522, 523, 524, 525, 526, 527, 528, 529, 530, 531, 532, 533, 534, 535, 536, 537, 538, 539, 540, 541, 542, 543, 544, 545, 546, 547, 548, 549, 550, 551, 552, 553, 554, 555, 556, 557, 558, 559, 560, 561, 562, 563, 564, 565, 566, 567, 568, 569, 570, 571, 572, 573, 574, 575, 576, 577, 578, 579, 580, 581, 582, 583, 584, 585, 586, 587, 588, 589, 590, 591, 592, 593, 594, 595, 596, 597, 598, 599, 600, 601, 602, 603, 604, 605, 606, 607, 608, 609, 610, 611, 612, 613, 614, 615, 616, 617, 618, 619, 620, 621, 622, 623, 624, 625, 626, 627, 628, 629, 630, 631, 632, 633, 634, 635, 636, 637, 638, 639, 640, 641, 642, 643, 644, 645, 646, 647, 648, 649, 650, 651, 652, 653, 654, 655, 656, 657, 658, 659, 660, 661, 662, 663, 664, 665, 666, 667, 668, 669, 670, 671, 672, 673, 674, 675, 676, 677, 678, 679, 680, 681, 682, 683, 684, 685, 686, 687, 688, 689, 690, 691, 692, 693, 694, 695, 696, 697, 698, 699, 700, 701, 702, 703, 704, 705, 706, 707, 708, 709, 710, 711, 712, 713, 714, 715, 716, 717, 718, 719, 720, 721, 722, 723, 724, 725, 726, 727, 728, 729, 730, 731, 732, 733, 734, 735, 736, 737, 738, 739, 740, 741, 742, 743, 744, 745, 746, 747, 748, 749, 750, 751, 752, 753, 754, 755, 756, 757, 758, 759, 760, 761, 762, 763, 764, 765, 766, 767, 768, 769, 770, 771, 772, 773, 774, 775, 776, 777, 778, 779, 780, 781, 782, 783, 784, 785, 786, 787, 788, 789, 790, 791, 792, 793, 794, 795, 796, 797, 798, 799, 800, 801, 802, 803, 804, 805, 806, 807, 808, 809, 810, 811, 812, 813, 814, 815, 816, 817, 818, 819, 820, 821, 822, 823, 824, 825, 826, 827, 828, 829, 830, 831, 832, 833, 834, 835, 836, 837, 838, 839, 840, 841, 842, 843, 844, 845, 846, 847, 848, 849, 850, 851, 852, 853, 854, 855, 856, 857, 858, 859, 860, 861, 862, 863, 864, 865, 866, 867, 868, 869, 870, 871, 872, 873, 874, 875, 876, 877, 878, 879, 880, 881, 882, 883, 884, 885, 886, 887, 888, 889, 890, 891, 892, 893, 894, 895, 896, 897, 898, 899, 900, 901, 902, 903, 904, 905, 906, 907, 908, 909, 910, 911, 912, 913, 914],
      "AcquisitionTime": ["164838.057500", "164838.517500", "164838.977500", "164839.437500", "164839.897500", "164840.357500", "164840.817500", "164841.277500", "164841.737500", "164842.197500", "164842.657500", "164843.117500", "164843.577500", "164844.037500", "164844.497500", "164844.957500", "164845.417500", "164845.877500", "164846.337500", "164846.797500", "164847.257500", "164847.717500", "164848.177500", "164848.637500", "164849.097500", "164849.557500", "164850.017500", "164850.477500", "164850.937500", "164851.397500", "164851.857500", "164852.317500", "164852.777500", "164853.237500", "164853.697500", "164854.157500", "164854.617500", "164855.077500", "164855.537500", "164855.997500", "164856.457500", "164856.917500", "164857.377500", "164857.837500", "164858.297500", "164858.757500", "164859.217500", "164859.677500", "164900.137500", "164900.597500", "164901.057500", "164901.517500", "164901.977500", "164902.437500", "164902.897500", "164903.357500", "164903.817500", "164904.277500", "164904.737500", "164905.197500", "164905.657500", "164906.117500", "164906.577500", "164907.037500", "164907.497500", "164907.957500", "164908.417500", "164908.877500", "164909.337500", "164909.797500", "164910.257500", "164910.717500", "164911.177500", "164911.637500", "164912.097500", "164912.557500", "164913.017500", "164913.477500", "164913.937500", "164914.397500", "164914.857500", "164915.317500", "164915.777500", "164916.237500", "164916.697500", "164917.157500", "164917.617500", "164918.077500", "164918.537500", "164918.997500", "164919.457500", "164919.917500", "164920.377500", "164920.837500", "164921.297500", "164921.757500", "164922.217500", "164922.677500", "164923.137500", "164923.597500", "164924.057500", "164924.517500", "164924.977500", "164925.437500", "164925.897500", "164926.357500", "164926.817500", "164927.277500", "164927.737500", "164928.197500", "164928.657500", "164929.117500", "164929.577500", "164930.037500", "164930.497500", "164930.957500", "164931.417500", "164931.877500", "164932.337500", "164932.797500", "164933.257500", "164933.717500", "164934.177500", "164934.637500", "164935.097500", "164935.557500", "164936.017500", "164936.477500", "164936.937500", "164937.397500", "164937.857500", "164938.317500", "164938.777500", "164939.237500", "164939.697500", "164940.157500", "164940.617500", "164941.077500", "164941.537500", "164941.997500", "164942.457500", "164942.917500", "164943.377500", "164943.837500", "164944.297500", "164944.757500", "164945.217500", "164945.677500", "164946.137500", "164946.597500", "164947.057500", "164947.517500", "164947.977500", "164948.437500", "164948.897500", "164949.357500", "164949.817500", "164950.277500", "164950.737500", "164951.197500", "164951.657500", "164952.117500", "164952.577500", "164953.037500", "164953.497500", "164953.957500", "164954.417500", "164954.877500", "164955.337500", "164955.797500", "164956.257500", "164956.717500", "164957.177500", "164957.637500", "164958.097500", "164958.557500", "164959.017500", "164959.477500", "164959.937500", "165000.397500", "165000.857500", "165001.317500", "165001.777500", "165002.237500", "165002.697500", "165003.157500", "165003.617500", "165004.077500", "165004.537500", "165004.997500", "165005.457500", "165005.917500", "165006.377500", "165006.837500", "165007.297500", "165007.757500", "165008.217500", "165008.677500", "165009.137500", "165009.597500", "165010.057500", "165010.517500", "165010.977500", "165011.437500", "165011.897500", "165012.357500", "165012.817500", "165013.277500", "165013.737500", "165014.197500", "165014.657500", "165015.117500", "165015.577500", "165016.037500", "165016.497500", "165016.957500", "165017.417500", "165017.877500", "165018.337500", "165018.797500", "165019.257500", "165019.717500", "165020.177500", "165020.637500", "165021.097500", "165021.557500", "165022.017500", "165022.477500", "165022.937500", "165023.397500", "165023.857500", "165024.317500", "165024.777500", "165025.237500", "165025.697500", "165026.157500", "165026.617500", "165027.077500", "165027.537500", "165027.997500", "165028.457500", "165028.917500", "165029.377500", "165029.837500", "165030.297500", "165030.757500", "165031.217500", "165031.677500", "165032.137500", "165032.597500", "165033.057500", "165033.517500", "165033.977500", "165034.437500", "165034.897500", "165035.357500", "165035.817500", "165036.277500", "165036.737500", "165037.197500", "165037.657500", "165038.117500", "165038.577500", "165039.037500", "165039.497500", "165039.957500", "165040.417500", "165040.877500", "165041.337500", "165041.797500", "165042.257500", "165042.717500", "165043.177500", "165043.637500", "165044.097500", "165044.557500", "165045.017500", "165045.477500", "165045.937500", "165046.397500", "165046.857500", "165047.317500", "165047.777500", "165048.237500", "165048.697500", "165049.157500", "165049.617500", "165050.077500", "165050.537500", "165050.997500", "165051.457500", "165051.917500", "165052.377500", "165052.837500", "165053.297500", "165053.757500", "165054.217500", "165054.677500", "165055.137500", "165055.597500", "165056.057500", "165056.517500", "165056.977500", "165057.437500", "165057.897500", "165058.357500", "165058.817500", "165059.277500", "165059.737500", "165100.197500", "165100.657500", "165101.117500", "165101.577500", "165102.037500", "165102.497500", "165102.957500", "165103.417500", "165103.877500", "165104.337500", "165104.797500", "165105.257500", "165105.717500", "165106.177500", "165106.637500", "165107.097500", "165107.557500", "165108.017500", "165108.477500", "165108.937500", "165109.397500", "165109.857500", "165110.317500", "165110.777500", "165111.237500", "165111.697500", "165112.157500", "165112.617500", "165113.077500", "165113.537500", "165113.997500", "165114.457500", "165114.917500", "165115.377500", "165115.837500", "165116.297500", "165116.757500", "165117.217500", "165117.677500", "165118.137500", "165118.597500", "165119.057500", "165119.517500", "165119.977500", "165120.437500", "165120.897500", "165121.357500", "165121.817500", "165122.277500", "165122.737500", "165123.197500", "165123.657500", "165124.117500", "165124.577500", "165125.037500", "165125.497500", "165125.957500", "165126.417500", "165126.877500", "165127.337500", "165127.797500", "165128.257500", "165128.717500", "165129.177500", "165129.637500", "165130.097500", "165130.557500", "165131.017500", "165131.477500", "165131.937500", "165132.397500", "165132.857500", "165133.317500", "165133.777500", "165134.237500", "165134.697500", "165135.157500", "165135.617500", "165136.077500", "165136.537500", "165136.997500", "165137.457500", "165137.917500", "165138.377500", "165138.837500", "165139.297500", "165139.757500", "165140.217500", "165140.677500", "165141.137500", "165141.597500", "165142.057500", "165142.517500", "165142.977500", "165143.437500", "165143.897500", "165144.357500", "165144.817500", "165145.277500", "165145.737500", "165146.197500", "165146.657500", "165147.117500", "165147.577500", "165148.037500", "165148.497500", "165148.957500", "165149.417500", "165149.877500", "165150.337500", "165150.797500", "165151.257500", "165151.717500", "165152.177500", "165152.637500", "165153.097500", "165153.557500", "165154.017500", "165154.477500", "165154.937500", "165155.397500", "165155.857500", "165156.317500", "165156.777500", "165157.237500", "165157.697500", "165158.157500", "165158.617500", "165159.077500", "165159.537500", "165159.997500", "165200.457500", "165200.917500", "165201.377500", "165201.837500", "165202.297500", "165202.757500", "165203.217500", "165203.677500", "165204.137500", "165204.597500", "165205.057500", "165205.517500", "165205.977500", "165206.437500", "165206.897500", "165207.357500", "165207.817500", "165208.277500", "165208.737500", "165209.197500", "165209.657500", "165210.117500", "165210.577500", "165211.037500", "165211.497500", "165211.957500", "165212.417500", "165212.877500", "165213.337500", "165213.797500", "165214.257500", "165214.717500", "165215.177500", "165215.637500", "165216.097500", "165216.557500", "165217.017500", "165217.477500", "165217.937500", "165218.397500", "165218.857500", "165219.317500", "165219.777500", "165220.237500", "165220.697500", "165221.157500", "165221.617500", "165222.077500", "165222.537500", "165222.997500", "165223.457500", "165223.917500", "165224.377500", "165224.837500", "165225.297500", "165225.757500", "165226.217500", "165226.677500", "165227.137500", "165227.597500", "165228.057500", "165228.517500", "165228.977500", "165229.437500", "165229.897500", "165230.357500", "165230.817500", "165231.277500", "165231.737500", "165232.197500", "165232.657500", "165233.117500", "165233.577500", "165234.037500", "165234.497500", "165234.957500", "165235.417500", "165235.877500", "165236.337500", "165236.797500", "165237.257500", "165237.717500", "165238.177500", "165238.637500", "165239.097500", "165239.557500", "165240.017500", "165240.477500", "165240.937500", "165241.397500", "165241.857500", "165242.317500", "165242.777500", "165243.237500", "165243.697500", "165244.157500", "165244.617500", "165245.077500", "165245.537500", "165245.997500", "165246.457500", "165246.917500", "165247.377500", "165247.837500", "165248.297500", "165248.757500", "165249.217500", "165249.677500", "165250.137500", "165250.597500", "165251.057500", "165251.517500", "165251.977500", "165252.437500", "165252.897500", "165253.357500", "165253.817500", "165254.277500", "165254.737500", "165255.197500", "165255.657500", "165256.117500", "165256.577500", "165257.037500", "165257.497500", "165257.957500", "165258.417500", "165258.877500", "165259.337500", "165259.797500", "165300.257500", "165300.717500", "165301.177500", "165301.637500", "165302.097500", "165302.557500", "165303.017500", "165303.477500", "165303.937500", "165304.397500", "165304.857500", "165305.317500", "165305.777500", "165306.237500", "165306.697500", "165307.157500", "165307.617500", "165308.077500", "165308.537500", "165308.997500", "165309.457500", "165309.917500", "165310.377500", "165310.837500", "165311.297500", "165311.757500", "165312.217500", "165312.677500", "165313.137500", "165313.597500", "165314.057500", "165314.517500", "165314.977500", "165315.437500", "165315.897500", "165316.357500", "165316.817500", "165317.277500", "165317.737500", "165318.197500", "165318.657500", "165319.117500", "165319.577500", "165320.037500", "165320.497500", "165320.957500", "165321.417500", "165321.877500", "165322.337500", "165322.797500", "165323.257500", "165323.717500", "165324.177500", "165324.637500", "165325.097500", "165325.557500", "165326.017500", "165326.477500", "165326.937500", "165327.397500", "165327.857500", "165328.317500", "165328.777500", "165329.237500", "165329.697500", "165330.157500", "165330.617500", "165331.077500", "165331.537500", "165331.997500", "165332.457500", "165332.917500", "165333.377500", "165333.837500", "165334.297500", "165334.757500", "165335.217500", "165335.677500", "165336.137500", "165336.597500", "165337.057500", "165337.517500", "165337.977500", "165338.437500", "165338.897500", "165339.357500", "165339.817500", "165340.277500", "165340.737500", "165341.197500", "165341.657500", "165342.117500", "165342.577500", "165343.037500", "165343.497500", "165343.957500", "165344.417500", "165344.877500", "165345.337500", "165345.797500", "165346.257500", "165346.717500", "165347.177500", "165347.637500", "165348.097500", "165348.557500", "165349.017500", "165349.477500", "165349.937500", "165350.397500", "165350.857500", "165351.317500", "165351.777500", "165352.237500", "165352.697500", "165353.157500", "165353.617500", "165354.077500", "165354.537500", "165354.997500", "165355.457500", "165355.917500", "165356.377500", "165356.837500", "165357.297500", "165357.757500", "165358.217500", "165358.677500", "165359.137500", "165359.597500", "165400.057500", "165400.517500", "165400.977500", "165401.437500", "165401.897500", "165402.357500", "165402.817500", "165403.277500", "165403.737500", "165404.197500", "165404.657500", "165405.117500", "165405.577500", "165406.037500", "165406.497500", "165406.957500", "165407.417500", "165407.877500", "165408.337500", "165408.797500", "165409.257500", "165409.717500", "165410.177500", "165410.637500", "165411.097500", "165411.557500", "165412.017500", "165412.477500", "165412.937500", "165413.397500", "165413.857500", "165414.317500", "165414.777500", "165415.237500", "165415.697500", "165416.157500", "165416.617500", "165417.077500", "165417.537500", "165417.997500", "165418.457500", "165418.917500", "165419.377500", "165419.837500", "165420.297500", "165420.757500", "165421.217500", "165421.677500", "165422.137500", "165422.597500", "165423.057500", "165423.517500", "165423.977500", "165424.437500", "165424.897500", "165425.357500", "165425.817500", "165426.277500", "165426.737500", "165427.197500", "165427.657500", "165428.117500", "165428.577500", "165429.037500", "165429.497500", "165429.957500", "165430.417500", "165430.877500", "165431.337500", "165431.797500", "165432.257500", "165432.717500", "165433.177500", "165433.637500", "165434.097500", "165434.557500", "165435.017500", "165435.477500", "165435.937500", "165436.397500", "165436.857500", "165437.317500", "165437.777500", "165438.237500", "165438.697500", "165439.157500", "165439.617500", "165440.077500", "165440.537500", "165440.997500", "165441.457500", "165441.917500", "165442.377500", "165442.837500", "165443.297500", "165443.757500", "165444.217500", "165444.677500", "165445.137500", "165445.597500", "165446.057500", "165446.517500", "165446.977500", "165447.437500", "165447.897500", "165448.357500", "165448.817500", "165449.277500", "165449.737500", "165450.197500", "165450.657500", "165451.117500", "165451.577500", "165452.037500", "165452.497500", "165452.957500", "165453.417500", "165453.877500", "165454.337500", "165454.797500", "165455.257500", "165455.717500", "165456.177500", "165456.637500", "165457.097500", "165457.557500", "165458.017500", "165458.477500", "165458.937500", "165459.397500", "165459.857500", "165500.317500", "165500.777500", "165501.237500", "165501.697500", "165502.157500", "165502.617500", "165503.077500", "165503.537500", "165503.997500", "165504.457500", "165504.917500", "165505.377500", "165505.837500", "165506.297500", "165506.757500", "165507.217500", "165507.677500", "165508.137500", "165508.597500", "165509.057500", "165509.517500", "165509.977500", "165510.437500", "165510.897500", "165511.357500", "165511.817500", "165512.277500", "165512.737500", "165513.197500", "165513.657500", "165514.117500", "165514.577500", "165515.037500", "165515.497500", "165515.957500", "165516.417500", "165516.877500", "165517.337500", "165517.797500", "165518.257500", "165518.717500", "165519.177500", "165519.637500", "165520.097500", "165520.557500", "165521.017500", "165521.477500", "165521.937500", "165522.397500", "165522.857500", "165523.317500", "165523.777500", "165524.237500", "165524.697500", "165525.157500", "165525.617500", "165526.077500", "165526.537500", "165526.997500", "165527.457500", "165527.917500", "165528.377500", "165528.837500", "165529.297500", "165529.757500", "165530.217500", "165530.677500", "165531.137500", "165531.597500", "165532.057500", "165532.517500", "165532.977500", "165533.437500", "165533.897500", "165534.357500", "165534.817500", "165535.277500", "165535.737500", "165536.197500", "165536.657500", "165537.117500", "165537.577500", "165538.037500"],
