{
  "AcquisitionMatrixPE": 140,
  "AcquisitionNumber": 1,
  "AcquisitionTime": "20:56:35.175000",
  "BandwidthPerPixelPhaseEncode": 10.352,
  "BaseResolution": 140,
  "BodyPartExamined": "BRAIN",
  "ConsistencyInfo": "N4_VE11E_LATEST_20181129",
  "ConversionSoftware": "dcm2niix",
  "ConversionSoftwareVersion": "v1.0.20201102",
  "DerivedVendorReportedEchoSpacing": 0.000689998,
  "DeviceSerialNumber": "66112",
  "DiffusionScheme": "Monopolar",
  "DwellTime": 2.1e-06,
  "EchoTime": 0.088,
  "EchoTrainLength": 105,
  "EffectiveEchoSpacing": 0.000689998,
  "FlipAngle": 90,
  "ImageComments": "Unaliased MB3/PE3",
  "ImageOrientationPatientDICOM": [0.999009, -0.032619, 0.0302699, 0.0265089, 0.982578, 0.183949],
  "ImageType": [
    "ORIGINAL",
    "PRIMARY",
    "DIFFUSION",
    "NONE",
    "MB",
    "ND"
],
  "ImagingFrequency": 123.252,
  "InPlanePhaseEncodingDirectionDICOM": "COL",
  "InstitutionAddress": "Maynard 3,Hanover,NH,US,03755",
  "InstitutionName": "Dartmouth College - PBS",
  "InstitutionalDepartmentName": "Department",
  "IntendedFor": [
    "ses-01/dwi/sub-0074_ses-01_acq-96dirX6b0Xmb_dwi.nii.gz"
],
  "MRAcquisitionType": "2D",
  "MagneticFieldStrength": 3,
  "Manufacturer": "Siemens",
  "ManufacturersModelName": "Prisma",
  "Modality": "MR",
  "MultibandAccelerationFactor": 3,
  "PartialFourier": 0.75,
  "PatientPosition": "HFS",
  "PercentPhaseFOV": 100,
  "PercentSampling": 100,
  "PhaseEncodingDirection": "j",
  "PhaseEncodingSteps": 105,
  "PhaseResolution": 1,
  "PixelBandwidth": 1700,
  "ProcedureStepDescription": "Wager_Wager^1076_spacetop",
  "ProtocolName": "dwi_acq-discorr-PA",
  "PulseSequenceDetails": "%CustomerSeq%\\cmrr_mbep2d_diff",
  "ReceiveCoilActiveElements": "HEA;HEP",
  "ReceiveCoilName": "Head_32",
  "ReconMatrixPE": 140,
  "RepetitionTime": 4.1,
  "SAR": 0.160984,
  "ScanOptions": "PFP\\FS",
  "ScanningSequence": "EP",
  "SequenceName": "ep_b0",
  "SequenceVariant": "SK\\SS",
  "SeriesDescription": "dwi_acq-discorr-PA",
  "SeriesNumber": 6,
  "ShimSetting": [4130, -7718, -7227, 541, -134, -111, -79, 53],
  "SliceThickness": 1.7,
  "SliceTiming": [0, 2.125, 0.15625, 2.26562, 0.3125, 2.42188, 0.45312, 2.57812, 0.60938, 2.71875, 0.76562, 2.875, 0.90625, 3.03125, 1.0625, 3.17188, 1.20312, 3.32812, 1.35938, 3.48438, 1.51562, 3.625, 1.67188, 3.78125, 1.8125, 3.9375, 1.96875, 0, 2.125, 0.15625, 2.26562, 0.3125, 2.42188, 0.45312, 2.57812, 0.60938, 2.71875, 0.76562, 2.875, 0.90625, 3.03125, 1.0625, 3.17188, 1.20312, 3.32812, 1.35938, 3.48438, 1.51562, 3.625, 1.67188, 3.78125, 1.8125, 3.9375, 1.96875, 0, 2.125, 0.15625, 2.26562, 0.3125, 2.42188, 0.45312, 2.57812, 0.60938, 2.71875, 0.76562, 2.875, 0.90625, 3.03125, 1.0625, 3.17188, 1.20312, 3.32812, 1.35938, 3.48438, 1.51562, 3.625, 1.67188, 3.78125, 1.8125, 3.9375, 1.96875],
  "SoftwareVersions": "syngo MR E11",
  "SpacingBetweenSlices": 1.7,
  "StationName": "AWP66112",
  "TotalReadoutTime": 0.0959097,
  "TxRefAmp": 228.938,
  "WipMemBlock": "c0afee52-586a-42e4-9e57-dbffdf4d2e80||Sequence: R016 ve11e/master r/434b28f1; Aug  7 2019 19:06:17 by eja",
  "dcmmeta_affine": [
    [-1.7125874757766724, 0.045443810522556305, 0.06076240539550781, 119.57441711425781],
    [0.055918317288160324, 1.6844199895858765, 0.3110389709472656, -111.13996124267578],
    [0.05189124494791031, -0.31534087657928467, 1.6702041625976562, -20.208454132080078],
    [0.0, 0.0, 0.0, 1.0]
],
  "dcmmeta_reorient_transform": [
    [0.0, -1.0, 0.0, 139.0],
    [1.0, 0.0, 0.0, 0.0],
    [0.0, 0.0, -1.0, 80.0],
    [0.0, 0.0, 0.0, 1.0]
],
  "dcmmeta_shape": [140, 140, 81],
  "dcmmeta_slice_dim": 2,
  "dcmmeta_version": 0.6,
  "global": {
    "const": {
      "AccessionNumber": "A004035",
      "AcquisitionMatrix": [140, 0, 0, 140],
      "AcquisitionNumber": 1,
      "AngioFlag": "N",
      "BitsAllocated": 16,
      "BitsStored": 16,
      "BodyPartExamined": "BRAIN",
      "Columns": 140,
      "EchoNumbers": 1,
      "EchoTime": 88.0,
      "EchoTrainLength": 105,
      "FlipAngle": 90.0,
      "HighBit": 15,
      "ImageOrientationPatient": [0.99900937596207, -0.0326190183081, 0.03026989237653, 0.02650888830738, 0.98257829468569, 0.18394883433516],
      "ImageType": [
        "ORIGINAL",
        "PRIMARY",
        "DIFFUSION",
        "NONE",
        "MB",
        "ND"
],
      "ImagedNucleus": "1H",
      "ImagingFrequency": 123.252308,
      "InPlanePhaseEncodingDirection": "COL",
      "MRAcquisitionType": "2D",
      "MagneticFieldStrength": 3.0,
      "Manufacturer": "SIEMENS",
      "ManufacturerModelName": "Prisma",
      "Modality": "MR",
      "NumberOfAverages": 1.0,
      "NumberOfPhaseEncodingSteps": 105,
      "PercentPhaseFieldOfView": 100.0,
      "PercentSampling": 100.0,
      "PerformedProcedureStepStartTime": "204927.339000",
      "PhotometricInterpretation": "MONOCHROME2",
      "PixelBandwidth": 1700.0,
      "PixelRepresentation": 0,
      "PixelSpacing": [1.7142857313156, 1.7142857313156],
      "ProtocolName": "dwi_acq-discorr-PA",
      "RepetitionTime": 4100.0,
      "Rows": 140,
      "SAR": 0.16098428717516,
      "SamplesPerPixel": 1,
      "ScanOptions": [
        "PFP",
        "FS"
],
      "ScanningSequence": "EP",
      "SequenceName": "ep_b0",
      "SequenceVariant": [
        "SK",
        "SS"
],
      "SeriesDescription": "dwi_acq-discorr-PA",
      "SeriesNumber": 6,
      "SeriesTime": "205639.593000",
      "SliceThickness": 1.7000000476837,
      "SmallestImagePixelValue": 0,
      "SoftwareVersions": "syngo MR E11",
      "SpacingBetweenSlices": 1.7,
      "SpecificCharacterSet": "ISO_IR 100",
      "StudyID": "1",
      "StudyTime": "204927.192000",
      "TransmitCoilName": "Body",
      "VariableFlipAngleFlag": "N",
      "WindowCenterWidthExplanation": "Algo1"
    },
    "slices": {
      "AcquisitionTime": ["205635.175000", "205637.290000", "205635.325000", "205637.440000", "205635.477500", "205637.592500", "205635.627500", "205637.742500", "205635.777500", "205637.895000", "205635.930000", "205638.045000", "205636.080000", "205638.197500", "205636.232500", "205638.347500", "205636.382500", "205638.497500", "205636.535000", "205638.650000", "205636.685000", "205638.800000", "205636.837500", "205638.952500", "205636.987500", "205639.102500", "205637.137500", "205635.175000", "205637.290000", "205635.325000", "205637.440000", "205635.477500", "205637.592500", "205635.627500", "205637.742500", "205635.777500", "205637.895000", "205635.930000", "205638.045000", "205636.080000", "205638.197500", "205636.232500", "205638.347500", "205636.382500", "205638.497500", "205636.535000", "205638.650000", "205636.685000", "205638.800000", "205636.837500", "205638.952500", "205636.987500", "205639.102500", "205637.137500", "205635.175000", "205637.290000", "205635.325000", "205637.440000", "205635.477500", "205637.592500", "205635.627500", "205637.742500", "205635.777500", "205637.895000", "205635.930000", "205638.045000", "205636.080000", "205638.197500", "205636.232500", "205638.347500", "205636.382500", "205638.497500", "205636.535000", "205638.650000", "205636.685000", "205638.800000", "205636.837500", "205638.952500", "205636.987500", "205639.102500", "205637.137500"],
      "ContentTime": ["205639.596000", "205639.704000", "205639.603000", "205639.712000", "205639.609000", "205639.718000", "205639.615000", "205639.725000", "205639.621000", "205639.732000", "205639.627000", "205639.739000", "205639.639000", "205639.745000", "205639.651000", "205639.751000", "205639.657000", "205639.758000", "205639.663000", "205639.764000", "205639.669000", "205639.770000", "205639.675000", "205639.776000", "205639.681000", "205639.783000", "205639.698000", "205639.599000", "205639.707000", "205639.605000", "205639.714000", "205639.611000", "205639.720000", "205639.617000", "205639.727000", "205639.623000", "205639.734000", "205639.635000", "205639.741000", "205639.641000", "205639.747000", "205639.653000", "205639.754000", "205639.659000", "205639.760000", "205639.665000", "205639.766000", "205639.671000", "205639.772000", "205639.677000", "205639.779000", "205639.694000", "205639.787000", "205639.700000", "205639.601000", "205639.709000", "205639.607000", "205639.716000", "205639.613000", "205639.723000", "205639.619000", "205639.730000", "205639.625000", "205639.737000", "205639.637000", "205639.743000", "205639.643000", "205639.749000", "205639.655000", "205639.756000", "205639.661000", "205639.762000", "205639.667000", "205639.768000", "205639.673000", "205639.774000", "205639.679000", "205639.781000", "205639.696000", "205639.789000", "205639.702000"],
      "CsaImage.GSWDDataType": [
        "predicted",
        "predicted",
        "predicted",
        "predicted",
        "predicted",
        "predicted",
        "predicted",
        "predicted",
        "predicted",
        "predicted",
        "predicted",
        "predicted",
        "predicted",
        "predicted",
        "predicted",
        "predicted",
        "predicted",
        "predicted",
        "predicted",
        "predicted",
        "predicted",
        "predicted",
        "predicted",
        "measured",
        "predicted",
        "measured",
        "predicted",
        "predicted",
        "predicted",
        "predicted",
        "predicted",
        "predicted",
        "predicted",
        "predicted",
        "predicted",
        "predicted",
        "predicted",
        "predicted",
        "predicted",
        "predicted",
        "predicted",
        "predicted",
        "predicted",
        "predicted",
        "predicted",
        "predicted",
        "predicted",
        "predicted",
        "predicted",
        "predicted",
        "measured",
        "predicted",
        "measured",
        "predicted",
        "predicted",
        "predicted",
        "predicted",
        "predicted",
        "predicted",
        "predicted",
        "predicted",
        "predicted",
        "predicted",
        "predicted",
        "predicted",
        "predicted",
        "predicted",
        "predicted",
        "predicted",
        "predicted",
        "predicted",
        "predicted",
        "predicted",
        "predicted",
        "predicted",
        "predicted",
        "predicted",
        "measured",
        "predicted",
        "measured",
        "predicted"
],
      "CsaImage.ICE_Dims": [
        "X_1_1_1_1_1_1_1_1_1_1_1_72",
        "X_1_1_1_1_1_1_42_1_1_2_1_72",
        "X_1_1_1_1_1_1_2_1_1_3_1_72",
        "X_1_1_1_1_1_1_43_1_1_4_1_72",
        "X_1_1_1_1_1_1_3_1_1_5_1_72",
        "X_1_1_1_1_1_1_44_1_1_6_1_72",
        "X_1_1_1_1_1_1_4_1_1_7_1_72",
        "X_1_1_1_1_1_1_45_1_1_8_1_72",
        "X_1_1_1_1_1_1_5_1_1_9_1_72",
        "X_1_1_1_1_1_1_46_1_1_10_1_72",
        "X_1_1_1_1_1_1_6_1_1_11_1_72",
        "X_1_1_1_1_1_1_47_1_1_12_1_72",
        "X_1_1_1_1_1_1_7_1_1_13_1_72",
        "X_1_1_1_1_1_1_48_1_1_14_1_72",
        "X_1_1_1_1_1_1_8_1_1_15_1_72",
        "X_1_1_1_1_1_1_49_1_1_16_1_72",
        "X_1_1_1_1_1_1_9_1_1_17_1_72",
        "X_1_1_1_1_1_1_50_1_1_18_1_72",
        "X_1_1_1_1_1_1_10_1_1_19_1_72",
        "X_1_1_1_1_1_1_51_1_1_20_1_72",
        "X_1_1_1_1_1_1_11_1_1_21_1_72",
        "X_1_1_1_1_1_1_52_1_1_22_1_72",
        "X_1_1_1_1_1_1_12_1_1_23_1_72",
        "X_1_1_1_1_1_1_53_1_1_24_1_72",
        "X_1_1_1_1_1_1_13_1_1_25_1_72",
        "X_1_1_1_1_1_1_54_1_1_26_1_72",
        "X_1_1_1_1_1_1_14_1_1_27_1_72",
        "X_1_1_1_1_1_1_55_1_1_28_1_72",
        "X_1_1_1_1_1_1_15_1_1_29_1_72",
        "X_1_1_1_1_1_1_56_1_1_30_1_72",
        "X_1_1_1_1_1_1_16_1_1_31_1_72",
        "X_1_1_1_1_1_1_57_1_1_32_1_72",
        "X_1_1_1_1_1_1_17_1_1_33_1_72",
        "X_1_1_1_1_1_1_58_1_1_34_1_72",
        "X_1_1_1_1_1_1_18_1_1_35_1_72",
        "X_1_1_1_1_1_1_59_1_1_36_1_72",
        "X_1_1_1_1_1_1_19_1_1_37_1_72",
        "X_1_1_1_1_1_1_60_1_1_38_1_72",
        "X_1_1_1_1_1_1_20_1_1_39_1_72",
        "X_1_1_1_1_1_1_61_1_1_40_1_72",
        "X_1_1_1_1_1_1_21_1_1_41_1_72",
        "X_1_1_1_1_1_1_62_1_1_42_1_72",
        "X_1_1_1_1_1_1_22_1_1_43_1_72",
        "X_1_1_1_1_1_1_63_1_1_44_1_72",
        "X_1_1_1_1_1_1_23_1_1_45_1_72",
        "X_1_1_1_1_1_1_64_1_1_46_1_72",
        "X_1_1_1_1_1_1_24_1_1_47_1_72",
        "X_1_1_1_1_1_1_65_1_1_48_1_72",
        "X_1_1_1_1_1_1_25_1_1_49_1_72",
        "X_1_1_1_1_1_1_66_1_1_50_1_72",
        "X_1_1_1_1_1_1_26_1_1_51_1_72",
        "X_1_1_1_1_1_1_67_1_1_52_1_72",
        "X_1_1_1_1_1_1_27_1_1_53_1_72",
        "X_1_1_1_1_1_1_68_1_1_54_1_72",
        "X_1_1_1_1_1_1_28_1_1_55_1_72",
        "X_1_1_1_1_1_1_69_1_1_56_1_72",
        "X_1_1_1_1_1_1_29_1_1_57_1_72",
        "X_1_1_1_1_1_1_70_1_1_58_1_72",
        "X_1_1_1_1_1_1_30_1_1_59_1_72",
        "X_1_1_1_1_1_1_71_1_1_60_1_72",
        "X_1_1_1_1_1_1_31_1_1_61_1_72",
        "X_1_1_1_1_1_1_72_1_1_62_1_72",
        "X_1_1_1_1_1_1_32_1_1_63_1_72",
        "X_1_1_1_1_1_1_73_1_1_64_1_72",
        "X_1_1_1_1_1_1_33_1_1_65_1_72",
        "X_1_1_1_1_1_1_74_1_1_66_1_72",
        "X_1_1_1_1_1_1_34_1_1_67_1_72",
        "X_1_1_1_1_1_1_75_1_1_68_1_72",
        "X_1_1_1_1_1_1_35_1_1_69_1_72",
        "X_1_1_1_1_1_1_76_1_1_70_1_72",
        "X_1_1_1_1_1_1_36_1_1_71_1_72",
        "X_1_1_1_1_1_1_77_1_1_72_1_72",
        "X_1_1_1_1_1_1_37_1_1_73_1_72",
        "X_1_1_1_1_1_1_78_1_1_74_1_72",
        "X_1_1_1_1_1_1_38_1_1_75_1_72",
        "X_1_1_1_1_1_1_79_1_1_76_1_72",
        "X_1_1_1_1_1_1_39_1_1_77_1_72",
        "X_1_1_1_1_1_1_80_1_1_78_1_72",
        "X_1_1_1_1_1_1_40_1_1_79_1_72",
        "X_1_1_1_1_1_1_81_1_1_80_1_72",
        "X_1_1_1_1_1_1_41_1_1_81_1_72"
],
      "CsaImage.ProtocolSliceNumber": [0, 1, 2, 3, 4, 5, 6, 7, 8, 9, 10, 11, 12, 13, 14, 15, 16, 17, 18, 19, 20, 21, 22, 23, 24, 25, 26, 27, 28, 29, 30, 31, 32, 33, 34, 35, 36, 37, 38, 39, 40, 41, 42, 43, 44, 45, 46, 47, 48, 49, 50, 51, 52, 53, 54, 55, 56, 57, 58, 59, 60, 61, 62, 63, 64, 65, 66, 67, 68, 69, 70, 71, 72, 73, 74, 75, 76, 77, 78, 79, 80],
      "CsaImage.RFSWDDataType": [
        "predicted",
        "predicted",
        "predicted",
        "predicted",
        "predicted",
        "predicted",
        "predicted",
        "predicted",
        "predicted",
        "predicted",
        "predicted",
        "predicted",
        "predicted",
        "predicted",
        "predicted",
        "predicted",
        "predicted",
        "predicted",
        "predicted",
        "predicted",
        "predicted",
        "predicted",
        "predicted",
        "measured",
        "predicted",
        "measured",
        "predicted",
        "predicted",
        "predicted",
        "predicted",
        "predicted",
        "predicted",
        "predicted",
        "predicted",
        "predicted",
        "predicted",
        "predicted",
        "predicted",
        "predicted",
        "predicted",
        "predicted",
        "predicted",
        "predicted",
        "predicted",
        "predicted",
        "predicted",
        "predicted",
        "predicted",
        "predicted",
        "predicted",
        "measured",
        "predicted",
        "measured",
        "predicted",
        "predicted",
        "predicted",
        "predicted",
        "predicted",
        "predicted",
        "predicted",
        "predicted",
        "predicted",
        "predicted",
        "predicted",
        "predicted",
        "predicted",
        "predicted",
        "predicted",
        "predicted",
        "predicted",
        "predicted",
        "predicted",
        "predicted",
        "predicted",
        "predicted",
        "predicted",
        "predicted",
        "measured",
        "predicted",
        "measured",
        "predicted"
],
      "CsaImage.SlicePosition_PCS": [
        [-125.89108397, -122.99439904, -64.04037298],
        [-125.95184662, -123.30543801, -62.37017645],
        [-126.0126095, -123.61647698, -60.6999761],
        [-126.07337214, -123.92751595, -59.02977957],
        [-126.13413479, -124.23855588, -57.35958112],
        [-126.19489767, -124.54959485, -55.68938268],
        [-126.25566031, -124.86063382, -54.01918424],
        [-126.31642296, -125.17167279, -52.3489858],
        [-126.3771856, -125.48271176, -50.67878736],
        [-126.43794848, -125.79375073, -49.00858892],
        [-126.49871113, -126.10479066, -47.33839048],
        [-126.55947377, -126.41582963, -45.66819204],
        [-126.62023665, -126.7268686, -43.9979936],
        [-126.6809993, -127.03790757, -42.32779516],
        [-126.74176194, -127.34894654, -40.65759672],
        [-126.80252482, -127.65998551, -38.98739828],
        [-126.86328747, -127.97102448, -37.31719984],
        [-126.92405011, -128.28206441, -35.6470014],
        [-126.98481275, -128.59310338, -33.97680296],
        [-127.04557564, -128.90414235, -32.30660499],
        [-127.10633852, -129.21518132, -30.63640655],
        [-127.16710092, -129.52622029, -28.96620811],
        [-127.22786381, -129.83725926, -27.29600991],
        [-127.28862621, -130.14829919, -25.62581151],
        [-127.34938909, -130.45933816, -23.95561315],
        [-127.41015198, -130.77037713, -22.28541483],
        [-127.47091438, -131.0814161, -20.61521639],
        [-127.53167726, -131.39245507, -18.94501795],
        [-127.59244015, -131.70349404, -17.27481951],
        [-127.65320255, -132.01453301, -15.60462106],
        [-127.71396543, -132.32557199, -13.93442262],
        [-127.77472832, -132.63661096, -12.26422418],
        [-127.83549072, -132.94765183, -10.5940267],
        [-127.8962536, -133.25869081, -8.92382826],
        [-127.95701649, -133.56972978, -7.25362982],
        [-128.01777889, -133.88076875, -5.58343137],
        [-128.07854177, -134.19180772, -3.91323293],
        [-128.13930466, -134.50284669, -2.24303449],
        [-128.20006706, -134.81388566, -0.57283605],
        [-128.26082994, -135.12492463, 1.09736239],
        [-128.32159235, -135.4359636, 2.76756083],
        [-128.38235523, -135.74700257, 4.43775927],
        [-128.44311811, -136.05804154, 6.10795771],
        [-128.50388052, -136.36908051, 7.77815424],
        [-128.5646434, -136.68011949, 9.44835459],
        [-128.62540628, -136.99116036, 11.11855112],
        [-128.68616869, -137.30219933, 12.78875147],
        [-128.74693157, -137.61323831, 14.458948],
        [-128.80769445, -137.92427728, 16.12914835],
        [-128.86845686, -138.23531625, 17.79934489],
        [-128.92921974, -138.54635522, 19.46954523],
        [-128.98998262, -138.85739419, 21.13974177],
        [-129.05074503, -139.16843316, 22.80994211],
        [-129.11150791, -139.47947213, 24.48013865],
        [-129.17227079, -139.7905111, 26.150339],
        [-129.2330332, -140.10155007, 27.82053553],
        [-129.29379608, -140.41258904, 29.49073588],
        [-129.35455896, -140.72362992, 31.16093241],
        [-129.41532137, -141.03466889, 32.83113276],
        [-129.47608425, -141.34570786, 34.50132929],
        [-129.53684666, -141.65674684, 36.17152964],
        [-129.59760954, -141.96778581, 37.84172617],
        [-129.65837242, -142.27882478, 39.51192271],
        [-129.71913483, -142.58986375, 41.18211924],
        [-129.77989771, -142.90090272, 42.8523234],
        [-129.84066059, -143.21194169, 44.52251993],
        [-129.901423, -143.52298066, 46.19271647],
        [-129.96218588, -143.83401963, 47.862913],
        [-130.02294876, -144.1450586, 49.53311716],
        [-130.08371117, -144.45609757, 51.2033137],
        [-130.14447405, -144.76713845, 52.87351023],
        [-130.20523693, -145.07817742, 54.54370676],
        [-130.26599934, -145.38921639, 56.21391093],
        [-130.32676222, -145.70025537, 57.88410746],
        [-130.3875251, -146.01129243, 59.55430399],
        [-130.44828751, -146.3223314, 61.22450053],
        [-130.50905039, -146.63337419, 62.89470469],
        [-130.56981279, -146.94441316, 64.56490122],
        [-130.63057567, -147.25545213, 66.23509775],
        [-130.69133856, -147.5664911, 67.90529429],
        [-130.75210096, -147.87753007, 69.57549845]
],
      "CsaImage.TimeAfterStart": [16.4, 18.5175, 16.5525, 18.6675, 16.7025, 18.82, 16.855, 18.97, 17.005, 19.12, 17.1575, 19.2725, 17.3075, 19.4225, 17.46, 19.575, 17.61, 19.725, 17.76, 19.8775, 17.9125, 20.0275, 18.0625, 20.18, 18.215, 20.33, 18.365, 16.4, 18.5175, 16.5525, 18.6675, 16.7025, 18.82, 16.855, 18.97, 17.005, 19.12, 17.1575, 19.2725, 17.3075, 19.4225, 17.46, 19.575, 17.61, 19.725, 17.76, 19.8775, 17.9125, 20.0275, 18.0625, 20.18, 18.215, 20.33, 18.365, 16.4, 18.5175, 16.5525, 18.6675, 16.7025, 18.82, 16.855, 18.97, 17.005, 19.12, 17.1575, 19.2725, 17.3075, 19.4225, 17.46, 19.575, 17.61, 19.725, 17.76, 19.8775, 17.9125, 20.0275, 18.0625, 20.18, 18.215, 20.33, 18.365],
      "ImagePositionPatient": [
        [-125.89108397374, -122.99439904201, -64.04037297957],
        [-125.95184661756, -123.30543801296, -62.370176446367],
        [-126.01260949979, -123.6164769839, -60.699976098467],
        [-126.0733721436, -123.92751595485, -59.029779565264],
        [-126.13413478742, -124.23855587947, -57.359581124712],
        [-126.19489766965, -124.54959485042, -55.68938268416],
        [-126.25566031346, -124.86063382137, -54.019184243609],
        [-126.31642295728, -125.17167279232, -52.348985803057],
        [-126.37718560109, -125.48271176326, -50.678787362505],
        [-126.43794848332, -125.79375073421, -49.008588921953],
        [-126.49871112714, -126.10479065883, -47.338390481402],
        [-126.55947377095, -126.41582962978, -45.66819204085],
        [-126.62023665318, -126.72686860073, -43.997993600298],
        [-126.680999297, -127.03790757167, -42.327795159746],
        [-126.74176194081, -127.34894654262, -40.657596719195],
        [-126.80252482305, -127.65998551357, -38.987398278643],
        [-126.86328746686, -127.97102448452, -37.317199838091],
        [-126.92405011067, -128.28206440914, -35.647001397539],
        [-126.98481275449, -128.59310338008, -33.976802956987],
        [-127.04557563672, -128.90414235103, -32.306604993273],
        [-127.10633851895, -129.21518132198, -30.636406552721],
        [-127.16710092435, -129.52622029293, -28.966208112169],
        [-127.22786380658, -129.83725926387, -27.296009910036],
        [-127.28862621198, -130.14829918849, -25.625811506737],
        [-127.34938909421, -130.45933815944, -23.955613148142],
        [-127.41015197644, -130.77037713039, -22.285414826799],
        [-127.47091438184, -131.08141610134, -20.615216386248],
        [-127.53167726407, -131.39245507228, -18.945017945696],
        [-127.5924401463, -131.70349404323, -17.274819505144],
        [-127.6532025517, -132.01453301418, -15.604621064592],
        [-127.71396543393, -132.32557198513, -13.934422624041],
        [-127.77472831616, -132.63661095607, -12.264224183489],
        [-127.83549072156, -132.94765183437, -10.594026696612],
        [-127.89625360379, -133.25869080532, -8.9238282560597],
        [-127.95701648602, -133.56972977626, -7.253629815508],
        [-128.01777889142, -133.88076874721, -5.5834313749562],
        [-128.07854177365, -134.19180771816, -3.9132329344045],
        [-128.13930465589, -134.50284668911, -2.2430344938527],
        [-128.20006706128, -134.81388566005, -0.572836053301],
        [-128.26082994351, -135.124924631, 1.0973623872508],
        [-128.32159234891, -135.43596360195, 2.7675608278026],
        [-128.38235523114, -135.74700257289, 4.4377592683543],
        [-128.44311811337, -136.05804154384, 6.1079577089061],
        [-128.50388051877, -136.36908051479, 7.7781542421092],
        [-128.564643401, -136.68011948574, 9.4483545900096],
        [-128.62540628324, -136.99116036403, 11.118551123213],
        [-128.68616868863, -137.30219933498, 12.788751471113],
        [-128.74693157086, -137.61323830593, 14.458948004316],
        [-128.8076944531, -137.92427727687, 16.129148352217],
        [-128.86845685849, -138.23531624782, 17.79934488542],
        [-128.92921974072, -138.54635521877, 19.46954523332],
        [-128.98998262296, -138.85739418972, 21.139741766523],
        [-129.05074502835, -139.16843316066, 22.809942114424],
        [-129.11150791059, -139.47947213161, 24.480138647627],
        [-129.17227079282, -139.79051110256, 26.150338995527],
        [-129.23303319821, -140.1015500735, 27.82053552873],
        [-129.29379608045, -140.41258904445, 29.490735876631],
        [-129.35455896268, -140.72362992275, 31.160932409834],
        [-129.41532136807, -141.0346688937, 32.831132757734],
        [-129.47608425031, -141.34570786464, 34.501329290937],
        [-129.5368466557, -141.65674683559, 36.171529638838],
        [-129.59760953794, -141.96778580654, 37.841726172041],
        [-129.65837242017, -142.27882477748, 39.511922705244],
        [-129.71913482556, -142.58986374843, 41.182119238447],
        [-129.7798977078, -142.90090271938, 42.852323401045],
        [-129.84066059003, -143.21194169033, 44.522519934248],
        [-129.90142299542, -143.52298066127, 46.192716467451],
        [-129.96218587766, -143.83401963222, 47.862913000654],
        [-130.02294875989, -144.14505860317, 49.533117163252],
        [-130.08371116529, -144.45609757411, 51.203313696455],
        [-130.14447404752, -144.76713845241, 52.873510229658],
        [-130.20523692975, -145.07817742336, 54.543706762861],
        [-130.26599933515, -145.38921639431, 56.213910925459],
        [-130.32676221738, -145.70025536525, 57.884107458662],
        [-130.38752509961, -146.01129242885, 59.554303991865],
        [-130.44828750501, -146.3223313998, 61.224500525068],
        [-130.50905038724, -146.63337418544, 62.894704687666],
        [-130.56981279263, -146.94441315639, 64.564901220869],
        [-130.63057567487, -147.25545212734, 66.235097754072],
        [-130.6913385571, -147.56649109828, 67.905294287275],
        [-130.7521009625, -147.87753006923, 69.575498449873]
],
      "InstanceCreationTime": ["205639.596000", "205639.704000", "205639.603000", "205639.712000", "205639.609000", "205639.718000", "205639.615000", "205639.725000", "205639.621000", "205639.732000", "205639.627000", "205639.739000", "205639.639000", "205639.745000", "205639.651000", "205639.751000", "205639.657000", "205639.758000", "205639.663000", "205639.764000", "205639.669000", "205639.770000", "205639.675000", "205639.776000", "205639.681000", "205639.783000", "205639.698000", "205639.599000", "205639.707000", "205639.605000", "205639.714000", "205639.611000", "205639.720000", "205639.617000", "205639.727000", "205639.623000", "205639.734000", "205639.635000", "205639.741000", "205639.641000", "205639.747000", "205639.653000", "205639.754000", "205639.659000", "205639.760000", "205639.665000", "205639.766000", "205639.671000", "205639.772000", "205639.677000", "205639.779000", "205639.694000", "205639.787000", "205639.700000", "205639.601000", "205639.709000", "205639.607000", "205639.716000", "205639.613000", "205639.723000", "205639.619000", "205639.730000", "205639.625000", "205639.737000", "205639.637000", "205639.743000", "205639.643000", "205639.749000", "205639.655000", "205639.756000", "205639.661000", "205639.762000", "205639.667000", "205639.768000", "205639.673000", "205639.774000", "205639.679000", "205639.781000", "205639.696000", "205639.789000", "205639.702000"],
      "InstanceNumber": [1, 2, 3, 4, 5, 6, 7, 8, 9, 10, 11, 12, 13, 14, 15, 16, 17, 18, 19, 20, 21, 22, 23, 24, 25, 26, 27, 28, 29, 30, 31, 32, 33, 34, 35, 36, 37, 38, 39, 40, 41, 42, 43, 44, 45, 46, 47, 48, 49, 50, 51, 52, 53, 54, 55, 56, 57, 58, 59, 60, 61, 62, 63, 64, 65, 66, 67, 68, 69, 70, 71, 72, 73, 74, 75, 76, 77, 78, 79, 80, 81],
      "LargestImagePixelValue": [25763, 33206, 35368, 38970, 38770, 41162, 43176, 57529, 65535, 65535, 48475, 35996, 29396, 32494, 35303, 32774, 31393, 40697, 51790, 65535, 65535, 65535, 65535, 65535, 65535, 65535, 65535, 65535, 65535, 65535, 52834, 40057, 35870, 39315, 35014, 40155, 37837, 38901, 36915, 35149, 49932, 38682, 41768, 40184, 33314, 42356, 41568, 31480, 35132, 36568, 39337, 36881, 36399, 36602, 37581, 32371, 41801, 41175, 33971, 36949, 37576, 39375, 46078, 39188, 48613, 37263, 34900, 37243, 38003, 36518, 44910, 64107, 44689, 21197, 7422, 7420, 6134, 5820, 5771, 6771, 1319],
      "SliceLocation": [-35.914454607921, -34.214456431494, -32.514454498721, -30.814456322294, -29.114456097467, -27.414456038606, -25.714455988267, -24.014455937928, -22.314455887589, -20.614455828728, -18.914455603901, -17.214455553562, -15.514455494701, -13.814455444362, -12.114455394023, -10.414455335162, -8.7144552848232, -7.0144550599959, -5.3144550096569, -3.6144554192741, -1.9144553604134, -0.2144553185961, 1.4855445060257, 3.1855446857314, 4.8855446640725, 6.5855446058137, 8.285544647631, 9.9855447064918, 11.685544765353, 13.38554480717, 15.085544866031, 16.785544924891, 18.485544378729, 20.18554443759, 21.885544496451, 23.585544538268, 25.285544597129, 26.98554465599, 28.685544697807, 30.385544756668, 32.085544798485, 33.785544857346, 35.485544916206, 37.185543084112, 38.885545016884, 40.58554355081, 42.285545466539, 43.985543651488, 45.685545584261, 47.385543752166, 49.085545684939, 50.785543869887, 52.485545785617, 54.185543970565, 55.885545903338, 57.585544071243, 59.285546004016, 60.985544537941, 62.685546453671, 64.38554463862, 66.085546554349, 67.785544739298, 69.485542924246, 71.185541092151, 72.885546772748, 74.585544957697, 76.285543125602, 77.985541310551, 79.685546991148, 81.385545159053, 83.085543692978, 84.785541877927, 86.485547541481, 88.185545726429, 89.885543562402, 91.585541730307, 93.285548108857, 94.985546276762, 96.685544461711, 98.385542646659, 100.08554831021],
