{
  "AcquisitionMatrixPE": 82,
  "AcquisitionNumber": 1,
  "AcquisitionTime": "15:43:33.530000",
  "BandwidthPerPixelPhaseEncode": 24.888,
  "BaseResolution": 82,
  "BodyPartExamined": "BRAIN",
  "ConsistencyInfo": "N4_VE11C_LATEST_20160120",
  "ConversionSoftware": "dcm2niix",
  "ConversionSoftwareVersion": "v1.0.20201102",
  "DerivedVendorReportedEchoSpacing": 0.00049,
  "DeviceSerialNumber": "66112",
  "DwellTime": 2e-06,
  "EchoTime": 0.0272,
  "EchoTrainLength": 82,
  "EffectiveEchoSpacing": 0.00049,
  "FlipAngle": 44,
  "ImageComments": "Unaliased MB8/PE3",
  "ImageOrientationPatientDICOM": [0.999683, -0.0235779, 0.00888234, 0.0204168, 0.964644, 0.262765],
  "ImageType": [
    "ORIGINAL",
    "PRIMARY",
    "M",
    "MB",
    "ND",
    "NORM",
    "MOSAIC"
],
  "ImagingFrequency": 123.252,
  "InPlanePhaseEncodingDirectionDICOM": "COL",
  "InstitutionAddress": "Maynard 3,Hanover,NH,US,03755",
  "InstitutionName": "Dartmouth College - PBS",
  "InstitutionalDepartmentName": "Department",
  "MRAcquisitionType": "2D",
  "MagneticFieldStrength": 3,
  "Manufacturer": "Siemens",
  "ManufacturersModelName": "Prisma",
  "Modality": "MR",
  "MultibandAccelerationFactor": 8,
  "PartialFourier": 1,
  "PatientPosition": "HFS",
  "PercentPhaseFOV": 100,
  "PercentSampling": 100,
  "PhaseEncodingDirection": "j-",
  "PhaseEncodingSteps": 82,
  "PhaseResolution": 1,
  "PixelBandwidth": 3050,
  "ProcedureStepDescription": "Wager_Wager^1076_spacetop",
  "ProtocolName": "func_run-03_task-faces_acq-ap-mb8",
  "PulseSequenceDetails": "%CustomerSeq%\\cmrr_mbep2d_bold",
  "ReceiveCoilActiveElements": "HEA;HEP",
  "ReceiveCoilName": "Head_32",
  "ReconMatrixPE": 82,
  "RepetitionTime": 0.46,
  "SAR": 0.0887704,
  "ScanOptions": "FS",
  "ScanningSequence": "EP",
  "SequenceName": "epfid2d1_82",
  "SequenceVariant": "SK\\SS",
  "SeriesDescription": "func_run-03_task-faces_acq-ap-mb8",
  "SeriesNumber": 20,
  "ShimSetting": [4148, -7779, -7247, 470, -31, -241, 23, 52],
  "SliceThickness": 2.7,
  "SliceTiming": [0, 0.25, 0.0625, 0.3125, 0.125, 0.375, 0.1875, 0, 0.25, 0.0625, 0.3125, 0.125, 0.375, 0.1875, 0, 0.25, 0.0625, 0.3125, 0.125, 0.375, 0.1875, 0, 0.25, 0.0625, 0.3125, 0.125, 0.375, 0.1875, 0, 0.25, 0.0625, 0.3125, 0.125, 0.375, 0.1875, 0, 0.25, 0.0625, 0.3125, 0.125, 0.375, 0.1875, 0, 0.25, 0.0625, 0.3125, 0.125, 0.375, 0.1875, 0, 0.25, 0.0625, 0.3125, 0.125, 0.375, 0.1875],
  "SoftwareVersions": "syngo MR E11",
  "SpacingBetweenSlices": 2.7,
  "StationName": "AWP66112",
  "TaskName": "faces",
  "TotalReadoutTime": 0.03969,
  "TxRefAmp": 239.727,
  "WipMemBlock": "576d2e86-36fe-40d9-be34-6e9fe05ebd69||Sequence: R016 ve11c/master r/e634e98; Dec 19 2017 11:00:25 by eja",
  "dcmmeta_affine": [
    [-2.682075262069702, 0.05477670952677727, 0.03986210748553276, 107.83089447021484],
    [0.06325774639844894, 2.588068723678589, 0.70875084400177, -105.70752716064453],
    [0.023830680176615715, -0.7049794793128967, 2.605011224746704, -29.296693801879883],
    [0.0, 0.0, 0.0, 1.0]
],
  "dcmmeta_reorient_transform": [
    [0.0, -1.0, 0.0, 81.0],
    [1.0, 0.0, 0.0, 0.0],
    [0.0, 0.0, 1.0, 0.0],
    [0.0, 0.0, 0.0, 1.0]
],
  "dcmmeta_shape": [82, 82, 56, 914],
  "dcmmeta_slice_dim": 2,
  "dcmmeta_version": 0.6,
  "global": {
    "const": {
      "AccessionNumber": "A003438",
      "AcquisitionMatrix": [82, 0, 0, 82],
      "AngioFlag": "N",
      "BitsAllocated": 16,
      "BitsStored": 16,
      "BodyPartExamined": "BRAIN",
      "Columns": 656,
      "EchoNumbers": 1,
      "EchoTime": 27.2,
      "EchoTrainLength": 82,
      "FlipAngle": 44.0,
      "HighBit": 15,
      "ImageOrientationPatient": [0.99968254324136, -0.0235778858671, 0.00888234408988, 0.02041677328287, 0.96464380709929, 0.26276506768157],
      "ImagePositionPatient": [-897.74430191924, -828.5468262921, -295.56854214518],
      "ImageType": [
        "ORIGINAL",
        "PRIMARY",
        "M",
        "MB",
        "ND",
        "NORM",
        "MOSAIC"
],
      "ImagedNucleus": "1H",
      "ImagingFrequency": 123.252148,
      "InPlanePhaseEncodingDirection": "COL",
      "MRAcquisitionType": "2D",
      "MagneticFieldStrength": 3.0,
      "Manufacturer": "SIEMENS",
      "ManufacturerModelName": "Prisma",
      "Modality": "MR",
      "NumberOfAverages": 1.0,
      "NumberOfPhaseEncodingSteps": 82,
      "PercentPhaseFieldOfView": 100.0,
      "PercentSampling": 100.0,
      "PerformedProcedureStepStartTime": "135707.521000",
      "PhotometricInterpretation": "MONOCHROME2",
      "PixelBandwidth": 3050.0,
      "PixelRepresentation": 0,
      "PixelSpacing": [2.6829268932343, 2.6829268932343],
      "ProtocolName": "func_run-03_task-faces_acq-ap-mb8",
      "RepetitionTime": 460.0,
      "Rows": 656,
      "SAR": 0.08877043890853,
      "SamplesPerPixel": 1,
      "ScanOptions": "FS",
      "ScanningSequence": "EP",
      "SequenceName": "epfid2d1_82",
      "SequenceVariant": [
        "SK",
        "SS"
],
      "SeriesDescription": "func_run-03_task-faces_acq-ap-mb8",
      "SeriesNumber": 20,
      "SeriesTime": "154355.767000",
      "SliceLocation": -54.42227452871,
      "SliceThickness": 2.7000000476837,
      "SmallestImagePixelValue": 0,
      "SoftwareVersions": "syngo MR E11",
      "SpacingBetweenSlices": 2.7000000732422,
      "SpecificCharacterSet": "ISO_IR 100",
      "StudyID": "2",
      "StudyTime": "135707.383000",
      "TransmitCoilName": "Body",
      "VariableFlipAngleFlag": "N",
      "WindowCenterWidthExplanation": "Algo1",
      "dBdt": 0.0},
    "slices": {}
  },
  "time": {
    "samples": {
      "AcquisitionNumber": [1, 2, 3, 4, 5, 6, 7, 8, 9, 10, 11, 12, 13, 14, 15, 16, 17, 18, 19, 20, 21, 22, 23, 24, 25, 26, 27, 28, 29, 30, 31, 32, 33, 34, 35, 36, 37, 38, 39, 40, 41, 42, 43, 44, 45, 46, 47, 48, 49, 50, 51, 52, 53, 54, 55, 56, 57, 58, 59, 60, 61, 62, 63, 64, 65, 66, 67, 68, 69, 70, 71, 72, 73, 74, 75, 76, 77, 78, 79, 80, 81, 82, 83, 84, 85, 86, 87, 88, 89, 90, 91, 92, 93, 94, 95, 96, 97, 98, 99, 100, 101, 102, 103, 104, 105, 106, 107, 108, 109, 110, 111, 112, 113, 114, 115, 116, 117, 118, 119, 120, 121, 122, 123, 124, 125, 126, 127, 128, 129, 130, 131, 132, 133, 134, 135, 136, 137, 138, 139, 140, 141, 142, 143, 144, 145, 146, 147, 148, 149, 150, 151, 152, 153, 154, 155, 156, 157, 158, 159, 160, 161, 162, 163, 164, 165, 166, 167, 168, 169, 170, 171, 172, 173, 174, 175, 176, 177, 178, 179, 180, 181, 182, 183, 184, 185, 186, 187, 188, 189, 190, 191, 192, 193, 194, 195, 196, 197, 198, 199, 200, 201, 202, 203, 204, 205, 206, 207, 208, 209, 210, 211, 212, 213, 214, 215, 216, 217, 218, 219, 220, 221, 222, 223, 224, 225, 226, 227, 228, 229, 230, 231, 232, 233, 234, 235, 236, 237, 238, 239, 240, 241, 242, 243, 244, 245, 246, 247, 248, 249, 250, 251, 252, 253, 254, 255, 256, 257, 258, 259, 260, 261, 262, 263, 264, 265, 266, 267, 268, 269, 270, 271, 272, 273, 274, 275, 276, 277, 278, 279, 280, 281, 282, 283, 284, 285, 286, 287, 288, 289, 290, 291, 292, 293, 294, 295, 296, 297, 298, 299, 300, 301, 302, 303, 304, 305, 306, 307, 308, 309, 310, 311, 312, 313, 314, 315, 316, 317, 318, 319, 320, 321, 322, 323, 324, 325, 326, 327, 328, 329, 330, 331, 332, 333, 334, 335, 336, 337, 338, 339, 340, 341, 342, 343, 344, 345, 346, 347, 348, 349, 350, 351, 352, 353, 354, 355, 356, 357, 358, 359, 360, 361, 362, 363, 364, 365, 366, 367, 368, 369, 370, 371, 372, 373, 374, 375, 376, 377, 378, 379, 380, 381, 382, 383, 384, 385, 386, 387, 388, 389, 390, 391, 392, 393, 394, 395, 396, 397, 398, 399, 400, 401, 402, 403, 404, 405, 406, 407, 408, 409, 410, 411, 412, 413, 414, 415, 416, 417, 418, 419, 420, 421, 422, 423, 424, 425, 426, 427, 428, 429, 430, 431, 432, 433, 434, 435, 436, 437, 438, 439, 440, 441, 442, 443, 444, 445, 446, 447, 448, 449, 450, 451, 452, 453, 454, 455, 456, 457, 458, 459, 460, 461, 462, 463, 464, 465, 466, 467, 468, 469, 470, 471, 472, 473, 474, 475, 476, 477, 478, 479, 480, 481, 482, 483, 484, 485, 486, 487, 488, 489, 490, 491, 492, 493, 494, 495, 496, 497, 498, 499, 500, 501, 502, 503, 504, 505, 506, 507, 508, 509, 510, 511, 512, 513, 514, 515, 516, 517, 518, 519, 520, 521, 522, 523, 524, 525, 526, 527, 528, 529, 530, 531, 532, 533, 534, 535, 536, 537, 538, 539, 540, 541, 542, 543, 544, 545, 546, 547, 548, 549, 550, 551, 552, 553, 554, 555, 556, 557, 558, 559, 560, 561, 562, 563, 564, 565, 566, 567, 568, 569, 570, 571, 572, 573, 574, 575, 576, 577, 578, 579, 580, 581, 582, 583, 584, 585, 586, 587, 588, 589, 590, 591, 592, 593, 594, 595, 596, 597, 598, 599, 600, 601, 602, 603, 604, 605, 606, 607, 608, 609, 610, 611, 612, 613, 614, 615, 616, 617, 618, 619, 620, 621, 622, 623, 624, 625, 626, 627, 628, 629, 630, 631, 632, 633, 634, 635, 636, 637, 638, 639, 640, 641, 642, 643, 644, 645, 646, 647, 648, 649, 650, 651, 652, 653, 654, 655, 656, 657, 658, 659, 660, 661, 662, 663, 664, 665, 666, 667, 668, 669, 670, 671, 672, 673, 674, 675, 676, 677, 678, 679, 680, 681, 682, 683, 684, 685, 686, 687, 688, 689, 690, 691, 692, 693, 694, 695, 696, 697, 698, 699, 700, 701, 702, 703, 704, 705, 706, 707, 708, 709, 710, 711, 712, 713, 714, 715, 716, 717, 718, 719, 720, 721, 722, 723, 724, 725, 726, 727, 728, 729, 730, 731, 732, 733, 734, 735, 736, 737, 738, 739, 740, 741, 742, 743, 744, 745, 746, 747, 748, 749, 750, 751, 752, 753, 754, 755, 756, 757, 758, 759, 760, 761, 762, 763, 764, 765, 766, 767, 768, 769, 770, 771, 772, 773, 774, 775, 776, 777, 778, 779, 780, 781, 782, 783, 784, 785, 786, 787, 788, 789, 790, 791, 792, 793, 794, 795, 796, 797, 798, 799, 800, 801, 802, 803, 804, 805, 806, 807, 808, 809, 810, 811, 812, 813, 814, 815, 816, 817, 818, 819, 820, 821, 822, 823, 824, 825, 826, 827, 828, 829, 830, 831, 832, 833, 834, 835, 836, 837, 838, 839, 840, 841, 842, 843, 844, 845, 846, 847, 848, 849, 850, 851, 852, 853, 854, 855, 856, 857, 858, 859, 860, 861, 862, 863, 864, 865, 866, 867, 868, 869, 870, 871, 872, 873, 874, 875, 876, 877, 878, 879, 880, 881, 882, 883, 884, 885, 886, 887, 888, 889, 890, 891, 892, 893, 894, 895, 896, 897, 898, 899, 900, 901, 902, 903, 904, 905, 906, 907, 908, 909, 910, 911, 912, 913, 914],
      "AcquisitionTime": ["154333.530000", "154333.990000", "154334.450000", "154334.910000", "154335.370000", "154335.830000", "154336.290000", "154336.750000", "154337.210000", "154337.670000", "154338.130000", "154338.590000", "154339.050000", "154339.510000", "154339.970000", "154340.430000", "154340.890000", "154341.350000", "154341.810000", "154342.270000", "154342.730000", "154343.190000", "154343.650000", "154344.110000", "154344.570000", "154345.030000", "154345.490000", "154345.950000", "154346.410000", "154346.870000", "154347.330000", "154347.790000", "154348.250000", "154348.710000", "154349.170000", "154349.630000", "154350.090000", "154350.550000", "154351.010000", "154351.470000", "154351.930000", "154352.390000", "154352.850000", "154353.310000", "154353.770000", "154354.230000", "154354.690000", "154355.150000", "154355.610000", "154356.070000", "154356.530000", "154356.990000", "154357.450000", "154357.910000", "154358.370000", "154358.830000", "154359.290000", "154359.750000", "154400.210000", "154400.670000", "154401.130000", "154401.590000", "154402.050000", "154402.510000", "154402.970000", "154403.430000", "154403.890000", "154404.350000", "154404.810000", "154405.270000", "154405.730000", "154406.190000", "154406.650000", "154407.110000", "154407.570000", "154408.030000", "154408.490000", "154408.950000", "154409.410000", "154409.870000", "154410.330000", "154410.790000", "154411.250000", "154411.710000", "154412.170000", "154412.630000", "154413.090000", "154413.550000", "154414.010000", "154414.470000", "154414.930000", "154415.390000", "154415.850000", "154416.310000", "154416.770000", "154417.230000", "154417.690000", "154418.150000", "154418.610000", "154419.070000", "154419.530000", "154419.990000", "154420.450000", "154420.910000", "154421.370000", "154421.830000", "154422.290000", "154422.750000", "154423.210000", "154423.670000", "154424.130000", "154424.590000", "154425.050000", "154425.510000", "154425.970000", "154426.430000", "154426.890000", "154427.350000", "154427.810000", "154428.270000", "154428.730000", "154429.190000", "154429.650000", "154430.110000", "154430.570000", "154431.030000", "154431.490000", "154431.950000", "154432.410000", "154432.870000", "154433.330000", "154433.790000", "154434.250000", "154434.710000", "154435.170000", "154435.630000", "154436.090000", "154436.550000", "154437.010000", "154437.470000", "154437.930000", "154438.390000", "154438.850000", "154439.310000", "154439.770000", "154440.230000", "154440.690000", "154441.150000", "154441.610000", "154442.070000", "154442.530000", "154442.990000", "154443.450000", "154443.910000", "154444.370000", "154444.830000", "154445.290000", "154445.750000", "154446.210000", "154446.670000", "154447.130000", "154447.590000", "154448.050000", "154448.510000", "154448.970000", "154449.430000", "154449.890000", "154450.350000", "154450.810000", "154451.270000", "154451.730000", "154452.190000", "154452.650000", "154453.110000", "154453.570000", "154454.030000", "154454.490000", "154454.950000", "154455.410000", "154455.870000", "154456.330000", "154456.790000", "154457.250000", "154457.710000", "154458.170000", "154458.630000", "154459.090000", "154459.550000", "154500.010000", "154500.470000", "154500.930000", "154501.390000", "154501.850000", "154502.310000", "154502.770000", "154503.230000", "154503.690000", "154504.150000", "154504.610000", "154505.070000", "154505.530000", "154505.990000", "154506.450000", "154506.910000", "154507.370000", "154507.830000", "154508.290000", "154508.750000", "154509.210000", "154509.670000", "154510.130000", "154510.590000", "154511.050000", "154511.510000", "154511.970000", "154512.430000", "154512.890000", "154513.350000", "154513.810000", "154514.270000", "154514.730000", "154515.190000", "154515.650000", "154516.110000", "154516.570000", "154517.030000", "154517.490000", "154517.950000", "154518.410000", "154518.870000", "154519.330000", "154519.790000", "154520.250000", "154520.710000", "154521.170000", "154521.630000", "154522.090000", "154522.550000", "154523.010000", "154523.470000", "154523.930000", "154524.390000", "154524.850000", "154525.310000", "154525.770000", "154526.230000", "154526.690000", "154527.150000", "154527.610000", "154528.070000", "154528.530000", "154528.990000", "154529.450000", "154529.910000", "154530.370000", "154530.830000", "154531.290000", "154531.750000", "154532.210000", "154532.670000", "154533.130000", "154533.590000", "154534.050000", "154534.510000", "154534.970000", "154535.430000", "154535.890000", "154536.350000", "154536.810000", "154537.270000", "154537.730000", "154538.190000", "154538.650000", "154539.110000", "154539.570000", "154540.030000", "154540.490000", "154540.950000", "154541.410000", "154541.870000", "154542.330000", "154542.790000", "154543.250000", "154543.710000", "154544.170000", "154544.630000", "154545.090000", "154545.550000", "154546.010000", "154546.470000", "154546.930000", "154547.390000", "154547.850000", "154548.310000", "154548.770000", "154549.230000", "154549.690000", "154550.150000", "154550.610000", "154551.070000", "154551.530000", "154551.990000", "154552.450000", "154552.910000", "154553.370000", "154553.830000", "154554.290000", "154554.750000", "154555.210000", "154555.670000", "154556.130000", "154556.590000", "154557.050000", "154557.510000", "154557.970000", "154558.430000", "154558.890000", "154559.350000", "154559.810000", "154600.270000", "154600.730000", "154601.190000", "154601.650000", "154602.110000", "154602.570000", "154603.030000", "154603.490000", "154603.950000", "154604.410000", "154604.870000", "154605.330000", "154605.790000", "154606.250000", "154606.710000", "154607.170000", "154607.630000", "154608.090000", "154608.550000", "154609.010000", "154609.470000", "154609.930000", "154610.390000", "154610.850000", "154611.310000", "154611.770000", "154612.230000", "154612.690000", "154613.150000", "154613.610000", "154614.070000", "154614.530000", "154614.990000", "154615.450000", "154615.910000", "154616.370000", "154616.830000", "154617.290000", "154617.750000", "154618.210000", "154618.670000", "154619.130000", "154619.590000", "154620.050000", "154620.510000", "154620.970000", "154621.430000", "154621.890000", "154622.350000", "154622.810000", "154623.270000", "154623.730000", "154624.190000", "154624.650000", "154625.110000", "154625.570000", "154626.030000", "154626.490000", "154626.950000", "154627.410000", "154627.870000", "154628.330000", "154628.790000", "154629.250000", "154629.710000", "154630.170000", "154630.630000", "154631.090000", "154631.550000", "154632.010000", "154632.470000", "154632.930000", "154633.390000", "154633.850000", "154634.310000", "154634.770000", "154635.230000", "154635.690000", "154636.150000", "154636.610000", "154637.070000", "154637.530000", "154637.990000", "154638.450000", "154638.910000", "154639.370000", "154639.830000", "154640.290000", "154640.750000", "154641.210000", "154641.670000", "154642.130000", "154642.590000", "154643.050000", "154643.510000", "154643.970000", "154644.430000", "154644.890000", "154645.350000", "154645.810000", "154646.270000", "154646.730000", "154647.190000", "154647.650000", "154648.110000", "154648.570000", "154649.030000", "154649.490000", "154649.950000", "154650.410000", "154650.870000", "154651.330000", "154651.790000", "154652.250000", "154652.710000", "154653.170000", "154653.630000", "154654.090000", "154654.550000", "154655.010000", "154655.470000", "154655.930000", "154656.390000", "154656.850000", "154657.310000", "154657.770000", "154658.230000", "154658.690000", "154659.150000", "154659.610000", "154700.070000", "154700.530000", "154700.990000", "154701.450000", "154701.910000", "154702.370000", "154702.830000", "154703.290000", "154703.750000", "154704.210000", "154704.670000", "154705.130000", "154705.590000", "154706.050000", "154706.510000", "154706.970000", "154707.430000", "154707.890000", "154708.350000", "154708.810000", "154709.270000", "154709.730000", "154710.190000", "154710.650000", "154711.110000", "154711.570000", "154712.030000", "154712.490000", "154712.950000", "154713.410000", "154713.870000", "154714.330000", "154714.790000", "154715.250000", "154715.710000", "154716.170000", "154716.630000", "154717.090000", "154717.550000", "154718.010000", "154718.470000", "154718.930000", "154719.390000", "154719.850000", "154720.310000", "154720.770000", "154721.230000", "154721.690000", "154722.150000", "154722.610000", "154723.070000", "154723.530000", "154723.990000", "154724.450000", "154724.910000", "154725.370000", "154725.830000", "154726.290000", "154726.750000", "154727.210000", "154727.670000", "154728.130000", "154728.590000", "154729.050000", "154729.510000", "154729.970000", "154730.430000", "154730.890000", "154731.350000", "154731.810000", "154732.270000", "154732.730000", "154733.190000", "154733.650000", "154734.110000", "154734.570000", "154735.030000", "154735.490000", "154735.950000", "154736.410000", "154736.870000", "154737.330000", "154737.790000", "154738.250000", "154738.710000", "154739.170000", "154739.630000", "154740.090000", "154740.550000", "154741.010000", "154741.470000", "154741.930000", "154742.390000", "154742.850000", "154743.310000", "154743.770000", "154744.230000", "154744.690000", "154745.150000", "154745.610000", "154746.070000", "154746.530000", "154746.990000", "154747.450000", "154747.910000", "154748.370000", "154748.830000", "154749.290000", "154749.750000", "154750.210000", "154750.670000", "154751.130000", "154751.590000", "154752.050000", "154752.510000", "154752.970000", "154753.430000", "154753.890000", "154754.350000", "154754.810000", "154755.270000", "154755.730000", "154756.190000", "154756.650000", "154757.110000", "154757.570000", "154758.030000", "154758.490000", "154758.950000", "154759.410000", "154759.870000", "154800.330000", "154800.790000", "154801.250000", "154801.710000", "154802.170000", "154802.630000", "154803.090000", "154803.550000", "154804.010000", "154804.470000", "154804.930000", "154805.390000", "154805.850000", "154806.310000", "154806.770000", "154807.230000", "154807.690000", "154808.150000", "154808.610000", "154809.070000", "154809.530000", "154809.990000", "154810.450000", "154810.910000", "154811.370000", "154811.830000", "154812.290000", "154812.750000", "154813.210000", "154813.670000", "154814.130000", "154814.590000", "154815.050000", "154815.510000", "154815.970000", "154816.430000", "154816.890000", "154817.350000", "154817.810000", "154818.270000", "154818.730000", "154819.190000", "154819.650000", "154820.110000", "154820.570000", "154821.030000", "154821.490000", "154821.950000", "154822.410000", "154822.870000", "154823.330000", "154823.790000", "154824.250000", "154824.710000", "154825.170000", "154825.630000", "154826.090000", "154826.550000", "154827.010000", "154827.470000", "154827.930000", "154828.390000", "154828.850000", "154829.310000", "154829.770000", "154830.230000", "154830.690000", "154831.150000", "154831.610000", "154832.070000", "154832.530000", "154832.990000", "154833.450000", "154833.910000", "154834.370000", "154834.830000", "154835.290000", "154835.750000", "154836.210000", "154836.670000", "154837.130000", "154837.590000", "154838.050000", "154838.510000", "154838.970000", "154839.430000", "154839.890000", "154840.350000", "154840.810000", "154841.270000", "154841.730000", "154842.190000", "154842.650000", "154843.110000", "154843.570000", "154844.030000", "154844.490000", "154844.950000", "154845.410000", "154845.870000", "154846.330000", "154846.790000", "154847.250000", "154847.710000", "154848.170000", "154848.630000", "154849.090000", "154849.550000", "154850.010000", "154850.470000", "154850.930000", "154851.390000", "154851.850000", "154852.310000", "154852.770000", "154853.230000", "154853.690000", "154854.150000", "154854.610000", "154855.070000", "154855.530000", "154855.990000", "154856.450000", "154856.910000", "154857.370000", "154857.830000", "154858.290000", "154858.750000", "154859.210000", "154859.670000", "154900.130000", "154900.590000", "154901.050000", "154901.510000", "154901.970000", "154902.430000", "154902.890000", "154903.350000", "154903.810000", "154904.270000", "154904.730000", "154905.190000", "154905.650000", "154906.110000", "154906.570000", "154907.030000", "154907.490000", "154907.950000", "154908.410000", "154908.870000", "154909.330000", "154909.790000", "154910.250000", "154910.710000", "154911.170000", "154911.630000", "154912.090000", "154912.550000", "154913.010000", "154913.470000", "154913.930000", "154914.390000", "154914.850000", "154915.310000", "154915.770000", "154916.230000", "154916.690000", "154917.150000", "154917.610000", "154918.070000", "154918.530000", "154918.990000", "154919.450000", "154919.910000", "154920.370000", "154920.830000", "154921.290000", "154921.750000", "154922.210000", "154922.670000", "154923.130000", "154923.590000", "154924.050000", "154924.510000", "154924.970000", "154925.430000", "154925.890000", "154926.350000", "154926.810000", "154927.270000", "154927.730000", "154928.190000", "154928.650000", "154929.110000", "154929.570000", "154930.030000", "154930.490000", "154930.950000", "154931.410000", "154931.870000", "154932.330000", "154932.790000", "154933.250000", "154933.710000", "154934.170000", "154934.630000", "154935.090000", "154935.550000", "154936.010000", "154936.470000", "154936.930000", "154937.390000", "154937.850000", "154938.310000", "154938.770000", "154939.230000", "154939.690000", "154940.150000", "154940.610000", "154941.070000", "154941.530000", "154941.990000", "154942.450000", "154942.910000", "154943.370000", "154943.830000", "154944.290000", "154944.750000", "154945.210000", "154945.670000", "154946.130000", "154946.590000", "154947.050000", "154947.510000", "154947.970000", "154948.430000", "154948.890000", "154949.350000", "154949.810000", "154950.270000", "154950.730000", "154951.190000", "154951.650000", "154952.110000", "154952.570000", "154953.030000", "154953.490000", "154953.950000", "154954.410000", "154954.870000", "154955.330000", "154955.790000", "154956.250000", "154956.710000", "154957.170000", "154957.630000", "154958.090000", "154958.550000", "154959.010000", "154959.470000", "154959.930000", "155000.390000", "155000.850000", "155001.310000", "155001.770000", "155002.230000", "155002.690000", "155003.150000", "155003.610000", "155004.070000", "155004.530000", "155004.990000", "155005.450000", "155005.910000", "155006.370000", "155006.830000", "155007.290000", "155007.750000", "155008.210000", "155008.670000", "155009.130000", "155009.590000", "155010.050000", "155010.510000", "155010.970000", "155011.430000", "155011.890000", "155012.350000", "155012.810000", "155013.270000", "155013.730000", "155014.190000", "155014.650000", "155015.110000", "155015.570000", "155016.030000", "155016.490000", "155016.950000", "155017.410000", "155017.870000", "155018.330000", "155018.790000", "155019.250000", "155019.710000", "155020.170000", "155020.630000", "155021.090000", "155021.550000", "155022.010000", "155022.470000", "155022.930000", "155023.390000", "155023.850000", "155024.310000", "155024.770000", "155025.230000", "155025.690000", "155026.150000", "155026.610000", "155027.070000", "155027.530000", "155027.990000", "155028.450000", "155028.910000", "155029.370000", "155029.830000", "155030.290000", "155030.750000", "155031.210000", "155031.670000", "155032.130000", "155032.590000", "155033.050000", "155033.510000"],
