{
  "AcquisitionMatrixPE": 82,
  "AcquisitionNumber": 1,
  "AcquisitionTime": "13:37:13.227500",
  "BandwidthPerPixelPhaseEncode": 24.888,
  "BaseResolution": 82,
  "BodyPartExamined": "BRAIN",
  "ConsistencyInfo": "N4_VE11E_LATEST_20181129",
  "ConversionSoftware": "dcm2niix",
  "ConversionSoftwareVersion": "v1.0.20201102",
  "DerivedVendorReportedEchoSpacing": 0.00049,
  "DeviceSerialNumber": "66112",
  "DwellTime": 2e-06,
  "EchoTime": 0.0272,
  "EchoTrainLength": 82,
  "EffectiveEchoSpacing": 0.00049,
  "FlipAngle": 44,
  "ImageComments": "Unaliased MB8/PE3",
  "ImageOrientationPatientDICOM": [0.997954, -0.0639181, -0.00135592, 0.0638352, 0.997381, -0.0340054],
  "ImageType": [
    "ORIGINAL",
    "PRIMARY",
    "M",
    "MB",
    "ND",
    "NORM",
    "MOSAIC"
],
  "ImagingFrequency": 123.259,
  "InPlanePhaseEncodingDirectionDICOM": "COL",
  "InstitutionAddress": "Maynard 3,Hanover,NH,US,03755",
  "InstitutionName": "Dartmouth College - PBS",
  "InstitutionalDepartmentName": "Department",
  "MRAcquisitionType": "2D",
  "MagneticFieldStrength": 3,
  "Manufacturer": "Siemens",
  "ManufacturersModelName": "Prisma",
  "Modality": "MR",
  "MultibandAccelerationFactor": 8,
  "PartialFourier": 1,
  "PatientPosition": "HFS",
  "PercentPhaseFOV": 100,
  "PercentSampling": 100,
  "PhaseEncodingDirection": "j-",
  "PhaseEncodingSteps": 82,
  "PhaseResolution": 1,
  "PixelBandwidth": 3050,
  "ProcedureStepDescription": "Wager_Wager^1076_spacetop",
  "ProtocolName": "func_run-05_task-social_acq-ap-mb8",
  "PulseSequenceDetails": "%CustomerSeq%\\cmrr_mbep2d_bold",
  "ReceiveCoilActiveElements": "HEA;HEP",
  "ReceiveCoilName": "Head_32",
  "ReconMatrixPE": 82,
  "RepetitionTime": 0.46,
  "SAR": 0.102817,
  "ScanOptions": "FS",
  "ScanningSequence": "EP",
  "SequenceName": "epfid2d1_82",
  "SequenceVariant": "SK\\SS",
  "SeriesDescription": "func_run-05_task-social_acq-ap-mb8",
  "SeriesNumber": 16,
  "ShimSetting": [4227, -7816, -7246, 193, -126, -105, -77, 110],
  "SliceThickness": 2.7,
  "SliceTiming": [0, 0.2525, 0.065, 0.315, 0.1275, 0.3775, 0.19, 0, 0.2525, 0.065, 0.315, 0.1275, 0.3775, 0.19, 0, 0.2525, 0.065, 0.315, 0.1275, 0.3775, 0.19, 0, 0.2525, 0.065, 0.315, 0.1275, 0.3775, 0.19, 0, 0.2525, 0.065, 0.315, 0.1275, 0.3775, 0.19, 0, 0.2525, 0.065, 0.315, 0.1275, 0.3775, 0.19, 0, 0.2525, 0.065, 0.315, 0.1275, 0.3775, 0.19, 0, 0.2525, 0.065, 0.315, 0.1275, 0.3775, 0.19],
  "SoftwareVersions": "syngo MR E11",
  "SpacingBetweenSlices": 2.7,
  "StationName": "AWP66112",
  "TaskName": "social",
  "TotalReadoutTime": 0.03969,
  "TxRefAmp": 255.014,
  "WipMemBlock": "3c057797-acf5-4652-b9e6-3968ee49ff85||Sequence: R016 ve11e/master r/434b28f1; Aug  7 2019 18:53:46 by eja",
  "dcmmeta_affine": [
    [-2.677438259124756, 0.1712651401758194, -0.009520009160041809, 107.71919250488281],
    [0.17148761451244354, 2.6758999824523926, -0.09139318019151688, -93.42142486572266],
    [-0.003637824673205614, 0.09123413264751434, 2.6984360218048096, -61.35944366455078],
    [0.0, 0.0, 0.0, 1.0]
],
  "dcmmeta_reorient_transform": [
    [0.0, -1.0, 0.0, 81.0],
    [1.0, 0.0, 0.0, 0.0],
    [0.0, 0.0, 1.0, 0.0],
    [0.0, 0.0, 0.0, 1.0]
],
  "dcmmeta_shape": [82, 82, 56, 872],
  "dcmmeta_slice_dim": 2,
  "dcmmeta_version": 0.6,
  "global": {
    "const": {
      "AccessionNumber": "A004365",
      "AcquisitionMatrix": [82, 0, 0, 82],
      "AngioFlag": "N",
      "BitsAllocated": 16,
      "BitsStored": 16,
      "BodyPartExamined": "BRAIN",
      "Columns": 656,
      "EchoNumbers": 1,
      "EchoTime": 27.2,
      "EchoTrainLength": 82,
      "FlipAngle": 44.0,
      "HighBit": 15,
      "ImageOrientationPatient": [0.99795422574066, -0.063918110242, -0.0013559164634, 0.06383518739365, 0.99738091937303, -0.034005448402],
      "ImagePositionPatient": [-939.16953806503, -842.09286618982, -26.741228217979],
      "ImageType": [
        "ORIGINAL",
        "PRIMARY",
        "M",
        "MB",
        "ND",
        "NORM",
        "MOSAIC"
],
      "ImagedNucleus": "1H",
      "ImagingFrequency": 123.259075,
      "InPlanePhaseEncodingDirection": "COL",
      "MRAcquisitionType": "2D",
      "MagneticFieldStrength": 3.0,
      "Manufacturer": "SIEMENS",
      "ManufacturerModelName": "Prisma",
      "Modality": "MR",
      "NumberOfAverages": 1.0,
      "NumberOfPhaseEncodingSteps": 82,
      "PercentPhaseFieldOfView": 100.0,
      "PercentSampling": 100.0,
      "PerformedProcedureStepStartTime": "125845.770000",
      "PhotometricInterpretation": "MONOCHROME2",
      "PixelBandwidth": 3050.0,
      "PixelRepresentation": 0,
      "PixelSpacing": [2.6829268932343, 2.6829268932343],
      "ProtocolName": "func_run-05_task-social_acq-ap-mb8",
      "RepetitionTime": 460.0,
      "Rows": 656,
      "SAR": 0.10281660701629,
      "SamplesPerPixel": 1,
      "ScanOptions": "FS",
      "ScanningSequence": "EP",
      "SequenceName": "epfid2d1_82",
      "SequenceVariant": [
        "SK",
        "SS"
],
      "SeriesDescription": "func_run-05_task-social_acq-ap-mb8",
      "SeriesNumber": 16,
      "SeriesTime": "133733.150000",
      "SliceLocation": -58.541458810526,
      "SliceThickness": 2.7000000476837,
      "SmallestImagePixelValue": 0,
      "SoftwareVersions": "syngo MR E11",
      "SpacingBetweenSlices": 2.7000000086073,
      "SpecificCharacterSet": "ISO_IR 100",
      "StudyID": "4",
      "StudyTime": "125845.569000",
      "TransmitCoilName": "Body",
      "VariableFlipAngleFlag": "N",
      "WindowCenterWidthExplanation": "Algo1"
    },
    "slices": {}
  },
  "time": {
    "samples": {
      "AcquisitionNumber": [1, 2, 3, 4, 5, 6, 7, 8, 9, 10, 11, 12, 13, 14, 15, 16, 17, 18, 19, 20, 21, 22, 23, 24, 25, 26, 27, 28, 29, 30, 31, 32, 33, 34, 35, 36, 37, 38, 39, 40, 41, 42, 43, 44, 45, 46, 47, 48, 49, 50, 51, 52, 53, 54, 55, 56, 57, 58, 59, 60, 61, 62, 63, 64, 65, 66, 67, 68, 69, 70, 71, 72, 73, 74, 75, 76, 77, 78, 79, 80, 81, 82, 83, 84, 85, 86, 87, 88, 89, 90, 91, 92, 93, 94, 95, 96, 97, 98, 99, 100, 101, 102, 103, 104, 105, 106, 107, 108, 109, 110, 111, 112, 113, 114, 115, 116, 117, 118, 119, 120, 121, 122, 123, 124, 125, 126, 127, 128, 129, 130, 131, 132, 133, 134, 135, 136, 137, 138, 139, 140, 141, 142, 143, 144, 145, 146, 147, 148, 149, 150, 151, 152, 153, 154, 155, 156, 157, 158, 159, 160, 161, 162, 163, 164, 165, 166, 167, 168, 169, 170, 171, 172, 173, 174, 175, 176, 177, 178, 179, 180, 181, 182, 183, 184, 185, 186, 187, 188, 189, 190, 191, 192, 193, 194, 195, 196, 197, 198, 199, 200, 201, 202, 203, 204, 205, 206, 207, 208, 209, 210, 211, 212, 213, 214, 215, 216, 217, 218, 219, 220, 221, 222, 223, 224, 225, 226, 227, 228, 229, 230, 231, 232, 233, 234, 235, 236, 237, 238, 239, 240, 241, 242, 243, 244, 245, 246, 247, 248, 249, 250, 251, 252, 253, 254, 255, 256, 257, 258, 259, 260, 261, 262, 263, 264, 265, 266, 267, 268, 269, 270, 271, 272, 273, 274, 275, 276, 277, 278, 279, 280, 281, 282, 283, 284, 285, 286, 287, 288, 289, 290, 291, 292, 293, 294, 295, 296, 297, 298, 299, 300, 301, 302, 303, 304, 305, 306, 307, 308, 309, 310, 311, 312, 313, 314, 315, 316, 317, 318, 319, 320, 321, 322, 323, 324, 325, 326, 327, 328, 329, 330, 331, 332, 333, 334, 335, 336, 337, 338, 339, 340, 341, 342, 343, 344, 345, 346, 347, 348, 349, 350, 351, 352, 353, 354, 355, 356, 357, 358, 359, 360, 361, 362, 363, 364, 365, 366, 367, 368, 369, 370, 371, 372, 373, 374, 375, 376, 377, 378, 379, 380, 381, 382, 383, 384, 385, 386, 387, 388, 389, 390, 391, 392, 393, 394, 395, 396, 397, 398, 399, 400, 401, 402, 403, 404, 405, 406, 407, 408, 409, 410, 411, 412, 413, 414, 415, 416, 417, 418, 419, 420, 421, 422, 423, 424, 425, 426, 427, 428, 429, 430, 431, 432, 433, 434, 435, 436, 437, 438, 439, 440, 441, 442, 443, 444, 445, 446, 447, 448, 449, 450, 451, 452, 453, 454, 455, 456, 457, 458, 459, 460, 461, 462, 463, 464, 465, 466, 467, 468, 469, 470, 471, 472, 473, 474, 475, 476, 477, 478, 479, 480, 481, 482, 483, 484, 485, 486, 487, 488, 489, 490, 491, 492, 493, 494, 495, 496, 497, 498, 499, 500, 501, 502, 503, 504, 505, 506, 507, 508, 509, 510, 511, 512, 513, 514, 515, 516, 517, 518, 519, 520, 521, 522, 523, 524, 525, 526, 527, 528, 529, 530, 531, 532, 533, 534, 535, 536, 537, 538, 539, 540, 541, 542, 543, 544, 545, 546, 547, 548, 549, 550, 551, 552, 553, 554, 555, 556, 557, 558, 559, 560, 561, 562, 563, 564, 565, 566, 567, 568, 569, 570, 571, 572, 573, 574, 575, 576, 577, 578, 579, 580, 581, 582, 583, 584, 585, 586, 587, 588, 589, 590, 591, 592, 593, 594, 595, 596, 597, 598, 599, 600, 601, 602, 603, 604, 605, 606, 607, 608, 609, 610, 611, 612, 613, 614, 615, 616, 617, 618, 619, 620, 621, 622, 623, 624, 625, 626, 627, 628, 629, 630, 631, 632, 633, 634, 635, 636, 637, 638, 639, 640, 641, 642, 643, 644, 645, 646, 647, 648, 649, 650, 651, 652, 653, 654, 655, 656, 657, 658, 659, 660, 661, 662, 663, 664, 665, 666, 667, 668, 669, 670, 671, 672, 673, 674, 675, 676, 677, 678, 679, 680, 681, 682, 683, 684, 685, 686, 687, 688, 689, 690, 691, 692, 693, 694, 695, 696, 697, 698, 699, 700, 701, 702, 703, 704, 705, 706, 707, 708, 709, 710, 711, 712, 713, 714, 715, 716, 717, 718, 719, 720, 721, 722, 723, 724, 725, 726, 727, 728, 729, 730, 731, 732, 733, 734, 735, 736, 737, 738, 739, 740, 741, 742, 743, 744, 745, 746, 747, 748, 749, 750, 751, 752, 753, 754, 755, 756, 757, 758, 759, 760, 761, 762, 763, 764, 765, 766, 767, 768, 769, 770, 771, 772, 773, 774, 775, 776, 777, 778, 779, 780, 781, 782, 783, 784, 785, 786, 787, 788, 789, 790, 791, 792, 793, 794, 795, 796, 797, 798, 799, 800, 801, 802, 803, 804, 805, 806, 807, 808, 809, 810, 811, 812, 813, 814, 815, 816, 817, 818, 819, 820, 821, 822, 823, 824, 825, 826, 827, 828, 829, 830, 831, 832, 833, 834, 835, 836, 837, 838, 839, 840, 841, 842, 843, 844, 845, 846, 847, 848, 849, 850, 851, 852, 853, 854, 855, 856, 857, 858, 859, 860, 861, 862, 863, 864, 865, 866, 867, 868, 869, 870, 871, 872],
      "AcquisitionTime": ["133713.227500", "133713.687500", "133714.147500", "133714.607500", "133715.067500", "133715.527500", "133715.987500", "133716.447500", "133716.907500", "133717.367500", "133717.827500", "133718.287500", "133718.747500", "133719.207500", "133719.667500", "133720.127500", "133720.587500", "133721.047500", "133721.507500", "133721.967500", "133722.427500", "133722.887500", "133723.347500", "133723.807500", "133724.267500", "133724.727500", "133725.187500", "133725.647500", "133726.107500", "133726.567500", "133727.027500", "133727.487500", "133727.947500", "133728.407500", "133728.867500", "133729.327500", "133729.787500", "133730.247500", "133730.707500", "133731.167500", "133731.627500", "133732.087500", "133732.547500", "133733.007500", "133733.467500", "133733.927500", "133734.387500", "133734.847500", "133735.307500", "133735.767500", "133736.227500", "133736.687500", "133737.147500", "133737.607500", "133738.067500", "133738.527500", "133738.987500", "133739.447500", "133739.907500", "133740.367500", "133740.827500", "133741.287500", "133741.747500", "133742.207500", "133742.667500", "133743.127500", "133743.587500", "133744.047500", "133744.507500", "133744.967500", "133745.427500", "133745.887500", "133746.347500", "133746.807500", "133747.267500", "133747.727500", "133748.187500", "133748.647500", "133749.107500", "133749.567500", "133750.027500", "133750.487500", "133750.947500", "133751.407500", "133751.867500", "133752.327500", "133752.787500", "133753.247500", "133753.707500", "133754.167500", "133754.627500", "133755.087500", "133755.547500", "133756.007500", "133756.467500", "133756.927500", "133757.387500", "133757.847500", "133758.307500", "133758.767500", "133759.227500", "133759.687500", "133800.147500", "133800.607500", "133801.067500", "133801.527500", "133801.987500", "133802.447500", "133802.907500", "133803.367500", "133803.827500", "133804.287500", "133804.747500", "133805.207500", "133805.667500", "133806.127500", "133806.587500", "133807.047500", "133807.507500", "133807.967500", "133808.427500", "133808.887500", "133809.347500", "133809.807500", "133810.267500", "133810.727500", "133811.187500", "133811.647500", "133812.107500", "133812.567500", "133813.027500", "133813.487500", "133813.947500", "133814.407500", "133814.867500", "133815.327500", "133815.787500", "133816.247500", "133816.707500", "133817.167500", "133817.627500", "133818.087500", "133818.547500", "133819.007500", "133819.467500", "133819.927500", "133820.387500", "133820.847500", "133821.307500", "133821.767500", "133822.227500", "133822.687500", "133823.147500", "133823.607500", "133824.067500", "133824.527500", "133824.987500", "133825.447500", "133825.907500", "133826.367500", "133826.827500", "133827.287500", "133827.747500", "133828.207500", "133828.667500", "133829.127500", "133829.587500", "133830.047500", "133830.507500", "133830.967500", "133831.427500", "133831.887500", "133832.347500", "133832.807500", "133833.267500", "133833.727500", "133834.187500", "133834.647500", "133835.107500", "133835.567500", "133836.027500", "133836.487500", "133836.947500", "133837.407500", "133837.867500", "133838.327500", "133838.787500", "133839.247500", "133839.707500", "133840.167500", "133840.627500", "133841.087500", "133841.547500", "133842.007500", "133842.467500", "133842.927500", "133843.387500", "133843.847500", "133844.307500", "133844.767500", "133845.227500", "133845.687500", "133846.147500", "133846.607500", "133847.067500", "133847.527500", "133847.987500", "133848.447500", "133848.907500", "133849.367500", "133849.827500", "133850.287500", "133850.747500", "133851.207500", "133851.667500", "133852.127500", "133852.587500", "133853.047500", "133853.507500", "133853.967500", "133854.427500", "133854.887500", "133855.347500", "133855.807500", "133856.267500", "133856.727500", "133857.187500", "133857.647500", "133858.107500", "133858.567500", "133859.027500", "133859.487500", "133859.947500", "133900.407500", "133900.867500", "133901.327500", "133901.787500", "133902.247500", "133902.707500", "133903.167500", "133903.627500", "133904.087500", "133904.547500", "133905.007500", "133905.467500", "133905.927500", "133906.387500", "133906.847500", "133907.307500", "133907.767500", "133908.227500", "133908.687500", "133909.147500", "133909.607500", "133910.067500", "133910.527500", "133910.987500", "133911.447500", "133911.907500", "133912.367500", "133912.827500", "133913.287500", "133913.747500", "133914.207500", "133914.667500", "133915.127500", "133915.587500", "133916.047500", "133916.507500", "133916.967500", "133917.427500", "133917.887500", "133918.347500", "133918.807500", "133919.267500", "133919.727500", "133920.187500", "133920.647500", "133921.107500", "133921.567500", "133922.027500", "133922.487500", "133922.947500", "133923.407500", "133923.867500", "133924.327500", "133924.787500", "133925.247500", "133925.707500", "133926.167500", "133926.627500", "133927.087500", "133927.547500", "133928.007500", "133928.467500", "133928.927500", "133929.387500", "133929.847500", "133930.307500", "133930.767500", "133931.227500", "133931.687500", "133932.147500", "133932.607500", "133933.067500", "133933.527500", "133933.987500", "133934.447500", "133934.907500", "133935.367500", "133935.827500", "133936.287500", "133936.747500", "133937.207500", "133937.667500", "133938.127500", "133938.587500", "133939.047500", "133939.507500", "133939.967500", "133940.427500", "133940.887500", "133941.347500", "133941.807500", "133942.267500", "133942.727500", "133943.187500", "133943.647500", "133944.107500", "133944.567500", "133945.027500", "133945.487500", "133945.947500", "133946.407500", "133946.867500", "133947.327500", "133947.787500", "133948.247500", "133948.707500", "133949.167500", "133949.627500", "133950.087500", "133950.547500", "133951.007500", "133951.467500", "133951.927500", "133952.387500", "133952.847500", "133953.307500", "133953.767500", "133954.227500", "133954.687500", "133955.147500", "133955.607500", "133956.067500", "133956.527500", "133956.987500", "133957.447500", "133957.907500", "133958.367500", "133958.827500", "133959.287500", "133959.747500", "134000.207500", "134000.667500", "134001.127500", "134001.587500", "134002.047500", "134002.507500", "134002.967500", "134003.427500", "134003.887500", "134004.347500", "134004.807500", "134005.267500", "134005.727500", "134006.187500", "134006.647500", "134007.107500", "134007.567500", "134008.027500", "134008.487500", "134008.947500", "134009.407500", "134009.867500", "134010.327500", "134010.787500", "134011.247500", "134011.707500", "134012.167500", "134012.627500", "134013.087500", "134013.547500", "134014.007500", "134014.467500", "134014.927500", "134015.387500", "134015.847500", "134016.307500", "134016.767500", "134017.227500", "134017.687500", "134018.147500", "134018.607500", "134019.067500", "134019.527500", "134019.987500", "134020.447500", "134020.907500", "134021.367500", "134021.827500", "134022.287500", "134022.747500", "134023.207500", "134023.667500", "134024.127500", "134024.587500", "134025.047500", "134025.507500", "134025.967500", "134026.427500", "134026.887500", "134027.347500", "134027.807500", "134028.267500", "134028.727500", "134029.187500", "134029.647500", "134030.107500", "134030.567500", "134031.027500", "134031.487500", "134031.947500", "134032.407500", "134032.867500", "134033.327500", "134033.787500", "134034.247500", "134034.707500", "134035.167500", "134035.627500", "134036.087500", "134036.547500", "134037.007500", "134037.467500", "134037.927500", "134038.387500", "134038.847500", "134039.307500", "134039.767500", "134040.227500", "134040.687500", "134041.147500", "134041.607500", "134042.067500", "134042.527500", "134042.987500", "134043.447500", "134043.907500", "134044.367500", "134044.827500", "134045.287500", "134045.747500", "134046.207500", "134046.667500", "134047.127500", "134047.587500", "134048.047500", "134048.507500", "134048.967500", "134049.427500", "134049.887500", "134050.347500", "134050.807500", "134051.267500", "134051.727500", "134052.187500", "134052.647500", "134053.107500", "134053.567500", "134054.027500", "134054.487500", "134054.947500", "134055.407500", "134055.867500", "134056.327500", "134056.787500", "134057.247500", "134057.707500", "134058.167500", "134058.627500", "134059.087500", "134059.547500", "134100.007500", "134100.467500", "134100.927500", "134101.387500", "134101.847500", "134102.307500", "134102.767500", "134103.227500", "134103.687500", "134104.147500", "134104.607500", "134105.067500", "134105.527500", "134105.987500", "134106.447500", "134106.907500", "134107.367500", "134107.827500", "134108.287500", "134108.747500", "134109.207500", "134109.667500", "134110.127500", "134110.587500", "134111.047500", "134111.507500", "134111.967500", "134112.427500", "134112.887500", "134113.347500", "134113.807500", "134114.267500", "134114.727500", "134115.187500", "134115.647500", "134116.107500", "134116.567500", "134117.027500", "134117.487500", "134117.947500", "134118.407500", "134118.867500", "134119.327500", "134119.787500", "134120.247500", "134120.707500", "134121.167500", "134121.627500", "134122.087500", "134122.547500", "134123.007500", "134123.467500", "134123.927500", "134124.387500", "134124.847500", "134125.307500", "134125.767500", "134126.227500", "134126.687500", "134127.147500", "134127.607500", "134128.067500", "134128.527500", "134128.987500", "134129.447500", "134129.907500", "134130.367500", "134130.827500", "134131.287500", "134131.747500", "134132.207500", "134132.667500", "134133.127500", "134133.587500", "134134.047500", "134134.507500", "134134.967500", "134135.427500", "134135.887500", "134136.347500", "134136.807500", "134137.267500", "134137.727500", "134138.187500", "134138.647500", "134139.107500", "134139.567500", "134140.027500", "134140.487500", "134140.947500", "134141.407500", "134141.867500", "134142.327500", "134142.787500", "134143.247500", "134143.707500", "134144.167500", "134144.627500", "134145.087500", "134145.547500", "134146.007500", "134146.467500", "134146.927500", "134147.387500", "134147.847500", "134148.307500", "134148.767500", "134149.227500", "134149.687500", "134150.147500", "134150.607500", "134151.067500", "134151.527500", "134151.987500", "134152.447500", "134152.907500", "134153.367500", "134153.827500", "134154.287500", "134154.747500", "134155.207500", "134155.667500", "134156.127500", "134156.587500", "134157.047500", "134157.507500", "134157.967500", "134158.427500", "134158.887500", "134159.347500", "134159.807500", "134200.267500", "134200.727500", "134201.187500", "134201.647500", "134202.107500", "134202.567500", "134203.027500", "134203.487500", "134203.947500", "134204.407500", "134204.867500", "134205.327500", "134205.787500", "134206.247500", "134206.707500", "134207.167500", "134207.627500", "134208.087500", "134208.547500", "134209.007500", "134209.467500", "134209.927500", "134210.387500", "134210.847500", "134211.307500", "134211.767500", "134212.227500", "134212.687500", "134213.147500", "134213.607500", "134214.067500", "134214.527500", "134214.987500", "134215.447500", "134215.907500", "134216.367500", "134216.827500", "134217.287500", "134217.747500", "134218.207500", "134218.667500", "134219.127500", "134219.587500", "134220.047500", "134220.507500", "134220.967500", "134221.427500", "134221.887500", "134222.347500", "134222.807500", "134223.267500", "134223.727500", "134224.187500", "134224.647500", "134225.107500", "134225.567500", "134226.027500", "134226.487500", "134226.947500", "134227.407500", "134227.867500", "134228.327500", "134228.787500", "134229.247500", "134229.707500", "134230.167500", "134230.627500", "134231.087500", "134231.547500", "134232.007500", "134232.467500", "134232.927500", "134233.387500", "134233.847500", "134234.307500", "134234.767500", "134235.227500", "134235.687500", "134236.147500", "134236.607500", "134237.067500", "134237.527500", "134237.987500", "134238.447500", "134238.907500", "134239.367500", "134239.827500", "134240.287500", "134240.747500", "134241.207500", "134241.667500", "134242.127500", "134242.587500", "134243.047500", "134243.507500", "134243.967500", "134244.427500", "134244.887500", "134245.347500", "134245.807500", "134246.267500", "134246.727500", "134247.187500", "134247.647500", "134248.107500", "134248.567500", "134249.027500", "134249.487500", "134249.947500", "134250.407500", "134250.867500", "134251.327500", "134251.787500", "134252.247500", "134252.707500", "134253.167500", "134253.627500", "134254.087500", "134254.547500", "134255.007500", "134255.467500", "134255.927500", "134256.387500", "134256.847500", "134257.307500", "134257.767500", "134258.227500", "134258.687500", "134259.147500", "134259.607500", "134300.067500", "134300.527500", "134300.987500", "134301.447500", "134301.907500", "134302.367500", "134302.827500", "134303.287500", "134303.747500", "134304.207500", "134304.667500", "134305.127500", "134305.587500", "134306.047500", "134306.507500", "134306.967500", "134307.427500", "134307.887500", "134308.347500", "134308.807500", "134309.267500", "134309.727500", "134310.187500", "134310.647500", "134311.107500", "134311.567500", "134312.027500", "134312.487500", "134312.947500", "134313.407500", "134313.867500", "134314.327500", "134314.787500", "134315.247500", "134315.707500", "134316.167500", "134316.627500", "134317.087500", "134317.547500", "134318.007500", "134318.467500", "134318.927500", "134319.387500", "134319.847500", "134320.307500", "134320.767500", "134321.227500", "134321.687500", "134322.147500", "134322.607500", "134323.067500", "134323.527500", "134323.987500", "134324.447500", "134324.907500", "134325.367500", "134325.827500", "134326.287500", "134326.747500", "134327.207500", "134327.667500", "134328.127500", "134328.587500", "134329.047500", "134329.507500", "134329.967500", "134330.427500", "134330.887500", "134331.347500", "134331.807500", "134332.267500", "134332.727500", "134333.187500", "134333.647500", "134334.107500", "134334.567500", "134335.027500", "134335.487500", "134335.947500", "134336.407500", "134336.867500", "134337.327500", "134337.787500", "134338.247500", "134338.707500", "134339.167500", "134339.627500", "134340.087500", "134340.547500", "134341.007500", "134341.467500", "134341.927500", "134342.387500", "134342.847500", "134343.307500", "134343.767500", "134344.227500", "134344.687500", "134345.147500", "134345.607500", "134346.067500", "134346.527500", "134346.987500", "134347.447500", "134347.907500", "134348.367500", "134348.827500", "134349.287500", "134349.747500", "134350.207500", "134350.667500", "134351.127500", "134351.587500", "134352.047500", "134352.507500", "134352.967500", "134353.427500", "134353.887500"],
