{
  "AcquisitionMatrixPE": 82,
  "AcquisitionNumber": 1,
  "AcquisitionTime": "13:21:21.137500",
  "BandwidthPerPixelPhaseEncode": 24.888,
  "BaseResolution": 82,
  "BodyPartExamined": "BRAIN",
  "ConsistencyInfo": "N4_VE11E_LATEST_20181129",
  "ConversionSoftware": "dcm2niix",
  "ConversionSoftwareVersion": "v1.0.20201102",
  "DerivedVendorReportedEchoSpacing": 0.00049,
  "DeviceSerialNumber": "66112",
  "DwellTime": 2e-06,
  "EchoTime": 0.0272,
  "EchoTrainLength": 82,
  "EffectiveEchoSpacing": 0.00049,
  "FlipAngle": 44,
  "ImageComments": "Unaliased MB8/PE3",
  "ImageOrientationPatientDICOM": [0.997954, -0.0639181, -0.00135592, 0.0638352, 0.997381, -0.0340054],
  "ImageType": [
    "ORIGINAL",
    "PRIMARY",
    "M",
    "MB",
    "ND",
    "NORM",
    "MOSAIC"
],
  "ImagingFrequency": 123.259,
  "InPlanePhaseEncodingDirectionDICOM": "COL",
  "InstitutionAddress": "Maynard 3,Hanover,NH,US,03755",
  "InstitutionName": "Dartmouth College - PBS",
  "InstitutionalDepartmentName": "Department",
  "MRAcquisitionType": "2D",
  "MagneticFieldStrength": 3,
  "Manufacturer": "Siemens",
  "ManufacturersModelName": "Prisma",
  "Modality": "MR",
  "MultibandAccelerationFactor": 8,
  "PartialFourier": 1,
  "PatientPosition": "HFS",
  "PercentPhaseFOV": 100,
  "PercentSampling": 100,
  "PhaseEncodingDirection": "j-",
  "PhaseEncodingSteps": 82,
  "PhaseResolution": 1,
  "PixelBandwidth": 3050,
  "ProcedureStepDescription": "Wager_Wager^1076_spacetop",
  "ProtocolName": "func_run-03_task-social_acq-ap-mb8",
  "PulseSequenceDetails": "%CustomerSeq%\\cmrr_mbep2d_bold",
  "ReceiveCoilActiveElements": "HEA;HEP",
  "ReceiveCoilName": "Head_32",
  "ReconMatrixPE": 82,
  "RepetitionTime": 0.46,
  "SAR": 0.102817,
  "ScanOptions": "FS",
  "ScanningSequence": "EP",
  "SequenceName": "epfid2d1_82",
  "SequenceVariant": "SK\\SS",
  "SeriesDescription": "func_run-03_task-social_acq-ap-mb8",
  "SeriesNumber": 12,
  "ShimSetting": [4227, -7816, -7246, 193, -126, -105, -77, 110],
  "SliceThickness": 2.7,
  "SliceTiming": [0, 0.2525, 0.0625, 0.315, 0.125, 0.3775, 0.19, 0, 0.2525, 0.0625, 0.315, 0.125, 0.3775, 0.19, 0, 0.2525, 0.0625, 0.315, 0.125, 0.3775, 0.19, 0, 0.2525, 0.0625, 0.315, 0.125, 0.3775, 0.19, 0, 0.2525, 0.0625, 0.315, 0.125, 0.3775, 0.19, 0, 0.2525, 0.0625, 0.315, 0.125, 0.3775, 0.19, 0, 0.2525, 0.0625, 0.315, 0.125, 0.3775, 0.19, 0, 0.2525, 0.0625, 0.315, 0.125, 0.3775, 0.19],
  "SoftwareVersions": "syngo MR E11",
  "SpacingBetweenSlices": 2.7,
  "StationName": "AWP66112",
  "TaskName": "social",
  "TotalReadoutTime": 0.03969,
  "TxRefAmp": 255.014,
  "WipMemBlock": "6b83cc52-664b-4082-af3f-a097040a28fa||Sequence: R016 ve11e/master r/434b28f1; Aug  7 2019 18:53:46 by eja",
  "dcmmeta_affine": [
    [-2.677438259124756, 0.1712651401758194, -0.009520009160041809, 107.71919250488281],
    [0.17148761451244354, 2.6758999824523926, -0.09139318019151688, -93.42142486572266],
    [-0.003637824673205614, 0.09123413264751434, 2.6984360218048096, -61.35944366455078],
    [0.0, 0.0, 0.0, 1.0]
],
  "dcmmeta_reorient_transform": [
    [0.0, -1.0, 0.0, 81.0],
    [1.0, 0.0, 0.0, 0.0],
    [0.0, 0.0, 1.0, 0.0],
    [0.0, 0.0, 0.0, 1.0]
],
  "dcmmeta_shape": [82, 82, 56, 872],
  "dcmmeta_slice_dim": 2,
  "dcmmeta_version": 0.6,
  "global": {
    "const": {
      "AccessionNumber": "A004365",
      "AcquisitionMatrix": [82, 0, 0, 82],
      "AngioFlag": "N",
      "BitsAllocated": 16,
      "BitsStored": 16,
      "BodyPartExamined": "BRAIN",
      "Columns": 656,
      "EchoNumbers": 1,
      "EchoTime": 27.2,
      "EchoTrainLength": 82,
      "FlipAngle": 44.0,
      "HighBit": 15,
      "ImageOrientationPatient": [0.99795422574066, -0.063918110242, -0.0013559164634, 0.06383518739365, 0.99738091937303, -0.034005448402],
      "ImagePositionPatient": [-939.16953806503, -842.09286618982, -26.741228217979],
      "ImageType": [
        "ORIGINAL",
        "PRIMARY",
        "M",
        "MB",
        "ND",
        "NORM",
        "MOSAIC"
],
      "ImagedNucleus": "1H",
      "ImagingFrequency": 123.259067,
      "InPlanePhaseEncodingDirection": "COL",
      "MRAcquisitionType": "2D",
      "MagneticFieldStrength": 3.0,
      "Manufacturer": "SIEMENS",
      "ManufacturerModelName": "Prisma",
      "Modality": "MR",
      "NumberOfAverages": 1.0,
      "NumberOfPhaseEncodingSteps": 82,
      "PercentPhaseFieldOfView": 100.0,
      "PercentSampling": 100.0,
      "PerformedProcedureStepStartTime": "125845.770000",
      "PhotometricInterpretation": "MONOCHROME2",
      "PixelBandwidth": 3050.0,
      "PixelRepresentation": 0,
      "PixelSpacing": [2.6829268932343, 2.6829268932343],
      "ProtocolName": "func_run-03_task-social_acq-ap-mb8",
      "RepetitionTime": 460.0,
      "Rows": 656,
      "SAR": 0.10281660701629,
      "SamplesPerPixel": 1,
      "ScanOptions": "FS",
      "ScanningSequence": "EP",
      "SequenceName": "epfid2d1_82",
      "SequenceVariant": [
        "SK",
        "SS"
],
      "SeriesDescription": "func_run-03_task-social_acq-ap-mb8",
      "SeriesNumber": 12,
      "SeriesTime": "132132.988000",
      "SliceLocation": -58.541458810526,
      "SliceThickness": 2.7000000476837,
      "SmallestImagePixelValue": 0,
      "SoftwareVersions": "syngo MR E11",
      "SpacingBetweenSlices": 2.7000000086073,
      "SpecificCharacterSet": "ISO_IR 100",
      "StudyID": "4",
      "StudyTime": "125845.569000",
      "TransmitCoilName": "Body",
      "VariableFlipAngleFlag": "N",
      "WindowCenterWidthExplanation": "Algo1"
    },
    "slices": {}
  },
  "time": {
    "samples": {
      "AcquisitionNumber": [1, 2, 3, 4, 5, 6, 7, 8, 9, 10, 11, 12, 13, 14, 15, 16, 17, 18, 19, 20, 21, 22, 23, 24, 25, 26, 27, 28, 29, 30, 31, 32, 33, 34, 35, 36, 37, 38, 39, 40, 41, 42, 43, 44, 45, 46, 47, 48, 49, 50, 51, 52, 53, 54, 55, 56, 57, 58, 59, 60, 61, 62, 63, 64, 65, 66, 67, 68, 69, 70, 71, 72, 73, 74, 75, 76, 77, 78, 79, 80, 81, 82, 83, 84, 85, 86, 87, 88, 89, 90, 91, 92, 93, 94, 95, 96, 97, 98, 99, 100, 101, 102, 103, 104, 105, 106, 107, 108, 109, 110, 111, 112, 113, 114, 115, 116, 117, 118, 119, 120, 121, 122, 123, 124, 125, 126, 127, 128, 129, 130, 131, 132, 133, 134, 135, 136, 137, 138, 139, 140, 141, 142, 143, 144, 145, 146, 147, 148, 149, 150, 151, 152, 153, 154, 155, 156, 157, 158, 159, 160, 161, 162, 163, 164, 165, 166, 167, 168, 169, 170, 171, 172, 173, 174, 175, 176, 177, 178, 179, 180, 181, 182, 183, 184, 185, 186, 187, 188, 189, 190, 191, 192, 193, 194, 195, 196, 197, 198, 199, 200, 201, 202, 203, 204, 205, 206, 207, 208, 209, 210, 211, 212, 213, 214, 215, 216, 217, 218, 219, 220, 221, 222, 223, 224, 225, 226, 227, 228, 229, 230, 231, 232, 233, 234, 235, 236, 237, 238, 239, 240, 241, 242, 243, 244, 245, 246, 247, 248, 249, 250, 251, 252, 253, 254, 255, 256, 257, 258, 259, 260, 261, 262, 263, 264, 265, 266, 267, 268, 269, 270, 271, 272, 273, 274, 275, 276, 277, 278, 279, 280, 281, 282, 283, 284, 285, 286, 287, 288, 289, 290, 291, 292, 293, 294, 295, 296, 297, 298, 299, 300, 301, 302, 303, 304, 305, 306, 307, 308, 309, 310, 311, 312, 313, 314, 315, 316, 317, 318, 319, 320, 321, 322, 323, 324, 325, 326, 327, 328, 329, 330, 331, 332, 333, 334, 335, 336, 337, 338, 339, 340, 341, 342, 343, 344, 345, 346, 347, 348, 349, 350, 351, 352, 353, 354, 355, 356, 357, 358, 359, 360, 361, 362, 363, 364, 365, 366, 367, 368, 369, 370, 371, 372, 373, 374, 375, 376, 377, 378, 379, 380, 381, 382, 383, 384, 385, 386, 387, 388, 389, 390, 391, 392, 393, 394, 395, 396, 397, 398, 399, 400, 401, 402, 403, 404, 405, 406, 407, 408, 409, 410, 411, 412, 413, 414, 415, 416, 417, 418, 419, 420, 421, 422, 423, 424, 425, 426, 427, 428, 429, 430, 431, 432, 433, 434, 435, 436, 437, 438, 439, 440, 441, 442, 443, 444, 445, 446, 447, 448, 449, 450, 451, 452, 453, 454, 455, 456, 457, 458, 459, 460, 461, 462, 463, 464, 465, 466, 467, 468, 469, 470, 471, 472, 473, 474, 475, 476, 477, 478, 479, 480, 481, 482, 483, 484, 485, 486, 487, 488, 489, 490, 491, 492, 493, 494, 495, 496, 497, 498, 499, 500, 501, 502, 503, 504, 505, 506, 507, 508, 509, 510, 511, 512, 513, 514, 515, 516, 517, 518, 519, 520, 521, 522, 523, 524, 525, 526, 527, 528, 529, 530, 531, 532, 533, 534, 535, 536, 537, 538, 539, 540, 541, 542, 543, 544, 545, 546, 547, 548, 549, 550, 551, 552, 553, 554, 555, 556, 557, 558, 559, 560, 561, 562, 563, 564, 565, 566, 567, 568, 569, 570, 571, 572, 573, 574, 575, 576, 577, 578, 579, 580, 581, 582, 583, 584, 585, 586, 587, 588, 589, 590, 591, 592, 593, 594, 595, 596, 597, 598, 599, 600, 601, 602, 603, 604, 605, 606, 607, 608, 609, 610, 611, 612, 613, 614, 615, 616, 617, 618, 619, 620, 621, 622, 623, 624, 625, 626, 627, 628, 629, 630, 631, 632, 633, 634, 635, 636, 637, 638, 639, 640, 641, 642, 643, 644, 645, 646, 647, 648, 649, 650, 651, 652, 653, 654, 655, 656, 657, 658, 659, 660, 661, 662, 663, 664, 665, 666, 667, 668, 669, 670, 671, 672, 673, 674, 675, 676, 677, 678, 679, 680, 681, 682, 683, 684, 685, 686, 687, 688, 689, 690, 691, 692, 693, 694, 695, 696, 697, 698, 699, 700, 701, 702, 703, 704, 705, 706, 707, 708, 709, 710, 711, 712, 713, 714, 715, 716, 717, 718, 719, 720, 721, 722, 723, 724, 725, 726, 727, 728, 729, 730, 731, 732, 733, 734, 735, 736, 737, 738, 739, 740, 741, 742, 743, 744, 745, 746, 747, 748, 749, 750, 751, 752, 753, 754, 755, 756, 757, 758, 759, 760, 761, 762, 763, 764, 765, 766, 767, 768, 769, 770, 771, 772, 773, 774, 775, 776, 777, 778, 779, 780, 781, 782, 783, 784, 785, 786, 787, 788, 789, 790, 791, 792, 793, 794, 795, 796, 797, 798, 799, 800, 801, 802, 803, 804, 805, 806, 807, 808, 809, 810, 811, 812, 813, 814, 815, 816, 817, 818, 819, 820, 821, 822, 823, 824, 825, 826, 827, 828, 829, 830, 831, 832, 833, 834, 835, 836, 837, 838, 839, 840, 841, 842, 843, 844, 845, 846, 847, 848, 849, 850, 851, 852, 853, 854, 855, 856, 857, 858, 859, 860, 861, 862, 863, 864, 865, 866, 867, 868, 869, 870, 871, 872],
      "AcquisitionTime": ["132121.137500", "132121.597500", "132122.057500", "132122.517500", "132122.977500", "132123.437500", "132123.897500", "132124.357500", "132124.817500", "132125.277500", "132125.737500", "132126.197500", "132126.657500", "132127.117500", "132127.577500", "132128.037500", "132128.497500", "132128.957500", "132129.417500", "132129.877500", "132130.337500", "132130.797500", "132131.257500", "132131.717500", "132132.177500", "132132.637500", "132133.097500", "132133.557500", "132134.017500", "132134.477500", "132134.937500", "132135.397500", "132135.857500", "132136.317500", "132136.777500", "132137.237500", "132137.697500", "132138.157500", "132138.617500", "132139.077500", "132139.537500", "132139.997500", "132140.457500", "132140.917500", "132141.377500", "132141.837500", "132142.297500", "132142.757500", "132143.217500", "132143.677500", "132144.137500", "132144.597500", "132145.057500", "132145.517500", "132145.977500", "132146.437500", "132146.897500", "132147.357500", "132147.817500", "132148.277500", "132148.737500", "132149.197500", "132149.657500", "132150.117500", "132150.577500", "132151.037500", "132151.497500", "132151.957500", "132152.417500", "132152.877500", "132153.337500", "132153.797500", "132154.257500", "132154.717500", "132155.177500", "132155.637500", "132156.097500", "132156.557500", "132157.017500", "132157.477500", "132157.937500", "132158.397500", "132158.857500", "132159.317500", "132159.777500", "132200.237500", "132200.697500", "132201.157500", "132201.617500", "132202.077500", "132202.537500", "132202.997500", "132203.457500", "132203.917500", "132204.377500", "132204.837500", "132205.297500", "132205.757500", "132206.217500", "132206.677500", "132207.137500", "132207.597500", "132208.057500", "132208.517500", "132208.977500", "132209.437500", "132209.897500", "132210.357500", "132210.817500", "132211.277500", "132211.737500", "132212.197500", "132212.657500", "132213.117500", "132213.577500", "132214.037500", "132214.497500", "132214.957500", "132215.417500", "132215.877500", "132216.337500", "132216.797500", "132217.257500", "132217.717500", "132218.177500", "132218.637500", "132219.097500", "132219.557500", "132220.017500", "132220.477500", "132220.937500", "132221.397500", "132221.857500", "132222.317500", "132222.777500", "132223.237500", "132223.697500", "132224.157500", "132224.617500", "132225.077500", "132225.537500", "132225.997500", "132226.457500", "132226.917500", "132227.377500", "132227.837500", "132228.297500", "132228.757500", "132229.217500", "132229.677500", "132230.137500", "132230.597500", "132231.057500", "132231.517500", "132231.977500", "132232.437500", "132232.897500", "132233.357500", "132233.817500", "132234.277500", "132234.737500", "132235.197500", "132235.657500", "132236.117500", "132236.577500", "132237.037500", "132237.497500", "132237.957500", "132238.417500", "132238.877500", "132239.337500", "132239.797500", "132240.257500", "132240.717500", "132241.177500", "132241.637500", "132242.097500", "132242.557500", "132243.017500", "132243.477500", "132243.937500", "132244.397500", "132244.857500", "132245.317500", "132245.777500", "132246.237500", "132246.697500", "132247.157500", "132247.617500", "132248.077500", "132248.537500", "132248.997500", "132249.457500", "132249.917500", "132250.377500", "132250.837500", "132251.297500", "132251.757500", "132252.217500", "132252.677500", "132253.137500", "132253.597500", "132254.057500", "132254.517500", "132254.977500", "132255.437500", "132255.897500", "132256.357500", "132256.817500", "132257.277500", "132257.737500", "132258.197500", "132258.657500", "132259.117500", "132259.577500", "132300.037500", "132300.497500", "132300.957500", "132301.417500", "132301.877500", "132302.337500", "132302.797500", "132303.257500", "132303.717500", "132304.177500", "132304.637500", "132305.097500", "132305.557500", "132306.017500", "132306.477500", "132306.937500", "132307.397500", "132307.857500", "132308.317500", "132308.777500", "132309.237500", "132309.697500", "132310.157500", "132310.617500", "132311.077500", "132311.537500", "132311.997500", "132312.457500", "132312.917500", "132313.377500", "132313.837500", "132314.297500", "132314.757500", "132315.217500", "132315.677500", "132316.137500", "132316.597500", "132317.057500", "132317.517500", "132317.977500", "132318.437500", "132318.897500", "132319.357500", "132319.817500", "132320.277500", "132320.737500", "132321.197500", "132321.657500", "132322.117500", "132322.577500", "132323.037500", "132323.497500", "132323.957500", "132324.417500", "132324.877500", "132325.337500", "132325.797500", "132326.257500", "132326.717500", "132327.177500", "132327.637500", "132328.097500", "132328.557500", "132329.017500", "132329.477500", "132329.937500", "132330.397500", "132330.857500", "132331.317500", "132331.777500", "132332.237500", "132332.697500", "132333.157500", "132333.617500", "132334.077500", "132334.537500", "132334.997500", "132335.457500", "132335.917500", "132336.377500", "132336.837500", "132337.297500", "132337.757500", "132338.217500", "132338.677500", "132339.137500", "132339.597500", "132340.057500", "132340.517500", "132340.977500", "132341.437500", "132341.897500", "132342.357500", "132342.817500", "132343.277500", "132343.737500", "132344.197500", "132344.657500", "132345.117500", "132345.577500", "132346.037500", "132346.497500", "132346.957500", "132347.417500", "132347.877500", "132348.337500", "132348.797500", "132349.257500", "132349.717500", "132350.177500", "132350.637500", "132351.097500", "132351.557500", "132352.017500", "132352.477500", "132352.937500", "132353.397500", "132353.857500", "132354.317500", "132354.777500", "132355.237500", "132355.697500", "132356.157500", "132356.617500", "132357.077500", "132357.537500", "132357.997500", "132358.457500", "132358.917500", "132359.377500", "132359.837500", "132400.297500", "132400.757500", "132401.217500", "132401.677500", "132402.137500", "132402.597500", "132403.057500", "132403.517500", "132403.977500", "132404.437500", "132404.897500", "132405.357500", "132405.817500", "132406.277500", "132406.737500", "132407.197500", "132407.657500", "132408.117500", "132408.577500", "132409.037500", "132409.497500", "132409.957500", "132410.417500", "132410.877500", "132411.337500", "132411.797500", "132412.257500", "132412.717500", "132413.177500", "132413.637500", "132414.097500", "132414.557500", "132415.017500", "132415.477500", "132415.937500", "132416.397500", "132416.857500", "132417.317500", "132417.777500", "132418.237500", "132418.697500", "132419.157500", "132419.617500", "132420.077500", "132420.537500", "132420.997500", "132421.457500", "132421.917500", "132422.377500", "132422.837500", "132423.297500", "132423.757500", "132424.217500", "132424.677500", "132425.137500", "132425.597500", "132426.057500", "132426.517500", "132426.977500", "132427.437500", "132427.897500", "132428.357500", "132428.817500", "132429.277500", "132429.737500", "132430.197500", "132430.657500", "132431.117500", "132431.577500", "132432.037500", "132432.497500", "132432.957500", "132433.417500", "132433.877500", "132434.337500", "132434.797500", "132435.257500", "132435.717500", "132436.177500", "132436.637500", "132437.097500", "132437.557500", "132438.017500", "132438.477500", "132438.937500", "132439.397500", "132439.857500", "132440.317500", "132440.777500", "132441.237500", "132441.697500", "132442.157500", "132442.617500", "132443.077500", "132443.537500", "132443.997500", "132444.457500", "132444.917500", "132445.377500", "132445.837500", "132446.297500", "132446.757500", "132447.217500", "132447.677500", "132448.137500", "132448.597500", "132449.057500", "132449.517500", "132449.977500", "132450.437500", "132450.897500", "132451.357500", "132451.817500", "132452.277500", "132452.737500", "132453.197500", "132453.657500", "132454.117500", "132454.577500", "132455.037500", "132455.497500", "132455.957500", "132456.417500", "132456.877500", "132457.337500", "132457.797500", "132458.257500", "132458.717500", "132459.177500", "132459.637500", "132500.097500", "132500.557500", "132501.017500", "132501.477500", "132501.937500", "132502.397500", "132502.857500", "132503.317500", "132503.777500", "132504.237500", "132504.697500", "132505.157500", "132505.617500", "132506.077500", "132506.537500", "132506.997500", "132507.457500", "132507.917500", "132508.377500", "132508.837500", "132509.297500", "132509.757500", "132510.217500", "132510.677500", "132511.137500", "132511.597500", "132512.057500", "132512.517500", "132512.977500", "132513.437500", "132513.897500", "132514.357500", "132514.817500", "132515.277500", "132515.737500", "132516.197500", "132516.657500", "132517.117500", "132517.577500", "132518.037500", "132518.497500", "132518.957500", "132519.417500", "132519.877500", "132520.337500", "132520.797500", "132521.257500", "132521.717500", "132522.177500", "132522.637500", "132523.097500", "132523.557500", "132524.017500", "132524.477500", "132524.937500", "132525.397500", "132525.857500", "132526.317500", "132526.777500", "132527.237500", "132527.697500", "132528.157500", "132528.617500", "132529.077500", "132529.537500", "132529.997500", "132530.457500", "132530.917500", "132531.377500", "132531.837500", "132532.297500", "132532.757500", "132533.217500", "132533.677500", "132534.137500", "132534.597500", "132535.057500", "132535.517500", "132535.977500", "132536.437500", "132536.897500", "132537.357500", "132537.817500", "132538.277500", "132538.737500", "132539.197500", "132539.657500", "132540.117500", "132540.577500", "132541.037500", "132541.497500", "132541.957500", "132542.417500", "132542.877500", "132543.337500", "132543.797500", "132544.257500", "132544.717500", "132545.177500", "132545.637500", "132546.097500", "132546.557500", "132547.017500", "132547.477500", "132547.937500", "132548.397500", "132548.857500", "132549.317500", "132549.777500", "132550.237500", "132550.697500", "132551.157500", "132551.617500", "132552.077500", "132552.537500", "132552.997500", "132553.457500", "132553.917500", "132554.377500", "132554.837500", "132555.297500", "132555.757500", "132556.217500", "132556.677500", "132557.137500", "132557.597500", "132558.057500", "132558.517500", "132558.977500", "132559.437500", "132559.897500", "132600.357500", "132600.817500", "132601.277500", "132601.737500", "132602.197500", "132602.657500", "132603.117500", "132603.577500", "132604.037500", "132604.497500", "132604.957500", "132605.417500", "132605.877500", "132606.337500", "132606.797500", "132607.257500", "132607.717500", "132608.177500", "132608.637500", "132609.097500", "132609.557500", "132610.017500", "132610.477500", "132610.937500", "132611.397500", "132611.857500", "132612.317500", "132612.777500", "132613.237500", "132613.697500", "132614.157500", "132614.617500", "132615.077500", "132615.537500", "132615.997500", "132616.457500", "132616.917500", "132617.377500", "132617.837500", "132618.297500", "132618.757500", "132619.217500", "132619.677500", "132620.137500", "132620.597500", "132621.057500", "132621.517500", "132621.977500", "132622.437500", "132622.897500", "132623.357500", "132623.817500", "132624.277500", "132624.737500", "132625.197500", "132625.657500", "132626.117500", "132626.577500", "132627.037500", "132627.497500", "132627.957500", "132628.417500", "132628.877500", "132629.337500", "132629.797500", "132630.257500", "132630.717500", "132631.177500", "132631.637500", "132632.097500", "132632.557500", "132633.017500", "132633.477500", "132633.937500", "132634.397500", "132634.857500", "132635.317500", "132635.777500", "132636.237500", "132636.697500", "132637.157500", "132637.617500", "132638.077500", "132638.537500", "132638.997500", "132639.457500", "132639.917500", "132640.377500", "132640.837500", "132641.297500", "132641.757500", "132642.217500", "132642.677500", "132643.137500", "132643.597500", "132644.057500", "132644.517500", "132644.977500", "132645.437500", "132645.897500", "132646.357500", "132646.817500", "132647.277500", "132647.737500", "132648.197500", "132648.657500", "132649.117500", "132649.577500", "132650.037500", "132650.497500", "132650.957500", "132651.417500", "132651.877500", "132652.337500", "132652.797500", "132653.257500", "132653.717500", "132654.177500", "132654.637500", "132655.097500", "132655.557500", "132656.017500", "132656.477500", "132656.937500", "132657.397500", "132657.857500", "132658.317500", "132658.777500", "132659.237500", "132659.697500", "132700.157500", "132700.617500", "132701.077500", "132701.537500", "132701.997500", "132702.457500", "132702.917500", "132703.377500", "132703.837500", "132704.297500", "132704.757500", "132705.217500", "132705.677500", "132706.137500", "132706.597500", "132707.057500", "132707.517500", "132707.977500", "132708.437500", "132708.897500", "132709.357500", "132709.817500", "132710.277500", "132710.737500", "132711.197500", "132711.657500", "132712.117500", "132712.577500", "132713.037500", "132713.497500", "132713.957500", "132714.417500", "132714.877500", "132715.337500", "132715.797500", "132716.257500", "132716.717500", "132717.177500", "132717.637500", "132718.097500", "132718.557500", "132719.017500", "132719.477500", "132719.937500", "132720.397500", "132720.857500", "132721.317500", "132721.777500", "132722.237500", "132722.697500", "132723.157500", "132723.617500", "132724.077500", "132724.537500", "132724.997500", "132725.457500", "132725.917500", "132726.377500", "132726.837500", "132727.297500", "132727.757500", "132728.217500", "132728.677500", "132729.137500", "132729.597500", "132730.057500", "132730.517500", "132730.977500", "132731.437500", "132731.897500", "132732.357500", "132732.817500", "132733.277500", "132733.737500", "132734.197500", "132734.657500", "132735.117500", "132735.577500", "132736.037500", "132736.497500", "132736.957500", "132737.417500", "132737.877500", "132738.337500", "132738.797500", "132739.257500", "132739.717500", "132740.177500", "132740.637500", "132741.097500", "132741.557500", "132742.017500", "132742.477500", "132742.937500", "132743.397500", "132743.857500", "132744.317500", "132744.777500", "132745.237500", "132745.697500", "132746.157500", "132746.617500", "132747.077500", "132747.537500", "132747.997500", "132748.457500", "132748.917500", "132749.377500", "132749.837500", "132750.297500", "132750.757500", "132751.217500", "132751.677500", "132752.137500", "132752.597500", "132753.057500", "132753.517500", "132753.977500", "132754.437500", "132754.897500", "132755.357500", "132755.817500", "132756.277500", "132756.737500", "132757.197500", "132757.657500", "132758.117500", "132758.577500", "132759.037500", "132759.497500", "132759.957500", "132800.417500", "132800.877500", "132801.337500", "132801.797500"],
