{
  "AcquisitionMatrixPE": 82,
  "AcquisitionNumber": 1,
  "AcquisitionTime": "13:45:26.472500",
  "BandwidthPerPixelPhaseEncode": 24.888,
  "BaseResolution": 82,
  "BodyPartExamined": "BRAIN",
  "ConsistencyInfo": "N4_VE11C_LATEST_20160120",
  "ConversionSoftware": "dcm2niix",
  "ConversionSoftwareVersion": "v1.0.20201102",
  "DerivedVendorReportedEchoSpacing": 0.00049,
  "DeviceSerialNumber": "66112",
  "DwellTime": 2e-06,
  "EchoTime": 0.0272,
  "EchoTrainLength": 82,
  "EffectiveEchoSpacing": 0.00049,
  "FlipAngle": 44,
  "ImageComments": "Unaliased MB8/PE3",
  "ImageOrientationPatientDICOM": [0.997165, 0.0638333, 0.0398459, -0.0662316, 0.99587, 0.0620914],
  "ImageType": [
    "ORIGINAL",
    "PRIMARY",
    "M",
    "MB",
    "ND",
    "NORM",
    "MOSAIC"
],
  "ImagingFrequency": 123.252,
  "InPlanePhaseEncodingDirectionDICOM": "COL",
  "InstitutionAddress": "Maynard 3,Hanover,NH,US,03755",
  "InstitutionName": "Dartmouth College - PBS",
  "InstitutionalDepartmentName": "Department",
  "MRAcquisitionType": "2D",
  "MagneticFieldStrength": 3,
  "Manufacturer": "Siemens",
  "ManufacturersModelName": "Prisma",
  "Modality": "MR",
  "MultibandAccelerationFactor": 8,
  "PartialFourier": 1,
  "PatientPosition": "HFS",
  "PercentPhaseFOV": 100,
  "PercentSampling": 100,
  "PhaseEncodingDirection": "j-",
  "PhaseEncodingSteps": 82,
  "PhaseResolution": 1,
  "PixelBandwidth": 3050,
  "ProcedureStepDescription": "Wager_Wager^1076_spacetop",
  "ProtocolName": "func_run-03_task-social_acq-ap-mb8",
  "PulseSequenceDetails": "%CustomerSeq%\\cmrr_mbep2d_bold",
  "ReceiveCoilActiveElements": "HEA;HEP",
  "ReceiveCoilName": "Head_32",
  "ReconMatrixPE": 82,
  "RepetitionTime": 0.46,
  "SAR": 0.082307,
  "ScanOptions": "FS",
  "ScanningSequence": "EP",
  "SequenceName": "epfid2d1_82",
  "SequenceVariant": "SK\\SS",
  "SeriesDescription": "func_run-03_task-social_acq-ap-mb8",
  "SeriesNumber": 12,
  "ShimSetting": [4152, -7794, -7286, 599, -44, -290, 42, 32],
  "SliceThickness": 2.7,
  "SliceTiming": [0, 0.25, 0.0625, 0.315, 0.125, 0.3775, 0.1875, 0, 0.25, 0.0625, 0.315, 0.125, 0.3775, 0.1875, 0, 0.25, 0.0625, 0.315, 0.125, 0.3775, 0.1875, 0, 0.25, 0.0625, 0.315, 0.125, 0.3775, 0.1875, 0, 0.25, 0.0625, 0.315, 0.125, 0.3775, 0.1875, 0, 0.25, 0.0625, 0.315, 0.125, 0.3775, 0.1875, 0, 0.25, 0.0625, 0.315, 0.125, 0.3775, 0.1875, 0, 0.25, 0.0625, 0.315, 0.125, 0.3775, 0.1875],
  "SoftwareVersions": "syngo MR E11",
  "SpacingBetweenSlices": 2.7,
  "StationName": "AWP66112",
  "TaskName": "social",
  "TotalReadoutTime": 0.03969,
  "TxRefAmp": 232.783,
  "WipMemBlock": "69135bc1-4aa3-4afc-8090-2a7b176b127c||Sequence: R016 ve11c/master r/e634e98; Dec 19 2017 11:00:25 by eja",
  "dcmmeta_affine": [
    [-2.6753201484680176, -0.17769458889961243, 0.09643825888633728, 118.69110870361328],
    [-0.17126022279262543, 2.6718478202819824, 0.17429685592651367, -97.86394500732422],
    [0.10690368711948395, -0.16658662259578705, 2.6926417350769043, -70.07633209228516],
    [0.0, 0.0, 0.0, 1.0]
],
  "dcmmeta_reorient_transform": [
    [0.0, -1.0, 0.0, 81.0],
    [1.0, 0.0, 0.0, 0.0],
    [0.0, 0.0, 1.0, 0.0],
    [0.0, 0.0, 0.0, 1.0]
],
  "dcmmeta_shape": [82, 82, 56, 872],
  "dcmmeta_slice_dim": 2,
  "dcmmeta_version": 0.6,
  "global": {
    "const": {
      "AccessionNumber": "A003837",
      "AcquisitionMatrix": [82, 0, 0, 82],
      "AngioFlag": "N",
      "BitsAllocated": 16,
      "BitsStored": 16,
      "BodyPartExamined": "BRAIN",
      "Columns": 656,
      "EchoNumbers": 1,
      "EchoTime": 27.2,
      "EchoTrainLength": 82,
      "FlipAngle": 44.0,
      "HighBit": 15,
      "ImageOrientationPatient": [0.99716478370076, 0.06383335207658, 0.03984591961149, -0.0662316204996, 0.9958704904462, 0.0620913738328],
      "ImagePositionPatient": [-821.11639589112, -934.52770218886, -162.0615632286],
      "ImageType": [
        "ORIGINAL",
        "PRIMARY",
        "M",
        "MB",
        "ND",
        "NORM",
        "MOSAIC"
],
      "ImagedNucleus": "1H",
      "ImagingFrequency": 123.252232,
      "InPlanePhaseEncodingDirection": "COL",
      "MRAcquisitionType": "2D",
      "MagneticFieldStrength": 3.0,
      "Manufacturer": "SIEMENS",
      "ManufacturerModelName": "Prisma",
      "Modality": "MR",
      "NumberOfAverages": 1.0,
      "NumberOfPhaseEncodingSteps": 82,
      "PercentPhaseFieldOfView": 100.0,
      "PercentSampling": 100.0,
      "PerformedProcedureStepStartTime": "132349.861000",
      "PhotometricInterpretation": "MONOCHROME2",
      "PixelBandwidth": 3050.0,
      "PixelRepresentation": 0,
      "PixelSpacing": [2.6829268932343, 2.6829268932343],
      "ProtocolName": "func_run-03_task-social_acq-ap-mb8",
      "RepetitionTime": 460.0,
      "Rows": 656,
      "SAR": 0.08230698568034,
      "SamplesPerPixel": 1,
      "ScanOptions": "FS",
      "ScanningSequence": "EP",
      "SequenceName": "epfid2d1_82",
      "SequenceVariant": [
        "SK",
        "SS"
],
      "SeriesDescription": "func_run-03_task-social_acq-ap-mb8",
      "SeriesNumber": 12,
      "SeriesTime": "134540.409000",
      "SliceLocation": -71.963508328734,
      "SliceThickness": 2.7000000476837,
      "SmallestImagePixelValue": 0,
      "SoftwareVersions": "syngo MR E11",
      "SpacingBetweenSlices": 2.6999999214628,
      "SpecificCharacterSet": "ISO_IR 100",
      "StudyID": "1",
      "StudyTime": "132349.787000",
      "TransmitCoilName": "Body",
      "VariableFlipAngleFlag": "N",
      "WindowCenterWidthExplanation": "Algo1",
      "dBdt": 0.0},
    "slices": {}
  },
  "time": {
    "samples": {
      "AcquisitionNumber": [1, 2, 3, 4, 5, 6, 7, 8, 9, 10, 11, 12, 13, 14, 15, 16, 17, 18, 19, 20, 21, 22, 23, 24, 25, 26, 27, 28, 29, 30, 31, 32, 33, 34, 35, 36, 37, 38, 39, 40, 41, 42, 43, 44, 45, 46, 47, 48, 49, 50, 51, 52, 53, 54, 55, 56, 57, 58, 59, 60, 61, 62, 63, 64, 65, 66, 67, 68, 69, 70, 71, 72, 73, 74, 75, 76, 77, 78, 79, 80, 81, 82, 83, 84, 85, 86, 87, 88, 89, 90, 91, 92, 93, 94, 95, 96, 97, 98, 99, 100, 101, 102, 103, 104, 105, 106, 107, 108, 109, 110, 111, 112, 113, 114, 115, 116, 117, 118, 119, 120, 121, 122, 123, 124, 125, 126, 127, 128, 129, 130, 131, 132, 133, 134, 135, 136, 137, 138, 139, 140, 141, 142, 143, 144, 145, 146, 147, 148, 149, 150, 151, 152, 153, 154, 155, 156, 157, 158, 159, 160, 161, 162, 163, 164, 165, 166, 167, 168, 169, 170, 171, 172, 173, 174, 175, 176, 177, 178, 179, 180, 181, 182, 183, 184, 185, 186, 187, 188, 189, 190, 191, 192, 193, 194, 195, 196, 197, 198, 199, 200, 201, 202, 203, 204, 205, 206, 207, 208, 209, 210, 211, 212, 213, 214, 215, 216, 217, 218, 219, 220, 221, 222, 223, 224, 225, 226, 227, 228, 229, 230, 231, 232, 233, 234, 235, 236, 237, 238, 239, 240, 241, 242, 243, 244, 245, 246, 247, 248, 249, 250, 251, 252, 253, 254, 255, 256, 257, 258, 259, 260, 261, 262, 263, 264, 265, 266, 267, 268, 269, 270, 271, 272, 273, 274, 275, 276, 277, 278, 279, 280, 281, 282, 283, 284, 285, 286, 287, 288, 289, 290, 291, 292, 293, 294, 295, 296, 297, 298, 299, 300, 301, 302, 303, 304, 305, 306, 307, 308, 309, 310, 311, 312, 313, 314, 315, 316, 317, 318, 319, 320, 321, 322, 323, 324, 325, 326, 327, 328, 329, 330, 331, 332, 333, 334, 335, 336, 337, 338, 339, 340, 341, 342, 343, 344, 345, 346, 347, 348, 349, 350, 351, 352, 353, 354, 355, 356, 357, 358, 359, 360, 361, 362, 363, 364, 365, 366, 367, 368, 369, 370, 371, 372, 373, 374, 375, 376, 377, 378, 379, 380, 381, 382, 383, 384, 385, 386, 387, 388, 389, 390, 391, 392, 393, 394, 395, 396, 397, 398, 399, 400, 401, 402, 403, 404, 405, 406, 407, 408, 409, 410, 411, 412, 413, 414, 415, 416, 417, 418, 419, 420, 421, 422, 423, 424, 425, 426, 427, 428, 429, 430, 431, 432, 433, 434, 435, 436, 437, 438, 439, 440, 441, 442, 443, 444, 445, 446, 447, 448, 449, 450, 451, 452, 453, 454, 455, 456, 457, 458, 459, 460, 461, 462, 463, 464, 465, 466, 467, 468, 469, 470, 471, 472, 473, 474, 475, 476, 477, 478, 479, 480, 481, 482, 483, 484, 485, 486, 487, 488, 489, 490, 491, 492, 493, 494, 495, 496, 497, 498, 499, 500, 501, 502, 503, 504, 505, 506, 507, 508, 509, 510, 511, 512, 513, 514, 515, 516, 517, 518, 519, 520, 521, 522, 523, 524, 525, 526, 527, 528, 529, 530, 531, 532, 533, 534, 535, 536, 537, 538, 539, 540, 541, 542, 543, 544, 545, 546, 547, 548, 549, 550, 551, 552, 553, 554, 555, 556, 557, 558, 559, 560, 561, 562, 563, 564, 565, 566, 567, 568, 569, 570, 571, 572, 573, 574, 575, 576, 577, 578, 579, 580, 581, 582, 583, 584, 585, 586, 587, 588, 589, 590, 591, 592, 593, 594, 595, 596, 597, 598, 599, 600, 601, 602, 603, 604, 605, 606, 607, 608, 609, 610, 611, 612, 613, 614, 615, 616, 617, 618, 619, 620, 621, 622, 623, 624, 625, 626, 627, 628, 629, 630, 631, 632, 633, 634, 635, 636, 637, 638, 639, 640, 641, 642, 643, 644, 645, 646, 647, 648, 649, 650, 651, 652, 653, 654, 655, 656, 657, 658, 659, 660, 661, 662, 663, 664, 665, 666, 667, 668, 669, 670, 671, 672, 673, 674, 675, 676, 677, 678, 679, 680, 681, 682, 683, 684, 685, 686, 687, 688, 689, 690, 691, 692, 693, 694, 695, 696, 697, 698, 699, 700, 701, 702, 703, 704, 705, 706, 707, 708, 709, 710, 711, 712, 713, 714, 715, 716, 717, 718, 719, 720, 721, 722, 723, 724, 725, 726, 727, 728, 729, 730, 731, 732, 733, 734, 735, 736, 737, 738, 739, 740, 741, 742, 743, 744, 745, 746, 747, 748, 749, 750, 751, 752, 753, 754, 755, 756, 757, 758, 759, 760, 761, 762, 763, 764, 765, 766, 767, 768, 769, 770, 771, 772, 773, 774, 775, 776, 777, 778, 779, 780, 781, 782, 783, 784, 785, 786, 787, 788, 789, 790, 791, 792, 793, 794, 795, 796, 797, 798, 799, 800, 801, 802, 803, 804, 805, 806, 807, 808, 809, 810, 811, 812, 813, 814, 815, 816, 817, 818, 819, 820, 821, 822, 823, 824, 825, 826, 827, 828, 829, 830, 831, 832, 833, 834, 835, 836, 837, 838, 839, 840, 841, 842, 843, 844, 845, 846, 847, 848, 849, 850, 851, 852, 853, 854, 855, 856, 857, 858, 859, 860, 861, 862, 863, 864, 865, 866, 867, 868, 869, 870, 871, 872],
      "AcquisitionTime": ["134526.472500", "134526.932500", "134527.392500", "134527.852500", "134528.312500", "134528.772500", "134529.232500", "134529.692500", "134530.152500", "134530.612500", "134531.072500", "134531.532500", "134531.992500", "134532.452500", "134532.912500", "134533.372500", "134533.832500", "134534.292500", "134534.752500", "134535.212500", "134535.672500", "134536.132500", "134536.592500", "134537.052500", "134537.512500", "134537.972500", "134538.432500", "134538.892500", "134539.352500", "134539.812500", "134540.272500", "134540.732500", "134541.192500", "134541.652500", "134542.112500", "134542.572500", "134543.032500", "134543.492500", "134543.952500", "134544.412500", "134544.872500", "134545.332500", "134545.792500", "134546.252500", "134546.712500", "134547.172500", "134547.632500", "134548.092500", "134548.552500", "134549.012500", "134549.472500", "134549.932500", "134550.392500", "134550.852500", "134551.312500", "134551.772500", "134552.232500", "134552.692500", "134553.152500", "134553.612500", "134554.072500", "134554.532500", "134554.992500", "134555.452500", "134555.912500", "134556.372500", "134556.832500", "134557.292500", "134557.752500", "134558.212500", "134558.672500", "134559.132500", "134559.592500", "134600.052500", "134600.512500", "134600.972500", "134601.432500", "134601.892500", "134602.352500", "134602.812500", "134603.272500", "134603.732500", "134604.192500", "134604.652500", "134605.112500", "134605.572500", "134606.032500", "134606.492500", "134606.952500", "134607.412500", "134607.872500", "134608.332500", "134608.792500", "134609.252500", "134609.712500", "134610.172500", "134610.632500", "134611.092500", "134611.552500", "134612.012500", "134612.472500", "134612.932500", "134613.392500", "134613.852500", "134614.312500", "134614.772500", "134615.232500", "134615.692500", "134616.152500", "134616.612500", "134617.072500", "134617.532500", "134617.992500", "134618.452500", "134618.912500", "134619.372500", "134619.832500", "134620.292500", "134620.752500", "134621.212500", "134621.672500", "134622.132500", "134622.592500", "134623.052500", "134623.512500", "134623.972500", "134624.432500", "134624.892500", "134625.352500", "134625.812500", "134626.272500", "134626.732500", "134627.192500", "134627.652500", "134628.112500", "134628.572500", "134629.032500", "134629.492500", "134629.952500", "134630.412500", "134630.872500", "134631.332500", "134631.792500", "134632.252500", "134632.712500", "134633.172500", "134633.632500", "134634.092500", "134634.552500", "134635.012500", "134635.472500", "134635.932500", "134636.392500", "134636.852500", "134637.312500", "134637.772500", "134638.232500", "134638.692500", "134639.152500", "134639.612500", "134640.072500", "134640.532500", "134640.992500", "134641.452500", "134641.912500", "134642.372500", "134642.832500", "134643.292500", "134643.752500", "134644.212500", "134644.672500", "134645.132500", "134645.592500", "134646.052500", "134646.512500", "134646.972500", "134647.432500", "134647.892500", "134648.352500", "134648.812500", "134649.272500", "134649.732500", "134650.192500", "134650.652500", "134651.112500", "134651.572500", "134652.032500", "134652.492500", "134652.952500", "134653.412500", "134653.872500", "134654.332500", "134654.792500", "134655.252500", "134655.712500", "134656.172500", "134656.632500", "134657.092500", "134657.552500", "134658.012500", "134658.472500", "134658.932500", "134659.392500", "134659.852500", "134700.312500", "134700.772500", "134701.232500", "134701.692500", "134702.152500", "134702.612500", "134703.072500", "134703.532500", "134703.992500", "134704.452500", "134704.912500", "134705.372500", "134705.832500", "134706.292500", "134706.752500", "134707.212500", "134707.672500", "134708.132500", "134708.592500", "134709.052500", "134709.512500", "134709.972500", "134710.432500", "134710.892500", "134711.352500", "134711.812500", "134712.272500", "134712.732500", "134713.192500", "134713.652500", "134714.112500", "134714.572500", "134715.032500", "134715.492500", "134715.952500", "134716.412500", "134716.872500", "134717.332500", "134717.792500", "134718.252500", "134718.712500", "134719.172500", "134719.632500", "134720.092500", "134720.552500", "134721.012500", "134721.472500", "134721.932500", "134722.392500", "134722.852500", "134723.312500", "134723.772500", "134724.232500", "134724.692500", "134725.152500", "134725.612500", "134726.072500", "134726.532500", "134726.992500", "134727.452500", "134727.912500", "134728.372500", "134728.832500", "134729.292500", "134729.752500", "134730.212500", "134730.672500", "134731.132500", "134731.592500", "134732.052500", "134732.512500", "134732.972500", "134733.432500", "134733.892500", "134734.352500", "134734.812500", "134735.272500", "134735.732500", "134736.192500", "134736.652500", "134737.112500", "134737.572500", "134738.032500", "134738.492500", "134738.952500", "134739.412500", "134739.872500", "134740.332500", "134740.792500", "134741.252500", "134741.712500", "134742.172500", "134742.632500", "134743.092500", "134743.552500", "134744.012500", "134744.472500", "134744.932500", "134745.392500", "134745.852500", "134746.312500", "134746.772500", "134747.232500", "134747.692500", "134748.152500", "134748.612500", "134749.072500", "134749.532500", "134749.992500", "134750.452500", "134750.912500", "134751.372500", "134751.832500", "134752.292500", "134752.752500", "134753.212500", "134753.672500", "134754.132500", "134754.592500", "134755.052500", "134755.512500", "134755.972500", "134756.432500", "134756.892500", "134757.352500", "134757.812500", "134758.272500", "134758.732500", "134759.192500", "134759.652500", "134800.112500", "134800.572500", "134801.032500", "134801.492500", "134801.952500", "134802.412500", "134802.872500", "134803.332500", "134803.792500", "134804.252500", "134804.712500", "134805.172500", "134805.632500", "134806.092500", "134806.552500", "134807.012500", "134807.472500", "134807.932500", "134808.392500", "134808.852500", "134809.312500", "134809.772500", "134810.232500", "134810.692500", "134811.152500", "134811.612500", "134812.072500", "134812.532500", "134812.992500", "134813.452500", "134813.912500", "134814.372500", "134814.832500", "134815.292500", "134815.752500", "134816.212500", "134816.672500", "134817.132500", "134817.592500", "134818.052500", "134818.512500", "134818.972500", "134819.432500", "134819.892500", "134820.352500", "134820.812500", "134821.272500", "134821.732500", "134822.192500", "134822.652500", "134823.112500", "134823.572500", "134824.032500", "134824.492500", "134824.952500", "134825.412500", "134825.872500", "134826.332500", "134826.792500", "134827.252500", "134827.712500", "134828.172500", "134828.632500", "134829.092500", "134829.552500", "134830.012500", "134830.472500", "134830.932500", "134831.392500", "134831.852500", "134832.312500", "134832.772500", "134833.232500", "134833.692500", "134834.152500", "134834.612500", "134835.072500", "134835.532500", "134835.992500", "134836.452500", "134836.912500", "134837.372500", "134837.832500", "134838.292500", "134838.752500", "134839.212500", "134839.672500", "134840.132500", "134840.592500", "134841.052500", "134841.512500", "134841.972500", "134842.432500", "134842.892500", "134843.352500", "134843.812500", "134844.272500", "134844.732500", "134845.192500", "134845.652500", "134846.112500", "134846.572500", "134847.032500", "134847.492500", "134847.952500", "134848.412500", "134848.872500", "134849.332500", "134849.792500", "134850.252500", "134850.712500", "134851.172500", "134851.632500", "134852.092500", "134852.552500", "134853.012500", "134853.472500", "134853.932500", "134854.392500", "134854.852500", "134855.312500", "134855.772500", "134856.232500", "134856.692500", "134857.152500", "134857.612500", "134858.072500", "134858.532500", "134858.992500", "134859.452500", "134859.912500", "134900.372500", "134900.832500", "134901.292500", "134901.752500", "134902.212500", "134902.672500", "134903.132500", "134903.592500", "134904.052500", "134904.512500", "134904.972500", "134905.432500", "134905.892500", "134906.352500", "134906.812500", "134907.272500", "134907.732500", "134908.192500", "134908.652500", "134909.112500", "134909.572500", "134910.032500", "134910.492500", "134910.952500", "134911.412500", "134911.872500", "134912.332500", "134912.792500", "134913.252500", "134913.712500", "134914.172500", "134914.632500", "134915.092500", "134915.552500", "134916.012500", "134916.472500", "134916.932500", "134917.392500", "134917.852500", "134918.312500", "134918.772500", "134919.232500", "134919.692500", "134920.152500", "134920.612500", "134921.072500", "134921.532500", "134921.992500", "134922.452500", "134922.912500", "134923.372500", "134923.832500", "134924.292500", "134924.752500", "134925.212500", "134925.672500", "134926.132500", "134926.592500", "134927.052500", "134927.512500", "134927.972500", "134928.432500", "134928.892500", "134929.352500", "134929.812500", "134930.272500", "134930.732500", "134931.192500", "134931.652500", "134932.112500", "134932.572500", "134933.032500", "134933.492500", "134933.952500", "134934.412500", "134934.872500", "134935.332500", "134935.792500", "134936.252500", "134936.712500", "134937.172500", "134937.632500", "134938.092500", "134938.552500", "134939.012500", "134939.472500", "134939.932500", "134940.392500", "134940.852500", "134941.312500", "134941.772500", "134942.232500", "134942.692500", "134943.152500", "134943.612500", "134944.072500", "134944.532500", "134944.992500", "134945.452500", "134945.912500", "134946.372500", "134946.832500", "134947.292500", "134947.752500", "134948.212500", "134948.672500", "134949.132500", "134949.592500", "134950.052500", "134950.512500", "134950.972500", "134951.432500", "134951.892500", "134952.352500", "134952.812500", "134953.272500", "134953.732500", "134954.192500", "134954.652500", "134955.112500", "134955.572500", "134956.032500", "134956.492500", "134956.952500", "134957.412500", "134957.872500", "134958.332500", "134958.792500", "134959.252500", "134959.712500", "135000.172500", "135000.632500", "135001.092500", "135001.552500", "135002.012500", "135002.472500", "135002.932500", "135003.392500", "135003.852500", "135004.312500", "135004.772500", "135005.232500", "135005.692500", "135006.152500", "135006.612500", "135007.072500", "135007.532500", "135007.992500", "135008.452500", "135008.912500", "135009.372500", "135009.832500", "135010.292500", "135010.752500", "135011.212500", "135011.672500", "135012.132500", "135012.592500", "135013.052500", "135013.512500", "135013.972500", "135014.432500", "135014.892500", "135015.352500", "135015.812500", "135016.272500", "135016.732500", "135017.192500", "135017.652500", "135018.112500", "135018.572500", "135019.032500", "135019.492500", "135019.952500", "135020.412500", "135020.872500", "135021.332500", "135021.792500", "135022.252500", "135022.712500", "135023.172500", "135023.632500", "135024.092500", "135024.552500", "135025.012500", "135025.472500", "135025.932500", "135026.392500", "135026.852500", "135027.312500", "135027.772500", "135028.232500", "135028.692500", "135029.152500", "135029.612500", "135030.072500", "135030.532500", "135030.992500", "135031.452500", "135031.912500", "135032.372500", "135032.832500", "135033.292500", "135033.752500", "135034.212500", "135034.672500", "135035.132500", "135035.592500", "135036.052500", "135036.512500", "135036.972500", "135037.432500", "135037.892500", "135038.352500", "135038.812500", "135039.272500", "135039.732500", "135040.192500", "135040.652500", "135041.112500", "135041.572500", "135042.032500", "135042.492500", "135042.952500", "135043.412500", "135043.872500", "135044.332500", "135044.792500", "135045.252500", "135045.712500", "135046.172500", "135046.632500", "135047.092500", "135047.552500", "135048.012500", "135048.472500", "135048.932500", "135049.392500", "135049.852500", "135050.312500", "135050.772500", "135051.232500", "135051.692500", "135052.152500", "135052.612500", "135053.072500", "135053.532500", "135053.992500", "135054.452500", "135054.912500", "135055.372500", "135055.832500", "135056.292500", "135056.752500", "135057.212500", "135057.672500", "135058.132500", "135058.592500", "135059.052500", "135059.512500", "135059.972500", "135100.432500", "135100.892500", "135101.352500", "135101.812500", "135102.272500", "135102.732500", "135103.192500", "135103.652500", "135104.112500", "135104.572500", "135105.032500", "135105.492500", "135105.952500", "135106.412500", "135106.872500", "135107.332500", "135107.792500", "135108.252500", "135108.712500", "135109.172500", "135109.632500", "135110.092500", "135110.552500", "135111.012500", "135111.472500", "135111.932500", "135112.392500", "135112.852500", "135113.312500", "135113.772500", "135114.232500", "135114.692500", "135115.152500", "135115.612500", "135116.072500", "135116.532500", "135116.992500", "135117.452500", "135117.912500", "135118.372500", "135118.832500", "135119.292500", "135119.752500", "135120.212500", "135120.672500", "135121.132500", "135121.592500", "135122.052500", "135122.512500", "135122.972500", "135123.432500", "135123.892500", "135124.352500", "135124.812500", "135125.272500", "135125.732500", "135126.192500", "135126.652500", "135127.112500", "135127.572500", "135128.032500", "135128.492500", "135128.952500", "135129.412500", "135129.872500", "135130.332500", "135130.792500", "135131.252500", "135131.712500", "135132.172500", "135132.632500", "135133.092500", "135133.552500", "135134.012500", "135134.472500", "135134.932500", "135135.392500", "135135.852500", "135136.312500", "135136.772500", "135137.232500", "135137.692500", "135138.152500", "135138.612500", "135139.072500", "135139.532500", "135139.992500", "135140.452500", "135140.912500", "135141.372500", "135141.832500", "135142.292500", "135142.752500", "135143.212500", "135143.672500", "135144.132500", "135144.592500", "135145.052500", "135145.512500", "135145.972500", "135146.432500", "135146.892500", "135147.352500", "135147.812500", "135148.272500", "135148.732500", "135149.192500", "135149.652500", "135150.112500", "135150.572500", "135151.032500", "135151.492500", "135151.952500", "135152.412500", "135152.872500", "135153.332500", "135153.792500", "135154.252500", "135154.712500", "135155.172500", "135155.632500", "135156.092500", "135156.552500", "135157.012500", "135157.472500", "135157.932500", "135158.392500", "135158.852500", "135159.312500", "135159.772500", "135200.232500", "135200.692500", "135201.152500", "135201.612500", "135202.072500", "135202.532500", "135202.992500", "135203.452500", "135203.912500", "135204.372500", "135204.832500", "135205.292500", "135205.752500", "135206.212500", "135206.672500", "135207.132500"],
