{
  "AcquisitionMatrixPE": 82,
  "AcquisitionNumber": 1,
  "AcquisitionTime": "13:52:44.062500",
  "BandwidthPerPixelPhaseEncode": 24.888,
  "BaseResolution": 82,
  "BodyPartExamined": "BRAIN",
  "ConsistencyInfo": "N4_VE11C_LATEST_20160120",
  "ConversionSoftware": "dcm2niix",
  "ConversionSoftwareVersion": "v1.0.20201102",
  "DerivedVendorReportedEchoSpacing": 0.00049,
  "DeviceSerialNumber": "66112",
  "DwellTime": 2e-06,
  "EchoTime": 0.0272,
  "EchoTrainLength": 82,
  "EffectiveEchoSpacing": 0.00049,
  "FlipAngle": 44,
  "ImageComments": "Unaliased MB8/PE3",
  "ImageOrientationPatientDICOM": [0.997165, 0.0638333, 0.0398459, -0.0662316, 0.99587, 0.0620914],
  "ImageType": [
    "ORIGINAL",
    "PRIMARY",
    "M",
    "MB",
    "ND",
    "NORM",
    "MOSAIC"
],
  "ImagingFrequency": 123.252,
  "InPlanePhaseEncodingDirectionDICOM": "COL",
  "InstitutionAddress": "Maynard 3,Hanover,NH,US,03755",
  "InstitutionName": "Dartmouth College - PBS",
  "InstitutionalDepartmentName": "Department",
  "MRAcquisitionType": "2D",
  "MagneticFieldStrength": 3,
  "Manufacturer": "Siemens",
  "ManufacturersModelName": "Prisma",
  "Modality": "MR",
  "MultibandAccelerationFactor": 8,
  "PartialFourier": 1,
  "PatientPosition": "HFS",
  "PercentPhaseFOV": 100,
  "PercentSampling": 100,
  "PhaseEncodingDirection": "j-",
  "PhaseEncodingSteps": 82,
  "PhaseResolution": 1,
  "PixelBandwidth": 3050,
  "ProcedureStepDescription": "Wager_Wager^1076_spacetop",
  "ProtocolName": "func_run-04_task-social_acq-ap-mb8",
  "PulseSequenceDetails": "%CustomerSeq%\\cmrr_mbep2d_bold",
  "ReceiveCoilActiveElements": "HEA;HEP",
  "ReceiveCoilName": "Head_32",
  "ReconMatrixPE": 82,
  "RepetitionTime": 0.46,
  "SAR": 0.082307,
  "ScanOptions": "FS",
  "ScanningSequence": "EP",
  "SequenceName": "epfid2d1_82",
  "SequenceVariant": "SK\\SS",
  "SeriesDescription": "func_run-04_task-social_acq-ap-mb8",
  "SeriesNumber": 14,
  "ShimSetting": [4152, -7794, -7286, 599, -44, -290, 42, 32],
  "SliceThickness": 2.7,
  "SliceTiming": [0, 0.2525, 0.0625, 0.315, 0.125, 0.3775, 0.1875, 0, 0.2525, 0.0625, 0.315, 0.125, 0.3775, 0.1875, 0, 0.2525, 0.0625, 0.315, 0.125, 0.3775, 0.1875, 0, 0.2525, 0.0625, 0.315, 0.125, 0.3775, 0.1875, 0, 0.2525, 0.0625, 0.315, 0.125, 0.3775, 0.1875, 0, 0.2525, 0.0625, 0.315, 0.125, 0.3775, 0.1875, 0, 0.2525, 0.0625, 0.315, 0.125, 0.3775, 0.1875, 0, 0.2525, 0.0625, 0.315, 0.125, 0.3775, 0.1875],
  "SoftwareVersions": "syngo MR E11",
  "SpacingBetweenSlices": 2.7,
  "StationName": "AWP66112",
  "TaskName": "social",
  "TotalReadoutTime": 0.03969,
  "TxRefAmp": 232.783,
  "WipMemBlock": "a28cda4d-5e85-4930-9752-6551ea2d7428||Sequence: R016 ve11c/master r/e634e98; Dec 19 2017 11:00:25 by eja",
  "dcmmeta_affine": [
    [-2.6753201484680176, -0.17769458889961243, 0.09643825888633728, 118.69110870361328],
    [-0.17126022279262543, 2.6718478202819824, 0.17429685592651367, -97.86394500732422],
    [0.10690368711948395, -0.16658662259578705, 2.6926417350769043, -70.07633209228516],
    [0.0, 0.0, 0.0, 1.0]
],
  "dcmmeta_reorient_transform": [
    [0.0, -1.0, 0.0, 81.0],
    [1.0, 0.0, 0.0, 0.0],
    [0.0, 0.0, 1.0, 0.0],
    [0.0, 0.0, 0.0, 1.0]
],
  "dcmmeta_shape": [82, 82, 56, 872],
  "dcmmeta_slice_dim": 2,
  "dcmmeta_version": 0.6,
  "global": {
    "const": {
      "AccessionNumber": "A003837",
      "AcquisitionMatrix": [82, 0, 0, 82],
      "AngioFlag": "N",
      "BitsAllocated": 16,
      "BitsStored": 16,
      "BodyPartExamined": "BRAIN",
      "Columns": 656,
      "EchoNumbers": 1,
      "EchoTime": 27.2,
      "EchoTrainLength": 82,
      "FlipAngle": 44.0,
      "HighBit": 15,
      "ImageOrientationPatient": [0.99716478370076, 0.06383335207658, 0.03984591961149, -0.0662316204996, 0.9958704904462, 0.0620913738328],
      "ImagePositionPatient": [-821.11639589112, -934.52770218886, -162.0615632286],
      "ImageType": [
        "ORIGINAL",
        "PRIMARY",
        "M",
        "MB",
        "ND",
        "NORM",
        "MOSAIC"
],
      "ImagedNucleus": "1H",
      "ImagingFrequency": 123.252233,
      "InPlanePhaseEncodingDirection": "COL",
      "MRAcquisitionType": "2D",
      "MagneticFieldStrength": 3.0,
      "Manufacturer": "SIEMENS",
      "ManufacturerModelName": "Prisma",
      "Modality": "MR",
      "NumberOfAverages": 1.0,
      "NumberOfPhaseEncodingSteps": 82,
      "PercentPhaseFieldOfView": 100.0,
      "PercentSampling": 100.0,
      "PerformedProcedureStepStartTime": "132349.861000",
      "PhotometricInterpretation": "MONOCHROME2",
      "PixelBandwidth": 3050.0,
      "PixelRepresentation": 0,
      "PixelSpacing": [2.6829268932343, 2.6829268932343],
      "ProtocolName": "func_run-04_task-social_acq-ap-mb8",
      "RepetitionTime": 460.0,
      "Rows": 656,
      "SAR": 0.08230698568034,
      "SamplesPerPixel": 1,
      "ScanOptions": "FS",
      "ScanningSequence": "EP",
      "SequenceName": "epfid2d1_82",
      "SequenceVariant": [
        "SK",
        "SS"
],
      "SeriesDescription": "func_run-04_task-social_acq-ap-mb8",
      "SeriesNumber": 14,
      "SeriesTime": "135300.486000",
      "SliceLocation": -71.963508328734,
      "SliceThickness": 2.7000000476837,
      "SmallestImagePixelValue": 0,
      "SoftwareVersions": "syngo MR E11",
      "SpacingBetweenSlices": 2.6999999214628,
      "SpecificCharacterSet": "ISO_IR 100",
      "StudyID": "1",
      "StudyTime": "132349.787000",
      "TransmitCoilName": "Body",
      "VariableFlipAngleFlag": "N",
      "WindowCenterWidthExplanation": "Algo1",
      "dBdt": 0.0},
    "slices": {}
  },
  "time": {
    "samples": {
      "AcquisitionNumber": [1, 2, 3, 4, 5, 6, 7, 8, 9, 10, 11, 12, 13, 14, 15, 16, 17, 18, 19, 20, 21, 22, 23, 24, 25, 26, 27, 28, 29, 30, 31, 32, 33, 34, 35, 36, 37, 38, 39, 40, 41, 42, 43, 44, 45, 46, 47, 48, 49, 50, 51, 52, 53, 54, 55, 56, 57, 58, 59, 60, 61, 62, 63, 64, 65, 66, 67, 68, 69, 70, 71, 72, 73, 74, 75, 76, 77, 78, 79, 80, 81, 82, 83, 84, 85, 86, 87, 88, 89, 90, 91, 92, 93, 94, 95, 96, 97, 98, 99, 100, 101, 102, 103, 104, 105, 106, 107, 108, 109, 110, 111, 112, 113, 114, 115, 116, 117, 118, 119, 120, 121, 122, 123, 124, 125, 126, 127, 128, 129, 130, 131, 132, 133, 134, 135, 136, 137, 138, 139, 140, 141, 142, 143, 144, 145, 146, 147, 148, 149, 150, 151, 152, 153, 154, 155, 156, 157, 158, 159, 160, 161, 162, 163, 164, 165, 166, 167, 168, 169, 170, 171, 172, 173, 174, 175, 176, 177, 178, 179, 180, 181, 182, 183, 184, 185, 186, 187, 188, 189, 190, 191, 192, 193, 194, 195, 196, 197, 198, 199, 200, 201, 202, 203, 204, 205, 206, 207, 208, 209, 210, 211, 212, 213, 214, 215, 216, 217, 218, 219, 220, 221, 222, 223, 224, 225, 226, 227, 228, 229, 230, 231, 232, 233, 234, 235, 236, 237, 238, 239, 240, 241, 242, 243, 244, 245, 246, 247, 248, 249, 250, 251, 252, 253, 254, 255, 256, 257, 258, 259, 260, 261, 262, 263, 264, 265, 266, 267, 268, 269, 270, 271, 272, 273, 274, 275, 276, 277, 278, 279, 280, 281, 282, 283, 284, 285, 286, 287, 288, 289, 290, 291, 292, 293, 294, 295, 296, 297, 298, 299, 300, 301, 302, 303, 304, 305, 306, 307, 308, 309, 310, 311, 312, 313, 314, 315, 316, 317, 318, 319, 320, 321, 322, 323, 324, 325, 326, 327, 328, 329, 330, 331, 332, 333, 334, 335, 336, 337, 338, 339, 340, 341, 342, 343, 344, 345, 346, 347, 348, 349, 350, 351, 352, 353, 354, 355, 356, 357, 358, 359, 360, 361, 362, 363, 364, 365, 366, 367, 368, 369, 370, 371, 372, 373, 374, 375, 376, 377, 378, 379, 380, 381, 382, 383, 384, 385, 386, 387, 388, 389, 390, 391, 392, 393, 394, 395, 396, 397, 398, 399, 400, 401, 402, 403, 404, 405, 406, 407, 408, 409, 410, 411, 412, 413, 414, 415, 416, 417, 418, 419, 420, 421, 422, 423, 424, 425, 426, 427, 428, 429, 430, 431, 432, 433, 434, 435, 436, 437, 438, 439, 440, 441, 442, 443, 444, 445, 446, 447, 448, 449, 450, 451, 452, 453, 454, 455, 456, 457, 458, 459, 460, 461, 462, 463, 464, 465, 466, 467, 468, 469, 470, 471, 472, 473, 474, 475, 476, 477, 478, 479, 480, 481, 482, 483, 484, 485, 486, 487, 488, 489, 490, 491, 492, 493, 494, 495, 496, 497, 498, 499, 500, 501, 502, 503, 504, 505, 506, 507, 508, 509, 510, 511, 512, 513, 514, 515, 516, 517, 518, 519, 520, 521, 522, 523, 524, 525, 526, 527, 528, 529, 530, 531, 532, 533, 534, 535, 536, 537, 538, 539, 540, 541, 542, 543, 544, 545, 546, 547, 548, 549, 550, 551, 552, 553, 554, 555, 556, 557, 558, 559, 560, 561, 562, 563, 564, 565, 566, 567, 568, 569, 570, 571, 572, 573, 574, 575, 576, 577, 578, 579, 580, 581, 582, 583, 584, 585, 586, 587, 588, 589, 590, 591, 592, 593, 594, 595, 596, 597, 598, 599, 600, 601, 602, 603, 604, 605, 606, 607, 608, 609, 610, 611, 612, 613, 614, 615, 616, 617, 618, 619, 620, 621, 622, 623, 624, 625, 626, 627, 628, 629, 630, 631, 632, 633, 634, 635, 636, 637, 638, 639, 640, 641, 642, 643, 644, 645, 646, 647, 648, 649, 650, 651, 652, 653, 654, 655, 656, 657, 658, 659, 660, 661, 662, 663, 664, 665, 666, 667, 668, 669, 670, 671, 672, 673, 674, 675, 676, 677, 678, 679, 680, 681, 682, 683, 684, 685, 686, 687, 688, 689, 690, 691, 692, 693, 694, 695, 696, 697, 698, 699, 700, 701, 702, 703, 704, 705, 706, 707, 708, 709, 710, 711, 712, 713, 714, 715, 716, 717, 718, 719, 720, 721, 722, 723, 724, 725, 726, 727, 728, 729, 730, 731, 732, 733, 734, 735, 736, 737, 738, 739, 740, 741, 742, 743, 744, 745, 746, 747, 748, 749, 750, 751, 752, 753, 754, 755, 756, 757, 758, 759, 760, 761, 762, 763, 764, 765, 766, 767, 768, 769, 770, 771, 772, 773, 774, 775, 776, 777, 778, 779, 780, 781, 782, 783, 784, 785, 786, 787, 788, 789, 790, 791, 792, 793, 794, 795, 796, 797, 798, 799, 800, 801, 802, 803, 804, 805, 806, 807, 808, 809, 810, 811, 812, 813, 814, 815, 816, 817, 818, 819, 820, 821, 822, 823, 824, 825, 826, 827, 828, 829, 830, 831, 832, 833, 834, 835, 836, 837, 838, 839, 840, 841, 842, 843, 844, 845, 846, 847, 848, 849, 850, 851, 852, 853, 854, 855, 856, 857, 858, 859, 860, 861, 862, 863, 864, 865, 866, 867, 868, 869, 870, 871, 872],
      "AcquisitionTime": ["135244.062500", "135244.522500", "135244.982500", "135245.442500", "135245.902500", "135246.362500", "135246.822500", "135247.282500", "135247.742500", "135248.202500", "135248.662500", "135249.122500", "135249.582500", "135250.042500", "135250.502500", "135250.962500", "135251.422500", "135251.882500", "135252.342500", "135252.802500", "135253.262500", "135253.722500", "135254.182500", "135254.642500", "135255.102500", "135255.562500", "135256.022500", "135256.482500", "135256.942500", "135257.402500", "135257.862500", "135258.322500", "135258.782500", "135259.242500", "135259.702500", "135300.162500", "135300.622500", "135301.082500", "135301.542500", "135302.002500", "135302.462500", "135302.922500", "135303.382500", "135303.842500", "135304.302500", "135304.762500", "135305.222500", "135305.682500", "135306.142500", "135306.602500", "135307.062500", "135307.522500", "135307.982500", "135308.442500", "135308.902500", "135309.362500", "135309.822500", "135310.282500", "135310.742500", "135311.202500", "135311.662500", "135312.122500", "135312.582500", "135313.042500", "135313.502500", "135313.962500", "135314.422500", "135314.882500", "135315.342500", "135315.802500", "135316.262500", "135316.722500", "135317.182500", "135317.642500", "135318.102500", "135318.562500", "135319.022500", "135319.482500", "135319.942500", "135320.402500", "135320.862500", "135321.322500", "135321.782500", "135322.242500", "135322.702500", "135323.162500", "135323.622500", "135324.082500", "135324.542500", "135325.002500", "135325.462500", "135325.922500", "135326.382500", "135326.842500", "135327.302500", "135327.762500", "135328.222500", "135328.682500", "135329.142500", "135329.602500", "135330.062500", "135330.522500", "135330.982500", "135331.442500", "135331.902500", "135332.362500", "135332.822500", "135333.282500", "135333.742500", "135334.202500", "135334.662500", "135335.122500", "135335.582500", "135336.042500", "135336.502500", "135336.962500", "135337.422500", "135337.882500", "135338.342500", "135338.802500", "135339.262500", "135339.722500", "135340.182500", "135340.642500", "135341.102500", "135341.562500", "135342.022500", "135342.482500", "135342.942500", "135343.402500", "135343.862500", "135344.322500", "135344.782500", "135345.242500", "135345.702500", "135346.162500", "135346.622500", "135347.082500", "135347.542500", "135348.002500", "135348.462500", "135348.922500", "135349.382500", "135349.842500", "135350.302500", "135350.762500", "135351.222500", "135351.682500", "135352.142500", "135352.602500", "135353.062500", "135353.522500", "135353.982500", "135354.442500", "135354.902500", "135355.362500", "135355.822500", "135356.282500", "135356.742500", "135357.202500", "135357.662500", "135358.122500", "135358.582500", "135359.042500", "135359.502500", "135359.962500", "135400.422500", "135400.882500", "135401.342500", "135401.802500", "135402.262500", "135402.722500", "135403.182500", "135403.642500", "135404.102500", "135404.562500", "135405.022500", "135405.482500", "135405.942500", "135406.402500", "135406.862500", "135407.322500", "135407.782500", "135408.242500", "135408.702500", "135409.162500", "135409.622500", "135410.082500", "135410.542500", "135411.002500", "135411.462500", "135411.922500", "135412.382500", "135412.842500", "135413.302500", "135413.762500", "135414.222500", "135414.682500", "135415.142500", "135415.602500", "135416.062500", "135416.522500", "135416.982500", "135417.442500", "135417.902500", "135418.362500", "135418.822500", "135419.282500", "135419.742500", "135420.202500", "135420.662500", "135421.122500", "135421.582500", "135422.042500", "135422.502500", "135422.962500", "135423.422500", "135423.882500", "135424.342500", "135424.802500", "135425.262500", "135425.722500", "135426.182500", "135426.642500", "135427.102500", "135427.562500", "135428.022500", "135428.482500", "135428.942500", "135429.402500", "135429.862500", "135430.322500", "135430.782500", "135431.242500", "135431.702500", "135432.162500", "135432.622500", "135433.082500", "135433.542500", "135434.002500", "135434.462500", "135434.922500", "135435.382500", "135435.842500", "135436.302500", "135436.762500", "135437.222500", "135437.682500", "135438.142500", "135438.602500", "135439.062500", "135439.522500", "135439.982500", "135440.442500", "135440.902500", "135441.362500", "135441.822500", "135442.282500", "135442.742500", "135443.202500", "135443.662500", "135444.122500", "135444.582500", "135445.042500", "135445.502500", "135445.962500", "135446.422500", "135446.882500", "135447.342500", "135447.802500", "135448.262500", "135448.722500", "135449.182500", "135449.642500", "135450.102500", "135450.562500", "135451.022500", "135451.482500", "135451.942500", "135452.402500", "135452.862500", "135453.322500", "135453.782500", "135454.242500", "135454.702500", "135455.162500", "135455.622500", "135456.082500", "135456.542500", "135457.002500", "135457.462500", "135457.922500", "135458.382500", "135458.842500", "135459.302500", "135459.762500", "135500.222500", "135500.682500", "135501.142500", "135501.602500", "135502.062500", "135502.522500", "135502.982500", "135503.442500", "135503.902500", "135504.362500", "135504.822500", "135505.282500", "135505.742500", "135506.202500", "135506.662500", "135507.122500", "135507.582500", "135508.042500", "135508.502500", "135508.962500", "135509.422500", "135509.882500", "135510.342500", "135510.802500", "135511.262500", "135511.722500", "135512.182500", "135512.642500", "135513.102500", "135513.562500", "135514.022500", "135514.482500", "135514.942500", "135515.402500", "135515.862500", "135516.322500", "135516.782500", "135517.242500", "135517.702500", "135518.162500", "135518.622500", "135519.082500", "135519.542500", "135520.002500", "135520.462500", "135520.922500", "135521.382500", "135521.842500", "135522.302500", "135522.762500", "135523.222500", "135523.682500", "135524.142500", "135524.602500", "135525.062500", "135525.522500", "135525.982500", "135526.442500", "135526.902500", "135527.362500", "135527.822500", "135528.282500", "135528.742500", "135529.202500", "135529.662500", "135530.122500", "135530.582500", "135531.042500", "135531.502500", "135531.962500", "135532.422500", "135532.882500", "135533.342500", "135533.802500", "135534.262500", "135534.722500", "135535.182500", "135535.642500", "135536.102500", "135536.562500", "135537.022500", "135537.482500", "135537.942500", "135538.402500", "135538.862500", "135539.322500", "135539.782500", "135540.242500", "135540.702500", "135541.162500", "135541.622500", "135542.082500", "135542.542500", "135543.002500", "135543.462500", "135543.922500", "135544.382500", "135544.842500", "135545.302500", "135545.762500", "135546.222500", "135546.682500", "135547.142500", "135547.602500", "135548.062500", "135548.522500", "135548.982500", "135549.442500", "135549.902500", "135550.362500", "135550.822500", "135551.282500", "135551.742500", "135552.202500", "135552.662500", "135553.122500", "135553.582500", "135554.042500", "135554.502500", "135554.962500", "135555.422500", "135555.882500", "135556.342500", "135556.802500", "135557.262500", "135557.722500", "135558.182500", "135558.642500", "135559.102500", "135559.562500", "135600.022500", "135600.482500", "135600.942500", "135601.402500", "135601.862500", "135602.322500", "135602.782500", "135603.242500", "135603.702500", "135604.162500", "135604.622500", "135605.082500", "135605.542500", "135606.002500", "135606.462500", "135606.922500", "135607.382500", "135607.842500", "135608.302500", "135608.762500", "135609.222500", "135609.682500", "135610.142500", "135610.602500", "135611.062500", "135611.522500", "135611.982500", "135612.442500", "135612.902500", "135613.362500", "135613.822500", "135614.282500", "135614.742500", "135615.202500", "135615.662500", "135616.122500", "135616.582500", "135617.042500", "135617.502500", "135617.962500", "135618.422500", "135618.882500", "135619.342500", "135619.802500", "135620.262500", "135620.722500", "135621.182500", "135621.642500", "135622.102500", "135622.562500", "135623.022500", "135623.482500", "135623.942500", "135624.402500", "135624.862500", "135625.322500", "135625.782500", "135626.242500", "135626.702500", "135627.162500", "135627.622500", "135628.082500", "135628.542500", "135629.002500", "135629.462500", "135629.922500", "135630.382500", "135630.842500", "135631.302500", "135631.762500", "135632.222500", "135632.682500", "135633.142500", "135633.602500", "135634.062500", "135634.522500", "135634.982500", "135635.442500", "135635.902500", "135636.362500", "135636.822500", "135637.282500", "135637.742500", "135638.202500", "135638.662500", "135639.122500", "135639.582500", "135640.042500", "135640.502500", "135640.962500", "135641.422500", "135641.882500", "135642.342500", "135642.802500", "135643.262500", "135643.722500", "135644.182500", "135644.642500", "135645.102500", "135645.562500", "135646.022500", "135646.482500", "135646.942500", "135647.402500", "135647.862500", "135648.322500", "135648.782500", "135649.242500", "135649.702500", "135650.162500", "135650.622500", "135651.082500", "135651.542500", "135652.002500", "135652.462500", "135652.922500", "135653.382500", "135653.842500", "135654.302500", "135654.762500", "135655.222500", "135655.682500", "135656.142500", "135656.602500", "135657.062500", "135657.522500", "135657.982500", "135658.442500", "135658.902500", "135659.362500", "135659.822500", "135700.282500", "135700.742500", "135701.202500", "135701.662500", "135702.122500", "135702.582500", "135703.042500", "135703.502500", "135703.962500", "135704.422500", "135704.882500", "135705.342500", "135705.802500", "135706.262500", "135706.722500", "135707.182500", "135707.642500", "135708.102500", "135708.562500", "135709.022500", "135709.482500", "135709.942500", "135710.402500", "135710.862500", "135711.322500", "135711.782500", "135712.242500", "135712.702500", "135713.162500", "135713.622500", "135714.082500", "135714.542500", "135715.002500", "135715.462500", "135715.922500", "135716.382500", "135716.842500", "135717.302500", "135717.762500", "135718.222500", "135718.682500", "135719.142500", "135719.602500", "135720.062500", "135720.522500", "135720.982500", "135721.442500", "135721.902500", "135722.362500", "135722.822500", "135723.282500", "135723.742500", "135724.202500", "135724.662500", "135725.122500", "135725.582500", "135726.042500", "135726.502500", "135726.962500", "135727.422500", "135727.882500", "135728.342500", "135728.802500", "135729.262500", "135729.722500", "135730.182500", "135730.642500", "135731.102500", "135731.562500", "135732.022500", "135732.482500", "135732.942500", "135733.402500", "135733.862500", "135734.322500", "135734.782500", "135735.242500", "135735.702500", "135736.162500", "135736.622500", "135737.082500", "135737.542500", "135738.002500", "135738.462500", "135738.922500", "135739.382500", "135739.842500", "135740.302500", "135740.762500", "135741.222500", "135741.682500", "135742.142500", "135742.602500", "135743.062500", "135743.522500", "135743.982500", "135744.442500", "135744.902500", "135745.362500", "135745.822500", "135746.282500", "135746.742500", "135747.202500", "135747.662500", "135748.122500", "135748.582500", "135749.042500", "135749.502500", "135749.962500", "135750.422500", "135750.882500", "135751.342500", "135751.802500", "135752.262500", "135752.722500", "135753.182500", "135753.642500", "135754.102500", "135754.562500", "135755.022500", "135755.482500", "135755.942500", "135756.402500", "135756.862500", "135757.322500", "135757.782500", "135758.242500", "135758.702500", "135759.162500", "135759.622500", "135800.082500", "135800.542500", "135801.002500", "135801.462500", "135801.922500", "135802.382500", "135802.842500", "135803.302500", "135803.762500", "135804.222500", "135804.682500", "135805.142500", "135805.602500", "135806.062500", "135806.522500", "135806.982500", "135807.442500", "135807.902500", "135808.362500", "135808.822500", "135809.282500", "135809.742500", "135810.202500", "135810.662500", "135811.122500", "135811.582500", "135812.042500", "135812.502500", "135812.962500", "135813.422500", "135813.882500", "135814.342500", "135814.802500", "135815.262500", "135815.722500", "135816.182500", "135816.642500", "135817.102500", "135817.562500", "135818.022500", "135818.482500", "135818.942500", "135819.402500", "135819.862500", "135820.322500", "135820.782500", "135821.242500", "135821.702500", "135822.162500", "135822.622500", "135823.082500", "135823.542500", "135824.002500", "135824.462500", "135824.922500", "135825.382500", "135825.842500", "135826.302500", "135826.762500", "135827.222500", "135827.682500", "135828.142500", "135828.602500", "135829.062500", "135829.522500", "135829.982500", "135830.442500", "135830.902500", "135831.362500", "135831.822500", "135832.282500", "135832.742500", "135833.202500", "135833.662500", "135834.122500", "135834.582500", "135835.042500", "135835.502500", "135835.962500", "135836.422500", "135836.882500", "135837.342500", "135837.802500", "135838.262500", "135838.722500", "135839.182500", "135839.642500", "135840.102500", "135840.562500", "135841.022500", "135841.482500", "135841.942500", "135842.402500", "135842.862500", "135843.322500", "135843.782500", "135844.242500", "135844.702500", "135845.162500", "135845.622500", "135846.082500", "135846.542500", "135847.002500", "135847.462500", "135847.922500", "135848.382500", "135848.842500", "135849.302500", "135849.762500", "135850.222500", "135850.682500", "135851.142500", "135851.602500", "135852.062500", "135852.522500", "135852.982500", "135853.442500", "135853.902500", "135854.362500", "135854.822500", "135855.282500", "135855.742500", "135856.202500", "135856.662500", "135857.122500", "135857.582500", "135858.042500", "135858.502500", "135858.962500", "135859.422500", "135859.882500", "135900.342500", "135900.802500", "135901.262500", "135901.722500", "135902.182500", "135902.642500", "135903.102500", "135903.562500", "135904.022500", "135904.482500", "135904.942500", "135905.402500", "135905.862500", "135906.322500", "135906.782500", "135907.242500", "135907.702500", "135908.162500", "135908.622500", "135909.082500", "135909.542500", "135910.002500", "135910.462500", "135910.922500", "135911.382500", "135911.842500", "135912.302500", "135912.762500", "135913.222500", "135913.682500", "135914.142500", "135914.602500", "135915.062500", "135915.522500", "135915.982500", "135916.442500", "135916.902500", "135917.362500", "135917.822500", "135918.282500", "135918.742500", "135919.202500", "135919.662500", "135920.122500", "135920.582500", "135921.042500", "135921.502500", "135921.962500", "135922.422500", "135922.882500", "135923.342500", "135923.802500", "135924.262500", "135924.722500"],
