{
  "AcquisitionMatrixPE": 82,
  "AcquisitionNumber": 1,
  "AcquisitionTime": "13:31:13.495000",
  "BandwidthPerPixelPhaseEncode": 24.888,
  "BaseResolution": 82,
  "BodyPartExamined": "BRAIN",
  "ConsistencyInfo": "N4_VE11C_LATEST_20160120",
  "ConversionSoftware": "dcm2niix",
  "ConversionSoftwareVersion": "v1.0.20201102",
  "DerivedVendorReportedEchoSpacing": 0.00049,
  "DeviceSerialNumber": "66112",
  "DwellTime": 2e-06,
  "EchoTime": 0.0272,
  "EchoTrainLength": 82,
  "EffectiveEchoSpacing": 0.00049,
  "FlipAngle": 44,
  "ImageComments": "Unaliased MB8/PE3",
  "ImageOrientationPatientDICOM": [0.997165, 0.0638333, 0.0398459, -0.0662316, 0.99587, 0.0620914],
  "ImageType": [
    "ORIGINAL",
    "PRIMARY",
    "M",
    "MB",
    "ND",
    "NORM",
    "MOSAIC"
],
  "ImagingFrequency": 123.252,
  "InPlanePhaseEncodingDirectionDICOM": "COL",
  "InstitutionAddress": "Maynard 3,Hanover,NH,US,03755",
  "InstitutionName": "Dartmouth College - PBS",
  "InstitutionalDepartmentName": "Department",
  "MRAcquisitionType": "2D",
  "MagneticFieldStrength": 3,
  "Manufacturer": "Siemens",
  "ManufacturersModelName": "Prisma",
  "Modality": "MR",
  "MultibandAccelerationFactor": 8,
  "PartialFourier": 1,
  "PatientPosition": "HFS",
  "PercentPhaseFOV": 100,
  "PercentSampling": 100,
  "PhaseEncodingDirection": "j-",
  "PhaseEncodingSteps": 82,
  "PhaseResolution": 1,
  "PixelBandwidth": 3050,
  "ProcedureStepDescription": "Wager_Wager^1076_spacetop",
  "ProtocolName": "func_run-01_task-social_acq-ap-mb8",
  "PulseSequenceDetails": "%CustomerSeq%\\cmrr_mbep2d_bold",
  "ReceiveCoilActiveElements": "HEA;HEP",
  "ReceiveCoilName": "Head_32",
  "ReconMatrixPE": 82,
  "RepetitionTime": 0.46,
  "SAR": 0.082307,
  "ScanOptions": "FS",
  "ScanningSequence": "EP",
  "SequenceName": "epfid2d1_82",
  "SequenceVariant": "SK\\SS",
  "SeriesDescription": "func_run-01_task-social_acq-ap-mb8",
  "SeriesNumber": 8,
  "ShimSetting": [4152, -7794, -7286, 599, -44, -290, 42, 32],
  "SliceThickness": 2.7,
  "SliceTiming": [0, 0.2525, 0.0625, 0.315, 0.125, 0.3775, 0.19, 0, 0.2525, 0.0625, 0.315, 0.125, 0.3775, 0.19, 0, 0.2525, 0.0625, 0.315, 0.125, 0.3775, 0.19, 0, 0.2525, 0.0625, 0.315, 0.125, 0.3775, 0.19, 0, 0.2525, 0.0625, 0.315, 0.125, 0.3775, 0.19, 0, 0.2525, 0.0625, 0.315, 0.125, 0.3775, 0.19, 0, 0.2525, 0.0625, 0.315, 0.125, 0.3775, 0.19, 0, 0.2525, 0.0625, 0.315, 0.125, 0.3775, 0.19],
  "SoftwareVersions": "syngo MR E11",
  "SpacingBetweenSlices": 2.7,
  "StationName": "AWP66112",
  "TaskName": "social",
  "TotalReadoutTime": 0.03969,
  "TxRefAmp": 232.783,
  "WipMemBlock": "344cb6c2-9507-4247-9b09-32c7985aa3ad||Sequence: R016 ve11c/master r/e634e98; Dec 19 2017 11:00:25 by eja",
  "dcmmeta_affine": [
    [-2.6753201484680176, -0.17769458889961243, 0.09643825888633728, 118.69110870361328],
    [-0.17126022279262543, 2.6718478202819824, 0.17429685592651367, -97.86394500732422],
    [0.10690368711948395, -0.16658662259578705, 2.6926417350769043, -70.07633209228516],
    [0.0, 0.0, 0.0, 1.0]
],
  "dcmmeta_reorient_transform": [
    [0.0, -1.0, 0.0, 81.0],
    [1.0, 0.0, 0.0, 0.0],
    [0.0, 0.0, 1.0, 0.0],
    [0.0, 0.0, 0.0, 1.0]
],
  "dcmmeta_shape": [82, 82, 56, 872],
  "dcmmeta_slice_dim": 2,
  "dcmmeta_version": 0.6,
  "global": {
    "const": {
      "AccessionNumber": "A003837",
      "AcquisitionMatrix": [82, 0, 0, 82],
      "AngioFlag": "N",
      "BitsAllocated": 16,
      "BitsStored": 16,
      "BodyPartExamined": "BRAIN",
      "Columns": 656,
      "EchoNumbers": 1,
      "EchoTime": 27.2,
      "EchoTrainLength": 82,
      "FlipAngle": 44.0,
      "HighBit": 15,
      "ImageOrientationPatient": [0.99716478370076, 0.06383335207658, 0.03984591961149, -0.0662316204996, 0.9958704904462, 0.0620913738328],
      "ImagePositionPatient": [-821.11639589112, -934.52770218886, -162.0615632286],
      "ImageType": [
        "ORIGINAL",
        "PRIMARY",
        "M",
        "MB",
        "ND",
        "NORM",
        "MOSAIC"
],
      "ImagedNucleus": "1H",
      "ImagingFrequency": 123.252226,
      "InPlanePhaseEncodingDirection": "COL",
      "MRAcquisitionType": "2D",
      "MagneticFieldStrength": 3.0,
      "Manufacturer": "SIEMENS",
      "ManufacturerModelName": "Prisma",
      "Modality": "MR",
      "NumberOfAverages": 1.0,
      "NumberOfPhaseEncodingSteps": 82,
      "PercentPhaseFieldOfView": 100.0,
      "PercentSampling": 100.0,
      "PerformedProcedureStepStartTime": "132349.861000",
      "PhotometricInterpretation": "MONOCHROME2",
      "PixelBandwidth": 3050.0,
      "PixelRepresentation": 0,
      "PixelSpacing": [2.6829268932343, 2.6829268932343],
      "ProtocolName": "func_run-01_task-social_acq-ap-mb8",
      "RepetitionTime": 460.0,
      "Rows": 656,
      "SAR": 0.08230698568034,
      "SamplesPerPixel": 1,
      "ScanOptions": "FS",
      "ScanningSequence": "EP",
      "SequenceName": "epfid2d1_82",
      "SequenceVariant": [
        "SK",
        "SS"
],
      "SeriesDescription": "func_run-01_task-social_acq-ap-mb8",
      "SeriesNumber": 8,
      "SeriesTime": "133140.478000",
      "SliceLocation": -71.963508328734,
      "SliceThickness": 2.7000000476837,
      "SmallestImagePixelValue": 0,
      "SoftwareVersions": "syngo MR E11",
      "SpacingBetweenSlices": 2.6999999214628,
      "SpecificCharacterSet": "ISO_IR 100",
      "StudyID": "1",
      "StudyTime": "132349.787000",
      "TransmitCoilName": "Body",
      "VariableFlipAngleFlag": "N",
      "WindowCenterWidthExplanation": "Algo1",
      "dBdt": 0.0},
    "slices": {}
  },
  "time": {
    "samples": {
      "AcquisitionNumber": [1, 2, 3, 4, 5, 6, 7, 8, 9, 10, 11, 12, 13, 14, 15, 16, 17, 18, 19, 20, 21, 22, 23, 24, 25, 26, 27, 28, 29, 30, 31, 32, 33, 34, 35, 36, 37, 38, 39, 40, 41, 42, 43, 44, 45, 46, 47, 48, 49, 50, 51, 52, 53, 54, 55, 56, 57, 58, 59, 60, 61, 62, 63, 64, 65, 66, 67, 68, 69, 70, 71, 72, 73, 74, 75, 76, 77, 78, 79, 80, 81, 82, 83, 84, 85, 86, 87, 88, 89, 90, 91, 92, 93, 94, 95, 96, 97, 98, 99, 100, 101, 102, 103, 104, 105, 106, 107, 108, 109, 110, 111, 112, 113, 114, 115, 116, 117, 118, 119, 120, 121, 122, 123, 124, 125, 126, 127, 128, 129, 130, 131, 132, 133, 134, 135, 136, 137, 138, 139, 140, 141, 142, 143, 144, 145, 146, 147, 148, 149, 150, 151, 152, 153, 154, 155, 156, 157, 158, 159, 160, 161, 162, 163, 164, 165, 166, 167, 168, 169, 170, 171, 172, 173, 174, 175, 176, 177, 178, 179, 180, 181, 182, 183, 184, 185, 186, 187, 188, 189, 190, 191, 192, 193, 194, 195, 196, 197, 198, 199, 200, 201, 202, 203, 204, 205, 206, 207, 208, 209, 210, 211, 212, 213, 214, 215, 216, 217, 218, 219, 220, 221, 222, 223, 224, 225, 226, 227, 228, 229, 230, 231, 232, 233, 234, 235, 236, 237, 238, 239, 240, 241, 242, 243, 244, 245, 246, 247, 248, 249, 250, 251, 252, 253, 254, 255, 256, 257, 258, 259, 260, 261, 262, 263, 264, 265, 266, 267, 268, 269, 270, 271, 272, 273, 274, 275, 276, 277, 278, 279, 280, 281, 282, 283, 284, 285, 286, 287, 288, 289, 290, 291, 292, 293, 294, 295, 296, 297, 298, 299, 300, 301, 302, 303, 304, 305, 306, 307, 308, 309, 310, 311, 312, 313, 314, 315, 316, 317, 318, 319, 320, 321, 322, 323, 324, 325, 326, 327, 328, 329, 330, 331, 332, 333, 334, 335, 336, 337, 338, 339, 340, 341, 342, 343, 344, 345, 346, 347, 348, 349, 350, 351, 352, 353, 354, 355, 356, 357, 358, 359, 360, 361, 362, 363, 364, 365, 366, 367, 368, 369, 370, 371, 372, 373, 374, 375, 376, 377, 378, 379, 380, 381, 382, 383, 384, 385, 386, 387, 388, 389, 390, 391, 392, 393, 394, 395, 396, 397, 398, 399, 400, 401, 402, 403, 404, 405, 406, 407, 408, 409, 410, 411, 412, 413, 414, 415, 416, 417, 418, 419, 420, 421, 422, 423, 424, 425, 426, 427, 428, 429, 430, 431, 432, 433, 434, 435, 436, 437, 438, 439, 440, 441, 442, 443, 444, 445, 446, 447, 448, 449, 450, 451, 452, 453, 454, 455, 456, 457, 458, 459, 460, 461, 462, 463, 464, 465, 466, 467, 468, 469, 470, 471, 472, 473, 474, 475, 476, 477, 478, 479, 480, 481, 482, 483, 484, 485, 486, 487, 488, 489, 490, 491, 492, 493, 494, 495, 496, 497, 498, 499, 500, 501, 502, 503, 504, 505, 506, 507, 508, 509, 510, 511, 512, 513, 514, 515, 516, 517, 518, 519, 520, 521, 522, 523, 524, 525, 526, 527, 528, 529, 530, 531, 532, 533, 534, 535, 536, 537, 538, 539, 540, 541, 542, 543, 544, 545, 546, 547, 548, 549, 550, 551, 552, 553, 554, 555, 556, 557, 558, 559, 560, 561, 562, 563, 564, 565, 566, 567, 568, 569, 570, 571, 572, 573, 574, 575, 576, 577, 578, 579, 580, 581, 582, 583, 584, 585, 586, 587, 588, 589, 590, 591, 592, 593, 594, 595, 596, 597, 598, 599, 600, 601, 602, 603, 604, 605, 606, 607, 608, 609, 610, 611, 612, 613, 614, 615, 616, 617, 618, 619, 620, 621, 622, 623, 624, 625, 626, 627, 628, 629, 630, 631, 632, 633, 634, 635, 636, 637, 638, 639, 640, 641, 642, 643, 644, 645, 646, 647, 648, 649, 650, 651, 652, 653, 654, 655, 656, 657, 658, 659, 660, 661, 662, 663, 664, 665, 666, 667, 668, 669, 670, 671, 672, 673, 674, 675, 676, 677, 678, 679, 680, 681, 682, 683, 684, 685, 686, 687, 688, 689, 690, 691, 692, 693, 694, 695, 696, 697, 698, 699, 700, 701, 702, 703, 704, 705, 706, 707, 708, 709, 710, 711, 712, 713, 714, 715, 716, 717, 718, 719, 720, 721, 722, 723, 724, 725, 726, 727, 728, 729, 730, 731, 732, 733, 734, 735, 736, 737, 738, 739, 740, 741, 742, 743, 744, 745, 746, 747, 748, 749, 750, 751, 752, 753, 754, 755, 756, 757, 758, 759, 760, 761, 762, 763, 764, 765, 766, 767, 768, 769, 770, 771, 772, 773, 774, 775, 776, 777, 778, 779, 780, 781, 782, 783, 784, 785, 786, 787, 788, 789, 790, 791, 792, 793, 794, 795, 796, 797, 798, 799, 800, 801, 802, 803, 804, 805, 806, 807, 808, 809, 810, 811, 812, 813, 814, 815, 816, 817, 818, 819, 820, 821, 822, 823, 824, 825, 826, 827, 828, 829, 830, 831, 832, 833, 834, 835, 836, 837, 838, 839, 840, 841, 842, 843, 844, 845, 846, 847, 848, 849, 850, 851, 852, 853, 854, 855, 856, 857, 858, 859, 860, 861, 862, 863, 864, 865, 866, 867, 868, 869, 870, 871, 872],
      "AcquisitionTime": ["133113.495000", "133113.955000", "133114.415000", "133114.875000", "133115.335000", "133115.795000", "133116.255000", "133116.715000", "133117.175000", "133117.635000", "133118.095000", "133118.555000", "133119.015000", "133119.475000", "133119.935000", "133120.395000", "133120.855000", "133121.315000", "133121.775000", "133122.235000", "133122.695000", "133123.155000", "133123.615000", "133124.075000", "133124.535000", "133124.995000", "133125.455000", "133125.915000", "133126.375000", "133126.835000", "133127.295000", "133127.755000", "133128.215000", "133128.675000", "133129.135000", "133129.595000", "133130.055000", "133130.515000", "133130.975000", "133131.435000", "133131.895000", "133132.355000", "133132.815000", "133133.275000", "133133.735000", "133134.195000", "133134.655000", "133135.115000", "133135.575000", "133136.035000", "133136.495000", "133136.955000", "133137.415000", "133137.875000", "133138.335000", "133138.795000", "133139.255000", "133139.715000", "133140.175000", "133140.635000", "133141.095000", "133141.555000", "133142.015000", "133142.475000", "133142.935000", "133143.395000", "133143.855000", "133144.315000", "133144.775000", "133145.235000", "133145.695000", "133146.155000", "133146.615000", "133147.075000", "133147.535000", "133147.995000", "133148.455000", "133148.915000", "133149.375000", "133149.835000", "133150.295000", "133150.755000", "133151.215000", "133151.675000", "133152.135000", "133152.595000", "133153.055000", "133153.515000", "133153.975000", "133154.435000", "133154.895000", "133155.355000", "133155.815000", "133156.275000", "133156.735000", "133157.195000", "133157.655000", "133158.115000", "133158.575000", "133159.035000", "133159.495000", "133159.955000", "133200.415000", "133200.875000", "133201.335000", "133201.795000", "133202.255000", "133202.715000", "133203.175000", "133203.635000", "133204.095000", "133204.555000", "133205.015000", "133205.475000", "133205.935000", "133206.395000", "133206.855000", "133207.315000", "133207.775000", "133208.235000", "133208.695000", "133209.155000", "133209.615000", "133210.075000", "133210.535000", "133210.995000", "133211.455000", "133211.915000", "133212.375000", "133212.835000", "133213.295000", "133213.755000", "133214.215000", "133214.675000", "133215.135000", "133215.595000", "133216.055000", "133216.515000", "133216.975000", "133217.435000", "133217.895000", "133218.355000", "133218.815000", "133219.275000", "133219.735000", "133220.195000", "133220.655000", "133221.115000", "133221.575000", "133222.035000", "133222.495000", "133222.955000", "133223.415000", "133223.875000", "133224.335000", "133224.795000", "133225.255000", "133225.715000", "133226.175000", "133226.635000", "133227.095000", "133227.555000", "133228.015000", "133228.475000", "133228.935000", "133229.395000", "133229.855000", "133230.315000", "133230.775000", "133231.235000", "133231.695000", "133232.155000", "133232.615000", "133233.075000", "133233.535000", "133233.995000", "133234.455000", "133234.915000", "133235.375000", "133235.835000", "133236.295000", "133236.755000", "133237.215000", "133237.675000", "133238.135000", "133238.595000", "133239.055000", "133239.515000", "133239.975000", "133240.435000", "133240.895000", "133241.355000", "133241.815000", "133242.275000", "133242.735000", "133243.195000", "133243.655000", "133244.115000", "133244.575000", "133245.035000", "133245.495000", "133245.955000", "133246.415000", "133246.875000", "133247.335000", "133247.795000", "133248.255000", "133248.715000", "133249.175000", "133249.635000", "133250.095000", "133250.555000", "133251.015000", "133251.475000", "133251.935000", "133252.395000", "133252.855000", "133253.315000", "133253.775000", "133254.235000", "133254.695000", "133255.155000", "133255.615000", "133256.075000", "133256.535000", "133256.995000", "133257.455000", "133257.915000", "133258.375000", "133258.835000", "133259.295000", "133259.755000", "133300.215000", "133300.675000", "133301.135000", "133301.595000", "133302.055000", "133302.515000", "133302.975000", "133303.435000", "133303.895000", "133304.355000", "133304.815000", "133305.275000", "133305.735000", "133306.195000", "133306.655000", "133307.115000", "133307.575000", "133308.035000", "133308.495000", "133308.955000", "133309.415000", "133309.875000", "133310.335000", "133310.795000", "133311.255000", "133311.715000", "133312.175000", "133312.635000", "133313.095000", "133313.555000", "133314.015000", "133314.475000", "133314.935000", "133315.395000", "133315.855000", "133316.315000", "133316.775000", "133317.235000", "133317.695000", "133318.155000", "133318.615000", "133319.075000", "133319.535000", "133319.995000", "133320.455000", "133320.915000", "133321.375000", "133321.835000", "133322.295000", "133322.755000", "133323.215000", "133323.675000", "133324.135000", "133324.595000", "133325.055000", "133325.515000", "133325.975000", "133326.435000", "133326.895000", "133327.355000", "133327.815000", "133328.275000", "133328.735000", "133329.195000", "133329.655000", "133330.115000", "133330.575000", "133331.035000", "133331.495000", "133331.955000", "133332.415000", "133332.875000", "133333.335000", "133333.795000", "133334.255000", "133334.715000", "133335.175000", "133335.635000", "133336.095000", "133336.555000", "133337.015000", "133337.475000", "133337.935000", "133338.395000", "133338.855000", "133339.315000", "133339.775000", "133340.235000", "133340.695000", "133341.155000", "133341.615000", "133342.075000", "133342.535000", "133342.995000", "133343.455000", "133343.915000", "133344.375000", "133344.835000", "133345.295000", "133345.755000", "133346.215000", "133346.675000", "133347.135000", "133347.595000", "133348.055000", "133348.515000", "133348.975000", "133349.435000", "133349.895000", "133350.355000", "133350.815000", "133351.275000", "133351.735000", "133352.195000", "133352.655000", "133353.115000", "133353.575000", "133354.035000", "133354.495000", "133354.955000", "133355.415000", "133355.875000", "133356.335000", "133356.795000", "133357.255000", "133357.715000", "133358.175000", "133358.635000", "133359.095000", "133359.555000", "133400.015000", "133400.475000", "133400.935000", "133401.395000", "133401.855000", "133402.315000", "133402.775000", "133403.235000", "133403.695000", "133404.155000", "133404.615000", "133405.075000", "133405.535000", "133405.995000", "133406.455000", "133406.915000", "133407.375000", "133407.835000", "133408.295000", "133408.755000", "133409.215000", "133409.675000", "133410.135000", "133410.595000", "133411.055000", "133411.515000", "133411.975000", "133412.435000", "133412.895000", "133413.355000", "133413.815000", "133414.275000", "133414.735000", "133415.195000", "133415.655000", "133416.115000", "133416.575000", "133417.035000", "133417.495000", "133417.955000", "133418.415000", "133418.875000", "133419.335000", "133419.795000", "133420.255000", "133420.715000", "133421.175000", "133421.635000", "133422.095000", "133422.555000", "133423.015000", "133423.475000", "133423.935000", "133424.395000", "133424.855000", "133425.315000", "133425.775000", "133426.235000", "133426.695000", "133427.155000", "133427.615000", "133428.075000", "133428.535000", "133428.995000", "133429.455000", "133429.915000", "133430.375000", "133430.835000", "133431.295000", "133431.755000", "133432.215000", "133432.675000", "133433.135000", "133433.595000", "133434.055000", "133434.515000", "133434.975000", "133435.435000", "133435.895000", "133436.355000", "133436.815000", "133437.275000", "133437.735000", "133438.195000", "133438.655000", "133439.115000", "133439.575000", "133440.035000", "133440.495000", "133440.955000", "133441.415000", "133441.875000", "133442.335000", "133442.795000", "133443.255000", "133443.715000", "133444.175000", "133444.635000", "133445.095000", "133445.555000", "133446.015000", "133446.475000", "133446.935000", "133447.395000", "133447.855000", "133448.315000", "133448.775000", "133449.235000", "133449.695000", "133450.155000", "133450.615000", "133451.075000", "133451.535000", "133451.995000", "133452.455000", "133452.915000", "133453.375000", "133453.835000", "133454.295000", "133454.755000", "133455.215000", "133455.675000", "133456.135000", "133456.595000", "133457.055000", "133457.515000", "133457.975000", "133458.435000", "133458.895000", "133459.355000", "133459.815000", "133500.275000", "133500.735000", "133501.195000", "133501.655000", "133502.115000", "133502.575000", "133503.035000", "133503.495000", "133503.955000", "133504.415000", "133504.875000", "133505.335000", "133505.795000", "133506.255000", "133506.715000", "133507.175000", "133507.635000", "133508.095000", "133508.555000", "133509.015000", "133509.475000", "133509.935000", "133510.395000", "133510.855000", "133511.315000", "133511.775000", "133512.235000", "133512.695000", "133513.155000", "133513.615000", "133514.075000", "133514.535000", "133514.995000", "133515.455000", "133515.915000", "133516.375000", "133516.835000", "133517.295000", "133517.755000", "133518.215000", "133518.675000", "133519.135000", "133519.595000", "133520.055000", "133520.515000", "133520.975000", "133521.435000", "133521.895000", "133522.355000", "133522.815000", "133523.275000", "133523.735000", "133524.195000", "133524.655000", "133525.115000", "133525.575000", "133526.035000", "133526.495000", "133526.955000", "133527.415000", "133527.875000", "133528.335000", "133528.795000", "133529.255000", "133529.715000", "133530.175000", "133530.635000", "133531.095000", "133531.555000", "133532.015000", "133532.475000", "133532.935000", "133533.395000", "133533.855000", "133534.315000", "133534.775000", "133535.235000", "133535.695000", "133536.155000", "133536.615000", "133537.075000", "133537.535000", "133537.995000", "133538.455000", "133538.915000", "133539.375000", "133539.835000", "133540.295000", "133540.755000", "133541.215000", "133541.675000", "133542.135000", "133542.595000", "133543.055000", "133543.515000", "133543.975000", "133544.435000", "133544.895000", "133545.355000", "133545.815000", "133546.275000", "133546.735000", "133547.195000", "133547.655000", "133548.115000", "133548.575000", "133549.035000", "133549.495000", "133549.955000", "133550.415000", "133550.875000", "133551.335000", "133551.795000", "133552.255000", "133552.715000", "133553.175000", "133553.635000", "133554.095000", "133554.555000", "133555.015000", "133555.475000", "133555.935000", "133556.395000", "133556.855000", "133557.315000", "133557.775000", "133558.235000", "133558.695000", "133559.155000", "133559.615000", "133600.075000", "133600.535000", "133600.995000", "133601.455000", "133601.915000", "133602.375000", "133602.835000", "133603.295000", "133603.755000", "133604.215000", "133604.675000", "133605.135000", "133605.595000", "133606.055000", "133606.515000", "133606.975000", "133607.435000", "133607.895000", "133608.355000", "133608.815000", "133609.275000", "133609.735000", "133610.195000", "133610.655000", "133611.115000", "133611.575000", "133612.035000", "133612.495000", "133612.955000", "133613.415000", "133613.875000", "133614.335000", "133614.795000", "133615.255000", "133615.715000", "133616.175000", "133616.635000", "133617.095000", "133617.555000", "133618.015000", "133618.475000", "133618.935000", "133619.395000", "133619.855000", "133620.315000", "133620.775000", "133621.235000", "133621.695000", "133622.155000", "133622.615000", "133623.075000", "133623.535000", "133623.995000", "133624.455000", "133624.915000", "133625.375000", "133625.835000", "133626.295000", "133626.755000", "133627.215000", "133627.675000", "133628.135000", "133628.595000", "133629.055000", "133629.515000", "133629.975000", "133630.435000", "133630.895000", "133631.355000", "133631.815000", "133632.275000", "133632.735000", "133633.195000", "133633.655000", "133634.115000", "133634.575000", "133635.035000", "133635.495000", "133635.955000", "133636.415000", "133636.875000", "133637.335000", "133637.795000", "133638.255000", "133638.715000", "133639.175000", "133639.635000", "133640.095000", "133640.555000", "133641.015000", "133641.475000", "133641.935000", "133642.395000", "133642.855000", "133643.315000", "133643.775000", "133644.235000", "133644.695000", "133645.155000", "133645.615000", "133646.075000", "133646.535000", "133646.995000", "133647.455000", "133647.915000", "133648.375000", "133648.835000", "133649.295000", "133649.755000", "133650.215000", "133650.675000", "133651.135000", "133651.595000", "133652.055000", "133652.515000", "133652.975000", "133653.435000", "133653.895000", "133654.355000", "133654.815000", "133655.275000", "133655.735000", "133656.195000", "133656.655000", "133657.115000", "133657.575000", "133658.035000", "133658.495000", "133658.955000", "133659.415000", "133659.875000", "133700.335000", "133700.795000", "133701.255000", "133701.715000", "133702.175000", "133702.635000", "133703.095000", "133703.555000", "133704.015000", "133704.475000", "133704.935000", "133705.395000", "133705.855000", "133706.315000", "133706.775000", "133707.235000", "133707.695000", "133708.155000", "133708.615000", "133709.075000", "133709.535000", "133709.995000", "133710.455000", "133710.915000", "133711.375000", "133711.835000", "133712.295000", "133712.755000", "133713.215000", "133713.675000", "133714.135000", "133714.595000", "133715.055000", "133715.515000", "133715.975000", "133716.435000", "133716.895000", "133717.355000", "133717.815000", "133718.275000", "133718.735000", "133719.195000", "133719.655000", "133720.115000", "133720.575000", "133721.035000", "133721.495000", "133721.955000", "133722.415000", "133722.875000", "133723.335000", "133723.795000", "133724.255000", "133724.715000", "133725.175000", "133725.635000", "133726.095000", "133726.555000", "133727.015000", "133727.475000", "133727.935000", "133728.395000", "133728.855000", "133729.315000", "133729.775000", "133730.235000", "133730.695000", "133731.155000", "133731.615000", "133732.075000", "133732.535000", "133732.995000", "133733.455000", "133733.915000", "133734.375000", "133734.835000", "133735.295000", "133735.755000", "133736.215000", "133736.675000", "133737.135000", "133737.595000", "133738.055000", "133738.515000", "133738.975000", "133739.435000", "133739.895000", "133740.355000", "133740.815000", "133741.275000", "133741.735000", "133742.195000", "133742.655000", "133743.115000", "133743.575000", "133744.035000", "133744.495000", "133744.955000", "133745.415000", "133745.875000", "133746.335000", "133746.795000", "133747.255000", "133747.715000", "133748.175000", "133748.635000", "133749.095000", "133749.555000", "133750.015000", "133750.475000", "133750.935000", "133751.395000", "133751.855000", "133752.315000", "133752.775000", "133753.235000", "133753.695000", "133754.155000"],
