{
  "AcquisitionMatrixPE": 82,
  "AcquisitionNumber": 1,
  "AcquisitionTime": "14:00:4.360000",
  "BandwidthPerPixelPhaseEncode": 24.888,
  "BaseResolution": 82,
  "BodyPartExamined": "BRAIN",
  "ConsistencyInfo": "N4_VE11C_LATEST_20160120",
  "ConversionSoftware": "dcm2niix",
  "ConversionSoftwareVersion": "v1.0.20201102",
  "DerivedVendorReportedEchoSpacing": 0.00049,
  "DeviceSerialNumber": "66112",
  "DwellTime": 2e-06,
  "EchoTime": 0.0272,
  "EchoTrainLength": 82,
  "EffectiveEchoSpacing": 0.00049,
  "FlipAngle": 44,
  "ImageComments": "Unaliased MB8/PE3",
  "ImageOrientationPatientDICOM": [0.997165, 0.0638333, 0.0398459, -0.0662316, 0.99587, 0.0620914],
  "ImageType": [
    "ORIGINAL",
    "PRIMARY",
    "M",
    "MB",
    "ND",
    "NORM",
    "MOSAIC"
],
  "ImagingFrequency": 123.252,
  "InPlanePhaseEncodingDirectionDICOM": "COL",
  "InstitutionAddress": "Maynard 3,Hanover,NH,US,03755",
  "InstitutionName": "Dartmouth College - PBS",
  "InstitutionalDepartmentName": "Department",
  "MRAcquisitionType": "2D",
  "MagneticFieldStrength": 3,
  "Manufacturer": "Siemens",
  "ManufacturersModelName": "Prisma",
  "Modality": "MR",
  "MultibandAccelerationFactor": 8,
  "PartialFourier": 1,
  "PatientPosition": "HFS",
  "PercentPhaseFOV": 100,
  "PercentSampling": 100,
  "PhaseEncodingDirection": "j-",
  "PhaseEncodingSteps": 82,
  "PhaseResolution": 1,
  "PixelBandwidth": 3050,
  "ProcedureStepDescription": "Wager_Wager^1076_spacetop",
  "ProtocolName": "func_run-05_task-social_acq-ap-mb8",
  "PulseSequenceDetails": "%CustomerSeq%\\cmrr_mbep2d_bold",
  "ReceiveCoilActiveElements": "HEA;HEP",
  "ReceiveCoilName": "Head_32",
  "ReconMatrixPE": 82,
  "RepetitionTime": 0.46,
  "SAR": 0.082307,
  "ScanOptions": "FS",
  "ScanningSequence": "EP",
  "SequenceName": "epfid2d1_82",
  "SequenceVariant": "SK\\SS",
  "SeriesDescription": "func_run-05_task-social_acq-ap-mb8",
  "SeriesNumber": 16,
  "ShimSetting": [4152, -7794, -7286, 599, -44, -290, 42, 32],
  "SliceThickness": 2.7,
  "SliceTiming": [0, 0.25, 0.0625, 0.315, 0.125, 0.3775, 0.1875, 0, 0.25, 0.0625, 0.315, 0.125, 0.3775, 0.1875, 0, 0.25, 0.0625, 0.315, 0.125, 0.3775, 0.1875, 0, 0.25, 0.0625, 0.315, 0.125, 0.3775, 0.1875, 0, 0.25, 0.0625, 0.315, 0.125, 0.3775, 0.1875, 0, 0.25, 0.0625, 0.315, 0.125, 0.3775, 0.1875, 0, 0.25, 0.0625, 0.315, 0.125, 0.3775, 0.1875, 0, 0.25, 0.0625, 0.315, 0.125, 0.3775, 0.1875],
  "SoftwareVersions": "syngo MR E11",
  "SpacingBetweenSlices": 2.7,
  "StationName": "AWP66112",
  "TaskName": "social",
  "TotalReadoutTime": 0.03969,
  "TxRefAmp": 232.783,
  "WipMemBlock": "5b5d7a9f-2343-404b-a216-420d0e9548d6||Sequence: R016 ve11c/master r/e634e98; Dec 19 2017 11:00:25 by eja",
  "dcmmeta_affine": [
    [-2.6753201484680176, -0.17769458889961243, 0.09643825888633728, 118.69110870361328],
    [-0.17126022279262543, 2.6718478202819824, 0.17429685592651367, -97.86394500732422],
    [0.10690368711948395, -0.16658662259578705, 2.6926417350769043, -70.07633209228516],
    [0.0, 0.0, 0.0, 1.0]
],
  "dcmmeta_reorient_transform": [
    [0.0, -1.0, 0.0, 81.0],
    [1.0, 0.0, 0.0, 0.0],
    [0.0, 0.0, 1.0, 0.0],
    [0.0, 0.0, 0.0, 1.0]
],
  "dcmmeta_shape": [82, 82, 56, 872],
  "dcmmeta_slice_dim": 2,
  "dcmmeta_version": 0.6,
  "global": {
    "const": {
      "AccessionNumber": "A003837",
      "AcquisitionMatrix": [82, 0, 0, 82],
      "AngioFlag": "N",
      "BitsAllocated": 16,
      "BitsStored": 16,
      "BodyPartExamined": "BRAIN",
      "Columns": 656,
      "EchoNumbers": 1,
      "EchoTime": 27.2,
      "EchoTrainLength": 82,
      "FlipAngle": 44.0,
      "HighBit": 15,
      "ImageOrientationPatient": [0.99716478370076, 0.06383335207658, 0.03984591961149, -0.0662316204996, 0.9958704904462, 0.0620913738328],
      "ImagePositionPatient": [-821.11639589112, -934.52770218886, -162.0615632286],
      "ImageType": [
        "ORIGINAL",
        "PRIMARY",
        "M",
        "MB",
        "ND",
        "NORM",
        "MOSAIC"
],
      "ImagedNucleus": "1H",
      "ImagingFrequency": 123.252235,
      "InPlanePhaseEncodingDirection": "COL",
      "MRAcquisitionType": "2D",
      "MagneticFieldStrength": 3.0,
      "Manufacturer": "SIEMENS",
      "ManufacturerModelName": "Prisma",
      "Modality": "MR",
      "NumberOfAverages": 1.0,
      "NumberOfPhaseEncodingSteps": 82,
      "PercentPhaseFieldOfView": 100.0,
      "PercentSampling": 100.0,
      "PerformedProcedureStepStartTime": "132349.861000",
      "PhotometricInterpretation": "MONOCHROME2",
      "PixelBandwidth": 3050.0,
      "PixelRepresentation": 0,
      "PixelSpacing": [2.6829268932343, 2.6829268932343],
      "ProtocolName": "func_run-05_task-social_acq-ap-mb8",
      "RepetitionTime": 460.0,
      "Rows": 656,
      "SAR": 0.08230698568034,
      "SamplesPerPixel": 1,
      "ScanOptions": "FS",
      "ScanningSequence": "EP",
      "SequenceName": "epfid2d1_82",
      "SequenceVariant": [
        "SK",
        "SS"
],
      "SeriesDescription": "func_run-05_task-social_acq-ap-mb8",
      "SeriesNumber": 16,
      "SeriesTime": "140020.345000",
      "SliceLocation": -71.963508328734,
      "SliceThickness": 2.7000000476837,
      "SmallestImagePixelValue": 0,
      "SoftwareVersions": "syngo MR E11",
      "SpacingBetweenSlices": 2.6999999214628,
      "SpecificCharacterSet": "ISO_IR 100",
      "StudyID": "1",
      "StudyTime": "132349.787000",
      "TransmitCoilName": "Body",
      "VariableFlipAngleFlag": "N",
      "WindowCenterWidthExplanation": "Algo1",
      "dBdt": 0.0},
    "slices": {}
  },
  "time": {
    "samples": {
      "AcquisitionNumber": [1, 2, 3, 4, 5, 6, 7, 8, 9, 10, 11, 12, 13, 14, 15, 16, 17, 18, 19, 20, 21, 22, 23, 24, 25, 26, 27, 28, 29, 30, 31, 32, 33, 34, 35, 36, 37, 38, 39, 40, 41, 42, 43, 44, 45, 46, 47, 48, 49, 50, 51, 52, 53, 54, 55, 56, 57, 58, 59, 60, 61, 62, 63, 64, 65, 66, 67, 68, 69, 70, 71, 72, 73, 74, 75, 76, 77, 78, 79, 80, 81, 82, 83, 84, 85, 86, 87, 88, 89, 90, 91, 92, 93, 94, 95, 96, 97, 98, 99, 100, 101, 102, 103, 104, 105, 106, 107, 108, 109, 110, 111, 112, 113, 114, 115, 116, 117, 118, 119, 120, 121, 122, 123, 124, 125, 126, 127, 128, 129, 130, 131, 132, 133, 134, 135, 136, 137, 138, 139, 140, 141, 142, 143, 144, 145, 146, 147, 148, 149, 150, 151, 152, 153, 154, 155, 156, 157, 158, 159, 160, 161, 162, 163, 164, 165, 166, 167, 168, 169, 170, 171, 172, 173, 174, 175, 176, 177, 178, 179, 180, 181, 182, 183, 184, 185, 186, 187, 188, 189, 190, 191, 192, 193, 194, 195, 196, 197, 198, 199, 200, 201, 202, 203, 204, 205, 206, 207, 208, 209, 210, 211, 212, 213, 214, 215, 216, 217, 218, 219, 220, 221, 222, 223, 224, 225, 226, 227, 228, 229, 230, 231, 232, 233, 234, 235, 236, 237, 238, 239, 240, 241, 242, 243, 244, 245, 246, 247, 248, 249, 250, 251, 252, 253, 254, 255, 256, 257, 258, 259, 260, 261, 262, 263, 264, 265, 266, 267, 268, 269, 270, 271, 272, 273, 274, 275, 276, 277, 278, 279, 280, 281, 282, 283, 284, 285, 286, 287, 288, 289, 290, 291, 292, 293, 294, 295, 296, 297, 298, 299, 300, 301, 302, 303, 304, 305, 306, 307, 308, 309, 310, 311, 312, 313, 314, 315, 316, 317, 318, 319, 320, 321, 322, 323, 324, 325, 326, 327, 328, 329, 330, 331, 332, 333, 334, 335, 336, 337, 338, 339, 340, 341, 342, 343, 344, 345, 346, 347, 348, 349, 350, 351, 352, 353, 354, 355, 356, 357, 358, 359, 360, 361, 362, 363, 364, 365, 366, 367, 368, 369, 370, 371, 372, 373, 374, 375, 376, 377, 378, 379, 380, 381, 382, 383, 384, 385, 386, 387, 388, 389, 390, 391, 392, 393, 394, 395, 396, 397, 398, 399, 400, 401, 402, 403, 404, 405, 406, 407, 408, 409, 410, 411, 412, 413, 414, 415, 416, 417, 418, 419, 420, 421, 422, 423, 424, 425, 426, 427, 428, 429, 430, 431, 432, 433, 434, 435, 436, 437, 438, 439, 440, 441, 442, 443, 444, 445, 446, 447, 448, 449, 450, 451, 452, 453, 454, 455, 456, 457, 458, 459, 460, 461, 462, 463, 464, 465, 466, 467, 468, 469, 470, 471, 472, 473, 474, 475, 476, 477, 478, 479, 480, 481, 482, 483, 484, 485, 486, 487, 488, 489, 490, 491, 492, 493, 494, 495, 496, 497, 498, 499, 500, 501, 502, 503, 504, 505, 506, 507, 508, 509, 510, 511, 512, 513, 514, 515, 516, 517, 518, 519, 520, 521, 522, 523, 524, 525, 526, 527, 528, 529, 530, 531, 532, 533, 534, 535, 536, 537, 538, 539, 540, 541, 542, 543, 544, 545, 546, 547, 548, 549, 550, 551, 552, 553, 554, 555, 556, 557, 558, 559, 560, 561, 562, 563, 564, 565, 566, 567, 568, 569, 570, 571, 572, 573, 574, 575, 576, 577, 578, 579, 580, 581, 582, 583, 584, 585, 586, 587, 588, 589, 590, 591, 592, 593, 594, 595, 596, 597, 598, 599, 600, 601, 602, 603, 604, 605, 606, 607, 608, 609, 610, 611, 612, 613, 614, 615, 616, 617, 618, 619, 620, 621, 622, 623, 624, 625, 626, 627, 628, 629, 630, 631, 632, 633, 634, 635, 636, 637, 638, 639, 640, 641, 642, 643, 644, 645, 646, 647, 648, 649, 650, 651, 652, 653, 654, 655, 656, 657, 658, 659, 660, 661, 662, 663, 664, 665, 666, 667, 668, 669, 670, 671, 672, 673, 674, 675, 676, 677, 678, 679, 680, 681, 682, 683, 684, 685, 686, 687, 688, 689, 690, 691, 692, 693, 694, 695, 696, 697, 698, 699, 700, 701, 702, 703, 704, 705, 706, 707, 708, 709, 710, 711, 712, 713, 714, 715, 716, 717, 718, 719, 720, 721, 722, 723, 724, 725, 726, 727, 728, 729, 730, 731, 732, 733, 734, 735, 736, 737, 738, 739, 740, 741, 742, 743, 744, 745, 746, 747, 748, 749, 750, 751, 752, 753, 754, 755, 756, 757, 758, 759, 760, 761, 762, 763, 764, 765, 766, 767, 768, 769, 770, 771, 772, 773, 774, 775, 776, 777, 778, 779, 780, 781, 782, 783, 784, 785, 786, 787, 788, 789, 790, 791, 792, 793, 794, 795, 796, 797, 798, 799, 800, 801, 802, 803, 804, 805, 806, 807, 808, 809, 810, 811, 812, 813, 814, 815, 816, 817, 818, 819, 820, 821, 822, 823, 824, 825, 826, 827, 828, 829, 830, 831, 832, 833, 834, 835, 836, 837, 838, 839, 840, 841, 842, 843, 844, 845, 846, 847, 848, 849, 850, 851, 852, 853, 854, 855, 856, 857, 858, 859, 860, 861, 862, 863, 864, 865, 866, 867, 868, 869, 870, 871, 872],
      "AcquisitionTime": ["140004.360000", "140004.820000", "140005.280000", "140005.740000", "140006.200000", "140006.660000", "140007.120000", "140007.580000", "140008.040000", "140008.500000", "140008.960000", "140009.420000", "140009.880000", "140010.340000", "140010.800000", "140011.260000", "140011.720000", "140012.180000", "140012.640000", "140013.100000", "140013.560000", "140014.020000", "140014.480000", "140014.940000", "140015.400000", "140015.860000", "140016.320000", "140016.780000", "140017.240000", "140017.700000", "140018.160000", "140018.620000", "140019.080000", "140019.540000", "140020.000000", "140020.460000", "140020.920000", "140021.380000", "140021.840000", "140022.300000", "140022.760000", "140023.220000", "140023.680000", "140024.140000", "140024.600000", "140025.060000", "140025.520000", "140025.980000", "140026.440000", "140026.900000", "140027.360000", "140027.820000", "140028.280000", "140028.740000", "140029.200000", "140029.660000", "140030.120000", "140030.580000", "140031.040000", "140031.500000", "140031.960000", "140032.420000", "140032.880000", "140033.340000", "140033.800000", "140034.260000", "140034.720000", "140035.180000", "140035.640000", "140036.100000", "140036.560000", "140037.020000", "140037.480000", "140037.940000", "140038.400000", "140038.860000", "140039.320000", "140039.780000", "140040.240000", "140040.700000", "140041.160000", "140041.620000", "140042.080000", "140042.540000", "140043.000000", "140043.460000", "140043.920000", "140044.380000", "140044.840000", "140045.300000", "140045.760000", "140046.220000", "140046.680000", "140047.140000", "140047.600000", "140048.060000", "140048.520000", "140048.980000", "140049.440000", "140049.900000", "140050.360000", "140050.820000", "140051.280000", "140051.740000", "140052.200000", "140052.660000", "140053.120000", "140053.580000", "140054.040000", "140054.500000", "140054.960000", "140055.420000", "140055.880000", "140056.340000", "140056.800000", "140057.260000", "140057.720000", "140058.180000", "140058.640000", "140059.100000", "140059.560000", "140100.020000", "140100.480000", "140100.940000", "140101.400000", "140101.860000", "140102.320000", "140102.780000", "140103.240000", "140103.700000", "140104.160000", "140104.620000", "140105.080000", "140105.540000", "140106.000000", "140106.460000", "140106.920000", "140107.380000", "140107.840000", "140108.300000", "140108.760000", "140109.220000", "140109.680000", "140110.140000", "140110.600000", "140111.060000", "140111.520000", "140111.980000", "140112.440000", "140112.900000", "140113.360000", "140113.820000", "140114.280000", "140114.740000", "140115.200000", "140115.660000", "140116.120000", "140116.580000", "140117.040000", "140117.500000", "140117.960000", "140118.420000", "140118.880000", "140119.340000", "140119.800000", "140120.260000", "140120.720000", "140121.180000", "140121.640000", "140122.100000", "140122.560000", "140123.020000", "140123.480000", "140123.940000", "140124.400000", "140124.860000", "140125.320000", "140125.780000", "140126.240000", "140126.700000", "140127.160000", "140127.620000", "140128.080000", "140128.540000", "140129.000000", "140129.460000", "140129.920000", "140130.380000", "140130.840000", "140131.300000", "140131.760000", "140132.220000", "140132.680000", "140133.140000", "140133.600000", "140134.060000", "140134.520000", "140134.980000", "140135.440000", "140135.900000", "140136.360000", "140136.820000", "140137.280000", "140137.740000", "140138.200000", "140138.660000", "140139.120000", "140139.580000", "140140.040000", "140140.500000", "140140.960000", "140141.420000", "140141.880000", "140142.340000", "140142.800000", "140143.260000", "140143.720000", "140144.180000", "140144.640000", "140145.100000", "140145.560000", "140146.020000", "140146.480000", "140146.940000", "140147.400000", "140147.860000", "140148.320000", "140148.780000", "140149.240000", "140149.700000", "140150.160000", "140150.620000", "140151.080000", "140151.540000", "140152.000000", "140152.460000", "140152.920000", "140153.380000", "140153.840000", "140154.300000", "140154.760000", "140155.220000", "140155.680000", "140156.140000", "140156.600000", "140157.060000", "140157.520000", "140157.980000", "140158.440000", "140158.900000", "140159.360000", "140159.820000", "140200.280000", "140200.740000", "140201.200000", "140201.660000", "140202.120000", "140202.580000", "140203.040000", "140203.500000", "140203.960000", "140204.420000", "140204.880000", "140205.340000", "140205.800000", "140206.260000", "140206.720000", "140207.180000", "140207.640000", "140208.100000", "140208.560000", "140209.020000", "140209.480000", "140209.940000", "140210.400000", "140210.860000", "140211.320000", "140211.780000", "140212.240000", "140212.700000", "140213.160000", "140213.620000", "140214.080000", "140214.540000", "140215.000000", "140215.460000", "140215.920000", "140216.380000", "140216.840000", "140217.300000", "140217.760000", "140218.220000", "140218.680000", "140219.140000", "140219.600000", "140220.060000", "140220.520000", "140220.980000", "140221.440000", "140221.900000", "140222.360000", "140222.820000", "140223.280000", "140223.740000", "140224.200000", "140224.660000", "140225.120000", "140225.580000", "140226.040000", "140226.500000", "140226.960000", "140227.420000", "140227.880000", "140228.340000", "140228.800000", "140229.260000", "140229.720000", "140230.180000", "140230.640000", "140231.100000", "140231.560000", "140232.020000", "140232.480000", "140232.940000", "140233.400000", "140233.860000", "140234.320000", "140234.780000", "140235.240000", "140235.700000", "140236.160000", "140236.620000", "140237.080000", "140237.540000", "140238.000000", "140238.460000", "140238.920000", "140239.380000", "140239.840000", "140240.300000", "140240.760000", "140241.220000", "140241.680000", "140242.140000", "140242.600000", "140243.060000", "140243.520000", "140243.980000", "140244.440000", "140244.900000", "140245.360000", "140245.820000", "140246.280000", "140246.740000", "140247.200000", "140247.660000", "140248.120000", "140248.580000", "140249.040000", "140249.500000", "140249.960000", "140250.420000", "140250.880000", "140251.340000", "140251.800000", "140252.260000", "140252.720000", "140253.180000", "140253.640000", "140254.100000", "140254.560000", "140255.020000", "140255.480000", "140255.940000", "140256.400000", "140256.860000", "140257.320000", "140257.780000", "140258.240000", "140258.700000", "140259.160000", "140259.620000", "140300.080000", "140300.540000", "140301.000000", "140301.460000", "140301.920000", "140302.380000", "140302.840000", "140303.300000", "140303.760000", "140304.220000", "140304.680000", "140305.140000", "140305.600000", "140306.060000", "140306.520000", "140306.980000", "140307.440000", "140307.900000", "140308.360000", "140308.820000", "140309.280000", "140309.740000", "140310.200000", "140310.660000", "140311.120000", "140311.580000", "140312.040000", "140312.500000", "140312.960000", "140313.420000", "140313.880000", "140314.340000", "140314.800000", "140315.260000", "140315.720000", "140316.180000", "140316.640000", "140317.100000", "140317.560000", "140318.020000", "140318.480000", "140318.940000", "140319.400000", "140319.860000", "140320.320000", "140320.780000", "140321.240000", "140321.700000", "140322.160000", "140322.620000", "140323.080000", "140323.540000", "140324.000000", "140324.460000", "140324.920000", "140325.380000", "140325.840000", "140326.300000", "140326.760000", "140327.220000", "140327.680000", "140328.140000", "140328.600000", "140329.060000", "140329.520000", "140329.980000", "140330.440000", "140330.900000", "140331.360000", "140331.820000", "140332.280000", "140332.740000", "140333.200000", "140333.660000", "140334.120000", "140334.580000", "140335.040000", "140335.500000", "140335.960000", "140336.420000", "140336.880000", "140337.340000", "140337.800000", "140338.260000", "140338.720000", "140339.180000", "140339.640000", "140340.100000", "140340.560000", "140341.020000", "140341.480000", "140341.940000", "140342.400000", "140342.860000", "140343.320000", "140343.780000", "140344.240000", "140344.700000", "140345.160000", "140345.620000", "140346.080000", "140346.540000", "140347.000000", "140347.460000", "140347.920000", "140348.380000", "140348.840000", "140349.300000", "140349.760000", "140350.220000", "140350.680000", "140351.140000", "140351.600000", "140352.060000", "140352.520000", "140352.980000", "140353.440000", "140353.900000", "140354.360000", "140354.820000", "140355.280000", "140355.740000", "140356.200000", "140356.660000", "140357.120000", "140357.580000", "140358.040000", "140358.500000", "140358.960000", "140359.420000", "140359.880000", "140400.340000", "140400.800000", "140401.260000", "140401.720000", "140402.180000", "140402.640000", "140403.100000", "140403.560000", "140404.020000", "140404.480000", "140404.940000", "140405.400000", "140405.860000", "140406.320000", "140406.780000", "140407.240000", "140407.700000", "140408.160000", "140408.620000", "140409.080000", "140409.540000", "140410.000000", "140410.460000", "140410.920000", "140411.380000", "140411.840000", "140412.300000", "140412.760000", "140413.220000", "140413.680000", "140414.140000", "140414.600000", "140415.060000", "140415.520000", "140415.980000", "140416.440000", "140416.900000", "140417.360000", "140417.820000", "140418.280000", "140418.740000", "140419.200000", "140419.660000", "140420.120000", "140420.580000", "140421.040000", "140421.500000", "140421.960000", "140422.420000", "140422.880000", "140423.340000", "140423.800000", "140424.260000", "140424.720000", "140425.180000", "140425.640000", "140426.100000", "140426.560000", "140427.020000", "140427.480000", "140427.940000", "140428.400000", "140428.860000", "140429.320000", "140429.780000", "140430.240000", "140430.700000", "140431.160000", "140431.620000", "140432.080000", "140432.540000", "140433.000000", "140433.460000", "140433.920000", "140434.380000", "140434.840000", "140435.300000", "140435.760000", "140436.220000", "140436.680000", "140437.140000", "140437.600000", "140438.060000", "140438.520000", "140438.980000", "140439.440000", "140439.900000", "140440.360000", "140440.820000", "140441.280000", "140441.740000", "140442.200000", "140442.660000", "140443.120000", "140443.580000", "140444.040000", "140444.500000", "140444.960000", "140445.420000", "140445.880000", "140446.340000", "140446.800000", "140447.260000", "140447.720000", "140448.180000", "140448.640000", "140449.100000", "140449.560000", "140450.020000", "140450.480000", "140450.940000", "140451.400000", "140451.860000", "140452.320000", "140452.780000", "140453.240000", "140453.700000", "140454.160000", "140454.620000", "140455.080000", "140455.540000", "140456.000000", "140456.460000", "140456.920000", "140457.380000", "140457.840000", "140458.300000", "140458.760000", "140459.220000", "140459.680000", "140500.140000", "140500.600000", "140501.060000", "140501.520000", "140501.980000", "140502.440000", "140502.900000", "140503.360000", "140503.820000", "140504.280000", "140504.740000", "140505.200000", "140505.660000", "140506.120000", "140506.580000", "140507.040000", "140507.500000", "140507.960000", "140508.420000", "140508.880000", "140509.340000", "140509.800000", "140510.260000", "140510.720000", "140511.180000", "140511.640000", "140512.100000", "140512.560000", "140513.020000", "140513.480000", "140513.940000", "140514.400000", "140514.860000", "140515.320000", "140515.780000", "140516.240000", "140516.700000", "140517.160000", "140517.620000", "140518.080000", "140518.540000", "140519.000000", "140519.460000", "140519.920000", "140520.380000", "140520.840000", "140521.300000", "140521.760000", "140522.220000", "140522.680000", "140523.140000", "140523.600000", "140524.060000", "140524.520000", "140524.980000", "140525.440000", "140525.900000", "140526.360000", "140526.820000", "140527.280000", "140527.740000", "140528.200000", "140528.660000", "140529.120000", "140529.580000", "140530.040000", "140530.500000", "140530.960000", "140531.420000", "140531.880000", "140532.340000", "140532.800000", "140533.260000", "140533.720000", "140534.180000", "140534.640000", "140535.100000", "140535.560000", "140536.020000", "140536.480000", "140536.940000", "140537.400000", "140537.860000", "140538.320000", "140538.780000", "140539.240000", "140539.700000", "140540.160000", "140540.620000", "140541.080000", "140541.540000", "140542.000000", "140542.460000", "140542.920000", "140543.380000", "140543.840000", "140544.300000", "140544.760000", "140545.220000", "140545.680000", "140546.140000", "140546.600000", "140547.060000", "140547.520000", "140547.980000", "140548.440000", "140548.900000", "140549.360000", "140549.820000", "140550.280000", "140550.740000", "140551.200000", "140551.660000", "140552.120000", "140552.580000", "140553.040000", "140553.500000", "140553.960000", "140554.420000", "140554.880000", "140555.340000", "140555.800000", "140556.260000", "140556.720000", "140557.180000", "140557.640000", "140558.100000", "140558.560000", "140559.020000", "140559.480000", "140559.940000", "140600.400000", "140600.860000", "140601.320000", "140601.780000", "140602.240000", "140602.700000", "140603.160000", "140603.620000", "140604.080000", "140604.540000", "140605.000000", "140605.460000", "140605.920000", "140606.380000", "140606.840000", "140607.300000", "140607.760000", "140608.220000", "140608.680000", "140609.140000", "140609.600000", "140610.060000", "140610.520000", "140610.980000", "140611.440000", "140611.900000", "140612.360000", "140612.820000", "140613.280000", "140613.740000", "140614.200000", "140614.660000", "140615.120000", "140615.580000", "140616.040000", "140616.500000", "140616.960000", "140617.420000", "140617.880000", "140618.340000", "140618.800000", "140619.260000", "140619.720000", "140620.180000", "140620.640000", "140621.100000", "140621.560000", "140622.020000", "140622.480000", "140622.940000", "140623.400000", "140623.860000", "140624.320000", "140624.780000", "140625.240000", "140625.700000", "140626.160000", "140626.620000", "140627.080000", "140627.540000", "140628.000000", "140628.460000", "140628.920000", "140629.380000", "140629.840000", "140630.300000", "140630.760000", "140631.220000", "140631.680000", "140632.140000", "140632.600000", "140633.060000", "140633.520000", "140633.980000", "140634.440000", "140634.900000", "140635.360000", "140635.820000", "140636.280000", "140636.740000", "140637.200000", "140637.660000", "140638.120000", "140638.580000", "140639.040000", "140639.500000", "140639.960000", "140640.420000", "140640.880000", "140641.340000", "140641.800000", "140642.260000", "140642.720000", "140643.180000", "140643.640000", "140644.100000", "140644.560000", "140645.020000"],
