{
  "AcquisitionMatrixPE": 82,
  "AcquisitionNumber": 1,
  "AcquisitionTime": "12:30:33.392500",
  "BandwidthPerPixelPhaseEncode": 24.888,
  "BaseResolution": 82,
  "BodyPartExamined": "BRAIN",
  "ConsistencyInfo": "N4_VE11E_LATEST_20181129",
  "ConversionSoftware": "dcm2niix",
  "ConversionSoftwareVersion": "v1.0.20201102",
  "DerivedVendorReportedEchoSpacing": 0.00049,
  "DeviceSerialNumber": "66112",
  "DwellTime": 2e-06,
  "EchoTime": 0.0272,
  "EchoTrainLength": 82,
  "EffectiveEchoSpacing": 0.00049,
  "FlipAngle": 44,
  "ImageComments": "Unaliased MB8/PE3",
  "ImageOrientationPatientDICOM": [0.999728, 0.0169928, 0.0159746, -0.0136107, 0.981292, -0.192044],
  "ImageType": [
    "ORIGINAL",
    "PRIMARY",
    "M",
    "MB",
    "ND",
    "NORM",
    "MOSAIC"
],
  "ImagingFrequency": 123.259,
  "InPlanePhaseEncodingDirectionDICOM": "COL",
  "InstitutionAddress": "Maynard 3,Hanover,NH,US,03755",
  "InstitutionName": "Dartmouth College - PBS",
  "InstitutionalDepartmentName": "Department",
  "MRAcquisitionType": "2D",
  "MagneticFieldStrength": 3,
  "Manufacturer": "Siemens",
  "ManufacturersModelName": "Prisma",
  "Modality": "MR",
  "MultibandAccelerationFactor": 8,
  "PartialFourier": 1,
  "PatientPosition": "HFS",
  "PercentPhaseFOV": 100,
  "PercentSampling": 100,
  "PhaseEncodingDirection": "j-",
  "PhaseEncodingSteps": 82,
  "PhaseResolution": 1,
  "PixelBandwidth": 3050,
  "ProcedureStepDescription": "Wager_Wager^1076_spacetop",
  "ProtocolName": "func_run-06_task-social_acq-ap-mb8",
  "PulseSequenceDetails": "%CustomerSeq%\\cmrr_mbep2d_bold",
  "ReceiveCoilActiveElements": "HEA;HEP",
  "ReceiveCoilName": "Head_32",
  "ReconMatrixPE": 82,
  "RepetitionTime": 0.46,
  "SAR": 0.124673,
  "ScanOptions": "FS",
  "ScanningSequence": "EP",
  "SequenceName": "epfid2d1_82",
  "SequenceVariant": "SK\\SS",
  "SeriesDescription": "func_run-06_task-social_acq-ap-mb8",
  "SeriesNumber": 22,
  "ShimSetting": [4220, -7770, -7239, 87, -133, -21, 110, 99],
  "SliceThickness": 2.7,
  "SliceTiming": [0, 0.2525, 0.0625, 0.315, 0.1275, 0.3775, 0.19, 0, 0.2525, 0.0625, 0.315, 0.1275, 0.3775, 0.19, 0, 0.2525, 0.0625, 0.315, 0.1275, 0.3775, 0.19, 0, 0.2525, 0.0625, 0.315, 0.1275, 0.3775, 0.19, 0, 0.2525, 0.0625, 0.315, 0.1275, 0.3775, 0.19, 0, 0.2525, 0.0625, 0.315, 0.1275, 0.3775, 0.19, 0, 0.2525, 0.0625, 0.315, 0.1275, 0.3775, 0.19, 0, 0.2525, 0.0625, 0.315, 0.1275, 0.3775, 0.19],
  "SoftwareVersions": "syngo MR E11",
  "SpacingBetweenSlices": 2.7,
  "StationName": "AWP66112",
  "TaskName": "social",
  "TotalReadoutTime": 0.03969,
  "TxRefAmp": 314.567,
  "WipMemBlock": "4c59a0b1-6689-4616-a03e-9aed0e86f5be||Sequence: R016 ve11e/master r/434b28f1; Aug  7 2019 18:53:46 by eja",
  "dcmmeta_affine": [
    [-2.682197093963623, -0.036516595631837845, 0.05113548785448074, 111.96110534667969],
    [-0.04559031501412392, 2.632734537124634, -0.5177911520004272, -74.90483093261719],
    [0.04285858944058418, 0.5152404308319092, 2.6493918895721436, -102.81632995605469],
    [0.0, 0.0, 0.0, 1.0]
],
  "dcmmeta_reorient_transform": [
    [0.0, -1.0, 0.0, 81.0],
    [1.0, 0.0, 0.0, 0.0],
    [0.0, 0.0, 1.0, 0.0],
    [0.0, 0.0, 0.0, 1.0]
],
  "dcmmeta_shape": [82, 82, 56, 872],
  "dcmmeta_slice_dim": 2,
  "dcmmeta_version": 0.6,
  "global": {
    "const": {
      "AccessionNumber": "A004351",
      "AcquisitionMatrix": [82, 0, 0, 82],
      "AngioFlag": "N",
      "BitsAllocated": 16,
      "BitsStored": 16,
      "BodyPartExamined": "BRAIN",
      "Columns": 656,
      "EchoNumbers": 1,
      "EchoTime": 27.2,
      "EchoTrainLength": 82,
      "FlipAngle": 44.0,
      "HighBit": 15,
      "ImageOrientationPatient": [0.99972799280678, 0.01699275326969, 0.0159745652471, -0.0136107314127, 0.98129189832295, -0.1920441570997],
      "ImagePositionPatient": [-868.31356754076, -907.02585560919, 74.491735857422],
      "ImageType": [
        "ORIGINAL",
        "PRIMARY",
        "M",
        "MB",
        "ND",
        "NORM",
        "MOSAIC"
],
      "ImagedNucleus": "1H",
      "ImagingFrequency": 123.259073,
      "InPlanePhaseEncodingDirection": "COL",
      "MRAcquisitionType": "2D",
      "MagneticFieldStrength": 3.0,
      "Manufacturer": "SIEMENS",
      "ManufacturerModelName": "Prisma",
      "Modality": "MR",
      "NumberOfAverages": 1.0,
      "NumberOfPhaseEncodingSteps": 82,
      "PercentPhaseFieldOfView": 100.0,
      "PercentSampling": 100.0,
      "PerformedProcedureStepStartTime": "111945.397000",
      "PhotometricInterpretation": "MONOCHROME2",
      "PixelBandwidth": 3050.0,
      "PixelRepresentation": 0,
      "PixelSpacing": [2.6829268932343, 2.6829268932343],
      "ProtocolName": "func_run-06_task-social_acq-ap-mb8",
      "RepetitionTime": 460.0,
      "Rows": 656,
      "SAR": 0.12467283230018,
      "SamplesPerPixel": 1,
      "ScanOptions": "FS",
      "ScanningSequence": "EP",
      "SequenceName": "epfid2d1_82",
      "SequenceVariant": [
        "SK",
        "SS"
],
      "SeriesDescription": "func_run-06_task-social_acq-ap-mb8",
      "SeriesNumber": 22,
      "SeriesTime": "123051.722000",
      "SliceLocation": -84.403890460533,
      "SliceThickness": 2.7000000476837,
      "SmallestImagePixelValue": 0,
      "SoftwareVersions": "syngo MR E11",
      "SpacingBetweenSlices": 2.6999999611706,
      "SpecificCharacterSet": "ISO_IR 100",
      "StudyID": "4",
      "StudyTime": "111945.348000",
      "TransmitCoilName": "Body",
      "VariableFlipAngleFlag": "N",
      "WindowCenterWidthExplanation": "Algo1"
    },
    "slices": {}
  },
  "time": {
    "samples": {
      "AcquisitionNumber": [1, 2, 3, 4, 5, 6, 7, 8, 9, 10, 11, 12, 13, 14, 15, 16, 17, 18, 19, 20, 21, 22, 23, 24, 25, 26, 27, 28, 29, 30, 31, 32, 33, 34, 35, 36, 37, 38, 39, 40, 41, 42, 43, 44, 45, 46, 47, 48, 49, 50, 51, 52, 53, 54, 55, 56, 57, 58, 59, 60, 61, 62, 63, 64, 65, 66, 67, 68, 69, 70, 71, 72, 73, 74, 75, 76, 77, 78, 79, 80, 81, 82, 83, 84, 85, 86, 87, 88, 89, 90, 91, 92, 93, 94, 95, 96, 97, 98, 99, 100, 101, 102, 103, 104, 105, 106, 107, 108, 109, 110, 111, 112, 113, 114, 115, 116, 117, 118, 119, 120, 121, 122, 123, 124, 125, 126, 127, 128, 129, 130, 131, 132, 133, 134, 135, 136, 137, 138, 139, 140, 141, 142, 143, 144, 145, 146, 147, 148, 149, 150, 151, 152, 153, 154, 155, 156, 157, 158, 159, 160, 161, 162, 163, 164, 165, 166, 167, 168, 169, 170, 171, 172, 173, 174, 175, 176, 177, 178, 179, 180, 181, 182, 183, 184, 185, 186, 187, 188, 189, 190, 191, 192, 193, 194, 195, 196, 197, 198, 199, 200, 201, 202, 203, 204, 205, 206, 207, 208, 209, 210, 211, 212, 213, 214, 215, 216, 217, 218, 219, 220, 221, 222, 223, 224, 225, 226, 227, 228, 229, 230, 231, 232, 233, 234, 235, 236, 237, 238, 239, 240, 241, 242, 243, 244, 245, 246, 247, 248, 249, 250, 251, 252, 253, 254, 255, 256, 257, 258, 259, 260, 261, 262, 263, 264, 265, 266, 267, 268, 269, 270, 271, 272, 273, 274, 275, 276, 277, 278, 279, 280, 281, 282, 283, 284, 285, 286, 287, 288, 289, 290, 291, 292, 293, 294, 295, 296, 297, 298, 299, 300, 301, 302, 303, 304, 305, 306, 307, 308, 309, 310, 311, 312, 313, 314, 315, 316, 317, 318, 319, 320, 321, 322, 323, 324, 325, 326, 327, 328, 329, 330, 331, 332, 333, 334, 335, 336, 337, 338, 339, 340, 341, 342, 343, 344, 345, 346, 347, 348, 349, 350, 351, 352, 353, 354, 355, 356, 357, 358, 359, 360, 361, 362, 363, 364, 365, 366, 367, 368, 369, 370, 371, 372, 373, 374, 375, 376, 377, 378, 379, 380, 381, 382, 383, 384, 385, 386, 387, 388, 389, 390, 391, 392, 393, 394, 395, 396, 397, 398, 399, 400, 401, 402, 403, 404, 405, 406, 407, 408, 409, 410, 411, 412, 413, 414, 415, 416, 417, 418, 419, 420, 421, 422, 423, 424, 425, 426, 427, 428, 429, 430, 431, 432, 433, 434, 435, 436, 437, 438, 439, 440, 441, 442, 443, 444, 445, 446, 447, 448, 449, 450, 451, 452, 453, 454, 455, 456, 457, 458, 459, 460, 461, 462, 463, 464, 465, 466, 467, 468, 469, 470, 471, 472, 473, 474, 475, 476, 477, 478, 479, 480, 481, 482, 483, 484, 485, 486, 487, 488, 489, 490, 491, 492, 493, 494, 495, 496, 497, 498, 499, 500, 501, 502, 503, 504, 505, 506, 507, 508, 509, 510, 511, 512, 513, 514, 515, 516, 517, 518, 519, 520, 521, 522, 523, 524, 525, 526, 527, 528, 529, 530, 531, 532, 533, 534, 535, 536, 537, 538, 539, 540, 541, 542, 543, 544, 545, 546, 547, 548, 549, 550, 551, 552, 553, 554, 555, 556, 557, 558, 559, 560, 561, 562, 563, 564, 565, 566, 567, 568, 569, 570, 571, 572, 573, 574, 575, 576, 577, 578, 579, 580, 581, 582, 583, 584, 585, 586, 587, 588, 589, 590, 591, 592, 593, 594, 595, 596, 597, 598, 599, 600, 601, 602, 603, 604, 605, 606, 607, 608, 609, 610, 611, 612, 613, 614, 615, 616, 617, 618, 619, 620, 621, 622, 623, 624, 625, 626, 627, 628, 629, 630, 631, 632, 633, 634, 635, 636, 637, 638, 639, 640, 641, 642, 643, 644, 645, 646, 647, 648, 649, 650, 651, 652, 653, 654, 655, 656, 657, 658, 659, 660, 661, 662, 663, 664, 665, 666, 667, 668, 669, 670, 671, 672, 673, 674, 675, 676, 677, 678, 679, 680, 681, 682, 683, 684, 685, 686, 687, 688, 689, 690, 691, 692, 693, 694, 695, 696, 697, 698, 699, 700, 701, 702, 703, 704, 705, 706, 707, 708, 709, 710, 711, 712, 713, 714, 715, 716, 717, 718, 719, 720, 721, 722, 723, 724, 725, 726, 727, 728, 729, 730, 731, 732, 733, 734, 735, 736, 737, 738, 739, 740, 741, 742, 743, 744, 745, 746, 747, 748, 749, 750, 751, 752, 753, 754, 755, 756, 757, 758, 759, 760, 761, 762, 763, 764, 765, 766, 767, 768, 769, 770, 771, 772, 773, 774, 775, 776, 777, 778, 779, 780, 781, 782, 783, 784, 785, 786, 787, 788, 789, 790, 791, 792, 793, 794, 795, 796, 797, 798, 799, 800, 801, 802, 803, 804, 805, 806, 807, 808, 809, 810, 811, 812, 813, 814, 815, 816, 817, 818, 819, 820, 821, 822, 823, 824, 825, 826, 827, 828, 829, 830, 831, 832, 833, 834, 835, 836, 837, 838, 839, 840, 841, 842, 843, 844, 845, 846, 847, 848, 849, 850, 851, 852, 853, 854, 855, 856, 857, 858, 859, 860, 861, 862, 863, 864, 865, 866, 867, 868, 869, 870, 871, 872],
      "AcquisitionTime": ["123033.392500", "123033.852500", "123034.312500", "123034.772500", "123035.232500", "123035.692500", "123036.152500", "123036.612500", "123037.072500", "123037.532500", "123037.992500", "123038.452500", "123038.912500", "123039.372500", "123039.832500", "123040.292500", "123040.752500", "123041.212500", "123041.672500", "123042.132500", "123042.592500", "123043.052500", "123043.512500", "123043.972500", "123044.432500", "123044.892500", "123045.352500", "123045.812500", "123046.272500", "123046.732500", "123047.192500", "123047.652500", "123048.112500", "123048.572500", "123049.032500", "123049.492500", "123049.952500", "123050.412500", "123050.872500", "123051.332500", "123051.792500", "123052.252500", "123052.712500", "123053.172500", "123053.632500", "123054.092500", "123054.552500", "123055.012500", "123055.472500", "123055.932500", "123056.392500", "123056.852500", "123057.312500", "123057.772500", "123058.232500", "123058.692500", "123059.152500", "123059.612500", "123100.072500", "123100.532500", "123100.992500", "123101.452500", "123101.912500", "123102.372500", "123102.832500", "123103.292500", "123103.752500", "123104.212500", "123104.672500", "123105.132500", "123105.592500", "123106.052500", "123106.512500", "123106.972500", "123107.432500", "123107.892500", "123108.352500", "123108.812500", "123109.272500", "123109.732500", "123110.192500", "123110.652500", "123111.112500", "123111.572500", "123112.032500", "123112.492500", "123112.952500", "123113.412500", "123113.872500", "123114.332500", "123114.792500", "123115.252500", "123115.712500", "123116.172500", "123116.632500", "123117.092500", "123117.552500", "123118.012500", "123118.472500", "123118.932500", "123119.392500", "123119.852500", "123120.312500", "123120.772500", "123121.232500", "123121.692500", "123122.152500", "123122.612500", "123123.072500", "123123.532500", "123123.992500", "123124.452500", "123124.912500", "123125.372500", "123125.832500", "123126.292500", "123126.752500", "123127.212500", "123127.672500", "123128.132500", "123128.592500", "123129.052500", "123129.512500", "123129.972500", "123130.432500", "123130.892500", "123131.352500", "123131.812500", "123132.272500", "123132.732500", "123133.192500", "123133.652500", "123134.112500", "123134.572500", "123135.032500", "123135.492500", "123135.952500", "123136.412500", "123136.872500", "123137.332500", "123137.792500", "123138.252500", "123138.712500", "123139.172500", "123139.632500", "123140.092500", "123140.552500", "123141.012500", "123141.472500", "123141.932500", "123142.392500", "123142.852500", "123143.312500", "123143.772500", "123144.232500", "123144.692500", "123145.152500", "123145.612500", "123146.072500", "123146.532500", "123146.992500", "123147.452500", "123147.912500", "123148.372500", "123148.832500", "123149.292500", "123149.752500", "123150.212500", "123150.672500", "123151.132500", "123151.592500", "123152.052500", "123152.512500", "123152.972500", "123153.432500", "123153.892500", "123154.352500", "123154.812500", "123155.272500", "123155.732500", "123156.192500", "123156.652500", "123157.112500", "123157.572500", "123158.032500", "123158.492500", "123158.952500", "123159.412500", "123159.872500", "123200.332500", "123200.792500", "123201.252500", "123201.712500", "123202.172500", "123202.632500", "123203.092500", "123203.552500", "123204.012500", "123204.472500", "123204.932500", "123205.392500", "123205.852500", "123206.312500", "123206.772500", "123207.232500", "123207.692500", "123208.152500", "123208.612500", "123209.072500", "123209.532500", "123209.992500", "123210.452500", "123210.912500", "123211.372500", "123211.832500", "123212.292500", "123212.752500", "123213.212500", "123213.672500", "123214.132500", "123214.592500", "123215.052500", "123215.512500", "123215.972500", "123216.432500", "123216.892500", "123217.352500", "123217.812500", "123218.272500", "123218.732500", "123219.192500", "123219.652500", "123220.112500", "123220.572500", "123221.032500", "123221.492500", "123221.952500", "123222.412500", "123222.872500", "123223.332500", "123223.792500", "123224.252500", "123224.712500", "123225.172500", "123225.632500", "123226.092500", "123226.552500", "123227.012500", "123227.472500", "123227.932500", "123228.392500", "123228.852500", "123229.312500", "123229.772500", "123230.232500", "123230.692500", "123231.152500", "123231.612500", "123232.072500", "123232.532500", "123232.992500", "123233.452500", "123233.912500", "123234.372500", "123234.832500", "123235.292500", "123235.752500", "123236.212500", "123236.672500", "123237.132500", "123237.592500", "123238.052500", "123238.512500", "123238.972500", "123239.432500", "123239.892500", "123240.352500", "123240.812500", "123241.272500", "123241.732500", "123242.192500", "123242.652500", "123243.112500", "123243.572500", "123244.032500", "123244.492500", "123244.952500", "123245.412500", "123245.872500", "123246.332500", "123246.792500", "123247.252500", "123247.712500", "123248.172500", "123248.632500", "123249.092500", "123249.552500", "123250.012500", "123250.472500", "123250.932500", "123251.392500", "123251.852500", "123252.312500", "123252.772500", "123253.232500", "123253.692500", "123254.152500", "123254.612500", "123255.072500", "123255.532500", "123255.992500", "123256.452500", "123256.912500", "123257.372500", "123257.832500", "123258.292500", "123258.752500", "123259.212500", "123259.672500", "123300.132500", "123300.592500", "123301.052500", "123301.512500", "123301.972500", "123302.432500", "123302.892500", "123303.352500", "123303.812500", "123304.272500", "123304.732500", "123305.192500", "123305.652500", "123306.112500", "123306.572500", "123307.032500", "123307.492500", "123307.952500", "123308.412500", "123308.872500", "123309.332500", "123309.792500", "123310.252500", "123310.712500", "123311.172500", "123311.632500", "123312.092500", "123312.552500", "123313.012500", "123313.472500", "123313.932500", "123314.392500", "123314.852500", "123315.312500", "123315.772500", "123316.232500", "123316.692500", "123317.152500", "123317.612500", "123318.072500", "123318.532500", "123318.992500", "123319.452500", "123319.912500", "123320.372500", "123320.832500", "123321.292500", "123321.752500", "123322.212500", "123322.672500", "123323.132500", "123323.592500", "123324.052500", "123324.512500", "123324.972500", "123325.432500", "123325.892500", "123326.352500", "123326.812500", "123327.272500", "123327.732500", "123328.192500", "123328.652500", "123329.112500", "123329.572500", "123330.032500", "123330.492500", "123330.952500", "123331.412500", "123331.872500", "123332.332500", "123332.792500", "123333.252500", "123333.712500", "123334.172500", "123334.632500", "123335.092500", "123335.552500", "123336.012500", "123336.472500", "123336.932500", "123337.392500", "123337.852500", "123338.312500", "123338.772500", "123339.232500", "123339.692500", "123340.152500", "123340.612500", "123341.072500", "123341.532500", "123341.992500", "123342.452500", "123342.912500", "123343.372500", "123343.832500", "123344.292500", "123344.752500", "123345.212500", "123345.672500", "123346.132500", "123346.592500", "123347.052500", "123347.512500", "123347.972500", "123348.432500", "123348.892500", "123349.352500", "123349.812500", "123350.272500", "123350.732500", "123351.192500", "123351.652500", "123352.112500", "123352.572500", "123353.032500", "123353.492500", "123353.952500", "123354.412500", "123354.872500", "123355.332500", "123355.792500", "123356.252500", "123356.712500", "123357.172500", "123357.632500", "123358.092500", "123358.552500", "123359.012500", "123359.472500", "123359.932500", "123400.392500", "123400.852500", "123401.312500", "123401.772500", "123402.232500", "123402.692500", "123403.152500", "123403.612500", "123404.072500", "123404.532500", "123404.992500", "123405.452500", "123405.912500", "123406.372500", "123406.832500", "123407.292500", "123407.752500", "123408.212500", "123408.672500", "123409.132500", "123409.592500", "123410.052500", "123410.512500", "123410.972500", "123411.432500", "123411.892500", "123412.352500", "123412.812500", "123413.272500", "123413.732500", "123414.192500", "123414.652500", "123415.112500", "123415.572500", "123416.032500", "123416.492500", "123416.952500", "123417.412500", "123417.872500", "123418.332500", "123418.792500", "123419.252500", "123419.712500", "123420.172500", "123420.632500", "123421.092500", "123421.552500", "123422.012500", "123422.472500", "123422.932500", "123423.392500", "123423.852500", "123424.312500", "123424.772500", "123425.232500", "123425.692500", "123426.152500", "123426.612500", "123427.072500", "123427.532500", "123427.992500", "123428.452500", "123428.912500", "123429.372500", "123429.832500", "123430.292500", "123430.752500", "123431.212500", "123431.672500", "123432.132500", "123432.592500", "123433.052500", "123433.512500", "123433.972500", "123434.432500", "123434.892500", "123435.352500", "123435.812500", "123436.272500", "123436.732500", "123437.192500", "123437.652500", "123438.112500", "123438.572500", "123439.032500", "123439.492500", "123439.952500", "123440.412500", "123440.872500", "123441.332500", "123441.792500", "123442.252500", "123442.712500", "123443.172500", "123443.632500", "123444.092500", "123444.552500", "123445.012500", "123445.472500", "123445.932500", "123446.392500", "123446.852500", "123447.312500", "123447.772500", "123448.232500", "123448.692500", "123449.152500", "123449.612500", "123450.072500", "123450.532500", "123450.992500", "123451.452500", "123451.912500", "123452.372500", "123452.832500", "123453.292500", "123453.752500", "123454.212500", "123454.672500", "123455.132500", "123455.592500", "123456.052500", "123456.512500", "123456.972500", "123457.432500", "123457.892500", "123458.352500", "123458.812500", "123459.272500", "123459.732500", "123500.192500", "123500.652500", "123501.112500", "123501.572500", "123502.032500", "123502.492500", "123502.952500", "123503.412500", "123503.872500", "123504.332500", "123504.792500", "123505.252500", "123505.712500", "123506.172500", "123506.632500", "123507.092500", "123507.552500", "123508.012500", "123508.472500", "123508.932500", "123509.392500", "123509.852500", "123510.312500", "123510.772500", "123511.232500", "123511.692500", "123512.152500", "123512.612500", "123513.072500", "123513.532500", "123513.992500", "123514.452500", "123514.912500", "123515.372500", "123515.832500", "123516.292500", "123516.752500", "123517.212500", "123517.672500", "123518.132500", "123518.592500", "123519.052500", "123519.512500", "123519.972500", "123520.432500", "123520.892500", "123521.352500", "123521.812500", "123522.272500", "123522.732500", "123523.192500", "123523.652500", "123524.112500", "123524.572500", "123525.032500", "123525.492500", "123525.952500", "123526.412500", "123526.872500", "123527.332500", "123527.792500", "123528.252500", "123528.712500", "123529.172500", "123529.632500", "123530.092500", "123530.552500", "123531.012500", "123531.472500", "123531.932500", "123532.392500", "123532.852500", "123533.312500", "123533.772500", "123534.232500", "123534.692500", "123535.152500", "123535.612500", "123536.072500", "123536.532500", "123536.992500", "123537.452500", "123537.912500", "123538.372500", "123538.832500", "123539.292500", "123539.752500", "123540.212500", "123540.672500", "123541.132500", "123541.592500", "123542.052500", "123542.512500", "123542.972500", "123543.432500", "123543.892500", "123544.352500", "123544.812500", "123545.272500", "123545.732500", "123546.192500", "123546.652500", "123547.112500", "123547.572500", "123548.032500", "123548.492500", "123548.952500", "123549.412500", "123549.872500", "123550.332500", "123550.792500", "123551.252500", "123551.712500", "123552.172500", "123552.632500", "123553.092500", "123553.552500", "123554.012500", "123554.472500", "123554.932500", "123555.392500", "123555.852500", "123556.312500", "123556.772500", "123557.232500", "123557.692500", "123558.152500", "123558.612500", "123559.072500", "123559.532500", "123559.992500", "123600.452500", "123600.912500", "123601.372500", "123601.832500", "123602.292500", "123602.752500", "123603.212500", "123603.672500", "123604.132500", "123604.592500", "123605.052500", "123605.512500", "123605.972500", "123606.432500", "123606.892500", "123607.352500", "123607.812500", "123608.272500", "123608.732500", "123609.192500", "123609.652500", "123610.112500", "123610.572500", "123611.032500", "123611.492500", "123611.952500", "123612.412500", "123612.872500", "123613.332500", "123613.792500", "123614.252500", "123614.712500", "123615.172500", "123615.632500", "123616.092500", "123616.552500", "123617.012500", "123617.472500", "123617.932500", "123618.392500", "123618.852500", "123619.312500", "123619.772500", "123620.232500", "123620.692500", "123621.152500", "123621.612500", "123622.072500", "123622.532500", "123622.992500", "123623.452500", "123623.912500", "123624.372500", "123624.832500", "123625.292500", "123625.752500", "123626.212500", "123626.672500", "123627.132500", "123627.592500", "123628.052500", "123628.512500", "123628.972500", "123629.432500", "123629.892500", "123630.352500", "123630.812500", "123631.272500", "123631.732500", "123632.192500", "123632.652500", "123633.112500", "123633.572500", "123634.032500", "123634.492500", "123634.952500", "123635.412500", "123635.872500", "123636.332500", "123636.792500", "123637.252500", "123637.712500", "123638.172500", "123638.632500", "123639.092500", "123639.552500", "123640.012500", "123640.472500", "123640.932500", "123641.392500", "123641.852500", "123642.312500", "123642.772500", "123643.232500", "123643.692500", "123644.152500", "123644.612500", "123645.072500", "123645.532500", "123645.992500", "123646.452500", "123646.912500", "123647.372500", "123647.832500", "123648.292500", "123648.752500", "123649.212500", "123649.672500", "123650.132500", "123650.592500", "123651.052500", "123651.512500", "123651.972500", "123652.432500", "123652.892500", "123653.352500", "123653.812500", "123654.272500", "123654.732500", "123655.192500", "123655.652500", "123656.112500", "123656.572500", "123657.032500", "123657.492500", "123657.952500", "123658.412500", "123658.872500", "123659.332500", "123659.792500", "123700.252500", "123700.712500", "123701.172500", "123701.632500", "123702.092500", "123702.552500", "123703.012500", "123703.472500", "123703.932500", "123704.392500", "123704.852500", "123705.312500", "123705.772500", "123706.232500", "123706.692500", "123707.152500", "123707.612500", "123708.072500", "123708.532500", "123708.992500", "123709.452500", "123709.912500", "123710.372500", "123710.832500", "123711.292500", "123711.752500", "123712.212500", "123712.672500", "123713.132500", "123713.592500", "123714.052500"],
