{
  "AcquisitionMatrixPE": 82,
  "AcquisitionNumber": 1,
  "AcquisitionTime": "12:52:14.570000",
  "BandwidthPerPixelPhaseEncode": 24.888,
  "BaseResolution": 82,
  "BodyPartExamined": "BRAIN",
  "ConsistencyInfo": "N4_VE11E_LATEST_20181129",
  "ConversionSoftware": "dcm2niix",
  "ConversionSoftwareVersion": "v1.0.20201102",
  "DerivedVendorReportedEchoSpacing": 0.00049,
  "DeviceSerialNumber": "66112",
  "DwellTime": 2e-06,
  "EchoTime": 0.0272,
  "EchoTrainLength": 82,
  "EffectiveEchoSpacing": 0.00049,
  "FlipAngle": 44,
  "ImageComments": "Unaliased MB8/PE3",
  "ImageOrientationPatientDICOM": [0.996369, 0.020406, 0.0826544, -0.00713, 0.98744, -0.157833],
  "ImageType": [
    "ORIGINAL",
    "PRIMARY",
    "M",
    "MB",
    "ND",
    "NORM",
    "MOSAIC"
],
  "ImagingFrequency": 123.259,
  "InPlanePhaseEncodingDirectionDICOM": "COL",
  "InstitutionAddress": "Maynard 3,Hanover,NH,US,03755",
  "InstitutionName": "Dartmouth College - PBS",
  "InstitutionalDepartmentName": "Department",
  "MRAcquisitionType": "2D",
  "MagneticFieldStrength": 3,
  "Manufacturer": "Siemens",
  "ManufacturersModelName": "Prisma",
  "Modality": "MR",
  "MultibandAccelerationFactor": 8,
  "PartialFourier": 1,
  "PatientPosition": "HFS",
  "PercentPhaseFOV": 100,
  "PercentSampling": 100,
  "PhaseEncodingDirection": "j-",
  "PhaseEncodingSteps": 82,
  "PhaseResolution": 1,
  "PixelBandwidth": 3050,
  "ProcedureStepDescription": "Wager_Wager^1076_spacetop",
  "ProtocolName": "func_run-02_task-alignvideo_acq-ap-mb8",
  "PulseSequenceDetails": "%CustomerSeq%\\cmrr_mbep2d_bold",
  "ReceiveCoilActiveElements": "HEA;HEP",
  "ReceiveCoilName": "Head_32",
  "ReconMatrixPE": 82,
  "RepetitionTime": 0.46,
  "SAR": 0.124718,
  "ScanOptions": "FS",
  "ScanningSequence": "EP",
  "SequenceName": "epfid2d1_82",
  "SequenceVariant": "SK\\SS",
  "SeriesDescription": "func_run-02_task-alignvideo_acq-ap-mb8",
  "SeriesNumber": 32,
  "ShimSetting": [4220, -7770, -7237, 110, -115, -10, 100, 112],
  "SliceThickness": 2.7,
  "SliceTiming": [0, 0.25, 0.0625, 0.3125, 0.125, 0.375, 0.1875, 0, 0.25, 0.0625, 0.3125, 0.125, 0.375, 0.1875, 0, 0.25, 0.0625, 0.3125, 0.125, 0.375, 0.1875, 0, 0.25, 0.0625, 0.3125, 0.125, 0.375, 0.1875, 0, 0.25, 0.0625, 0.3125, 0.125, 0.375, 0.1875, 0, 0.25, 0.0625, 0.3125, 0.125, 0.375, 0.1875, 0, 0.25, 0.0625, 0.3125, 0.125, 0.375, 0.1875, 0, 0.25, 0.0625, 0.3125, 0.125, 0.375, 0.1875],
  "SoftwareVersions": "syngo MR E11",
  "SpacingBetweenSlices": 2.7,
  "StationName": "AWP66112",
  "TaskName": "alignvideo",
  "TotalReadoutTime": 0.03969,
  "TxRefAmp": 314.567,
  "WipMemBlock": "7888d99c-4195-43c7-90ec-8a2f74cbc3c8||Sequence: R016 ve11e/master r/434b28f1; Aug  7 2019 18:53:46 by eja",
  "dcmmeta_affine": [
    [-2.6731860637664795, -0.019129259511828423, 0.2290600687265396, 106.51725769042969],
    [-0.05474786460399628, 2.6492295265197754, -0.4230111539363861, -84.59991455078125],
    [0.22175583243370056, 0.42345482110977173, 2.656801462173462, -105.3836669921875],
    [0.0, 0.0, 0.0, 1.0]
],
  "dcmmeta_reorient_transform": [
    [0.0, -1.0, 0.0, 81.0],
    [1.0, 0.0, 0.0, 0.0],
    [0.0, 0.0, 1.0, 0.0],
    [0.0, 0.0, 0.0, 1.0]
],
  "dcmmeta_shape": [82, 82, 56, 926],
  "dcmmeta_slice_dim": 2,
  "dcmmeta_version": 0.6,
  "global": {
    "const": {
      "AccessionNumber": "A004351",
      "AcquisitionMatrix": [82, 0, 0, 82],
      "AngioFlag": "N",
      "BitsAllocated": 16,
      "BitsStored": 16,
      "BodyPartExamined": "BRAIN",
      "Columns": 656,
      "EchoNumbers": 1,
      "EchoTime": 27.2,
      "EchoTrainLength": 82,
      "FlipAngle": 44.0,
      "HighBit": 15,
      "ImageOrientationPatient": [0.9963693274514, 0.0204060214428, 0.08265444696399, -0.0071299968429, 0.98744005191854, -0.1578331619531],
      "ImagePositionPatient": [-866.68208780816, -906.02916897491, -13.196214339653],
      "ImageType": [
        "ORIGINAL",
        "PRIMARY",
        "M",
        "MB",
        "ND",
        "NORM",
        "MOSAIC"
],
      "ImagedNucleus": "1H",
      "ImagingFrequency": 123.259078,
      "InPlanePhaseEncodingDirection": "COL",
      "MRAcquisitionType": "2D",
      "MagneticFieldStrength": 3.0,
      "Manufacturer": "SIEMENS",
      "ManufacturerModelName": "Prisma",
      "Modality": "MR",
      "NumberOfAverages": 1.0,
      "NumberOfPhaseEncodingSteps": 82,
      "PercentPhaseFieldOfView": 100.0,
      "PercentSampling": 100.0,
      "PerformedProcedureStepStartTime": "111945.397000",
      "PhotometricInterpretation": "MONOCHROME2",
      "PixelBandwidth": 3050.0,
      "PixelRepresentation": 0,
      "PixelSpacing": [2.6829268932343, 2.6829268932343],
      "ProtocolName": "func_run-02_task-alignvideo_acq-ap-mb8",
      "RepetitionTime": 460.0,
      "Rows": 656,
      "SAR": 0.12471800247396,
      "SamplesPerPixel": 1,
      "ScanOptions": "FS",
      "ScanningSequence": "EP",
      "SequenceName": "epfid2d1_82",
      "SequenceVariant": [
        "SK",
        "SS"
],
      "SeriesDescription": "func_run-02_task-alignvideo_acq-ap-mb8",
      "SeriesNumber": 32,
      "SeriesTime": "125231.730000",
      "SliceLocation": -81.406633011622,
      "SliceThickness": 2.7000000476837,
      "SmallestImagePixelValue": 0,
      "SoftwareVersions": "syngo MR E11",
      "SpacingBetweenSlices": 2.7000001152199,
      "SpecificCharacterSet": "ISO_IR 100",
      "StudyID": "4",
      "StudyTime": "111945.348000",
      "TransmitCoilName": "Body",
      "VariableFlipAngleFlag": "N",
      "WindowCenterWidthExplanation": "Algo1"
    },
    "slices": {}
  },
  "time": {
    "samples": {
      "AcquisitionNumber": [1, 2, 3, 4, 5, 6, 7, 8, 9, 10, 11, 12, 13, 14, 15, 16, 17, 18, 19, 20, 21, 22, 23, 24, 25, 26, 27, 28, 29, 30, 31, 32, 33, 34, 35, 36, 37, 38, 39, 40, 41, 42, 43, 44, 45, 46, 47, 48, 49, 50, 51, 52, 53, 54, 55, 56, 57, 58, 59, 60, 61, 62, 63, 64, 65, 66, 67, 68, 69, 70, 71, 72, 73, 74, 75, 76, 77, 78, 79, 80, 81, 82, 83, 84, 85, 86, 87, 88, 89, 90, 91, 92, 93, 94, 95, 96, 97, 98, 99, 100, 101, 102, 103, 104, 105, 106, 107, 108, 109, 110, 111, 112, 113, 114, 115, 116, 117, 118, 119, 120, 121, 122, 123, 124, 125, 126, 127, 128, 129, 130, 131, 132, 133, 134, 135, 136, 137, 138, 139, 140, 141, 142, 143, 144, 145, 146, 147, 148, 149, 150, 151, 152, 153, 154, 155, 156, 157, 158, 159, 160, 161, 162, 163, 164, 165, 166, 167, 168, 169, 170, 171, 172, 173, 174, 175, 176, 177, 178, 179, 180, 181, 182, 183, 184, 185, 186, 187, 188, 189, 190, 191, 192, 193, 194, 195, 196, 197, 198, 199, 200, 201, 202, 203, 204, 205, 206, 207, 208, 209, 210, 211, 212, 213, 214, 215, 216, 217, 218, 219, 220, 221, 222, 223, 224, 225, 226, 227, 228, 229, 230, 231, 232, 233, 234, 235, 236, 237, 238, 239, 240, 241, 242, 243, 244, 245, 246, 247, 248, 249, 250, 251, 252, 253, 254, 255, 256, 257, 258, 259, 260, 261, 262, 263, 264, 265, 266, 267, 268, 269, 270, 271, 272, 273, 274, 275, 276, 277, 278, 279, 280, 281, 282, 283, 284, 285, 286, 287, 288, 289, 290, 291, 292, 293, 294, 295, 296, 297, 298, 299, 300, 301, 302, 303, 304, 305, 306, 307, 308, 309, 310, 311, 312, 313, 314, 315, 316, 317, 318, 319, 320, 321, 322, 323, 324, 325, 326, 327, 328, 329, 330, 331, 332, 333, 334, 335, 336, 337, 338, 339, 340, 341, 342, 343, 344, 345, 346, 347, 348, 349, 350, 351, 352, 353, 354, 355, 356, 357, 358, 359, 360, 361, 362, 363, 364, 365, 366, 367, 368, 369, 370, 371, 372, 373, 374, 375, 376, 377, 378, 379, 380, 381, 382, 383, 384, 385, 386, 387, 388, 389, 390, 391, 392, 393, 394, 395, 396, 397, 398, 399, 400, 401, 402, 403, 404, 405, 406, 407, 408, 409, 410, 411, 412, 413, 414, 415, 416, 417, 418, 419, 420, 421, 422, 423, 424, 425, 426, 427, 428, 429, 430, 431, 432, 433, 434, 435, 436, 437, 438, 439, 440, 441, 442, 443, 444, 445, 446, 447, 448, 449, 450, 451, 452, 453, 454, 455, 456, 457, 458, 459, 460, 461, 462, 463, 464, 465, 466, 467, 468, 469, 470, 471, 472, 473, 474, 475, 476, 477, 478, 479, 480, 481, 482, 483, 484, 485, 486, 487, 488, 489, 490, 491, 492, 493, 494, 495, 496, 497, 498, 499, 500, 501, 502, 503, 504, 505, 506, 507, 508, 509, 510, 511, 512, 513, 514, 515, 516, 517, 518, 519, 520, 521, 522, 523, 524, 525, 526, 527, 528, 529, 530, 531, 532, 533, 534, 535, 536, 537, 538, 539, 540, 541, 542, 543, 544, 545, 546, 547, 548, 549, 550, 551, 552, 553, 554, 555, 556, 557, 558, 559, 560, 561, 562, 563, 564, 565, 566, 567, 568, 569, 570, 571, 572, 573, 574, 575, 576, 577, 578, 579, 580, 581, 582, 583, 584, 585, 586, 587, 588, 589, 590, 591, 592, 593, 594, 595, 596, 597, 598, 599, 600, 601, 602, 603, 604, 605, 606, 607, 608, 609, 610, 611, 612, 613, 614, 615, 616, 617, 618, 619, 620, 621, 622, 623, 624, 625, 626, 627, 628, 629, 630, 631, 632, 633, 634, 635, 636, 637, 638, 639, 640, 641, 642, 643, 644, 645, 646, 647, 648, 649, 650, 651, 652, 653, 654, 655, 656, 657, 658, 659, 660, 661, 662, 663, 664, 665, 666, 667, 668, 669, 670, 671, 672, 673, 674, 675, 676, 677, 678, 679, 680, 681, 682, 683, 684, 685, 686, 687, 688, 689, 690, 691, 692, 693, 694, 695, 696, 697, 698, 699, 700, 701, 702, 703, 704, 705, 706, 707, 708, 709, 710, 711, 712, 713, 714, 715, 716, 717, 718, 719, 720, 721, 722, 723, 724, 725, 726, 727, 728, 729, 730, 731, 732, 733, 734, 735, 736, 737, 738, 739, 740, 741, 742, 743, 744, 745, 746, 747, 748, 749, 750, 751, 752, 753, 754, 755, 756, 757, 758, 759, 760, 761, 762, 763, 764, 765, 766, 767, 768, 769, 770, 771, 772, 773, 774, 775, 776, 777, 778, 779, 780, 781, 782, 783, 784, 785, 786, 787, 788, 789, 790, 791, 792, 793, 794, 795, 796, 797, 798, 799, 800, 801, 802, 803, 804, 805, 806, 807, 808, 809, 810, 811, 812, 813, 814, 815, 816, 817, 818, 819, 820, 821, 822, 823, 824, 825, 826, 827, 828, 829, 830, 831, 832, 833, 834, 835, 836, 837, 838, 839, 840, 841, 842, 843, 844, 845, 846, 847, 848, 849, 850, 851, 852, 853, 854, 855, 856, 857, 858, 859, 860, 861, 862, 863, 864, 865, 866, 867, 868, 869, 870, 871, 872, 873, 874, 875, 876, 877, 878, 879, 880, 881, 882, 883, 884, 885, 886, 887, 888, 889, 890, 891, 892, 893, 894, 895, 896, 897, 898, 899, 900, 901, 902, 903, 904, 905, 906, 907, 908, 909, 910, 911, 912, 913, 914, 915, 916, 917, 918, 919, 920, 921, 922, 923, 924, 925, 926],
      "AcquisitionTime": ["125214.570000", "125215.030000", "125215.490000", "125215.950000", "125216.410000", "125216.870000", "125217.330000", "125217.790000", "125218.250000", "125218.710000", "125219.170000", "125219.630000", "125220.090000", "125220.550000", "125221.010000", "125221.470000", "125221.930000", "125222.390000", "125222.850000", "125223.310000", "125223.770000", "125224.230000", "125224.690000", "125225.150000", "125225.610000", "125226.070000", "125226.530000", "125226.990000", "125227.450000", "125227.910000", "125228.370000", "125228.830000", "125229.290000", "125229.750000", "125230.210000", "125230.670000", "125231.130000", "125231.590000", "125232.050000", "125232.510000", "125232.970000", "125233.430000", "125233.890000", "125234.350000", "125234.810000", "125235.270000", "125235.730000", "125236.190000", "125236.650000", "125237.110000", "125237.570000", "125238.030000", "125238.490000", "125238.950000", "125239.410000", "125239.870000", "125240.330000", "125240.790000", "125241.250000", "125241.710000", "125242.170000", "125242.630000", "125243.090000", "125243.550000", "125244.010000", "125244.470000", "125244.930000", "125245.390000", "125245.850000", "125246.310000", "125246.770000", "125247.230000", "125247.690000", "125248.150000", "125248.610000", "125249.070000", "125249.530000", "125249.990000", "125250.450000", "125250.910000", "125251.370000", "125251.830000", "125252.290000", "125252.750000", "125253.210000", "125253.670000", "125254.130000", "125254.590000", "125255.050000", "125255.510000", "125255.970000", "125256.430000", "125256.890000", "125257.350000", "125257.810000", "125258.270000", "125258.730000", "125259.190000", "125259.650000", "125300.110000", "125300.570000", "125301.030000", "125301.490000", "125301.950000", "125302.410000", "125302.870000", "125303.330000", "125303.790000", "125304.250000", "125304.710000", "125305.170000", "125305.630000", "125306.090000", "125306.550000", "125307.010000", "125307.470000", "125307.930000", "125308.390000", "125308.850000", "125309.310000", "125309.770000", "125310.230000", "125310.690000", "125311.150000", "125311.610000", "125312.070000", "125312.530000", "125312.990000", "125313.450000", "125313.910000", "125314.370000", "125314.830000", "125315.290000", "125315.750000", "125316.210000", "125316.670000", "125317.130000", "125317.590000", "125318.050000", "125318.510000", "125318.970000", "125319.430000", "125319.890000", "125320.350000", "125320.810000", "125321.270000", "125321.730000", "125322.190000", "125322.650000", "125323.110000", "125323.570000", "125324.030000", "125324.490000", "125324.950000", "125325.410000", "125325.870000", "125326.330000", "125326.790000", "125327.250000", "125327.710000", "125328.170000", "125328.630000", "125329.090000", "125329.550000", "125330.010000", "125330.470000", "125330.930000", "125331.390000", "125331.850000", "125332.310000", "125332.770000", "125333.230000", "125333.690000", "125334.150000", "125334.610000", "125335.070000", "125335.530000", "125335.990000", "125336.450000", "125336.910000", "125337.370000", "125337.830000", "125338.290000", "125338.750000", "125339.210000", "125339.670000", "125340.130000", "125340.590000", "125341.050000", "125341.510000", "125341.970000", "125342.430000", "125342.890000", "125343.350000", "125343.810000", "125344.270000", "125344.730000", "125345.190000", "125345.650000", "125346.110000", "125346.570000", "125347.030000", "125347.490000", "125347.950000", "125348.410000", "125348.870000", "125349.330000", "125349.790000", "125350.250000", "125350.710000", "125351.170000", "125351.630000", "125352.090000", "125352.550000", "125353.010000", "125353.470000", "125353.930000", "125354.390000", "125354.850000", "125355.310000", "125355.770000", "125356.230000", "125356.690000", "125357.150000", "125357.610000", "125358.070000", "125358.530000", "125358.990000", "125359.450000", "125359.910000", "125400.370000", "125400.830000", "125401.290000", "125401.750000", "125402.210000", "125402.670000", "125403.130000", "125403.590000", "125404.050000", "125404.510000", "125404.970000", "125405.430000", "125405.890000", "125406.350000", "125406.810000", "125407.270000", "125407.730000", "125408.190000", "125408.650000", "125409.110000", "125409.570000", "125410.030000", "125410.490000", "125410.950000", "125411.410000", "125411.870000", "125412.330000", "125412.790000", "125413.250000", "125413.710000", "125414.170000", "125414.630000", "125415.090000", "125415.550000", "125416.010000", "125416.470000", "125416.930000", "125417.390000", "125417.850000", "125418.310000", "125418.770000", "125419.230000", "125419.690000", "125420.150000", "125420.610000", "125421.070000", "125421.530000", "125421.990000", "125422.450000", "125422.910000", "125423.370000", "125423.830000", "125424.290000", "125424.750000", "125425.210000", "125425.670000", "125426.130000", "125426.590000", "125427.050000", "125427.510000", "125427.970000", "125428.430000", "125428.890000", "125429.350000", "125429.810000", "125430.270000", "125430.730000", "125431.190000", "125431.650000", "125432.110000", "125432.570000", "125433.030000", "125433.490000", "125433.950000", "125434.410000", "125434.870000", "125435.330000", "125435.790000", "125436.250000", "125436.710000", "125437.170000", "125437.630000", "125438.090000", "125438.550000", "125439.010000", "125439.470000", "125439.930000", "125440.390000", "125440.850000", "125441.310000", "125441.770000", "125442.230000", "125442.690000", "125443.150000", "125443.610000", "125444.070000", "125444.530000", "125444.990000", "125445.450000", "125445.910000", "125446.370000", "125446.830000", "125447.290000", "125447.750000", "125448.210000", "125448.670000", "125449.130000", "125449.590000", "125450.050000", "125450.510000", "125450.970000", "125451.430000", "125451.890000", "125452.350000", "125452.810000", "125453.270000", "125453.730000", "125454.190000", "125454.650000", "125455.110000", "125455.570000", "125456.030000", "125456.490000", "125456.950000", "125457.410000", "125457.870000", "125458.330000", "125458.790000", "125459.250000", "125459.710000", "125500.170000", "125500.630000", "125501.090000", "125501.550000", "125502.010000", "125502.470000", "125502.930000", "125503.390000", "125503.850000", "125504.310000", "125504.770000", "125505.230000", "125505.690000", "125506.150000", "125506.610000", "125507.070000", "125507.530000", "125507.990000", "125508.450000", "125508.910000", "125509.370000", "125509.830000", "125510.290000", "125510.750000", "125511.210000", "125511.670000", "125512.130000", "125512.590000", "125513.050000", "125513.510000", "125513.970000", "125514.430000", "125514.890000", "125515.350000", "125515.810000", "125516.270000", "125516.730000", "125517.190000", "125517.650000", "125518.110000", "125518.570000", "125519.030000", "125519.490000", "125519.950000", "125520.410000", "125520.870000", "125521.330000", "125521.790000", "125522.250000", "125522.710000", "125523.170000", "125523.630000", "125524.090000", "125524.550000", "125525.010000", "125525.470000", "125525.930000", "125526.390000", "125526.850000", "125527.310000", "125527.770000", "125528.230000", "125528.690000", "125529.150000", "125529.610000", "125530.070000", "125530.530000", "125530.990000", "125531.450000", "125531.910000", "125532.370000", "125532.830000", "125533.290000", "125533.750000", "125534.210000", "125534.670000", "125535.130000", "125535.590000", "125536.050000", "125536.510000", "125536.970000", "125537.430000", "125537.890000", "125538.350000", "125538.810000", "125539.270000", "125539.730000", "125540.190000", "125540.650000", "125541.110000", "125541.570000", "125542.030000", "125542.490000", "125542.950000", "125543.410000", "125543.870000", "125544.330000", "125544.790000", "125545.250000", "125545.710000", "125546.170000", "125546.630000", "125547.090000", "125547.550000", "125548.010000", "125548.470000", "125548.930000", "125549.390000", "125549.850000", "125550.310000", "125550.770000", "125551.230000", "125551.690000", "125552.150000", "125552.610000", "125553.070000", "125553.530000", "125553.990000", "125554.450000", "125554.910000", "125555.370000", "125555.830000", "125556.290000", "125556.750000", "125557.210000", "125557.670000", "125558.130000", "125558.590000", "125559.050000", "125559.510000", "125559.970000", "125600.430000", "125600.890000", "125601.350000", "125601.810000", "125602.270000", "125602.730000", "125603.190000", "125603.650000", "125604.110000", "125604.570000", "125605.030000", "125605.490000", "125605.950000", "125606.410000", "125606.870000", "125607.330000", "125607.790000", "125608.250000", "125608.710000", "125609.170000", "125609.630000", "125610.090000", "125610.550000", "125611.010000", "125611.470000", "125611.930000", "125612.390000", "125612.850000", "125613.310000", "125613.770000", "125614.230000", "125614.690000", "125615.150000", "125615.610000", "125616.070000", "125616.530000", "125616.990000", "125617.450000", "125617.910000", "125618.370000", "125618.830000", "125619.290000", "125619.750000", "125620.210000", "125620.670000", "125621.130000", "125621.590000", "125622.050000", "125622.510000", "125622.970000", "125623.430000", "125623.890000", "125624.350000", "125624.810000", "125625.270000", "125625.730000", "125626.190000", "125626.650000", "125627.110000", "125627.570000", "125628.030000", "125628.490000", "125628.950000", "125629.410000", "125629.870000", "125630.330000", "125630.790000", "125631.250000", "125631.710000", "125632.170000", "125632.630000", "125633.090000", "125633.550000", "125634.010000", "125634.470000", "125634.930000", "125635.390000", "125635.850000", "125636.310000", "125636.770000", "125637.230000", "125637.690000", "125638.150000", "125638.610000", "125639.070000", "125639.530000", "125639.990000", "125640.450000", "125640.910000", "125641.370000", "125641.830000", "125642.290000", "125642.750000", "125643.210000", "125643.670000", "125644.130000", "125644.590000", "125645.050000", "125645.510000", "125645.970000", "125646.430000", "125646.890000", "125647.350000", "125647.810000", "125648.270000", "125648.730000", "125649.190000", "125649.650000", "125650.110000", "125650.570000", "125651.030000", "125651.490000", "125651.950000", "125652.410000", "125652.870000", "125653.330000", "125653.790000", "125654.250000", "125654.710000", "125655.170000", "125655.630000", "125656.090000", "125656.550000", "125657.010000", "125657.470000", "125657.930000", "125658.390000", "125658.850000", "125659.310000", "125659.770000", "125700.230000", "125700.690000", "125701.150000", "125701.610000", "125702.070000", "125702.530000", "125702.990000", "125703.450000", "125703.910000", "125704.370000", "125704.830000", "125705.290000", "125705.750000", "125706.210000", "125706.670000", "125707.130000", "125707.590000", "125708.050000", "125708.510000", "125708.970000", "125709.430000", "125709.890000", "125710.350000", "125710.810000", "125711.270000", "125711.730000", "125712.190000", "125712.650000", "125713.110000", "125713.570000", "125714.030000", "125714.490000", "125714.950000", "125715.410000", "125715.870000", "125716.330000", "125716.790000", "125717.250000", "125717.710000", "125718.170000", "125718.630000", "125719.090000", "125719.550000", "125720.010000", "125720.470000", "125720.930000", "125721.390000", "125721.850000", "125722.310000", "125722.770000", "125723.230000", "125723.690000", "125724.150000", "125724.610000", "125725.070000", "125725.530000", "125725.990000", "125726.450000", "125726.910000", "125727.370000", "125727.830000", "125728.290000", "125728.750000", "125729.210000", "125729.670000", "125730.130000", "125730.590000", "125731.050000", "125731.510000", "125731.970000", "125732.430000", "125732.890000", "125733.350000", "125733.810000", "125734.270000", "125734.730000", "125735.190000", "125735.650000", "125736.110000", "125736.570000", "125737.030000", "125737.490000", "125737.950000", "125738.410000", "125738.870000", "125739.330000", "125739.790000", "125740.250000", "125740.710000", "125741.170000", "125741.630000", "125742.090000", "125742.550000", "125743.010000", "125743.470000", "125743.930000", "125744.390000", "125744.850000", "125745.310000", "125745.770000", "125746.230000", "125746.690000", "125747.150000", "125747.610000", "125748.070000", "125748.530000", "125748.990000", "125749.450000", "125749.910000", "125750.370000", "125750.830000", "125751.290000", "125751.750000", "125752.210000", "125752.670000", "125753.130000", "125753.590000", "125754.050000", "125754.510000", "125754.970000", "125755.430000", "125755.890000", "125756.350000", "125756.810000", "125757.270000", "125757.730000", "125758.190000", "125758.650000", "125759.110000", "125759.570000", "125800.030000", "125800.490000", "125800.950000", "125801.410000", "125801.870000", "125802.330000", "125802.790000", "125803.250000", "125803.710000", "125804.170000", "125804.630000", "125805.090000", "125805.550000", "125806.010000", "125806.470000", "125806.930000", "125807.390000", "125807.850000", "125808.310000", "125808.770000", "125809.230000", "125809.690000", "125810.150000", "125810.610000", "125811.070000", "125811.530000", "125811.990000", "125812.450000", "125812.910000", "125813.370000", "125813.830000", "125814.290000", "125814.750000", "125815.210000", "125815.670000", "125816.130000", "125816.590000", "125817.050000", "125817.510000", "125817.970000", "125818.430000", "125818.890000", "125819.350000", "125819.810000", "125820.270000", "125820.730000", "125821.190000", "125821.650000", "125822.110000", "125822.570000", "125823.030000", "125823.490000", "125823.950000", "125824.410000", "125824.870000", "125825.330000", "125825.790000", "125826.250000", "125826.710000", "125827.170000", "125827.630000", "125828.090000", "125828.550000", "125829.010000", "125829.470000", "125829.930000", "125830.390000", "125830.850000", "125831.310000", "125831.770000", "125832.230000", "125832.690000", "125833.150000", "125833.610000", "125834.070000", "125834.530000", "125834.990000", "125835.450000", "125835.910000", "125836.370000", "125836.830000", "125837.290000", "125837.750000", "125838.210000", "125838.670000", "125839.130000", "125839.590000", "125840.050000", "125840.510000", "125840.970000", "125841.430000", "125841.890000", "125842.350000", "125842.810000", "125843.270000", "125843.730000", "125844.190000", "125844.650000", "125845.110000", "125845.570000", "125846.030000", "125846.490000", "125846.950000", "125847.410000", "125847.870000", "125848.330000", "125848.790000", "125849.250000", "125849.710000", "125850.170000", "125850.630000", "125851.090000", "125851.550000", "125852.010000", "125852.470000", "125852.930000", "125853.390000", "125853.850000", "125854.310000", "125854.770000", "125855.230000", "125855.690000", "125856.150000", "125856.610000", "125857.070000", "125857.530000", "125857.990000", "125858.450000", "125858.910000", "125859.370000", "125859.830000", "125900.290000", "125900.750000", "125901.210000", "125901.670000", "125902.130000", "125902.590000", "125903.050000", "125903.510000", "125903.970000", "125904.430000", "125904.890000", "125905.350000", "125905.810000", "125906.270000", "125906.730000", "125907.190000", "125907.650000", "125908.110000", "125908.570000", "125909.030000", "125909.490000", "125909.950000", "125910.410000", "125910.870000", "125911.330000", "125911.790000", "125912.250000", "125912.710000", "125913.170000", "125913.630000", "125914.090000", "125914.550000", "125915.010000", "125915.470000", "125915.930000", "125916.390000", "125916.850000", "125917.310000", "125917.770000", "125918.230000", "125918.690000", "125919.150000", "125919.610000", "125920.070000"],
