{
  "AcquisitionMatrixPE": 82,
  "AcquisitionNumber": 1,
  "AcquisitionTime": "12:15:43.272500",
  "BandwidthPerPixelPhaseEncode": 24.888,
  "BaseResolution": 82,
  "BodyPartExamined": "BRAIN",
  "ConsistencyInfo": "N4_VE11E_LATEST_20181129",
  "ConversionSoftware": "dcm2niix",
  "ConversionSoftwareVersion": "v1.0.20201102",
  "DerivedVendorReportedEchoSpacing": 0.00049,
  "DeviceSerialNumber": "66112",
  "DwellTime": 2e-06,
  "EchoTime": 0.0272,
  "EchoTrainLength": 82,
  "EffectiveEchoSpacing": 0.00049,
  "FlipAngle": 44,
  "ImageComments": "Unaliased MB8/PE3",
  "ImageOrientationPatientDICOM": [0.999728, 0.0169928, 0.0159746, -0.0136107, 0.981292, -0.192044],
  "ImageType": [
    "ORIGINAL",
    "PRIMARY",
    "M",
    "MB",
    "ND",
    "NORM",
    "MOSAIC"
],
  "ImagingFrequency": 123.259,
  "InPlanePhaseEncodingDirectionDICOM": "COL",
  "InstitutionAddress": "Maynard 3,Hanover,NH,US,03755",
  "InstitutionName": "Dartmouth College - PBS",
  "InstitutionalDepartmentName": "Department",
  "MRAcquisitionType": "2D",
  "MagneticFieldStrength": 3,
  "Manufacturer": "Siemens",
  "ManufacturersModelName": "Prisma",
  "Modality": "MR",
  "MultibandAccelerationFactor": 8,
  "PartialFourier": 1,
  "PatientPosition": "HFS",
  "PercentPhaseFOV": 100,
  "PercentSampling": 100,
  "PhaseEncodingDirection": "j-",
  "PhaseEncodingSteps": 82,
  "PhaseResolution": 1,
  "PixelBandwidth": 3050,
  "ProcedureStepDescription": "Wager_Wager^1076_spacetop",
  "ProtocolName": "func_run-04_task-social_acq-ap-mb8",
  "PulseSequenceDetails": "%CustomerSeq%\\cmrr_mbep2d_bold",
  "ReceiveCoilActiveElements": "HEA;HEP",
  "ReceiveCoilName": "Head_32",
  "ReconMatrixPE": 82,
  "RepetitionTime": 0.46,
  "SAR": 0.124673,
  "ScanOptions": "FS",
  "ScanningSequence": "EP",
  "SequenceName": "epfid2d1_82",
  "SequenceVariant": "SK\\SS",
  "SeriesDescription": "func_run-04_task-social_acq-ap-mb8",
  "SeriesNumber": 18,
  "ShimSetting": [4220, -7770, -7239, 87, -133, -21, 110, 99],
  "SliceThickness": 2.7,
  "SliceTiming": [0, 0.25, 0.0625, 0.315, 0.125, 0.3775, 0.1875, 0, 0.25, 0.0625, 0.315, 0.125, 0.3775, 0.1875, 0, 0.25, 0.0625, 0.315, 0.125, 0.3775, 0.1875, 0, 0.25, 0.0625, 0.315, 0.125, 0.3775, 0.1875, 0, 0.25, 0.0625, 0.315, 0.125, 0.3775, 0.1875, 0, 0.25, 0.0625, 0.315, 0.125, 0.3775, 0.1875, 0, 0.25, 0.0625, 0.315, 0.125, 0.3775, 0.1875, 0, 0.25, 0.0625, 0.315, 0.125, 0.3775, 0.1875],
  "SoftwareVersions": "syngo MR E11",
  "SpacingBetweenSlices": 2.7,
  "StationName": "AWP66112",
  "TaskName": "social",
  "TotalReadoutTime": 0.03969,
  "TxRefAmp": 314.567,
  "WipMemBlock": "dbaa16ae-5e49-483f-afe4-fcbc6c8d458c||Sequence: R016 ve11e/master r/434b28f1; Aug  7 2019 18:53:46 by eja",
  "dcmmeta_affine": [
    [-2.682197093963623, -0.036516595631837845, 0.05113548785448074, 111.96110534667969],
    [-0.04559031501412392, 2.632734537124634, -0.5177911520004272, -74.90483093261719],
    [0.04285858944058418, 0.5152404308319092, 2.6493918895721436, -102.81632995605469],
    [0.0, 0.0, 0.0, 1.0]
],
  "dcmmeta_reorient_transform": [
    [0.0, -1.0, 0.0, 81.0],
    [1.0, 0.0, 0.0, 0.0],
    [0.0, 0.0, 1.0, 0.0],
    [0.0, 0.0, 0.0, 1.0]
],
  "dcmmeta_shape": [82, 82, 56, 872],
  "dcmmeta_slice_dim": 2,
  "dcmmeta_version": 0.6,
  "global": {
    "const": {
      "AccessionNumber": "A004351",
      "AcquisitionMatrix": [82, 0, 0, 82],
      "AngioFlag": "N",
      "BitsAllocated": 16,
      "BitsStored": 16,
      "BodyPartExamined": "BRAIN",
      "Columns": 656,
      "EchoNumbers": 1,
      "EchoTime": 27.2,
      "EchoTrainLength": 82,
      "FlipAngle": 44.0,
      "HighBit": 15,
      "ImageOrientationPatient": [0.99972799280678, 0.01699275326969, 0.0159745652471, -0.0136107314127, 0.98129189832295, -0.1920441570997],
      "ImagePositionPatient": [-868.31356754076, -907.02585560919, 74.491735857422],
      "ImageType": [
        "ORIGINAL",
        "PRIMARY",
        "M",
        "MB",
        "ND",
        "NORM",
        "MOSAIC"
],
      "ImagedNucleus": "1H",
      "ImagingFrequency": 123.259069,
      "InPlanePhaseEncodingDirection": "COL",
      "MRAcquisitionType": "2D",
      "MagneticFieldStrength": 3.0,
      "Manufacturer": "SIEMENS",
      "ManufacturerModelName": "Prisma",
      "Modality": "MR",
      "NumberOfAverages": 1.0,
      "NumberOfPhaseEncodingSteps": 82,
      "PercentPhaseFieldOfView": 100.0,
      "PercentSampling": 100.0,
      "PerformedProcedureStepStartTime": "111945.397000",
      "PhotometricInterpretation": "MONOCHROME2",
      "PixelBandwidth": 3050.0,
      "PixelRepresentation": 0,
      "PixelSpacing": [2.6829268932343, 2.6829268932343],
      "ProtocolName": "func_run-04_task-social_acq-ap-mb8",
      "RepetitionTime": 460.0,
      "Rows": 656,
      "SAR": 0.12467283230018,
      "SamplesPerPixel": 1,
      "ScanOptions": "FS",
      "ScanningSequence": "EP",
      "SequenceName": "epfid2d1_82",
      "SequenceVariant": [
        "SK",
        "SS"
],
      "SeriesDescription": "func_run-04_task-social_acq-ap-mb8",
      "SeriesNumber": 18,
      "SeriesTime": "121611.794000",
      "SliceLocation": -84.403890460533,
      "SliceThickness": 2.7000000476837,
      "SmallestImagePixelValue": 0,
      "SoftwareVersions": "syngo MR E11",
      "SpacingBetweenSlices": 2.6999999611706,
      "SpecificCharacterSet": "ISO_IR 100",
      "StudyID": "4",
      "StudyTime": "111945.348000",
      "TransmitCoilName": "Body",
      "VariableFlipAngleFlag": "N",
      "WindowCenterWidthExplanation": "Algo1"
    },
    "slices": {}
  },
  "time": {
    "samples": {
      "AcquisitionNumber": [1, 2, 3, 4, 5, 6, 7, 8, 9, 10, 11, 12, 13, 14, 15, 16, 17, 18, 19, 20, 21, 22, 23, 24, 25, 26, 27, 28, 29, 30, 31, 32, 33, 34, 35, 36, 37, 38, 39, 40, 41, 42, 43, 44, 45, 46, 47, 48, 49, 50, 51, 52, 53, 54, 55, 56, 57, 58, 59, 60, 61, 62, 63, 64, 65, 66, 67, 68, 69, 70, 71, 72, 73, 74, 75, 76, 77, 78, 79, 80, 81, 82, 83, 84, 85, 86, 87, 88, 89, 90, 91, 92, 93, 94, 95, 96, 97, 98, 99, 100, 101, 102, 103, 104, 105, 106, 107, 108, 109, 110, 111, 112, 113, 114, 115, 116, 117, 118, 119, 120, 121, 122, 123, 124, 125, 126, 127, 128, 129, 130, 131, 132, 133, 134, 135, 136, 137, 138, 139, 140, 141, 142, 143, 144, 145, 146, 147, 148, 149, 150, 151, 152, 153, 154, 155, 156, 157, 158, 159, 160, 161, 162, 163, 164, 165, 166, 167, 168, 169, 170, 171, 172, 173, 174, 175, 176, 177, 178, 179, 180, 181, 182, 183, 184, 185, 186, 187, 188, 189, 190, 191, 192, 193, 194, 195, 196, 197, 198, 199, 200, 201, 202, 203, 204, 205, 206, 207, 208, 209, 210, 211, 212, 213, 214, 215, 216, 217, 218, 219, 220, 221, 222, 223, 224, 225, 226, 227, 228, 229, 230, 231, 232, 233, 234, 235, 236, 237, 238, 239, 240, 241, 242, 243, 244, 245, 246, 247, 248, 249, 250, 251, 252, 253, 254, 255, 256, 257, 258, 259, 260, 261, 262, 263, 264, 265, 266, 267, 268, 269, 270, 271, 272, 273, 274, 275, 276, 277, 278, 279, 280, 281, 282, 283, 284, 285, 286, 287, 288, 289, 290, 291, 292, 293, 294, 295, 296, 297, 298, 299, 300, 301, 302, 303, 304, 305, 306, 307, 308, 309, 310, 311, 312, 313, 314, 315, 316, 317, 318, 319, 320, 321, 322, 323, 324, 325, 326, 327, 328, 329, 330, 331, 332, 333, 334, 335, 336, 337, 338, 339, 340, 341, 342, 343, 344, 345, 346, 347, 348, 349, 350, 351, 352, 353, 354, 355, 356, 357, 358, 359, 360, 361, 362, 363, 364, 365, 366, 367, 368, 369, 370, 371, 372, 373, 374, 375, 376, 377, 378, 379, 380, 381, 382, 383, 384, 385, 386, 387, 388, 389, 390, 391, 392, 393, 394, 395, 396, 397, 398, 399, 400, 401, 402, 403, 404, 405, 406, 407, 408, 409, 410, 411, 412, 413, 414, 415, 416, 417, 418, 419, 420, 421, 422, 423, 424, 425, 426, 427, 428, 429, 430, 431, 432, 433, 434, 435, 436, 437, 438, 439, 440, 441, 442, 443, 444, 445, 446, 447, 448, 449, 450, 451, 452, 453, 454, 455, 456, 457, 458, 459, 460, 461, 462, 463, 464, 465, 466, 467, 468, 469, 470, 471, 472, 473, 474, 475, 476, 477, 478, 479, 480, 481, 482, 483, 484, 485, 486, 487, 488, 489, 490, 491, 492, 493, 494, 495, 496, 497, 498, 499, 500, 501, 502, 503, 504, 505, 506, 507, 508, 509, 510, 511, 512, 513, 514, 515, 516, 517, 518, 519, 520, 521, 522, 523, 524, 525, 526, 527, 528, 529, 530, 531, 532, 533, 534, 535, 536, 537, 538, 539, 540, 541, 542, 543, 544, 545, 546, 547, 548, 549, 550, 551, 552, 553, 554, 555, 556, 557, 558, 559, 560, 561, 562, 563, 564, 565, 566, 567, 568, 569, 570, 571, 572, 573, 574, 575, 576, 577, 578, 579, 580, 581, 582, 583, 584, 585, 586, 587, 588, 589, 590, 591, 592, 593, 594, 595, 596, 597, 598, 599, 600, 601, 602, 603, 604, 605, 606, 607, 608, 609, 610, 611, 612, 613, 614, 615, 616, 617, 618, 619, 620, 621, 622, 623, 624, 625, 626, 627, 628, 629, 630, 631, 632, 633, 634, 635, 636, 637, 638, 639, 640, 641, 642, 643, 644, 645, 646, 647, 648, 649, 650, 651, 652, 653, 654, 655, 656, 657, 658, 659, 660, 661, 662, 663, 664, 665, 666, 667, 668, 669, 670, 671, 672, 673, 674, 675, 676, 677, 678, 679, 680, 681, 682, 683, 684, 685, 686, 687, 688, 689, 690, 691, 692, 693, 694, 695, 696, 697, 698, 699, 700, 701, 702, 703, 704, 705, 706, 707, 708, 709, 710, 711, 712, 713, 714, 715, 716, 717, 718, 719, 720, 721, 722, 723, 724, 725, 726, 727, 728, 729, 730, 731, 732, 733, 734, 735, 736, 737, 738, 739, 740, 741, 742, 743, 744, 745, 746, 747, 748, 749, 750, 751, 752, 753, 754, 755, 756, 757, 758, 759, 760, 761, 762, 763, 764, 765, 766, 767, 768, 769, 770, 771, 772, 773, 774, 775, 776, 777, 778, 779, 780, 781, 782, 783, 784, 785, 786, 787, 788, 789, 790, 791, 792, 793, 794, 795, 796, 797, 798, 799, 800, 801, 802, 803, 804, 805, 806, 807, 808, 809, 810, 811, 812, 813, 814, 815, 816, 817, 818, 819, 820, 821, 822, 823, 824, 825, 826, 827, 828, 829, 830, 831, 832, 833, 834, 835, 836, 837, 838, 839, 840, 841, 842, 843, 844, 845, 846, 847, 848, 849, 850, 851, 852, 853, 854, 855, 856, 857, 858, 859, 860, 861, 862, 863, 864, 865, 866, 867, 868, 869, 870, 871, 872],
      "AcquisitionTime": ["121543.272500", "121543.732500", "121544.192500", "121544.652500", "121545.112500", "121545.572500", "121546.032500", "121546.492500", "121546.952500", "121547.412500", "121547.872500", "121548.332500", "121548.792500", "121549.252500", "121549.712500", "121550.172500", "121550.632500", "121551.092500", "121551.552500", "121552.012500", "121552.472500", "121552.932500", "121553.392500", "121553.852500", "121554.312500", "121554.772500", "121555.232500", "121555.692500", "121556.152500", "121556.612500", "121557.072500", "121557.532500", "121557.992500", "121558.452500", "121558.912500", "121559.372500", "121559.832500", "121600.292500", "121600.752500", "121601.212500", "121601.672500", "121602.132500", "121602.592500", "121603.052500", "121603.512500", "121603.972500", "121604.432500", "121604.892500", "121605.352500", "121605.812500", "121606.272500", "121606.732500", "121607.192500", "121607.652500", "121608.112500", "121608.572500", "121609.032500", "121609.492500", "121609.952500", "121610.412500", "121610.872500", "121611.332500", "121611.792500", "121612.252500", "121612.712500", "121613.172500", "121613.632500", "121614.092500", "121614.552500", "121615.012500", "121615.472500", "121615.932500", "121616.392500", "121616.852500", "121617.312500", "121617.772500", "121618.232500", "121618.692500", "121619.152500", "121619.612500", "121620.072500", "121620.532500", "121620.992500", "121621.452500", "121621.912500", "121622.372500", "121622.832500", "121623.292500", "121623.752500", "121624.212500", "121624.672500", "121625.132500", "121625.592500", "121626.052500", "121626.512500", "121626.972500", "121627.432500", "121627.892500", "121628.352500", "121628.812500", "121629.272500", "121629.732500", "121630.192500", "121630.652500", "121631.112500", "121631.572500", "121632.032500", "121632.492500", "121632.952500", "121633.412500", "121633.872500", "121634.332500", "121634.792500", "121635.252500", "121635.712500", "121636.172500", "121636.632500", "121637.092500", "121637.552500", "121638.012500", "121638.472500", "121638.932500", "121639.392500", "121639.852500", "121640.312500", "121640.772500", "121641.232500", "121641.692500", "121642.152500", "121642.612500", "121643.072500", "121643.532500", "121643.992500", "121644.452500", "121644.912500", "121645.372500", "121645.832500", "121646.292500", "121646.752500", "121647.212500", "121647.672500", "121648.132500", "121648.592500", "121649.052500", "121649.512500", "121649.972500", "121650.432500", "121650.892500", "121651.352500", "121651.812500", "121652.272500", "121652.732500", "121653.192500", "121653.652500", "121654.112500", "121654.572500", "121655.032500", "121655.492500", "121655.952500", "121656.412500", "121656.872500", "121657.332500", "121657.792500", "121658.252500", "121658.712500", "121659.172500", "121659.632500", "121700.092500", "121700.552500", "121701.012500", "121701.472500", "121701.932500", "121702.392500", "121702.852500", "121703.312500", "121703.772500", "121704.232500", "121704.692500", "121705.152500", "121705.612500", "121706.072500", "121706.532500", "121706.992500", "121707.452500", "121707.912500", "121708.372500", "121708.832500", "121709.292500", "121709.752500", "121710.212500", "121710.672500", "121711.132500", "121711.592500", "121712.052500", "121712.512500", "121712.972500", "121713.432500", "121713.892500", "121714.352500", "121714.812500", "121715.272500", "121715.732500", "121716.192500", "121716.652500", "121717.112500", "121717.572500", "121718.032500", "121718.492500", "121718.952500", "121719.412500", "121719.872500", "121720.332500", "121720.792500", "121721.252500", "121721.712500", "121722.172500", "121722.632500", "121723.092500", "121723.552500", "121724.012500", "121724.472500", "121724.932500", "121725.392500", "121725.852500", "121726.312500", "121726.772500", "121727.232500", "121727.692500", "121728.152500", "121728.612500", "121729.072500", "121729.532500", "121729.992500", "121730.452500", "121730.912500", "121731.372500", "121731.832500", "121732.292500", "121732.752500", "121733.212500", "121733.672500", "121734.132500", "121734.592500", "121735.052500", "121735.512500", "121735.972500", "121736.432500", "121736.892500", "121737.352500", "121737.812500", "121738.272500", "121738.732500", "121739.192500", "121739.652500", "121740.112500", "121740.572500", "121741.032500", "121741.492500", "121741.952500", "121742.412500", "121742.872500", "121743.332500", "121743.792500", "121744.252500", "121744.712500", "121745.172500", "121745.632500", "121746.092500", "121746.552500", "121747.012500", "121747.472500", "121747.932500", "121748.392500", "121748.852500", "121749.312500", "121749.772500", "121750.232500", "121750.692500", "121751.152500", "121751.612500", "121752.072500", "121752.532500", "121752.992500", "121753.452500", "121753.912500", "121754.372500", "121754.832500", "121755.292500", "121755.752500", "121756.212500", "121756.672500", "121757.132500", "121757.592500", "121758.052500", "121758.512500", "121758.972500", "121759.432500", "121759.892500", "121800.352500", "121800.812500", "121801.272500", "121801.732500", "121802.192500", "121802.652500", "121803.112500", "121803.572500", "121804.032500", "121804.492500", "121804.952500", "121805.412500", "121805.872500", "121806.332500", "121806.792500", "121807.252500", "121807.712500", "121808.172500", "121808.632500", "121809.092500", "121809.552500", "121810.012500", "121810.472500", "121810.932500", "121811.392500", "121811.852500", "121812.312500", "121812.772500", "121813.232500", "121813.692500", "121814.152500", "121814.612500", "121815.072500", "121815.532500", "121815.992500", "121816.452500", "121816.912500", "121817.372500", "121817.832500", "121818.292500", "121818.752500", "121819.212500", "121819.672500", "121820.132500", "121820.592500", "121821.052500", "121821.512500", "121821.972500", "121822.432500", "121822.892500", "121823.352500", "121823.812500", "121824.272500", "121824.732500", "121825.192500", "121825.652500", "121826.112500", "121826.572500", "121827.032500", "121827.492500", "121827.952500", "121828.412500", "121828.872500", "121829.332500", "121829.792500", "121830.252500", "121830.712500", "121831.172500", "121831.632500", "121832.092500", "121832.552500", "121833.012500", "121833.472500", "121833.932500", "121834.392500", "121834.852500", "121835.312500", "121835.772500", "121836.232500", "121836.692500", "121837.152500", "121837.612500", "121838.072500", "121838.532500", "121838.992500", "121839.452500", "121839.912500", "121840.372500", "121840.832500", "121841.292500", "121841.752500", "121842.212500", "121842.672500", "121843.132500", "121843.592500", "121844.052500", "121844.512500", "121844.972500", "121845.432500", "121845.892500", "121846.352500", "121846.812500", "121847.272500", "121847.732500", "121848.192500", "121848.652500", "121849.112500", "121849.572500", "121850.032500", "121850.492500", "121850.952500", "121851.412500", "121851.872500", "121852.332500", "121852.792500", "121853.252500", "121853.712500", "121854.172500", "121854.632500", "121855.092500", "121855.552500", "121856.012500", "121856.472500", "121856.932500", "121857.392500", "121857.852500", "121858.312500", "121858.772500", "121859.232500", "121859.692500", "121900.152500", "121900.612500", "121901.072500", "121901.532500", "121901.992500", "121902.452500", "121902.912500", "121903.372500", "121903.832500", "121904.292500", "121904.752500", "121905.212500", "121905.672500", "121906.132500", "121906.592500", "121907.052500", "121907.512500", "121907.972500", "121908.432500", "121908.892500", "121909.352500", "121909.812500", "121910.272500", "121910.732500", "121911.192500", "121911.652500", "121912.112500", "121912.572500", "121913.032500", "121913.492500", "121913.952500", "121914.412500", "121914.872500", "121915.332500", "121915.792500", "121916.252500", "121916.712500", "121917.172500", "121917.632500", "121918.092500", "121918.552500", "121919.012500", "121919.472500", "121919.932500", "121920.392500", "121920.852500", "121921.312500", "121921.772500", "121922.232500", "121922.692500", "121923.152500", "121923.612500", "121924.072500", "121924.532500", "121924.992500", "121925.452500", "121925.912500", "121926.372500", "121926.832500", "121927.292500", "121927.752500", "121928.212500", "121928.672500", "121929.132500", "121929.592500", "121930.052500", "121930.512500", "121930.972500", "121931.432500", "121931.892500", "121932.352500", "121932.812500", "121933.272500", "121933.732500", "121934.192500", "121934.652500", "121935.112500", "121935.572500", "121936.032500", "121936.492500", "121936.952500", "121937.412500", "121937.872500", "121938.332500", "121938.792500", "121939.252500", "121939.712500", "121940.172500", "121940.632500", "121941.092500", "121941.552500", "121942.012500", "121942.472500", "121942.932500", "121943.392500", "121943.852500", "121944.312500", "121944.772500", "121945.232500", "121945.692500", "121946.152500", "121946.612500", "121947.072500", "121947.532500", "121947.992500", "121948.452500", "121948.912500", "121949.372500", "121949.832500", "121950.292500", "121950.752500", "121951.212500", "121951.672500", "121952.132500", "121952.592500", "121953.052500", "121953.512500", "121953.972500", "121954.432500", "121954.892500", "121955.352500", "121955.812500", "121956.272500", "121956.732500", "121957.192500", "121957.652500", "121958.112500", "121958.572500", "121959.032500", "121959.492500", "121959.952500", "122000.412500", "122000.872500", "122001.332500", "122001.792500", "122002.252500", "122002.712500", "122003.172500", "122003.632500", "122004.092500", "122004.552500", "122005.012500", "122005.472500", "122005.932500", "122006.392500", "122006.852500", "122007.312500", "122007.772500", "122008.232500", "122008.692500", "122009.152500", "122009.612500", "122010.072500", "122010.532500", "122010.992500", "122011.452500", "122011.912500", "122012.372500", "122012.832500", "122013.292500", "122013.752500", "122014.212500", "122014.672500", "122015.132500", "122015.592500", "122016.052500", "122016.512500", "122016.972500", "122017.432500", "122017.892500", "122018.352500", "122018.812500", "122019.272500", "122019.732500", "122020.192500", "122020.652500", "122021.112500", "122021.572500", "122022.032500", "122022.492500", "122022.952500", "122023.412500", "122023.872500", "122024.332500", "122024.792500", "122025.252500", "122025.712500", "122026.172500", "122026.632500", "122027.092500", "122027.552500", "122028.012500", "122028.472500", "122028.932500", "122029.392500", "122029.852500", "122030.312500", "122030.772500", "122031.232500", "122031.692500", "122032.152500", "122032.612500", "122033.072500", "122033.532500", "122033.992500", "122034.452500", "122034.912500", "122035.372500", "122035.832500", "122036.292500", "122036.752500", "122037.212500", "122037.672500", "122038.132500", "122038.592500", "122039.052500", "122039.512500", "122039.972500", "122040.432500", "122040.892500", "122041.352500", "122041.812500", "122042.272500", "122042.732500", "122043.192500", "122043.652500", "122044.112500", "122044.572500", "122045.032500", "122045.492500", "122045.952500", "122046.412500", "122046.872500", "122047.332500", "122047.792500", "122048.252500", "122048.712500", "122049.172500", "122049.632500", "122050.092500", "122050.552500", "122051.012500", "122051.472500", "122051.932500", "122052.392500", "122052.852500", "122053.312500", "122053.772500", "122054.232500", "122054.692500", "122055.152500", "122055.612500", "122056.072500", "122056.532500", "122056.992500", "122057.452500", "122057.912500", "122058.372500", "122058.832500", "122059.292500", "122059.752500", "122100.212500", "122100.672500", "122101.132500", "122101.592500", "122102.052500", "122102.512500", "122102.972500", "122103.432500", "122103.892500", "122104.352500", "122104.812500", "122105.272500", "122105.732500", "122106.192500", "122106.652500", "122107.112500", "122107.572500", "122108.032500", "122108.492500", "122108.952500", "122109.412500", "122109.872500", "122110.332500", "122110.792500", "122111.252500", "122111.712500", "122112.172500", "122112.632500", "122113.092500", "122113.552500", "122114.012500", "122114.472500", "122114.932500", "122115.392500", "122115.852500", "122116.312500", "122116.772500", "122117.232500", "122117.692500", "122118.152500", "122118.612500", "122119.072500", "122119.532500", "122119.992500", "122120.452500", "122120.912500", "122121.372500", "122121.832500", "122122.292500", "122122.752500", "122123.212500", "122123.672500", "122124.132500", "122124.592500", "122125.052500", "122125.512500", "122125.972500", "122126.432500", "122126.892500", "122127.352500", "122127.812500", "122128.272500", "122128.732500", "122129.192500", "122129.652500", "122130.112500", "122130.572500", "122131.032500", "122131.492500", "122131.952500", "122132.412500", "122132.872500", "122133.332500", "122133.792500", "122134.252500", "122134.712500", "122135.172500", "122135.632500", "122136.092500", "122136.552500", "122137.012500", "122137.472500", "122137.932500", "122138.392500", "122138.852500", "122139.312500", "122139.772500", "122140.232500", "122140.692500", "122141.152500", "122141.612500", "122142.072500", "122142.532500", "122142.992500", "122143.452500", "122143.912500", "122144.372500", "122144.832500", "122145.292500", "122145.752500", "122146.212500", "122146.672500", "122147.132500", "122147.592500", "122148.052500", "122148.512500", "122148.972500", "122149.432500", "122149.892500", "122150.352500", "122150.812500", "122151.272500", "122151.732500", "122152.192500", "122152.652500", "122153.112500", "122153.572500", "122154.032500", "122154.492500", "122154.952500", "122155.412500", "122155.872500", "122156.332500", "122156.792500", "122157.252500", "122157.712500", "122158.172500", "122158.632500", "122159.092500", "122159.552500", "122200.012500", "122200.472500", "122200.932500", "122201.392500", "122201.852500", "122202.312500", "122202.772500", "122203.232500", "122203.692500", "122204.152500", "122204.612500", "122205.072500", "122205.532500", "122205.992500", "122206.452500", "122206.912500", "122207.372500", "122207.832500", "122208.292500", "122208.752500", "122209.212500", "122209.672500", "122210.132500", "122210.592500", "122211.052500", "122211.512500", "122211.972500", "122212.432500", "122212.892500", "122213.352500", "122213.812500", "122214.272500", "122214.732500", "122215.192500", "122215.652500", "122216.112500", "122216.572500", "122217.032500", "122217.492500", "122217.952500", "122218.412500", "122218.872500", "122219.332500", "122219.792500", "122220.252500", "122220.712500", "122221.172500", "122221.632500", "122222.092500", "122222.552500", "122223.012500", "122223.472500", "122223.932500"],
