{
  "AcquisitionMatrixPE": 82,
  "AcquisitionNumber": 1,
  "AcquisitionTime": "12:08:38.797500",
  "BandwidthPerPixelPhaseEncode": 24.888,
  "BaseResolution": 82,
  "BodyPartExamined": "BRAIN",
  "ConsistencyInfo": "N4_VE11E_LATEST_20181129",
  "ConversionSoftware": "dcm2niix",
  "ConversionSoftwareVersion": "v1.0.20201102",
  "DerivedVendorReportedEchoSpacing": 0.00049,
  "DeviceSerialNumber": "66112",
  "DwellTime": 2e-06,
  "EchoTime": 0.0272,
  "EchoTrainLength": 82,
  "EffectiveEchoSpacing": 0.00049,
  "FlipAngle": 44,
  "ImageComments": "Unaliased MB8/PE3",
  "ImageOrientationPatientDICOM": [0.999728, 0.0169928, 0.0159746, -0.0136107, 0.981292, -0.192044],
  "ImageType": [
    "ORIGINAL",
    "PRIMARY",
    "M",
    "MB",
    "ND",
    "NORM",
    "MOSAIC"
],
  "ImagingFrequency": 123.259,
  "InPlanePhaseEncodingDirectionDICOM": "COL",
  "InstitutionAddress": "Maynard 3,Hanover,NH,US,03755",
  "InstitutionName": "Dartmouth College - PBS",
  "InstitutionalDepartmentName": "Department",
  "MRAcquisitionType": "2D",
  "MagneticFieldStrength": 3,
  "Manufacturer": "Siemens",
  "ManufacturersModelName": "Prisma",
  "Modality": "MR",
  "MultibandAccelerationFactor": 8,
  "PartialFourier": 1,
  "PatientPosition": "HFS",
  "PercentPhaseFOV": 100,
  "PercentSampling": 100,
  "PhaseEncodingDirection": "j-",
  "PhaseEncodingSteps": 82,
  "PhaseResolution": 1,
  "PixelBandwidth": 3050,
  "ProcedureStepDescription": "Wager_Wager^1076_spacetop",
  "ProtocolName": "func_run-03_task-social_acq-ap-mb8",
  "PulseSequenceDetails": "%CustomerSeq%\\cmrr_mbep2d_bold",
  "ReceiveCoilActiveElements": "HEA;HEP",
  "ReceiveCoilName": "Head_32",
  "ReconMatrixPE": 82,
  "RepetitionTime": 0.46,
  "SAR": 0.124673,
  "ScanOptions": "FS",
  "ScanningSequence": "EP",
  "SequenceName": "epfid2d1_82",
  "SequenceVariant": "SK\\SS",
  "SeriesDescription": "func_run-03_task-social_acq-ap-mb8",
  "SeriesNumber": 16,
  "ShimSetting": [4220, -7770, -7239, 87, -133, -21, 110, 99],
  "SliceThickness": 2.7,
  "SliceTiming": [0, 0.25, 0.0625, 0.3125, 0.125, 0.375, 0.1875, 0, 0.25, 0.0625, 0.3125, 0.125, 0.375, 0.1875, 0, 0.25, 0.0625, 0.3125, 0.125, 0.375, 0.1875, 0, 0.25, 0.0625, 0.3125, 0.125, 0.375, 0.1875, 0, 0.25, 0.0625, 0.3125, 0.125, 0.375, 0.1875, 0, 0.25, 0.0625, 0.3125, 0.125, 0.375, 0.1875, 0, 0.25, 0.0625, 0.3125, 0.125, 0.375, 0.1875, 0, 0.25, 0.0625, 0.3125, 0.125, 0.375, 0.1875],
  "SoftwareVersions": "syngo MR E11",
  "SpacingBetweenSlices": 2.7,
  "StationName": "AWP66112",
  "TaskName": "social",
  "TotalReadoutTime": 0.03969,
  "TxRefAmp": 314.567,
  "WipMemBlock": "7d9edf7a-832f-4f6d-abc8-721878c8f2c9||Sequence: R016 ve11e/master r/434b28f1; Aug  7 2019 18:53:46 by eja",
  "dcmmeta_affine": [
    [-2.682197093963623, -0.036516595631837845, 0.05113548785448074, 111.96110534667969],
    [-0.04559031501412392, 2.632734537124634, -0.5177911520004272, -74.90483093261719],
    [0.04285858944058418, 0.5152404308319092, 2.6493918895721436, -102.81632995605469],
    [0.0, 0.0, 0.0, 1.0]
],
  "dcmmeta_reorient_transform": [
    [0.0, -1.0, 0.0, 81.0],
    [1.0, 0.0, 0.0, 0.0],
    [0.0, 0.0, 1.0, 0.0],
    [0.0, 0.0, 0.0, 1.0]
],
  "dcmmeta_shape": [82, 82, 56, 872],
  "dcmmeta_slice_dim": 2,
  "dcmmeta_version": 0.6,
  "global": {
    "const": {
      "AccessionNumber": "A004351",
      "AcquisitionMatrix": [82, 0, 0, 82],
      "AngioFlag": "N",
      "BitsAllocated": 16,
      "BitsStored": 16,
      "BodyPartExamined": "BRAIN",
      "Columns": 656,
      "EchoNumbers": 1,
      "EchoTime": 27.2,
      "EchoTrainLength": 82,
      "FlipAngle": 44.0,
      "HighBit": 15,
      "ImageOrientationPatient": [0.99972799280678, 0.01699275326969, 0.0159745652471, -0.0136107314127, 0.98129189832295, -0.1920441570997],
      "ImagePositionPatient": [-868.31356754076, -907.02585560919, 74.491735857422],
      "ImageType": [
        "ORIGINAL",
        "PRIMARY",
        "M",
        "MB",
        "ND",
        "NORM",
        "MOSAIC"
],
      "ImagedNucleus": "1H",
      "ImagingFrequency": 123.259068,
      "InPlanePhaseEncodingDirection": "COL",
      "MRAcquisitionType": "2D",
      "MagneticFieldStrength": 3.0,
      "Manufacturer": "SIEMENS",
      "ManufacturerModelName": "Prisma",
      "Modality": "MR",
      "NumberOfAverages": 1.0,
      "NumberOfPhaseEncodingSteps": 82,
      "PercentPhaseFieldOfView": 100.0,
      "PercentSampling": 100.0,
      "PerformedProcedureStepStartTime": "111945.397000",
      "PhotometricInterpretation": "MONOCHROME2",
      "PixelBandwidth": 3050.0,
      "PixelRepresentation": 0,
      "PixelSpacing": [2.6829268932343, 2.6829268932343],
      "ProtocolName": "func_run-03_task-social_acq-ap-mb8",
      "RepetitionTime": 460.0,
      "Rows": 656,
      "SAR": 0.12467283230018,
      "SamplesPerPixel": 1,
      "ScanOptions": "FS",
      "ScanningSequence": "EP",
      "SequenceName": "epfid2d1_82",
      "SequenceVariant": [
        "SK",
        "SS"
],
      "SeriesDescription": "func_run-03_task-social_acq-ap-mb8",
      "SeriesNumber": 16,
      "SeriesTime": "120851.714000",
      "SliceLocation": -84.403890460533,
      "SliceThickness": 2.7000000476837,
      "SmallestImagePixelValue": 0,
      "SoftwareVersions": "syngo MR E11",
      "SpacingBetweenSlices": 2.6999999611706,
      "SpecificCharacterSet": "ISO_IR 100",
      "StudyID": "4",
      "StudyTime": "111945.348000",
      "TransmitCoilName": "Body",
      "VariableFlipAngleFlag": "N",
      "WindowCenterWidthExplanation": "Algo1"
    },
    "slices": {}
  },
  "time": {
    "samples": {
      "AcquisitionNumber": [1, 2, 3, 4, 5, 6, 7, 8, 9, 10, 11, 12, 13, 14, 15, 16, 17, 18, 19, 20, 21, 22, 23, 24, 25, 26, 27, 28, 29, 30, 31, 32, 33, 34, 35, 36, 37, 38, 39, 40, 41, 42, 43, 44, 45, 46, 47, 48, 49, 50, 51, 52, 53, 54, 55, 56, 57, 58, 59, 60, 61, 62, 63, 64, 65, 66, 67, 68, 69, 70, 71, 72, 73, 74, 75, 76, 77, 78, 79, 80, 81, 82, 83, 84, 85, 86, 87, 88, 89, 90, 91, 92, 93, 94, 95, 96, 97, 98, 99, 100, 101, 102, 103, 104, 105, 106, 107, 108, 109, 110, 111, 112, 113, 114, 115, 116, 117, 118, 119, 120, 121, 122, 123, 124, 125, 126, 127, 128, 129, 130, 131, 132, 133, 134, 135, 136, 137, 138, 139, 140, 141, 142, 143, 144, 145, 146, 147, 148, 149, 150, 151, 152, 153, 154, 155, 156, 157, 158, 159, 160, 161, 162, 163, 164, 165, 166, 167, 168, 169, 170, 171, 172, 173, 174, 175, 176, 177, 178, 179, 180, 181, 182, 183, 184, 185, 186, 187, 188, 189, 190, 191, 192, 193, 194, 195, 196, 197, 198, 199, 200, 201, 202, 203, 204, 205, 206, 207, 208, 209, 210, 211, 212, 213, 214, 215, 216, 217, 218, 219, 220, 221, 222, 223, 224, 225, 226, 227, 228, 229, 230, 231, 232, 233, 234, 235, 236, 237, 238, 239, 240, 241, 242, 243, 244, 245, 246, 247, 248, 249, 250, 251, 252, 253, 254, 255, 256, 257, 258, 259, 260, 261, 262, 263, 264, 265, 266, 267, 268, 269, 270, 271, 272, 273, 274, 275, 276, 277, 278, 279, 280, 281, 282, 283, 284, 285, 286, 287, 288, 289, 290, 291, 292, 293, 294, 295, 296, 297, 298, 299, 300, 301, 302, 303, 304, 305, 306, 307, 308, 309, 310, 311, 312, 313, 314, 315, 316, 317, 318, 319, 320, 321, 322, 323, 324, 325, 326, 327, 328, 329, 330, 331, 332, 333, 334, 335, 336, 337, 338, 339, 340, 341, 342, 343, 344, 345, 346, 347, 348, 349, 350, 351, 352, 353, 354, 355, 356, 357, 358, 359, 360, 361, 362, 363, 364, 365, 366, 367, 368, 369, 370, 371, 372, 373, 374, 375, 376, 377, 378, 379, 380, 381, 382, 383, 384, 385, 386, 387, 388, 389, 390, 391, 392, 393, 394, 395, 396, 397, 398, 399, 400, 401, 402, 403, 404, 405, 406, 407, 408, 409, 410, 411, 412, 413, 414, 415, 416, 417, 418, 419, 420, 421, 422, 423, 424, 425, 426, 427, 428, 429, 430, 431, 432, 433, 434, 435, 436, 437, 438, 439, 440, 441, 442, 443, 444, 445, 446, 447, 448, 449, 450, 451, 452, 453, 454, 455, 456, 457, 458, 459, 460, 461, 462, 463, 464, 465, 466, 467, 468, 469, 470, 471, 472, 473, 474, 475, 476, 477, 478, 479, 480, 481, 482, 483, 484, 485, 486, 487, 488, 489, 490, 491, 492, 493, 494, 495, 496, 497, 498, 499, 500, 501, 502, 503, 504, 505, 506, 507, 508, 509, 510, 511, 512, 513, 514, 515, 516, 517, 518, 519, 520, 521, 522, 523, 524, 525, 526, 527, 528, 529, 530, 531, 532, 533, 534, 535, 536, 537, 538, 539, 540, 541, 542, 543, 544, 545, 546, 547, 548, 549, 550, 551, 552, 553, 554, 555, 556, 557, 558, 559, 560, 561, 562, 563, 564, 565, 566, 567, 568, 569, 570, 571, 572, 573, 574, 575, 576, 577, 578, 579, 580, 581, 582, 583, 584, 585, 586, 587, 588, 589, 590, 591, 592, 593, 594, 595, 596, 597, 598, 599, 600, 601, 602, 603, 604, 605, 606, 607, 608, 609, 610, 611, 612, 613, 614, 615, 616, 617, 618, 619, 620, 621, 622, 623, 624, 625, 626, 627, 628, 629, 630, 631, 632, 633, 634, 635, 636, 637, 638, 639, 640, 641, 642, 643, 644, 645, 646, 647, 648, 649, 650, 651, 652, 653, 654, 655, 656, 657, 658, 659, 660, 661, 662, 663, 664, 665, 666, 667, 668, 669, 670, 671, 672, 673, 674, 675, 676, 677, 678, 679, 680, 681, 682, 683, 684, 685, 686, 687, 688, 689, 690, 691, 692, 693, 694, 695, 696, 697, 698, 699, 700, 701, 702, 703, 704, 705, 706, 707, 708, 709, 710, 711, 712, 713, 714, 715, 716, 717, 718, 719, 720, 721, 722, 723, 724, 725, 726, 727, 728, 729, 730, 731, 732, 733, 734, 735, 736, 737, 738, 739, 740, 741, 742, 743, 744, 745, 746, 747, 748, 749, 750, 751, 752, 753, 754, 755, 756, 757, 758, 759, 760, 761, 762, 763, 764, 765, 766, 767, 768, 769, 770, 771, 772, 773, 774, 775, 776, 777, 778, 779, 780, 781, 782, 783, 784, 785, 786, 787, 788, 789, 790, 791, 792, 793, 794, 795, 796, 797, 798, 799, 800, 801, 802, 803, 804, 805, 806, 807, 808, 809, 810, 811, 812, 813, 814, 815, 816, 817, 818, 819, 820, 821, 822, 823, 824, 825, 826, 827, 828, 829, 830, 831, 832, 833, 834, 835, 836, 837, 838, 839, 840, 841, 842, 843, 844, 845, 846, 847, 848, 849, 850, 851, 852, 853, 854, 855, 856, 857, 858, 859, 860, 861, 862, 863, 864, 865, 866, 867, 868, 869, 870, 871, 872],
      "AcquisitionTime": ["120838.797500", "120839.257500", "120839.717500", "120840.177500", "120840.637500", "120841.097500", "120841.557500", "120842.017500", "120842.477500", "120842.937500", "120843.397500", "120843.857500", "120844.317500", "120844.777500", "120845.237500", "120845.697500", "120846.157500", "120846.617500", "120847.077500", "120847.537500", "120847.997500", "120848.457500", "120848.917500", "120849.377500", "120849.837500", "120850.297500", "120850.757500", "120851.217500", "120851.677500", "120852.137500", "120852.597500", "120853.057500", "120853.517500", "120853.977500", "120854.437500", "120854.897500", "120855.357500", "120855.817500", "120856.277500", "120856.737500", "120857.197500", "120857.657500", "120858.117500", "120858.577500", "120859.037500", "120859.497500", "120859.957500", "120900.417500", "120900.877500", "120901.337500", "120901.797500", "120902.257500", "120902.717500", "120903.177500", "120903.637500", "120904.097500", "120904.557500", "120905.017500", "120905.477500", "120905.937500", "120906.397500", "120906.857500", "120907.317500", "120907.777500", "120908.237500", "120908.697500", "120909.157500", "120909.617500", "120910.077500", "120910.537500", "120910.997500", "120911.457500", "120911.917500", "120912.377500", "120912.837500", "120913.297500", "120913.757500", "120914.217500", "120914.677500", "120915.137500", "120915.597500", "120916.057500", "120916.517500", "120916.977500", "120917.437500", "120917.897500", "120918.357500", "120918.817500", "120919.277500", "120919.737500", "120920.197500", "120920.657500", "120921.117500", "120921.577500", "120922.037500", "120922.497500", "120922.957500", "120923.417500", "120923.877500", "120924.337500", "120924.797500", "120925.257500", "120925.717500", "120926.177500", "120926.637500", "120927.097500", "120927.557500", "120928.017500", "120928.477500", "120928.937500", "120929.397500", "120929.857500", "120930.317500", "120930.777500", "120931.237500", "120931.697500", "120932.157500", "120932.617500", "120933.077500", "120933.537500", "120933.997500", "120934.457500", "120934.917500", "120935.377500", "120935.837500", "120936.297500", "120936.757500", "120937.217500", "120937.677500", "120938.137500", "120938.597500", "120939.057500", "120939.517500", "120939.977500", "120940.437500", "120940.897500", "120941.357500", "120941.817500", "120942.277500", "120942.737500", "120943.197500", "120943.657500", "120944.117500", "120944.577500", "120945.037500", "120945.497500", "120945.957500", "120946.417500", "120946.877500", "120947.337500", "120947.797500", "120948.257500", "120948.717500", "120949.177500", "120949.637500", "120950.097500", "120950.557500", "120951.017500", "120951.477500", "120951.937500", "120952.397500", "120952.857500", "120953.317500", "120953.777500", "120954.237500", "120954.697500", "120955.157500", "120955.617500", "120956.077500", "120956.537500", "120956.997500", "120957.457500", "120957.917500", "120958.377500", "120958.837500", "120959.297500", "120959.757500", "121000.217500", "121000.677500", "121001.137500", "121001.597500", "121002.057500", "121002.517500", "121002.977500", "121003.437500", "121003.897500", "121004.357500", "121004.817500", "121005.277500", "121005.737500", "121006.197500", "121006.657500", "121007.117500", "121007.577500", "121008.037500", "121008.497500", "121008.957500", "121009.417500", "121009.877500", "121010.337500", "121010.797500", "121011.257500", "121011.717500", "121012.177500", "121012.637500", "121013.097500", "121013.557500", "121014.017500", "121014.477500", "121014.937500", "121015.397500", "121015.857500", "121016.317500", "121016.777500", "121017.237500", "121017.697500", "121018.157500", "121018.617500", "121019.077500", "121019.537500", "121019.997500", "121020.457500", "121020.917500", "121021.377500", "121021.837500", "121022.297500", "121022.757500", "121023.217500", "121023.677500", "121024.137500", "121024.597500", "121025.057500", "121025.517500", "121025.977500", "121026.437500", "121026.897500", "121027.357500", "121027.817500", "121028.277500", "121028.737500", "121029.197500", "121029.657500", "121030.117500", "121030.577500", "121031.037500", "121031.497500", "121031.957500", "121032.417500", "121032.877500", "121033.337500", "121033.797500", "121034.257500", "121034.717500", "121035.177500", "121035.637500", "121036.097500", "121036.557500", "121037.017500", "121037.477500", "121037.937500", "121038.397500", "121038.857500", "121039.317500", "121039.777500", "121040.237500", "121040.697500", "121041.157500", "121041.617500", "121042.077500", "121042.537500", "121042.997500", "121043.457500", "121043.917500", "121044.377500", "121044.837500", "121045.297500", "121045.757500", "121046.217500", "121046.677500", "121047.137500", "121047.597500", "121048.057500", "121048.517500", "121048.977500", "121049.437500", "121049.897500", "121050.357500", "121050.817500", "121051.277500", "121051.737500", "121052.197500", "121052.657500", "121053.117500", "121053.577500", "121054.037500", "121054.497500", "121054.957500", "121055.417500", "121055.877500", "121056.337500", "121056.797500", "121057.257500", "121057.717500", "121058.177500", "121058.637500", "121059.097500", "121059.557500", "121100.017500", "121100.477500", "121100.937500", "121101.397500", "121101.857500", "121102.317500", "121102.777500", "121103.237500", "121103.697500", "121104.157500", "121104.617500", "121105.077500", "121105.537500", "121105.997500", "121106.457500", "121106.917500", "121107.377500", "121107.837500", "121108.297500", "121108.757500", "121109.217500", "121109.677500", "121110.137500", "121110.597500", "121111.057500", "121111.517500", "121111.977500", "121112.437500", "121112.897500", "121113.357500", "121113.817500", "121114.277500", "121114.737500", "121115.197500", "121115.657500", "121116.117500", "121116.577500", "121117.037500", "121117.497500", "121117.957500", "121118.417500", "121118.877500", "121119.337500", "121119.797500", "121120.257500", "121120.717500", "121121.177500", "121121.637500", "121122.097500", "121122.557500", "121123.017500", "121123.477500", "121123.937500", "121124.397500", "121124.857500", "121125.317500", "121125.777500", "121126.237500", "121126.697500", "121127.157500", "121127.617500", "121128.077500", "121128.537500", "121128.997500", "121129.457500", "121129.917500", "121130.377500", "121130.837500", "121131.297500", "121131.757500", "121132.217500", "121132.677500", "121133.137500", "121133.597500", "121134.057500", "121134.517500", "121134.977500", "121135.437500", "121135.897500", "121136.357500", "121136.817500", "121137.277500", "121137.737500", "121138.197500", "121138.657500", "121139.117500", "121139.577500", "121140.037500", "121140.497500", "121140.957500", "121141.417500", "121141.877500", "121142.337500", "121142.797500", "121143.257500", "121143.717500", "121144.177500", "121144.637500", "121145.097500", "121145.557500", "121146.017500", "121146.477500", "121146.937500", "121147.397500", "121147.857500", "121148.317500", "121148.777500", "121149.237500", "121149.697500", "121150.157500", "121150.617500", "121151.077500", "121151.537500", "121151.997500", "121152.457500", "121152.917500", "121153.377500", "121153.837500", "121154.297500", "121154.757500", "121155.217500", "121155.677500", "121156.137500", "121156.597500", "121157.057500", "121157.517500", "121157.977500", "121158.437500", "121158.897500", "121159.357500", "121159.817500", "121200.277500", "121200.737500", "121201.197500", "121201.657500", "121202.117500", "121202.577500", "121203.037500", "121203.497500", "121203.957500", "121204.417500", "121204.877500", "121205.337500", "121205.797500", "121206.257500", "121206.717500", "121207.177500", "121207.637500", "121208.097500", "121208.557500", "121209.017500", "121209.477500", "121209.937500", "121210.397500", "121210.857500", "121211.317500", "121211.777500", "121212.237500", "121212.697500", "121213.157500", "121213.617500", "121214.077500", "121214.537500", "121214.997500", "121215.457500", "121215.917500", "121216.377500", "121216.837500", "121217.297500", "121217.757500", "121218.217500", "121218.677500", "121219.137500", "121219.597500", "121220.057500", "121220.517500", "121220.977500", "121221.437500", "121221.897500", "121222.357500", "121222.817500", "121223.277500", "121223.737500", "121224.197500", "121224.657500", "121225.117500", "121225.577500", "121226.037500", "121226.497500", "121226.957500", "121227.417500", "121227.877500", "121228.337500", "121228.797500", "121229.257500", "121229.717500", "121230.177500", "121230.637500", "121231.097500", "121231.557500", "121232.017500", "121232.477500", "121232.937500", "121233.397500", "121233.857500", "121234.317500", "121234.777500", "121235.237500", "121235.697500", "121236.157500", "121236.617500", "121237.077500", "121237.537500", "121237.997500", "121238.457500", "121238.917500", "121239.377500", "121239.837500", "121240.297500", "121240.757500", "121241.217500", "121241.677500", "121242.137500", "121242.597500", "121243.057500", "121243.517500", "121243.977500", "121244.437500", "121244.897500", "121245.357500", "121245.817500", "121246.277500", "121246.737500", "121247.197500", "121247.657500", "121248.117500", "121248.577500", "121249.037500", "121249.497500", "121249.957500", "121250.417500", "121250.877500", "121251.337500", "121251.797500", "121252.257500", "121252.717500", "121253.177500", "121253.637500", "121254.097500", "121254.557500", "121255.017500", "121255.477500", "121255.937500", "121256.397500", "121256.857500", "121257.317500", "121257.777500", "121258.237500", "121258.697500", "121259.157500", "121259.617500", "121300.077500", "121300.537500", "121300.997500", "121301.457500", "121301.917500", "121302.377500", "121302.837500", "121303.297500", "121303.757500", "121304.217500", "121304.677500", "121305.137500", "121305.597500", "121306.057500", "121306.517500", "121306.977500", "121307.437500", "121307.897500", "121308.357500", "121308.817500", "121309.277500", "121309.737500", "121310.197500", "121310.657500", "121311.117500", "121311.577500", "121312.037500", "121312.497500", "121312.957500", "121313.417500", "121313.877500", "121314.337500", "121314.797500", "121315.257500", "121315.717500", "121316.177500", "121316.637500", "121317.097500", "121317.557500", "121318.017500", "121318.477500", "121318.937500", "121319.397500", "121319.857500", "121320.317500", "121320.777500", "121321.237500", "121321.697500", "121322.157500", "121322.617500", "121323.077500", "121323.537500", "121323.997500", "121324.457500", "121324.917500", "121325.377500", "121325.837500", "121326.297500", "121326.757500", "121327.217500", "121327.677500", "121328.137500", "121328.597500", "121329.057500", "121329.517500", "121329.977500", "121330.437500", "121330.897500", "121331.357500", "121331.817500", "121332.277500", "121332.737500", "121333.197500", "121333.657500", "121334.117500", "121334.577500", "121335.037500", "121335.497500", "121335.957500", "121336.417500", "121336.877500", "121337.337500", "121337.797500", "121338.257500", "121338.717500", "121339.177500", "121339.637500", "121340.097500", "121340.557500", "121341.017500", "121341.477500", "121341.937500", "121342.397500", "121342.857500", "121343.317500", "121343.777500", "121344.237500", "121344.697500", "121345.157500", "121345.617500", "121346.077500", "121346.537500", "121346.997500", "121347.457500", "121347.917500", "121348.377500", "121348.837500", "121349.297500", "121349.757500", "121350.217500", "121350.677500", "121351.137500", "121351.597500", "121352.057500", "121352.517500", "121352.977500", "121353.437500", "121353.897500", "121354.357500", "121354.817500", "121355.277500", "121355.737500", "121356.197500", "121356.657500", "121357.117500", "121357.577500", "121358.037500", "121358.497500", "121358.957500", "121359.417500", "121359.877500", "121400.337500", "121400.797500", "121401.257500", "121401.717500", "121402.177500", "121402.637500", "121403.097500", "121403.557500", "121404.017500", "121404.477500", "121404.937500", "121405.397500", "121405.857500", "121406.317500", "121406.777500", "121407.237500", "121407.697500", "121408.157500", "121408.617500", "121409.077500", "121409.537500", "121409.997500", "121410.457500", "121410.917500", "121411.377500", "121411.837500", "121412.297500", "121412.757500", "121413.217500", "121413.677500", "121414.137500", "121414.597500", "121415.057500", "121415.517500", "121415.977500", "121416.437500", "121416.897500", "121417.357500", "121417.817500", "121418.277500", "121418.737500", "121419.197500", "121419.657500", "121420.117500", "121420.577500", "121421.037500", "121421.497500", "121421.957500", "121422.417500", "121422.877500", "121423.337500", "121423.797500", "121424.257500", "121424.717500", "121425.177500", "121425.637500", "121426.097500", "121426.557500", "121427.017500", "121427.477500", "121427.937500", "121428.397500", "121428.857500", "121429.317500", "121429.777500", "121430.237500", "121430.697500", "121431.157500", "121431.617500", "121432.077500", "121432.537500", "121432.997500", "121433.457500", "121433.917500", "121434.377500", "121434.837500", "121435.297500", "121435.757500", "121436.217500", "121436.677500", "121437.137500", "121437.597500", "121438.057500", "121438.517500", "121438.977500", "121439.437500", "121439.897500", "121440.357500", "121440.817500", "121441.277500", "121441.737500", "121442.197500", "121442.657500", "121443.117500", "121443.577500", "121444.037500", "121444.497500", "121444.957500", "121445.417500", "121445.877500", "121446.337500", "121446.797500", "121447.257500", "121447.717500", "121448.177500", "121448.637500", "121449.097500", "121449.557500", "121450.017500", "121450.477500", "121450.937500", "121451.397500", "121451.857500", "121452.317500", "121452.777500", "121453.237500", "121453.697500", "121454.157500", "121454.617500", "121455.077500", "121455.537500", "121455.997500", "121456.457500", "121456.917500", "121457.377500", "121457.837500", "121458.297500", "121458.757500", "121459.217500", "121459.677500", "121500.137500", "121500.597500", "121501.057500", "121501.517500", "121501.977500", "121502.437500", "121502.897500", "121503.357500", "121503.817500", "121504.277500", "121504.737500", "121505.197500", "121505.657500", "121506.117500", "121506.577500", "121507.037500", "121507.497500", "121507.957500", "121508.417500", "121508.877500", "121509.337500", "121509.797500", "121510.257500", "121510.717500", "121511.177500", "121511.637500", "121512.097500", "121512.557500", "121513.017500", "121513.477500", "121513.937500", "121514.397500", "121514.857500", "121515.317500", "121515.777500", "121516.237500", "121516.697500", "121517.157500", "121517.617500", "121518.077500", "121518.537500", "121518.997500", "121519.457500"],
