{
  "AcquisitionMatrixPE": 82,
  "AcquisitionNumber": 1,
  "AcquisitionTime": "12:22:45.457500",
  "BandwidthPerPixelPhaseEncode": 24.888,
  "BaseResolution": 82,
  "BodyPartExamined": "BRAIN",
  "ConsistencyInfo": "N4_VE11E_LATEST_20181129",
  "ConversionSoftware": "dcm2niix",
  "ConversionSoftwareVersion": "v1.0.20201102",
  "DerivedVendorReportedEchoSpacing": 0.00049,
  "DeviceSerialNumber": "66112",
  "DwellTime": 2e-06,
  "EchoTime": 0.0272,
  "EchoTrainLength": 82,
  "EffectiveEchoSpacing": 0.00049,
  "FlipAngle": 44,
  "ImageComments": "Unaliased MB8/PE3",
  "ImageOrientationPatientDICOM": [0.999728, 0.0169928, 0.0159746, -0.0136107, 0.981292, -0.192044],
  "ImageType": [
    "ORIGINAL",
    "PRIMARY",
    "M",
    "MB",
    "ND",
    "NORM",
    "MOSAIC"
],
  "ImagingFrequency": 123.259,
  "InPlanePhaseEncodingDirectionDICOM": "COL",
  "InstitutionAddress": "Maynard 3,Hanover,NH,US,03755",
  "InstitutionName": "Dartmouth College - PBS",
  "InstitutionalDepartmentName": "Department",
  "MRAcquisitionType": "2D",
  "MagneticFieldStrength": 3,
  "Manufacturer": "Siemens",
  "ManufacturersModelName": "Prisma",
  "Modality": "MR",
  "MultibandAccelerationFactor": 8,
  "PartialFourier": 1,
  "PatientPosition": "HFS",
  "PercentPhaseFOV": 100,
  "PercentSampling": 100,
  "PhaseEncodingDirection": "j-",
  "PhaseEncodingSteps": 82,
  "PhaseResolution": 1,
  "PixelBandwidth": 3050,
  "ProcedureStepDescription": "Wager_Wager^1076_spacetop",
  "ProtocolName": "func_run-05_task-social_acq-ap-mb8",
  "PulseSequenceDetails": "%CustomerSeq%\\cmrr_mbep2d_bold",
  "ReceiveCoilActiveElements": "HEA;HEP",
  "ReceiveCoilName": "Head_32",
  "ReconMatrixPE": 82,
  "RepetitionTime": 0.46,
  "SAR": 0.124673,
  "ScanOptions": "FS",
  "ScanningSequence": "EP",
  "SequenceName": "epfid2d1_82",
  "SequenceVariant": "SK\\SS",
  "SeriesDescription": "func_run-05_task-social_acq-ap-mb8",
  "SeriesNumber": 20,
  "ShimSetting": [4220, -7770, -7239, 87, -133, -21, 110, 99],
  "SliceThickness": 2.7,
  "SliceTiming": [0, 0.2525, 0.0625, 0.315, 0.125, 0.3775, 0.19, 0, 0.2525, 0.0625, 0.315, 0.125, 0.3775, 0.19, 0, 0.2525, 0.0625, 0.315, 0.125, 0.3775, 0.19, 0, 0.2525, 0.0625, 0.315, 0.125, 0.3775, 0.19, 0, 0.2525, 0.0625, 0.315, 0.125, 0.3775, 0.19, 0, 0.2525, 0.0625, 0.315, 0.125, 0.3775, 0.19, 0, 0.2525, 0.0625, 0.315, 0.125, 0.3775, 0.19, 0, 0.2525, 0.0625, 0.315, 0.125, 0.3775, 0.19],
  "SoftwareVersions": "syngo MR E11",
  "SpacingBetweenSlices": 2.7,
  "StationName": "AWP66112",
  "TaskName": "social",
  "TotalReadoutTime": 0.03969,
  "TxRefAmp": 314.567,
  "WipMemBlock": "210e0c36-7c7d-4926-bec5-15b53cfc8cde||Sequence: R016 ve11e/master r/434b28f1; Aug  7 2019 18:53:46 by eja",
  "dcmmeta_affine": [
    [-2.682197093963623, -0.036516595631837845, 0.05113548785448074, 111.96110534667969],
    [-0.04559031501412392, 2.632734537124634, -0.5177911520004272, -74.90483093261719],
    [0.04285858944058418, 0.5152404308319092, 2.6493918895721436, -102.81632995605469],
    [0.0, 0.0, 0.0, 1.0]
],
  "dcmmeta_reorient_transform": [
    [0.0, -1.0, 0.0, 81.0],
    [1.0, 0.0, 0.0, 0.0],
    [0.0, 0.0, 1.0, 0.0],
    [0.0, 0.0, 0.0, 1.0]
],
  "dcmmeta_shape": [82, 82, 56, 872],
  "dcmmeta_slice_dim": 2,
  "dcmmeta_version": 0.6,
  "global": {
    "const": {
      "AccessionNumber": "A004351",
      "AcquisitionMatrix": [82, 0, 0, 82],
      "AngioFlag": "N",
      "BitsAllocated": 16,
      "BitsStored": 16,
      "BodyPartExamined": "BRAIN",
      "Columns": 656,
      "EchoNumbers": 1,
      "EchoTime": 27.2,
      "EchoTrainLength": 82,
      "FlipAngle": 44.0,
      "HighBit": 15,
      "ImageOrientationPatient": [0.99972799280678, 0.01699275326969, 0.0159745652471, -0.0136107314127, 0.98129189832295, -0.1920441570997],
      "ImagePositionPatient": [-868.31356754076, -907.02585560919, 74.491735857422],
      "ImageType": [
        "ORIGINAL",
        "PRIMARY",
        "M",
        "MB",
        "ND",
        "NORM",
        "MOSAIC"
],
      "ImagedNucleus": "1H",
      "ImagingFrequency": 123.25907,
      "InPlanePhaseEncodingDirection": "COL",
      "MRAcquisitionType": "2D",
      "MagneticFieldStrength": 3.0,
      "Manufacturer": "SIEMENS",
      "ManufacturerModelName": "Prisma",
      "Modality": "MR",
      "NumberOfAverages": 1.0,
      "NumberOfPhaseEncodingSteps": 82,
      "PercentPhaseFieldOfView": 100.0,
      "PercentSampling": 100.0,
      "PerformedProcedureStepStartTime": "111945.397000",
      "PhotometricInterpretation": "MONOCHROME2",
      "PixelBandwidth": 3050.0,
      "PixelRepresentation": 0,
      "PixelSpacing": [2.6829268932343, 2.6829268932343],
      "ProtocolName": "func_run-05_task-social_acq-ap-mb8",
      "RepetitionTime": 460.0,
      "Rows": 656,
      "SAR": 0.12467283230018,
      "SamplesPerPixel": 1,
      "ScanOptions": "FS",
      "ScanningSequence": "EP",
      "SequenceName": "epfid2d1_82",
      "SequenceVariant": [
        "SK",
        "SS"
],
      "SeriesDescription": "func_run-05_task-social_acq-ap-mb8",
      "SeriesNumber": 20,
      "SeriesTime": "122311.893000",
      "SliceLocation": -84.403890460533,
      "SliceThickness": 2.7000000476837,
      "SmallestImagePixelValue": 0,
      "SoftwareVersions": "syngo MR E11",
      "SpacingBetweenSlices": 2.6999999611706,
      "SpecificCharacterSet": "ISO_IR 100",
      "StudyID": "4",
      "StudyTime": "111945.348000",
      "TransmitCoilName": "Body",
      "VariableFlipAngleFlag": "N",
      "WindowCenterWidthExplanation": "Algo1"
    },
    "slices": {}
  },
  "time": {
    "samples": {
      "AcquisitionNumber": [1, 2, 3, 4, 5, 6, 7, 8, 9, 10, 11, 12, 13, 14, 15, 16, 17, 18, 19, 20, 21, 22, 23, 24, 25, 26, 27, 28, 29, 30, 31, 32, 33, 34, 35, 36, 37, 38, 39, 40, 41, 42, 43, 44, 45, 46, 47, 48, 49, 50, 51, 52, 53, 54, 55, 56, 57, 58, 59, 60, 61, 62, 63, 64, 65, 66, 67, 68, 69, 70, 71, 72, 73, 74, 75, 76, 77, 78, 79, 80, 81, 82, 83, 84, 85, 86, 87, 88, 89, 90, 91, 92, 93, 94, 95, 96, 97, 98, 99, 100, 101, 102, 103, 104, 105, 106, 107, 108, 109, 110, 111, 112, 113, 114, 115, 116, 117, 118, 119, 120, 121, 122, 123, 124, 125, 126, 127, 128, 129, 130, 131, 132, 133, 134, 135, 136, 137, 138, 139, 140, 141, 142, 143, 144, 145, 146, 147, 148, 149, 150, 151, 152, 153, 154, 155, 156, 157, 158, 159, 160, 161, 162, 163, 164, 165, 166, 167, 168, 169, 170, 171, 172, 173, 174, 175, 176, 177, 178, 179, 180, 181, 182, 183, 184, 185, 186, 187, 188, 189, 190, 191, 192, 193, 194, 195, 196, 197, 198, 199, 200, 201, 202, 203, 204, 205, 206, 207, 208, 209, 210, 211, 212, 213, 214, 215, 216, 217, 218, 219, 220, 221, 222, 223, 224, 225, 226, 227, 228, 229, 230, 231, 232, 233, 234, 235, 236, 237, 238, 239, 240, 241, 242, 243, 244, 245, 246, 247, 248, 249, 250, 251, 252, 253, 254, 255, 256, 257, 258, 259, 260, 261, 262, 263, 264, 265, 266, 267, 268, 269, 270, 271, 272, 273, 274, 275, 276, 277, 278, 279, 280, 281, 282, 283, 284, 285, 286, 287, 288, 289, 290, 291, 292, 293, 294, 295, 296, 297, 298, 299, 300, 301, 302, 303, 304, 305, 306, 307, 308, 309, 310, 311, 312, 313, 314, 315, 316, 317, 318, 319, 320, 321, 322, 323, 324, 325, 326, 327, 328, 329, 330, 331, 332, 333, 334, 335, 336, 337, 338, 339, 340, 341, 342, 343, 344, 345, 346, 347, 348, 349, 350, 351, 352, 353, 354, 355, 356, 357, 358, 359, 360, 361, 362, 363, 364, 365, 366, 367, 368, 369, 370, 371, 372, 373, 374, 375, 376, 377, 378, 379, 380, 381, 382, 383, 384, 385, 386, 387, 388, 389, 390, 391, 392, 393, 394, 395, 396, 397, 398, 399, 400, 401, 402, 403, 404, 405, 406, 407, 408, 409, 410, 411, 412, 413, 414, 415, 416, 417, 418, 419, 420, 421, 422, 423, 424, 425, 426, 427, 428, 429, 430, 431, 432, 433, 434, 435, 436, 437, 438, 439, 440, 441, 442, 443, 444, 445, 446, 447, 448, 449, 450, 451, 452, 453, 454, 455, 456, 457, 458, 459, 460, 461, 462, 463, 464, 465, 466, 467, 468, 469, 470, 471, 472, 473, 474, 475, 476, 477, 478, 479, 480, 481, 482, 483, 484, 485, 486, 487, 488, 489, 490, 491, 492, 493, 494, 495, 496, 497, 498, 499, 500, 501, 502, 503, 504, 505, 506, 507, 508, 509, 510, 511, 512, 513, 514, 515, 516, 517, 518, 519, 520, 521, 522, 523, 524, 525, 526, 527, 528, 529, 530, 531, 532, 533, 534, 535, 536, 537, 538, 539, 540, 541, 542, 543, 544, 545, 546, 547, 548, 549, 550, 551, 552, 553, 554, 555, 556, 557, 558, 559, 560, 561, 562, 563, 564, 565, 566, 567, 568, 569, 570, 571, 572, 573, 574, 575, 576, 577, 578, 579, 580, 581, 582, 583, 584, 585, 586, 587, 588, 589, 590, 591, 592, 593, 594, 595, 596, 597, 598, 599, 600, 601, 602, 603, 604, 605, 606, 607, 608, 609, 610, 611, 612, 613, 614, 615, 616, 617, 618, 619, 620, 621, 622, 623, 624, 625, 626, 627, 628, 629, 630, 631, 632, 633, 634, 635, 636, 637, 638, 639, 640, 641, 642, 643, 644, 645, 646, 647, 648, 649, 650, 651, 652, 653, 654, 655, 656, 657, 658, 659, 660, 661, 662, 663, 664, 665, 666, 667, 668, 669, 670, 671, 672, 673, 674, 675, 676, 677, 678, 679, 680, 681, 682, 683, 684, 685, 686, 687, 688, 689, 690, 691, 692, 693, 694, 695, 696, 697, 698, 699, 700, 701, 702, 703, 704, 705, 706, 707, 708, 709, 710, 711, 712, 713, 714, 715, 716, 717, 718, 719, 720, 721, 722, 723, 724, 725, 726, 727, 728, 729, 730, 731, 732, 733, 734, 735, 736, 737, 738, 739, 740, 741, 742, 743, 744, 745, 746, 747, 748, 749, 750, 751, 752, 753, 754, 755, 756, 757, 758, 759, 760, 761, 762, 763, 764, 765, 766, 767, 768, 769, 770, 771, 772, 773, 774, 775, 776, 777, 778, 779, 780, 781, 782, 783, 784, 785, 786, 787, 788, 789, 790, 791, 792, 793, 794, 795, 796, 797, 798, 799, 800, 801, 802, 803, 804, 805, 806, 807, 808, 809, 810, 811, 812, 813, 814, 815, 816, 817, 818, 819, 820, 821, 822, 823, 824, 825, 826, 827, 828, 829, 830, 831, 832, 833, 834, 835, 836, 837, 838, 839, 840, 841, 842, 843, 844, 845, 846, 847, 848, 849, 850, 851, 852, 853, 854, 855, 856, 857, 858, 859, 860, 861, 862, 863, 864, 865, 866, 867, 868, 869, 870, 871, 872],
      "AcquisitionTime": ["122245.457500", "122245.917500", "122246.377500", "122246.837500", "122247.297500", "122247.757500", "122248.217500", "122248.677500", "122249.137500", "122249.597500", "122250.057500", "122250.517500", "122250.977500", "122251.437500", "122251.897500", "122252.357500", "122252.817500", "122253.277500", "122253.737500", "122254.197500", "122254.657500", "122255.117500", "122255.577500", "122256.037500", "122256.497500", "122256.957500", "122257.417500", "122257.877500", "122258.337500", "122258.797500", "122259.257500", "122259.717500", "122300.177500", "122300.637500", "122301.097500", "122301.557500", "122302.017500", "122302.477500", "122302.937500", "122303.397500", "122303.857500", "122304.317500", "122304.777500", "122305.237500", "122305.697500", "122306.157500", "122306.617500", "122307.077500", "122307.537500", "122307.997500", "122308.457500", "122308.917500", "122309.377500", "122309.837500", "122310.297500", "122310.757500", "122311.217500", "122311.677500", "122312.137500", "122312.597500", "122313.057500", "122313.517500", "122313.977500", "122314.437500", "122314.897500", "122315.357500", "122315.817500", "122316.277500", "122316.737500", "122317.197500", "122317.657500", "122318.117500", "122318.577500", "122319.037500", "122319.497500", "122319.957500", "122320.417500", "122320.877500", "122321.337500", "122321.797500", "122322.257500", "122322.717500", "122323.177500", "122323.637500", "122324.097500", "122324.557500", "122325.017500", "122325.477500", "122325.937500", "122326.397500", "122326.857500", "122327.317500", "122327.777500", "122328.237500", "122328.697500", "122329.157500", "122329.617500", "122330.077500", "122330.537500", "122330.997500", "122331.457500", "122331.917500", "122332.377500", "122332.837500", "122333.297500", "122333.757500", "122334.217500", "122334.677500", "122335.137500", "122335.597500", "122336.057500", "122336.517500", "122336.977500", "122337.437500", "122337.897500", "122338.357500", "122338.817500", "122339.277500", "122339.737500", "122340.197500", "122340.657500", "122341.117500", "122341.577500", "122342.037500", "122342.497500", "122342.957500", "122343.417500", "122343.877500", "122344.337500", "122344.797500", "122345.257500", "122345.717500", "122346.177500", "122346.637500", "122347.097500", "122347.557500", "122348.017500", "122348.477500", "122348.937500", "122349.397500", "122349.857500", "122350.317500", "122350.777500", "122351.237500", "122351.697500", "122352.157500", "122352.617500", "122353.077500", "122353.537500", "122353.997500", "122354.457500", "122354.917500", "122355.377500", "122355.837500", "122356.297500", "122356.757500", "122357.217500", "122357.677500", "122358.137500", "122358.597500", "122359.057500", "122359.517500", "122359.977500", "122400.437500", "122400.897500", "122401.357500", "122401.817500", "122402.277500", "122402.737500", "122403.197500", "122403.657500", "122404.117500", "122404.577500", "122405.037500", "122405.497500", "122405.957500", "122406.417500", "122406.877500", "122407.337500", "122407.797500", "122408.257500", "122408.717500", "122409.177500", "122409.637500", "122410.097500", "122410.557500", "122411.017500", "122411.477500", "122411.937500", "122412.397500", "122412.857500", "122413.317500", "122413.777500", "122414.237500", "122414.697500", "122415.157500", "122415.617500", "122416.077500", "122416.537500", "122416.997500", "122417.457500", "122417.917500", "122418.377500", "122418.837500", "122419.297500", "122419.757500", "122420.217500", "122420.677500", "122421.137500", "122421.597500", "122422.057500", "122422.517500", "122422.977500", "122423.437500", "122423.897500", "122424.357500", "122424.817500", "122425.277500", "122425.737500", "122426.197500", "122426.657500", "122427.117500", "122427.577500", "122428.037500", "122428.497500", "122428.957500", "122429.417500", "122429.877500", "122430.337500", "122430.797500", "122431.257500", "122431.717500", "122432.177500", "122432.637500", "122433.097500", "122433.557500", "122434.017500", "122434.477500", "122434.937500", "122435.397500", "122435.857500", "122436.317500", "122436.777500", "122437.237500", "122437.697500", "122438.157500", "122438.617500", "122439.077500", "122439.537500", "122439.997500", "122440.457500", "122440.917500", "122441.377500", "122441.837500", "122442.297500", "122442.757500", "122443.217500", "122443.677500", "122444.137500", "122444.597500", "122445.057500", "122445.517500", "122445.977500", "122446.437500", "122446.897500", "122447.357500", "122447.817500", "122448.277500", "122448.737500", "122449.197500", "122449.657500", "122450.117500", "122450.577500", "122451.037500", "122451.497500", "122451.957500", "122452.417500", "122452.877500", "122453.337500", "122453.797500", "122454.257500", "122454.717500", "122455.177500", "122455.637500", "122456.097500", "122456.557500", "122457.017500", "122457.477500", "122457.937500", "122458.397500", "122458.857500", "122459.317500", "122459.777500", "122500.237500", "122500.697500", "122501.157500", "122501.617500", "122502.077500", "122502.537500", "122502.997500", "122503.457500", "122503.917500", "122504.377500", "122504.837500", "122505.297500", "122505.757500", "122506.217500", "122506.677500", "122507.137500", "122507.597500", "122508.057500", "122508.517500", "122508.977500", "122509.437500", "122509.897500", "122510.357500", "122510.817500", "122511.277500", "122511.737500", "122512.197500", "122512.657500", "122513.117500", "122513.577500", "122514.037500", "122514.497500", "122514.957500", "122515.417500", "122515.877500", "122516.337500", "122516.797500", "122517.257500", "122517.717500", "122518.177500", "122518.637500", "122519.097500", "122519.557500", "122520.017500", "122520.477500", "122520.937500", "122521.397500", "122521.857500", "122522.317500", "122522.777500", "122523.237500", "122523.697500", "122524.157500", "122524.617500", "122525.077500", "122525.537500", "122525.997500", "122526.457500", "122526.917500", "122527.377500", "122527.837500", "122528.297500", "122528.757500", "122529.217500", "122529.677500", "122530.137500", "122530.597500", "122531.057500", "122531.517500", "122531.977500", "122532.437500", "122532.897500", "122533.357500", "122533.817500", "122534.277500", "122534.737500", "122535.197500", "122535.657500", "122536.117500", "122536.577500", "122537.037500", "122537.497500", "122537.957500", "122538.417500", "122538.877500", "122539.337500", "122539.797500", "122540.257500", "122540.717500", "122541.177500", "122541.637500", "122542.097500", "122542.557500", "122543.017500", "122543.477500", "122543.937500", "122544.397500", "122544.857500", "122545.317500", "122545.777500", "122546.237500", "122546.697500", "122547.157500", "122547.617500", "122548.077500", "122548.537500", "122548.997500", "122549.457500", "122549.917500", "122550.377500", "122550.837500", "122551.297500", "122551.757500", "122552.217500", "122552.677500", "122553.137500", "122553.597500", "122554.057500", "122554.517500", "122554.977500", "122555.437500", "122555.897500", "122556.357500", "122556.817500", "122557.277500", "122557.737500", "122558.197500", "122558.657500", "122559.117500", "122559.577500", "122600.037500", "122600.497500", "122600.957500", "122601.417500", "122601.877500", "122602.337500", "122602.797500", "122603.257500", "122603.717500", "122604.177500", "122604.637500", "122605.097500", "122605.557500", "122606.017500", "122606.477500", "122606.937500", "122607.397500", "122607.857500", "122608.317500", "122608.777500", "122609.237500", "122609.697500", "122610.157500", "122610.617500", "122611.077500", "122611.537500", "122611.997500", "122612.457500", "122612.917500", "122613.377500", "122613.837500", "122614.297500", "122614.757500", "122615.217500", "122615.677500", "122616.137500", "122616.597500", "122617.057500", "122617.517500", "122617.977500", "122618.437500", "122618.897500", "122619.357500", "122619.817500", "122620.277500", "122620.737500", "122621.197500", "122621.657500", "122622.117500", "122622.577500", "122623.037500", "122623.497500", "122623.957500", "122624.417500", "122624.877500", "122625.337500", "122625.797500", "122626.257500", "122626.717500", "122627.177500", "122627.637500", "122628.097500", "122628.557500", "122629.017500", "122629.477500", "122629.937500", "122630.397500", "122630.857500", "122631.317500", "122631.777500", "122632.237500", "122632.697500", "122633.157500", "122633.617500", "122634.077500", "122634.537500", "122634.997500", "122635.457500", "122635.917500", "122636.377500", "122636.837500", "122637.297500", "122637.757500", "122638.217500", "122638.677500", "122639.137500", "122639.597500", "122640.057500", "122640.517500", "122640.977500", "122641.437500", "122641.897500", "122642.357500", "122642.817500", "122643.277500", "122643.737500", "122644.197500", "122644.657500", "122645.117500", "122645.577500", "122646.037500", "122646.497500", "122646.957500", "122647.417500", "122647.877500", "122648.337500", "122648.797500", "122649.257500", "122649.717500", "122650.177500", "122650.637500", "122651.097500", "122651.557500", "122652.017500", "122652.477500", "122652.937500", "122653.397500", "122653.857500", "122654.317500", "122654.777500", "122655.237500", "122655.697500", "122656.157500", "122656.617500", "122657.077500", "122657.537500", "122657.997500", "122658.457500", "122658.917500", "122659.377500", "122659.837500", "122700.297500", "122700.757500", "122701.217500", "122701.677500", "122702.137500", "122702.597500", "122703.057500", "122703.517500", "122703.977500", "122704.437500", "122704.897500", "122705.357500", "122705.817500", "122706.277500", "122706.737500", "122707.197500", "122707.657500", "122708.117500", "122708.577500", "122709.037500", "122709.497500", "122709.957500", "122710.417500", "122710.877500", "122711.337500", "122711.797500", "122712.257500", "122712.717500", "122713.177500", "122713.637500", "122714.097500", "122714.557500", "122715.017500", "122715.477500", "122715.937500", "122716.397500", "122716.857500", "122717.317500", "122717.777500", "122718.237500", "122718.697500", "122719.157500", "122719.617500", "122720.077500", "122720.537500", "122720.997500", "122721.457500", "122721.917500", "122722.377500", "122722.837500", "122723.297500", "122723.757500", "122724.217500", "122724.677500", "122725.137500", "122725.597500", "122726.057500", "122726.517500", "122726.977500", "122727.437500", "122727.897500", "122728.357500", "122728.817500", "122729.277500", "122729.737500", "122730.197500", "122730.657500", "122731.117500", "122731.577500", "122732.037500", "122732.497500", "122732.957500", "122733.417500", "122733.877500", "122734.337500", "122734.797500", "122735.257500", "122735.717500", "122736.177500", "122736.637500", "122737.097500", "122737.557500", "122738.017500", "122738.477500", "122738.937500", "122739.397500", "122739.857500", "122740.317500", "122740.777500", "122741.237500", "122741.697500", "122742.157500", "122742.617500", "122743.077500", "122743.537500", "122743.997500", "122744.457500", "122744.917500", "122745.377500", "122745.837500", "122746.297500", "122746.757500", "122747.217500", "122747.677500", "122748.137500", "122748.597500", "122749.057500", "122749.517500", "122749.977500", "122750.437500", "122750.897500", "122751.357500", "122751.817500", "122752.277500", "122752.737500", "122753.197500", "122753.657500", "122754.117500", "122754.577500", "122755.037500", "122755.497500", "122755.957500", "122756.417500", "122756.877500", "122757.337500", "122757.797500", "122758.257500", "122758.717500", "122759.177500", "122759.637500", "122800.097500", "122800.557500", "122801.017500", "122801.477500", "122801.937500", "122802.397500", "122802.857500", "122803.317500", "122803.777500", "122804.237500", "122804.697500", "122805.157500", "122805.617500", "122806.077500", "122806.537500", "122806.997500", "122807.457500", "122807.917500", "122808.377500", "122808.837500", "122809.297500", "122809.757500", "122810.217500", "122810.677500", "122811.137500", "122811.597500", "122812.057500", "122812.517500", "122812.977500", "122813.437500", "122813.897500", "122814.357500", "122814.817500", "122815.277500", "122815.737500", "122816.197500", "122816.657500", "122817.117500", "122817.577500", "122818.037500", "122818.497500", "122818.957500", "122819.417500", "122819.877500", "122820.337500", "122820.797500", "122821.257500", "122821.717500", "122822.177500", "122822.637500", "122823.097500", "122823.557500", "122824.017500", "122824.477500", "122824.937500", "122825.397500", "122825.857500", "122826.317500", "122826.777500", "122827.237500", "122827.697500", "122828.157500", "122828.617500", "122829.077500", "122829.537500", "122829.997500", "122830.457500", "122830.917500", "122831.377500", "122831.837500", "122832.297500", "122832.757500", "122833.217500", "122833.677500", "122834.137500", "122834.597500", "122835.057500", "122835.517500", "122835.977500", "122836.437500", "122836.897500", "122837.357500", "122837.817500", "122838.277500", "122838.737500", "122839.197500", "122839.657500", "122840.117500", "122840.577500", "122841.037500", "122841.497500", "122841.957500", "122842.417500", "122842.877500", "122843.337500", "122843.797500", "122844.257500", "122844.717500", "122845.177500", "122845.637500", "122846.097500", "122846.557500", "122847.017500", "122847.477500", "122847.937500", "122848.397500", "122848.857500", "122849.317500", "122849.777500", "122850.237500", "122850.697500", "122851.157500", "122851.617500", "122852.077500", "122852.537500", "122852.997500", "122853.457500", "122853.917500", "122854.377500", "122854.837500", "122855.297500", "122855.757500", "122856.217500", "122856.677500", "122857.137500", "122857.597500", "122858.057500", "122858.517500", "122858.977500", "122859.437500", "122859.897500", "122900.357500", "122900.817500", "122901.277500", "122901.737500", "122902.197500", "122902.657500", "122903.117500", "122903.577500", "122904.037500", "122904.497500", "122904.957500", "122905.417500", "122905.877500", "122906.337500", "122906.797500", "122907.257500", "122907.717500", "122908.177500", "122908.637500", "122909.097500", "122909.557500", "122910.017500", "122910.477500", "122910.937500", "122911.397500", "122911.857500", "122912.317500", "122912.777500", "122913.237500", "122913.697500", "122914.157500", "122914.617500", "122915.077500", "122915.537500", "122915.997500", "122916.457500", "122916.917500", "122917.377500", "122917.837500", "122918.297500", "122918.757500", "122919.217500", "122919.677500", "122920.137500", "122920.597500", "122921.057500", "122921.517500", "122921.977500", "122922.437500", "122922.897500", "122923.357500", "122923.817500", "122924.277500", "122924.737500", "122925.197500", "122925.657500", "122926.117500"],
