{
  "AcquisitionMatrixPE": 140,
  "AcquisitionNumber": 1,
  "AcquisitionTime": "15:39:0.035000",
  "BandwidthPerPixelPhaseEncode": 10.352,
  "BaseResolution": 140,
  "BodyPartExamined": "BRAIN",
  "ConsistencyInfo": "N4_VE11C_LATEST_20160120",
  "ConversionSoftware": "dcm2niix",
  "ConversionSoftwareVersion": "v1.0.20201102",
  "DerivedVendorReportedEchoSpacing": 0.000689998,
  "DeviceSerialNumber": "66112",
  "DiffusionScheme": "Monopolar",
  "DwellTime": 2.1e-06,
  "EchoTime": 0.088,
  "EchoTrainLength": 105,
  "EffectiveEchoSpacing": 0.000689998,
  "FlipAngle": 90,
  "ImageComments": "Unaliased MB3/PE3",
  "ImageOrientationPatientDICOM": [0.99813, 0.0591626, 0.0153483, -0.0598243, 0.997102, 0.0469967],
  "ImageType": [
    "ORIGINAL",
    "PRIMARY",
    "DIFFUSION",
    "NONE",
    "MB",
    "ND"
],
  "ImagingFrequency": 123.252,
  "InPlanePhaseEncodingDirectionDICOM": "COL",
  "InstitutionAddress": "Maynard 3,Hanover,NH,US,03755",
  "InstitutionName": "Dartmouth College - PBS",
  "InstitutionalDepartmentName": "Department",
  "IntendedFor": [
    "ses-01/dwi/sub-0021_ses-01_acq-96dirX6b0Xmb_dwi.nii.gz"
],
  "MRAcquisitionType": "2D",
  "MagneticFieldStrength": 3,
  "Manufacturer": "Siemens",
  "ManufacturersModelName": "Prisma",
  "Modality": "MR",
  "MultibandAccelerationFactor": 3,
  "PartialFourier": 0.75,
  "PatientPosition": "HFS",
  "PercentPhaseFOV": 100,
  "PercentSampling": 100,
  "PhaseEncodingDirection": "j-",
  "PhaseEncodingSteps": 105,
  "PhaseResolution": 1,
  "PixelBandwidth": 1700,
  "ProcedureStepDescription": "Wager_Wager^1076_spacetop",
  "ProtocolName": "dwi_acq-discorr-AP",
  "PulseSequenceDetails": "%CustomerSeq%\\cmrr_mbep2d_diff",
  "ReceiveCoilActiveElements": "HEA;HEP",
  "ReceiveCoilName": "Head_32",
  "ReconMatrixPE": 140,
  "RepetitionTime": 4.1,
  "SAR": 0.176883,
  "ScanOptions": "PFP\\FS",
  "ScanningSequence": "EP",
  "SequenceName": "ep_b0",
  "SequenceVariant": "SK\\SS",
  "SeriesDescription": "dwi_acq-discorr-AP",
  "SeriesNumber": 7,
  "ShimSetting": [4146, -7720, -7224, 507, -30, 1, -144, 59],
  "SliceThickness": 1.7,
  "SliceTiming": [0, 2.125, 0.15625, 2.26562, 0.3125, 2.42188, 0.45312, 2.57812, 0.60938, 2.71875, 0.76562, 2.875, 0.90625, 3.03125, 1.0625, 3.17188, 1.21875, 3.32812, 1.35938, 3.48438, 1.51562, 3.625, 1.67188, 3.78125, 1.8125, 3.9375, 1.96875, 0, 2.125, 0.15625, 2.26562, 0.3125, 2.42188, 0.45312, 2.57812, 0.60938, 2.71875, 0.76562, 2.875, 0.90625, 3.03125, 1.0625, 3.17188, 1.21875, 3.32812, 1.35938, 3.48438, 1.51562, 3.625, 1.67188, 3.78125, 1.8125, 3.9375, 1.96875, 0, 2.125, 0.15625, 2.26562, 0.3125, 2.42188, 0.45312, 2.57812, 0.60938, 2.71875, 0.76562, 2.875, 0.90625, 3.03125, 1.0625, 3.17188, 1.21875, 3.32812, 1.35938, 3.48438, 1.51562, 3.625, 1.67188, 3.78125, 1.8125, 3.9375, 1.96875],
  "SoftwareVersions": "syngo MR E11",
  "SpacingBetweenSlices": 1.7,
  "StationName": "AWP66112",
  "TotalReadoutTime": 0.0959097,
  "TxRefAmp": 252.242,
  "WipMemBlock": "b7f55c75-9d2e-4b3a-a5b5-6f02a17760af||Sequence: R016 ve11c/master r/e634e98; Dec 19 2017 11:11:25 by eja",
  "dcmmeta_affine": [
    [-1.7110806703567505, -0.10255599021911621, 0.021289825439453125, 127.83879089355469],
    [-0.10142162442207336, 1.709317684173584, 0.08130645751953125, -100.17684173583984],
    [0.026311304420232773, -0.08056569844484329, 1.6979217529296875, -32.10658645629883],
    [0.0, 0.0, 0.0, 1.0]
],
  "dcmmeta_reorient_transform": [
    [0.0, -1.0, 0.0, 139.0],
    [1.0, 0.0, 0.0, 0.0],
    [0.0, 0.0, -1.0, 80.0],
    [0.0, 0.0, 0.0, 1.0]
],
  "dcmmeta_shape": [140, 140, 81],
  "dcmmeta_slice_dim": 2,
  "dcmmeta_version": 0.6,
  "global": {
    "const": {
      "AccessionNumber": "A003587",
      "AcquisitionMatrix": [140, 0, 0, 140],
      "AcquisitionNumber": 1,
      "AngioFlag": "N",
      "BitsAllocated": 16,
      "BitsStored": 16,
      "BodyPartExamined": "BRAIN",
      "Columns": 140,
      "EchoNumbers": 1,
      "EchoTime": 88.0,
      "EchoTrainLength": 105,
      "FlipAngle": 90.0,
      "HighBit": 15,
      "ImageOrientationPatient": [0.99813036016569, 0.05916261484158, 0.01534826115953, -0.0598243274813, 0.99710198276515, 0.04699665740479],
      "ImageType": [
        "ORIGINAL",
        "PRIMARY",
        "DIFFUSION",
        "NONE",
        "MB",
        "ND"
],
      "ImagedNucleus": "1H",
      "ImagingFrequency": 123.252159,
      "InPlanePhaseEncodingDirection": "COL",
      "MRAcquisitionType": "2D",
      "MagneticFieldStrength": 3.0,
      "Manufacturer": "SIEMENS",
      "ManufacturerModelName": "Prisma",
      "Modality": "MR",
      "NumberOfAverages": 1.0,
      "NumberOfPhaseEncodingSteps": 105,
      "PercentPhaseFieldOfView": 100.0,
      "PercentSampling": 100.0,
      "PerformedProcedureStepStartTime": "153007.324000",
      "PhotometricInterpretation": "MONOCHROME2",
      "PixelBandwidth": 1700.0,
      "PixelRepresentation": 0,
      "PixelSpacing": [1.7142857313156, 1.7142857313156],
      "ProtocolName": "dwi_acq-discorr-AP",
      "RepetitionTime": 4100.0,
      "Rows": 140,
      "SAR": 0.17688255315327,
      "SamplesPerPixel": 1,
      "ScanOptions": [
        "PFP",
        "FS"
],
      "ScanningSequence": "EP",
      "SequenceName": "ep_b0",
      "SequenceVariant": [
        "SK",
        "SS"
],
      "SeriesDescription": "dwi_acq-discorr-AP",
      "SeriesNumber": 7,
      "SeriesTime": "153904.402000",
      "SliceThickness": 1.7000000476837,
      "SmallestImagePixelValue": 0,
      "SoftwareVersions": "syngo MR E11",
      "SpacingBetweenSlices": 1.7,
      "SpecificCharacterSet": "ISO_IR 100",
      "StudyID": "2",
      "StudyTime": "153007.224000",
      "TransmitCoilName": "Body",
      "VariableFlipAngleFlag": "N",
      "WindowCenterWidthExplanation": "Algo1",
      "dBdt": 0.0},
    "slices": {
      "AcquisitionTime": ["153900.035000", "153902.150000", "153900.187500", "153902.302500", "153900.337500", "153902.452500", "153900.487500", "153902.605000", "153900.640000", "153902.755000", "153900.790000", "153902.907500", "153900.942500", "153903.057500", "153901.092500", "153903.207500", "153901.245000", "153903.360000", "153901.395000", "153903.510000", "153901.547500", "153903.662500", "153901.697500", "153903.812500", "153901.847500", "153903.965000", "153902.000000", "153900.035000", "153902.150000", "153900.187500", "153902.302500", "153900.337500", "153902.452500", "153900.487500", "153902.605000", "153900.640000", "153902.755000", "153900.790000", "153902.907500", "153900.942500", "153903.057500", "153901.092500", "153903.207500", "153901.245000", "153903.360000", "153901.395000", "153903.510000", "153901.547500", "153903.662500", "153901.697500", "153903.812500", "153901.847500", "153903.965000", "153902.000000", "153900.035000", "153902.150000", "153900.187500", "153902.302500", "153900.337500", "153902.452500", "153900.487500", "153902.605000", "153900.640000", "153902.755000", "153900.790000", "153902.907500", "153900.942500", "153903.057500", "153901.092500", "153903.207500", "153901.245000", "153903.360000", "153901.395000", "153903.510000", "153901.547500", "153903.662500", "153901.697500", "153903.812500", "153901.847500", "153903.965000", "153902.000000"],
      "ContentTime": ["153904.406000", "153904.535000", "153904.436000", "153904.542000", "153904.443000", "153904.549000", "153904.459000", "153904.555000", "153904.466000", "153904.562000", "153904.473000", "153904.569000", "153904.480000", "153904.576000", "153904.487000", "153904.589000", "153904.493000", "153904.597000", "153904.500000", "153904.604000", "153904.507000", "153904.611000", "153904.514000", "153904.618000", "153904.521000", "153904.625000", "153904.528000", "153904.410000", "153904.537000", "153904.438000", "153904.544000", "153904.454000", "153904.551000", "153904.461000", "153904.558000", "153904.469000", "153904.564000", "153904.476000", "153904.571000", "153904.482000", "153904.578000", "153904.489000", "153904.592000", "153904.496000", "153904.599000", "153904.503000", "153904.606000", "153904.509000", "153904.613000", "153904.516000", "153904.621000", "153904.524000", "153904.627000", "153904.531000", "153904.433000", "153904.539000", "153904.441000", "153904.546000", "153904.456000", "153904.553000", "153904.464000", "153904.560000", "153904.471000", "153904.566000", "153904.478000", "153904.573000", "153904.485000", "153904.587000", "153904.491000", "153904.594000", "153904.498000", "153904.601000", "153904.505000", "153904.609000", "153904.512000", "153904.616000", "153904.519000", "153904.623000", "153904.526000", "153904.630000", "153904.533000"],
      "CsaImage.ICE_Dims": [
        "X_1_1_1_1_1_1_1_1_1_1_1_25",
        "X_1_1_1_1_1_1_42_1_1_2_1_25",
        "X_1_1_1_1_1_1_2_1_1_3_1_25",
        "X_1_1_1_1_1_1_43_1_1_4_1_25",
        "X_1_1_1_1_1_1_3_1_1_5_1_25",
        "X_1_1_1_1_1_1_44_1_1_6_1_25",
        "X_1_1_1_1_1_1_4_1_1_7_1_25",
        "X_1_1_1_1_1_1_45_1_1_8_1_25",
        "X_1_1_1_1_1_1_5_1_1_9_1_25",
        "X_1_1_1_1_1_1_46_1_1_10_1_25",
        "X_1_1_1_1_1_1_6_1_1_11_1_25",
        "X_1_1_1_1_1_1_47_1_1_12_1_25",
        "X_1_1_1_1_1_1_7_1_1_13_1_25",
        "X_1_1_1_1_1_1_48_1_1_14_1_25",
        "X_1_1_1_1_1_1_8_1_1_15_1_25",
        "X_1_1_1_1_1_1_49_1_1_16_1_25",
        "X_1_1_1_1_1_1_9_1_1_17_1_25",
        "X_1_1_1_1_1_1_50_1_1_18_1_25",
        "X_1_1_1_1_1_1_10_1_1_19_1_25",
        "X_1_1_1_1_1_1_51_1_1_20_1_25",
        "X_1_1_1_1_1_1_11_1_1_21_1_25",
        "X_1_1_1_1_1_1_52_1_1_22_1_25",
        "X_1_1_1_1_1_1_12_1_1_23_1_25",
        "X_1_1_1_1_1_1_53_1_1_24_1_25",
        "X_1_1_1_1_1_1_13_1_1_25_1_25",
        "X_1_1_1_1_1_1_54_1_1_26_1_25",
        "X_1_1_1_1_1_1_14_1_1_27_1_25",
        "X_1_1_1_1_1_1_55_1_1_28_1_25",
        "X_1_1_1_1_1_1_15_1_1_29_1_25",
        "X_1_1_1_1_1_1_56_1_1_30_1_25",
        "X_1_1_1_1_1_1_16_1_1_31_1_25",
        "X_1_1_1_1_1_1_57_1_1_32_1_25",
        "X_1_1_1_1_1_1_17_1_1_33_1_25",
        "X_1_1_1_1_1_1_58_1_1_34_1_25",
        "X_1_1_1_1_1_1_18_1_1_35_1_25",
        "X_1_1_1_1_1_1_59_1_1_36_1_25",
        "X_1_1_1_1_1_1_19_1_1_37_1_25",
        "X_1_1_1_1_1_1_60_1_1_38_1_25",
        "X_1_1_1_1_1_1_20_1_1_39_1_25",
        "X_1_1_1_1_1_1_61_1_1_40_1_25",
        "X_1_1_1_1_1_1_21_1_1_41_1_25",
        "X_1_1_1_1_1_1_62_1_1_42_1_25",
        "X_1_1_1_1_1_1_22_1_1_43_1_25",
        "X_1_1_1_1_1_1_63_1_1_44_1_25",
        "X_1_1_1_1_1_1_23_1_1_45_1_25",
        "X_1_1_1_1_1_1_64_1_1_46_1_25",
        "X_1_1_1_1_1_1_24_1_1_47_1_25",
        "X_1_1_1_1_1_1_65_1_1_48_1_25",
        "X_1_1_1_1_1_1_25_1_1_49_1_25",
        "X_1_1_1_1_1_1_66_1_1_50_1_25",
        "X_1_1_1_1_1_1_26_1_1_51_1_25",
        "X_1_1_1_1_1_1_67_1_1_52_1_25",
        "X_1_1_1_1_1_1_27_1_1_53_1_25",
        "X_1_1_1_1_1_1_68_1_1_54_1_25",
        "X_1_1_1_1_1_1_28_1_1_55_1_25",
        "X_1_1_1_1_1_1_69_1_1_56_1_25",
        "X_1_1_1_1_1_1_29_1_1_57_1_25",
        "X_1_1_1_1_1_1_70_1_1_58_1_25",
        "X_1_1_1_1_1_1_30_1_1_59_1_25",
        "X_1_1_1_1_1_1_71_1_1_60_1_25",
        "X_1_1_1_1_1_1_31_1_1_61_1_25",
        "X_1_1_1_1_1_1_72_1_1_62_1_25",
        "X_1_1_1_1_1_1_32_1_1_63_1_25",
        "X_1_1_1_1_1_1_73_1_1_64_1_25",
        "X_1_1_1_1_1_1_33_1_1_65_1_25",
        "X_1_1_1_1_1_1_74_1_1_66_1_25",
        "X_1_1_1_1_1_1_34_1_1_67_1_25",
        "X_1_1_1_1_1_1_75_1_1_68_1_25",
        "X_1_1_1_1_1_1_35_1_1_69_1_25",
        "X_1_1_1_1_1_1_76_1_1_70_1_25",
        "X_1_1_1_1_1_1_36_1_1_71_1_25",
        "X_1_1_1_1_1_1_77_1_1_72_1_25",
        "X_1_1_1_1_1_1_37_1_1_73_1_25",
        "X_1_1_1_1_1_1_78_1_1_74_1_25",
        "X_1_1_1_1_1_1_38_1_1_75_1_25",
        "X_1_1_1_1_1_1_79_1_1_76_1_25",
        "X_1_1_1_1_1_1_39_1_1_77_1_25",
        "X_1_1_1_1_1_1_80_1_1_78_1_25",
        "X_1_1_1_1_1_1_40_1_1_79_1_25",
        "X_1_1_1_1_1_1_81_1_1_80_1_25",
        "X_1_1_1_1_1_1_41_1_1_81_1_25"
],
      "CsaImage.ProtocolSliceNumber": [0, 1, 2, 3, 4, 5, 6, 7, 8, 9, 10, 11, 12, 13, 14, 15, 16, 17, 18, 19, 20, 21, 22, 23, 24, 25, 26, 27, 28, 29, 30, 31, 32, 33, 34, 35, 36, 37, 38, 39, 40, 41, 42, 43, 44, 45, 46, 47, 48, 49, 50, 51, 52, 53, 54, 55, 56, 57, 58, 59, 60, 61, 62, 63, 64, 65, 66, 67, 68, 69, 70, 71, 72, 73, 74, 75, 76, 77, 78, 79, 80],
      "CsaImage.RFSWDDataType": [
        "predicted",
        "predicted",
        "predicted",
        "predicted",
        "predicted",
        "predicted",
        "predicted",
        "predicted",
        "predicted",
        "predicted",
        "predicted",
        "predicted",
        "predicted",
        "predicted",
        "predicted",
        "predicted",
        "predicted",
        "predicted",
        "predicted",
        "predicted",
        "predicted",
        "predicted",
        "predicted",
        "predicted",
        "predicted",
        "measured",
        "predicted",
        "predicted",
        "predicted",
        "predicted",
        "predicted",
        "predicted",
        "predicted",
        "predicted",
        "predicted",
        "predicted",
        "predicted",
        "predicted",
        "predicted",
        "predicted",
        "predicted",
        "predicted",
        "predicted",
        "predicted",
        "predicted",
        "predicted",
        "predicted",
        "predicted",
        "predicted",
        "predicted",
        "predicted",
        "predicted",
        "measured",
        "predicted",
        "predicted",
        "predicted",
        "predicted",
        "predicted",
        "predicted",
        "predicted",
        "predicted",
        "predicted",
        "predicted",
        "predicted",
        "predicted",
        "predicted",
        "predicted",
        "predicted",
        "predicted",
        "predicted",
        "predicted",
        "predicted",
        "predicted",
        "predicted",
        "predicted",
        "predicted",
        "predicted",
        "predicted",
        "predicted",
        "measured",
        "predicted"
],
      "CsaImage.SlicePosition_PCS": [
        [-113.58351826, -137.41836178, -43.30517036],
        [-113.60480791, -137.49966824, -41.60724861],
        [-113.62609761, -137.58097374, -39.90932686],
        [-113.64738732, -137.66227925, -38.21140701],
        [-113.66867703, -137.74358571, -36.51348526],
        [-113.68996661, -137.82489121, -34.81556541],
        [-113.71125632, -137.90619767, -33.11764366],
        [-113.73254603, -137.98750317, -31.41972191],
        [-113.75383561, -138.06880867, -29.72180206],
        [-113.77512532, -138.15011513, -28.02388031],
        [-113.79641502, -138.23142064, -26.32595855],
        [-113.81770473, -138.31272709, -24.62803871],
        [-113.83899432, -138.3940326, -22.93011696],
        [-113.86028402, -138.4753381, -21.2321952],
        [-113.88157373, -138.55664456, -19.5342744],
        [-113.90286332, -138.63795006, -17.8363536],
        [-113.92415302, -138.71925652, -16.13843185],
        [-113.94544273, -138.80056202, -14.44051105],
        [-113.96673244, -138.88186753, -12.74259025],
        [-113.98802202, -138.96317398, -11.04466898],
        [-114.00931173, -139.04447949, -9.34674782],
        [-114.03060144, -139.12578595, -7.64882675],
        [-114.05189114, -139.20709145, -5.95090563],
        [-114.07318073, -139.28839695, -4.25298459],
        [-114.09447044, -139.36970341, -2.55506355],
        [-114.11576014, -139.45100892, -0.85714227],
        [-114.13704973, -139.53231537, 0.840779],
        [-114.15833943, -139.61362088, 2.5386998],
        [-114.17962914, -139.69492638, 4.2366206],
        [-114.20091885, -139.77623284, 5.93454235],
        [-114.22220843, -139.85753834, 7.63246315],
        [-114.24349814, -139.9388448, 9.33038491],
        [-114.26478785, -140.0201503, 11.02830475],
        [-114.28607743, -140.10145581, 12.7262265],
        [-114.30736714, -140.18276226, 14.42414826],
        [-114.32865685, -140.26406777, 16.1220681],
        [-114.34994655, -140.34537423, 17.81998986],
        [-114.37123614, -140.42667973, 19.51791161],
        [-114.39252585, -140.50798523, 21.21583145],
        [-114.41381555, -140.58929169, 22.91375321],
        [-114.43510514, -140.67059719, 24.61167305],
        [-114.45639485, -140.75190365, 26.30959481],
        [-114.47768455, -140.83320916, 28.00751656],
        [-114.49897426, -140.91451466, 29.70543831],
        [-114.52026384, -140.99582112, 31.40336006],
        [-114.54155355, -141.07712662, 33.10128182],
        [-114.56284326, -141.15843308, 34.79919976],
        [-114.58413284, -141.23973858, 36.49712151],
        [-114.60542255, -141.32104409, 38.19504326],
        [-114.62671214, -141.40235054, 39.89296501],
        [-114.64800196, -141.48365605, 41.59088677],
        [-114.66929155, -141.56496251, 43.28880471],
        [-114.69058138, -141.64626801, 44.98672646],
        [-114.71187096, -141.72757351, 46.68464821],
        [-114.73316055, -141.80887997, 48.38256996],
        [-114.75445037, -141.89018547, 50.08049172],
        [-114.77573996, -141.97149193, 51.77841347],
        [-114.79702955, -142.05279744, 53.47633141],
        [-114.81831937, -142.13410294, 55.17425316],
        [-114.83960896, -142.2154094, 56.87217873],
        [-114.86089855, -142.2967149, 58.57009285],
        [-114.88218837, -142.37802136, 60.26801461],
        [-114.90347796, -142.45932686, 61.96593636],
        [-114.92476755, -142.54063237, 63.66385811],
        [-114.94605737, -142.62193882, 65.36177986],
        [-114.96734696, -142.70324433, 67.05970162],
        [-114.98863679, -142.78454983, 68.75762337],
        [-115.00992637, -142.86585629, 70.45554512],
        [-115.03121596, -142.94716275, 72.15346688],
        [-115.05250579, -143.0284673, 73.85138863],
        [-115.07379537, -143.10977375, 75.54931038],
        [-115.09508496, -143.19108021, 77.24723213],
        [-115.11637478, -143.27238667, 78.94514626],
        [-115.13766437, -143.35369122, 80.64306801],
        [-115.15895396, -143.43499768, 82.34098976],
        [-115.18024378, -143.51630413, 84.03891152],
        [-115.20153337, -143.59760868, 85.73683327],
        [-115.22282296, -143.67891514, 87.43475502],
        [-115.24411278, -143.7602216, 89.13267678],
        [-115.26540237, -143.84152615, 90.83059853],
        [-115.2866922, -143.92283261, 92.52852028]
],
      "CsaImage.TimeAfterStart": [16.4, 18.515, 16.55, 18.6675, 16.7025, 18.8175, 16.8525, 18.97, 17.005, 19.12, 17.155, 19.27, 17.3075, 19.4225, 17.4575, 19.5725, 17.61, 19.725, 17.76, 19.875, 17.91, 20.0275, 18.0625, 20.1775, 18.2125, 20.33, 18.365, 16.4, 18.515, 16.55, 18.6675, 16.7025, 18.8175, 16.8525, 18.97, 17.005, 19.12, 17.155, 19.27, 17.3075, 19.4225, 17.4575, 19.5725, 17.61, 19.725, 17.76, 19.875, 17.91, 20.0275, 18.0625, 20.1775, 18.2125, 20.33, 18.365, 16.4, 18.515, 16.55, 18.6675, 16.7025, 18.8175, 16.8525, 18.97, 17.005, 19.12, 17.155, 19.27, 17.3075, 19.4225, 17.4575, 19.5725, 17.61, 19.725, 17.76, 19.875, 17.91, 20.0275, 18.0625, 20.1775, 18.2125, 20.33, 18.365],
      "ImagePositionPatient": [
        [-113.58351826072, -137.4183617824, -43.305170361854],
        [-113.60480790734, -137.49966823992, -41.607248608924],
        [-113.62609761357, -137.58097374376, -39.909326855994],
        [-113.6473873198, -137.66227924761, -38.211407010413],
        [-113.66867702603, -137.74358570513, -36.513485257483],
        [-113.68996661305, -137.82489120897, -34.815565411902],
        [-113.71125631928, -137.90619766649, -33.117643658973],
        [-113.73254602551, -137.98750317034, -31.419721906043],
        [-113.75383561254, -138.06880867418, -29.721802060462],
        [-113.77512531877, -138.1501151317, -28.023880307532],
        [-113.796415025, -138.23142063555, -26.325958554603],
        [-113.81770473123, -138.31272709307, -24.628038709022],
        [-113.83899431825, -138.39403259691, -22.930116956092],
        [-113.86028402448, -138.47533810076, -21.232195203162],
        [-113.88157373071, -138.55664455828, -19.534274403907],
        [-113.90286331773, -138.63795006212, -17.836353604651],
        [-113.92415302396, -138.71925651964, -16.138431851722],
        [-113.94544273019, -138.80056202349, -14.440511052466],
        [-113.96673243642, -138.88186752733, -12.742590253211],
        [-113.98802202344, -138.96317398485, -11.044668977118],
        [-114.00931172967, -139.0444794887, -9.3467478202352],
        [-114.0306014359, -139.12578594622, -7.6488267527589],
        [-114.05189114213, -139.20709145006, -5.950905625678],
        [-114.07318072915, -139.28839695391, -4.2529845880041],
        [-114.09447043538, -139.36970341143, -2.5550635503301],
        [-114.11576014161, -139.45100891527, -0.8571422742376],
        [-114.13704972863, -139.53231537279, 0.84077900185495],
        [-114.15833943486, -139.61362087664, 2.5386998011103],
        [-114.17962914109, -139.69492638048, 4.2366206003657],
        [-114.20091884732, -139.776232838, 5.9345423532954],
        [-114.22220843434, -139.85753834185, 7.6324631525507],
        [-114.24349814057, -139.93884479937, 9.3303849054804],
        [-114.2647878468, -140.02015030321, 11.028304751061],
        [-114.28607743382, -140.10145580706, 12.726226503991],
        [-114.30736714005, -140.18276226458, 14.424148256921],
        [-114.32865684628, -140.26406776842, 16.122068102502],
        [-114.34994655251, -140.34537422594, 17.819989855432],
        [-114.37123613954, -140.42667972979, 19.517911608361],
        [-114.39252584577, -140.50798523363, 21.215831453942],
        [-114.413815552, -140.58929169115, 22.913753206872],
        [-114.43510513902, -140.670597195, 24.611673052453],
        [-114.45639484525, -140.75190365252, 26.309594805383],
        [-114.47768455148, -140.83320915636, 28.007516558312],
        [-114.49897425771, -140.91451466021, 29.705438311242],
        [-114.52026384473, -140.99582111773, 31.403360064172],
        [-114.54155355096, -141.07712662157, 33.101281817102],
        [-114.56284325719, -141.15843307909, 34.799199755334],
        [-114.58413284421, -141.23973858294, 36.497121508264],
        [-114.60542255044, -141.32104408678, 38.195043261193],
        [-114.62671213746, -141.4023505443, 39.892965014123],
        [-114.6480019629, -141.48365604815, 41.590886767053],
        [-114.66929154992, -141.56496250567, 43.288804705285],
        [-114.69058137536, -141.64626800951, 44.986726458215],
        [-114.71187096238, -141.72757351336, 46.684648211144],
        [-114.7331605494, -141.80887997087, 48.382569964074],
        [-114.75445037484, -141.89018547472, 50.080491717004],
        [-114.77573996186, -141.97149193224, 51.778413469934],
        [-114.79702954888, -142.05279743608, 53.476331408166],
        [-114.81831937432, -142.13410293993, 55.174253161096],
        [-114.83960896134, -142.21540939745, 56.872178728723],
        [-114.86089854836, -142.29671490129, 58.570092852258],
        [-114.8821883738, -142.37802135881, 60.268014605187],
        [-114.90347796082, -142.45932686266, 61.965936358117],
        [-114.92476754785, -142.5406323665, 63.663858111047],
        [-114.94605737329, -142.62193882402, 65.361779863977],
        [-114.96734696031, -142.70324432787, 67.059701616906],
        [-114.98863678575, -142.78454983171, 68.757623369836],
        [-115.00992637277, -142.86585628923, 70.455545122766],
        [-115.03121595979, -142.94716274675, 72.153466875695],
        [-115.05250578523, -143.02846729692, 73.851388628625],
        [-115.07379537225, -143.10977375444, 75.549310381555],
        [-115.09508495927, -143.19108021196, 77.247232134484],
        [-115.11637478471, -143.27238666948, 78.94514625802],
        [-115.13766437173, -143.35369121965, 80.643068010949],
        [-115.15895395875, -143.43499767717, 82.340989763879],
        [-115.18024378419, -143.51630413469, 84.038911516809],
        [-115.20153337121, -143.59760868486, 85.736833269738],
        [-115.22282295823, -143.67891514238, 87.434755022668],
        [-115.24411278367, -143.7602215999, 89.132676775598],
        [-115.26540237069, -143.84152615007, 90.830598528527],
        [-115.28669219613, -143.92283260759, 92.528520281457]
],
      "InstanceCreationTime": ["153904.406000", "153904.535000", "153904.436000", "153904.542000", "153904.443000", "153904.549000", "153904.459000", "153904.555000", "153904.466000", "153904.562000", "153904.473000", "153904.569000", "153904.480000", "153904.576000", "153904.487000", "153904.589000", "153904.493000", "153904.597000", "153904.500000", "153904.604000", "153904.507000", "153904.611000", "153904.514000", "153904.618000", "153904.521000", "153904.625000", "153904.528000", "153904.410000", "153904.537000", "153904.438000", "153904.544000", "153904.454000", "153904.551000", "153904.461000", "153904.558000", "153904.469000", "153904.564000", "153904.476000", "153904.571000", "153904.482000", "153904.578000", "153904.489000", "153904.592000", "153904.496000", "153904.599000", "153904.503000", "153904.606000", "153904.509000", "153904.613000", "153904.516000", "153904.621000", "153904.524000", "153904.627000", "153904.531000", "153904.433000", "153904.539000", "153904.441000", "153904.546000", "153904.456000", "153904.553000", "153904.464000", "153904.560000", "153904.471000", "153904.566000", "153904.478000", "153904.573000", "153904.485000", "153904.587000", "153904.491000", "153904.594000", "153904.498000", "153904.601000", "153904.505000", "153904.609000", "153904.512000", "153904.616000", "153904.519000", "153904.623000", "153904.526000", "153904.630000", "153904.533000"],
      "InstanceNumber": [1, 2, 3, 4, 5, 6, 7, 8, 9, 10, 11, 12, 13, 14, 15, 16, 17, 18, 19, 20, 21, 22, 23, 24, 25, 26, 27, 28, 29, 30, 31, 32, 33, 34, 35, 36, 37, 38, 39, 40, 41, 42, 43, 44, 45, 46, 47, 48, 49, 50, 51, 52, 53, 54, 55, 56, 57, 58, 59, 60, 61, 62, 63, 64, 65, 66, 67, 68, 69, 70, 71, 72, 73, 74, 75, 76, 77, 78, 79, 80, 81],
      "LargestImagePixelValue": [19809, 16780, 18728, 25012, 27856, 27486, 28198, 22473, 33770, 45341, 49536, 53035, 59025, 49911, 57416, 54993, 51971, 46470, 41058, 37832, 35915, 39000, 40266, 53111, 57789, 65535, 45909, 38575, 58778, 50029, 55426, 57829, 45575, 55968, 55210, 52943, 46112, 38983, 35745, 34578, 36165, 36733, 38127, 41135, 54471, 50117, 46766, 50537, 45013, 46594, 51562, 46806, 56749, 41687, 47328, 42810, 54352, 47014, 42103, 42766, 42337, 42026, 43165, 34272, 34708, 38411, 47868, 47061, 52691, 44500, 44689, 44946, 47686, 20915, 19458, 11415, 10473, 7912, 8943, 6134, 860],
      "SliceLocation": [-35.257462312195, -33.557461645089, -31.857461022849, -30.157462305624, -28.457461637772, -26.757462922041, -25.057462254189, -23.357461631948, -21.657462916216, -19.957462248364, -18.257461626124, -16.557462863288, -14.85746224254, -13.1574616203, -11.457461904956, -9.757462236716, -8.057461568864, -6.3574618991315, -4.6574622293989, -2.9574620392939, -1.2574620123708, 0.44253797086603, 2.1425379680232, 3.8425378743899, 5.5425378278608, 7.2425379738474, 8.9425381639525, 10.642537833685, 12.342537503418, 14.04253817127, 15.742537839509, 17.442538507361, 19.142537224586, 20.842537845333, 22.542538513185, 24.24253723041, 25.942537898262, 27.64253851901, 29.342537236234, 31.042537904086, 32.742536619818, 34.44253728767, 36.14253790991, 37.842538532151, 39.54253919851, 41.242539820751, 42.94253667857, 44.642537299318, 46.342537921559, 48.042538587918, 49.742539211651, 51.442536067978, 53.142536691712, 54.842537312459, 56.542537978818, 58.242538602552, 59.942539268911, 61.642536079626, 63.34253670336, 65.042541179751, 66.742534180434, 68.442534849779, 70.142535470527, 71.842536091275, 73.54253676062, 75.242537381367, 76.942538005101, 78.64253867146, 80.342539337819, 82.042539915941, 83.7425405823, 85.44254124866, 87.14253429794, 88.842534873076, 90.542535539435, 92.24253620878, 93.942536783917, 95.642537450276, 97.342538119621, 99.042538694757, 100.7425393641],
      "WindowCenter": [5870.0, 5388.0, 6064.0, 6473.0, 6534.0, 6439.0, 6557.0, 6571.0, 6863.0, 7162.0, 7344.0, 7512.0, 7814.0, 7729.0, 7911.0, 8152.0, 8505.0, 8779.0, 8909.0, 8981.0, 9084.0, 9519.0, 9903.0, 10518.0, 10588.0, 10538.0, 9980.0, 9432.0, 9586.0, 9513.0, 9559.0, 9680.0, 9583.0, 9895.0, 9874.0, 9859.0, 9694.0, 9579.0, 9699.0, 9797.0, 9966.0, 10043.0, 9988.0, 10152.0, 10358.0, 10477.0, 10539.0, 10677.0, 10768.0, 10991.0, 11176.0, 11157.0, 11359.0, 11457.0, 10979.0, 10969.0, 11167.0, 10991.0, 11032.0, 10877.0, 10879.0, 10560.0, 10600.0, 10323.0, 10366.0, 10225.0, 10401.0, 10154.0, 9947.0, 9180.0, 8453.0, 5652.0, 4880.0, 3794.0, 3415.0, 1941.0, 1593.0, 1544.0, 1462.0, 1288.0, 966.0],
      "WindowWidth": [12873.0, 12076.0, 13160.0, 14070.0, 14265.0, 14089.0, 14290.0, 14331.0, 14951.0, 15658.0, 16201.0, 16878.0, 17697.0, 17604.0, 17885.0, 18118.0, 18836.0, 19238.0, 19249.0, 19330.0, 19478.0, 20402.0, 21281.0, 22898.0, 23322.0, 23287.0, 21933.0, 20422.0, 20805.0, 20854.0, 21081.0, 21357.0, 21121.0, 21902.0, 21819.0, 21796.0, 21318.0, 20917.0, 21004.0, 21232.0, 21685.0, 21928.0, 21966.0, 22469.0, 22949.0, 23195.0, 23325.0, 23631.0, 23763.0, 24216.0, 24757.0, 24751.0, 25251.0, 25440.0, 24208.0, 24225.0, 24776.0, 24346.0, 24477.0, 23982.0, 24071.0, 23185.0, 23395.0, 22539.0, 22667.0, 22306.0, 23135.0, 22420.0, 21845.0, 19755.0, 18023.0, 13265.0, 11712.0, 8855.0, 7891.0, 5342.0, 4652.0, 4530.0, 4245.0, 3476.0, 2372.0]
    }
  }
}