{
  "AcquisitionMatrixPE": 82,
  "AcquisitionNumber": 1,
  "AcquisitionTime": "13:55:23.332500",
  "BandwidthPerPixelPhaseEncode": 24.888,
  "BaseResolution": 82,
  "BodyPartExamined": "BRAIN",
  "ConsistencyInfo": "N4_VE11C_LATEST_20160120",
  "ConversionSoftware": "dcm2niix",
  "ConversionSoftwareVersion": "v1.0.20201102",
  "DerivedVendorReportedEchoSpacing": 0.00049,
  "DeviceSerialNumber": "66112",
  "DwellTime": 2e-06,
  "EchoTime": 0.0272,
  "EchoTrainLength": 82,
  "EffectiveEchoSpacing": 0.00049,
  "FlipAngle": 44,
  "ImageComments": "Unaliased MB8/PE3",
  "ImageOrientationPatientDICOM": [0.999904, -0.00606079, 0.0124279, 0.00610821, 0.999974, -0.00378182],
  "ImageType": [
    "ORIGINAL",
    "PRIMARY",
    "M",
    "MB",
    "ND",
    "NORM",
    "MOSAIC"
],
  "ImagingFrequency": 123.252,
  "InPlanePhaseEncodingDirectionDICOM": "COL",
  "InstitutionAddress": "Maynard 3,Hanover,NH,US,03755",
  "InstitutionName": "Dartmouth College - PBS",
  "InstitutionalDepartmentName": "Department",
  "MRAcquisitionType": "2D",
  "MagneticFieldStrength": 3,
  "Manufacturer": "Siemens",
  "ManufacturersModelName": "Prisma",
  "Modality": "MR",
  "MultibandAccelerationFactor": 8,
  "PartialFourier": 1,
  "PatientPosition": "HFS",
  "PercentPhaseFOV": 100,
  "PercentSampling": 100,
  "PhaseEncodingDirection": "j-",
  "PhaseEncodingSteps": 82,
  "PhaseResolution": 1,
  "PixelBandwidth": 3050,
  "ProcedureStepDescription": "Wager_Wager^1076_spacetop",
  "ProtocolName": "func_run-04_task-social_acq-ap-mb8",
  "PulseSequenceDetails": "%CustomerSeq%\\cmrr_mbep2d_bold",
  "ReceiveCoilActiveElements": "HEA;HEP",
  "ReceiveCoilName": "Head_32",
  "ReconMatrixPE": 82,
  "RepetitionTime": 0.46,
  "SAR": 0.100817,
  "ScanOptions": "FS",
  "ScanningSequence": "EP",
  "SequenceName": "epfid2d1_82",
  "SequenceVariant": "SK\\SS",
  "SeriesDescription": "func_run-04_task-social_acq-ap-mb8",
  "SeriesNumber": 14,
  "ShimSetting": [4144, -7757, -7248, 554, -38, 2, -37, 47],
  "SliceThickness": 2.7,
  "SliceTiming": [0, 0.25, 0.0625, 0.3125, 0.125, 0.375, 0.1875, 0, 0.25, 0.0625, 0.3125, 0.125, 0.375, 0.1875, 0, 0.25, 0.0625, 0.3125, 0.125, 0.375, 0.1875, 0, 0.25, 0.0625, 0.3125, 0.125, 0.375, 0.1875, 0, 0.25, 0.0625, 0.3125, 0.125, 0.375, 0.1875, 0, 0.25, 0.0625, 0.3125, 0.125, 0.375, 0.1875, 0, 0.25, 0.0625, 0.3125, 0.125, 0.375, 0.1875, 0, 0.25, 0.0625, 0.3125, 0.125, 0.375, 0.1875],
  "SoftwareVersions": "syngo MR E11",
  "SpacingBetweenSlices": 2.7,
  "StationName": "AWP66112",
  "TaskName": "social",
  "TotalReadoutTime": 0.03969,
  "TxRefAmp": 243.969,
  "WipMemBlock": "19360b4e-5652-48e0-a3c2-2a749e2ed252||Sequence: R016 ve11c/master r/e634e98; Dec 19 2017 11:00:25 by eja",
  "dcmmeta_affine": [
    [-2.6826703548431396, 0.01638789102435112, 0.033492524176836014, 111.96635437011719],
    [0.016260646283626556, 2.6828577518463135, -0.010414899326860905, -98.06129455566406],
    [0.03334309533238411, 0.01014634594321251, 2.6997721195220947, -57.33991622924805],
    [0.0, 0.0, 0.0, 1.0]
],
  "dcmmeta_reorient_transform": [
    [0.0, -1.0, 0.0, 81.0],
    [1.0, 0.0, 0.0, 0.0],
    [0.0, 0.0, 1.0, 0.0],
    [0.0, 0.0, 0.0, 1.0]
],
  "dcmmeta_shape": [82, 82, 56, 872],
  "dcmmeta_slice_dim": 2,
  "dcmmeta_version": 0.6,
  "global": {
    "const": {
      "AccessionNumber": "A003640",
      "AcquisitionMatrix": [82, 0, 0, 82],
      "AngioFlag": "N",
      "BitsAllocated": 16,
      "BitsStored": 16,
      "BodyPartExamined": "BRAIN",
      "Columns": 656,
      "EchoNumbers": 1,
      "EchoTime": 27.2,
      "EchoTrainLength": 82,
      "FlipAngle": 44.0,
      "HighBit": 15,
      "ImageOrientationPatient": [0.99990440275605, -0.0060607859659, 0.01242788085496, 0.0061082134897, 0.99997419345127, -0.003781819596],
      "ImagePositionPatient": [-887.92350984924, -884.56351434074, -63.175527802638],
      "ImageType": [
        "ORIGINAL",
        "PRIMARY",
        "M",
        "MB",
        "ND",
        "NORM",
        "MOSAIC"
],
      "ImagedNucleus": "1H",
      "ImagingFrequency": 123.252186,
      "InPlanePhaseEncodingDirection": "COL",
      "MRAcquisitionType": "2D",
      "MagneticFieldStrength": 3.0,
      "Manufacturer": "SIEMENS",
      "ManufacturerModelName": "Prisma",
      "Modality": "MR",
      "NumberOfAverages": 1.0,
      "NumberOfPhaseEncodingSteps": 82,
      "PercentPhaseFieldOfView": 100.0,
      "PercentSampling": 100.0,
      "PerformedProcedureStepStartTime": "131708.282000",
      "PhotometricInterpretation": "MONOCHROME2",
      "PixelBandwidth": 3050.0,
      "PixelRepresentation": 0,
      "PixelSpacing": [2.6829268932343, 2.6829268932343],
      "ProtocolName": "func_run-04_task-social_acq-ap-mb8",
      "RepetitionTime": 460.0,
      "Rows": 656,
      "SAR": 0.10081727264076,
      "SamplesPerPixel": 1,
      "ScanOptions": "FS",
      "ScanningSequence": "EP",
      "SequenceName": "epfid2d1_82",
      "SequenceVariant": [
        "SK",
        "SS"
],
      "SeriesDescription": "func_run-04_task-social_acq-ap-mb8",
      "SeriesNumber": 14,
      "SeriesTime": "135543.915000",
      "SliceLocation": -55.567915059903,
      "SliceThickness": 2.7000000476837,
      "SmallestImagePixelValue": 0,
      "SoftwareVersions": "syngo MR E11",
      "SpacingBetweenSlices": 2.6999999171614,
      "SpecificCharacterSet": "ISO_IR 100",
      "StudyID": "1",
      "StudyTime": "131708.162000",
      "TransmitCoilName": "Body",
      "VariableFlipAngleFlag": "N",
      "WindowCenterWidthExplanation": "Algo1",
      "dBdt": 0.0},
    "slices": {}
  },
  "time": {
    "samples": {
      "AcquisitionNumber": [1, 2, 3, 4, 5, 6, 7, 8, 9, 10, 11, 12, 13, 14, 15, 16, 17, 18, 19, 20, 21, 22, 23, 24, 25, 26, 27, 28, 29, 30, 31, 32, 33, 34, 35, 36, 37, 38, 39, 40, 41, 42, 43, 44, 45, 46, 47, 48, 49, 50, 51, 52, 53, 54, 55, 56, 57, 58, 59, 60, 61, 62, 63, 64, 65, 66, 67, 68, 69, 70, 71, 72, 73, 74, 75, 76, 77, 78, 79, 80, 81, 82, 83, 84, 85, 86, 87, 88, 89, 90, 91, 92, 93, 94, 95, 96, 97, 98, 99, 100, 101, 102, 103, 104, 105, 106, 107, 108, 109, 110, 111, 112, 113, 114, 115, 116, 117, 118, 119, 120, 121, 122, 123, 124, 125, 126, 127, 128, 129, 130, 131, 132, 133, 134, 135, 136, 137, 138, 139, 140, 141, 142, 143, 144, 145, 146, 147, 148, 149, 150, 151, 152, 153, 154, 155, 156, 157, 158, 159, 160, 161, 162, 163, 164, 165, 166, 167, 168, 169, 170, 171, 172, 173, 174, 175, 176, 177, 178, 179, 180, 181, 182, 183, 184, 185, 186, 187, 188, 189, 190, 191, 192, 193, 194, 195, 196, 197, 198, 199, 200, 201, 202, 203, 204, 205, 206, 207, 208, 209, 210, 211, 212, 213, 214, 215, 216, 217, 218, 219, 220, 221, 222, 223, 224, 225, 226, 227, 228, 229, 230, 231, 232, 233, 234, 235, 236, 237, 238, 239, 240, 241, 242, 243, 244, 245, 246, 247, 248, 249, 250, 251, 252, 253, 254, 255, 256, 257, 258, 259, 260, 261, 262, 263, 264, 265, 266, 267, 268, 269, 270, 271, 272, 273, 274, 275, 276, 277, 278, 279, 280, 281, 282, 283, 284, 285, 286, 287, 288, 289, 290, 291, 292, 293, 294, 295, 296, 297, 298, 299, 300, 301, 302, 303, 304, 305, 306, 307, 308, 309, 310, 311, 312, 313, 314, 315, 316, 317, 318, 319, 320, 321, 322, 323, 324, 325, 326, 327, 328, 329, 330, 331, 332, 333, 334, 335, 336, 337, 338, 339, 340, 341, 342, 343, 344, 345, 346, 347, 348, 349, 350, 351, 352, 353, 354, 355, 356, 357, 358, 359, 360, 361, 362, 363, 364, 365, 366, 367, 368, 369, 370, 371, 372, 373, 374, 375, 376, 377, 378, 379, 380, 381, 382, 383, 384, 385, 386, 387, 388, 389, 390, 391, 392, 393, 394, 395, 396, 397, 398, 399, 400, 401, 402, 403, 404, 405, 406, 407, 408, 409, 410, 411, 412, 413, 414, 415, 416, 417, 418, 419, 420, 421, 422, 423, 424, 425, 426, 427, 428, 429, 430, 431, 432, 433, 434, 435, 436, 437, 438, 439, 440, 441, 442, 443, 444, 445, 446, 447, 448, 449, 450, 451, 452, 453, 454, 455, 456, 457, 458, 459, 460, 461, 462, 463, 464, 465, 466, 467, 468, 469, 470, 471, 472, 473, 474, 475, 476, 477, 478, 479, 480, 481, 482, 483, 484, 485, 486, 487, 488, 489, 490, 491, 492, 493, 494, 495, 496, 497, 498, 499, 500, 501, 502, 503, 504, 505, 506, 507, 508, 509, 510, 511, 512, 513, 514, 515, 516, 517, 518, 519, 520, 521, 522, 523, 524, 525, 526, 527, 528, 529, 530, 531, 532, 533, 534, 535, 536, 537, 538, 539, 540, 541, 542, 543, 544, 545, 546, 547, 548, 549, 550, 551, 552, 553, 554, 555, 556, 557, 558, 559, 560, 561, 562, 563, 564, 565, 566, 567, 568, 569, 570, 571, 572, 573, 574, 575, 576, 577, 578, 579, 580, 581, 582, 583, 584, 585, 586, 587, 588, 589, 590, 591, 592, 593, 594, 595, 596, 597, 598, 599, 600, 601, 602, 603, 604, 605, 606, 607, 608, 609, 610, 611, 612, 613, 614, 615, 616, 617, 618, 619, 620, 621, 622, 623, 624, 625, 626, 627, 628, 629, 630, 631, 632, 633, 634, 635, 636, 637, 638, 639, 640, 641, 642, 643, 644, 645, 646, 647, 648, 649, 650, 651, 652, 653, 654, 655, 656, 657, 658, 659, 660, 661, 662, 663, 664, 665, 666, 667, 668, 669, 670, 671, 672, 673, 674, 675, 676, 677, 678, 679, 680, 681, 682, 683, 684, 685, 686, 687, 688, 689, 690, 691, 692, 693, 694, 695, 696, 697, 698, 699, 700, 701, 702, 703, 704, 705, 706, 707, 708, 709, 710, 711, 712, 713, 714, 715, 716, 717, 718, 719, 720, 721, 722, 723, 724, 725, 726, 727, 728, 729, 730, 731, 732, 733, 734, 735, 736, 737, 738, 739, 740, 741, 742, 743, 744, 745, 746, 747, 748, 749, 750, 751, 752, 753, 754, 755, 756, 757, 758, 759, 760, 761, 762, 763, 764, 765, 766, 767, 768, 769, 770, 771, 772, 773, 774, 775, 776, 777, 778, 779, 780, 781, 782, 783, 784, 785, 786, 787, 788, 789, 790, 791, 792, 793, 794, 795, 796, 797, 798, 799, 800, 801, 802, 803, 804, 805, 806, 807, 808, 809, 810, 811, 812, 813, 814, 815, 816, 817, 818, 819, 820, 821, 822, 823, 824, 825, 826, 827, 828, 829, 830, 831, 832, 833, 834, 835, 836, 837, 838, 839, 840, 841, 842, 843, 844, 845, 846, 847, 848, 849, 850, 851, 852, 853, 854, 855, 856, 857, 858, 859, 860, 861, 862, 863, 864, 865, 866, 867, 868, 869, 870, 871, 872],
      "AcquisitionTime": ["135523.332500", "135523.792500", "135524.252500", "135524.712500", "135525.172500", "135525.632500", "135526.092500", "135526.552500", "135527.012500", "135527.472500", "135527.932500", "135528.392500", "135528.852500", "135529.312500", "135529.772500", "135530.232500", "135530.692500", "135531.152500", "135531.612500", "135532.072500", "135532.532500", "135532.992500", "135533.452500", "135533.912500", "135534.372500", "135534.832500", "135535.292500", "135535.752500", "135536.212500", "135536.672500", "135537.132500", "135537.592500", "135538.052500", "135538.512500", "135538.972500", "135539.432500", "135539.892500", "135540.352500", "135540.812500", "135541.272500", "135541.732500", "135542.192500", "135542.652500", "135543.112500", "135543.572500", "135544.032500", "135544.492500", "135544.952500", "135545.412500", "135545.872500", "135546.332500", "135546.792500", "135547.252500", "135547.712500", "135548.172500", "135548.632500", "135549.092500", "135549.552500", "135550.012500", "135550.472500", "135550.932500", "135551.392500", "135551.852500", "135552.312500", "135552.772500", "135553.232500", "135553.692500", "135554.152500", "135554.612500", "135555.072500", "135555.532500", "135555.992500", "135556.452500", "135556.912500", "135557.372500", "135557.832500", "135558.292500", "135558.752500", "135559.212500", "135559.672500", "135600.132500", "135600.592500", "135601.052500", "135601.512500", "135601.972500", "135602.432500", "135602.892500", "135603.352500", "135603.812500", "135604.272500", "135604.732500", "135605.192500", "135605.652500", "135606.112500", "135606.572500", "135607.032500", "135607.492500", "135607.952500", "135608.412500", "135608.872500", "135609.332500", "135609.792500", "135610.252500", "135610.712500", "135611.172500", "135611.632500", "135612.092500", "135612.552500", "135613.012500", "135613.472500", "135613.932500", "135614.392500", "135614.852500", "135615.312500", "135615.772500", "135616.232500", "135616.692500", "135617.152500", "135617.612500", "135618.072500", "135618.532500", "135618.992500", "135619.452500", "135619.912500", "135620.372500", "135620.832500", "135621.292500", "135621.752500", "135622.212500", "135622.672500", "135623.132500", "135623.592500", "135624.052500", "135624.512500", "135624.972500", "135625.432500", "135625.892500", "135626.352500", "135626.812500", "135627.272500", "135627.732500", "135628.192500", "135628.652500", "135629.112500", "135629.572500", "135630.032500", "135630.492500", "135630.952500", "135631.412500", "135631.872500", "135632.332500", "135632.792500", "135633.252500", "135633.712500", "135634.172500", "135634.632500", "135635.092500", "135635.552500", "135636.012500", "135636.472500", "135636.932500", "135637.392500", "135637.852500", "135638.312500", "135638.772500", "135639.232500", "135639.692500", "135640.152500", "135640.612500", "135641.072500", "135641.532500", "135641.992500", "135642.452500", "135642.912500", "135643.372500", "135643.832500", "135644.292500", "135644.752500", "135645.212500", "135645.672500", "135646.132500", "135646.592500", "135647.052500", "135647.512500", "135647.972500", "135648.432500", "135648.892500", "135649.352500", "135649.812500", "135650.272500", "135650.732500", "135651.192500", "135651.652500", "135652.112500", "135652.572500", "135653.032500", "135653.492500", "135653.952500", "135654.412500", "135654.872500", "135655.332500", "135655.792500", "135656.252500", "135656.712500", "135657.172500", "135657.632500", "135658.092500", "135658.552500", "135659.012500", "135659.472500", "135659.932500", "135700.392500", "135700.852500", "135701.312500", "135701.772500", "135702.232500", "135702.692500", "135703.152500", "135703.612500", "135704.072500", "135704.532500", "135704.992500", "135705.452500", "135705.912500", "135706.372500", "135706.832500", "135707.292500", "135707.752500", "135708.212500", "135708.672500", "135709.132500", "135709.592500", "135710.052500", "135710.512500", "135710.972500", "135711.432500", "135711.892500", "135712.352500", "135712.812500", "135713.272500", "135713.732500", "135714.192500", "135714.652500", "135715.112500", "135715.572500", "135716.032500", "135716.492500", "135716.952500", "135717.412500", "135717.872500", "135718.332500", "135718.792500", "135719.252500", "135719.712500", "135720.172500", "135720.632500", "135721.092500", "135721.552500", "135722.012500", "135722.472500", "135722.932500", "135723.392500", "135723.852500", "135724.312500", "135724.772500", "135725.232500", "135725.692500", "135726.152500", "135726.612500", "135727.072500", "135727.532500", "135727.992500", "135728.452500", "135728.912500", "135729.372500", "135729.832500", "135730.292500", "135730.752500", "135731.212500", "135731.672500", "135732.132500", "135732.592500", "135733.052500", "135733.512500", "135733.972500", "135734.432500", "135734.892500", "135735.352500", "135735.812500", "135736.272500", "135736.732500", "135737.192500", "135737.652500", "135738.112500", "135738.572500", "135739.032500", "135739.492500", "135739.952500", "135740.412500", "135740.872500", "135741.332500", "135741.792500", "135742.252500", "135742.712500", "135743.172500", "135743.632500", "135744.092500", "135744.552500", "135745.012500", "135745.472500", "135745.932500", "135746.392500", "135746.852500", "135747.312500", "135747.772500", "135748.232500", "135748.692500", "135749.152500", "135749.612500", "135750.072500", "135750.532500", "135750.992500", "135751.452500", "135751.912500", "135752.372500", "135752.832500", "135753.292500", "135753.752500", "135754.212500", "135754.672500", "135755.132500", "135755.592500", "135756.052500", "135756.512500", "135756.972500", "135757.432500", "135757.892500", "135758.352500", "135758.812500", "135759.272500", "135759.732500", "135800.192500", "135800.652500", "135801.112500", "135801.572500", "135802.032500", "135802.492500", "135802.952500", "135803.412500", "135803.872500", "135804.332500", "135804.792500", "135805.252500", "135805.712500", "135806.172500", "135806.632500", "135807.092500", "135807.552500", "135808.012500", "135808.472500", "135808.932500", "135809.392500", "135809.852500", "135810.312500", "135810.772500", "135811.232500", "135811.692500", "135812.152500", "135812.612500", "135813.072500", "135813.532500", "135813.992500", "135814.452500", "135814.912500", "135815.372500", "135815.832500", "135816.292500", "135816.752500", "135817.212500", "135817.672500", "135818.132500", "135818.592500", "135819.052500", "135819.512500", "135819.972500", "135820.432500", "135820.892500", "135821.352500", "135821.812500", "135822.272500", "135822.732500", "135823.192500", "135823.652500", "135824.112500", "135824.572500", "135825.032500", "135825.492500", "135825.952500", "135826.412500", "135826.872500", "135827.332500", "135827.792500", "135828.252500", "135828.712500", "135829.172500", "135829.632500", "135830.092500", "135830.552500", "135831.012500", "135831.472500", "135831.932500", "135832.392500", "135832.852500", "135833.312500", "135833.772500", "135834.232500", "135834.692500", "135835.152500", "135835.612500", "135836.072500", "135836.532500", "135836.992500", "135837.452500", "135837.912500", "135838.372500", "135838.832500", "135839.292500", "135839.752500", "135840.212500", "135840.672500", "135841.132500", "135841.592500", "135842.052500", "135842.512500", "135842.972500", "135843.432500", "135843.892500", "135844.352500", "135844.812500", "135845.272500", "135845.732500", "135846.192500", "135846.652500", "135847.112500", "135847.572500", "135848.032500", "135848.492500", "135848.952500", "135849.412500", "135849.872500", "135850.332500", "135850.792500", "135851.252500", "135851.712500", "135852.172500", "135852.632500", "135853.092500", "135853.552500", "135854.012500", "135854.472500", "135854.932500", "135855.392500", "135855.852500", "135856.312500", "135856.772500", "135857.232500", "135857.692500", "135858.152500", "135858.612500", "135859.072500", "135859.532500", "135859.992500", "135900.452500", "135900.912500", "135901.372500", "135901.832500", "135902.292500", "135902.752500", "135903.212500", "135903.672500", "135904.132500", "135904.592500", "135905.052500", "135905.512500", "135905.972500", "135906.432500", "135906.892500", "135907.352500", "135907.812500", "135908.272500", "135908.732500", "135909.192500", "135909.652500", "135910.112500", "135910.572500", "135911.032500", "135911.492500", "135911.952500", "135912.412500", "135912.872500", "135913.332500", "135913.792500", "135914.252500", "135914.712500", "135915.172500", "135915.632500", "135916.092500", "135916.552500", "135917.012500", "135917.472500", "135917.932500", "135918.392500", "135918.852500", "135919.312500", "135919.772500", "135920.232500", "135920.692500", "135921.152500", "135921.612500", "135922.072500", "135922.532500", "135922.992500", "135923.452500", "135923.912500", "135924.372500", "135924.832500", "135925.292500", "135925.752500", "135926.212500", "135926.672500", "135927.132500", "135927.592500", "135928.052500", "135928.512500", "135928.972500", "135929.432500", "135929.892500", "135930.352500", "135930.812500", "135931.272500", "135931.732500", "135932.192500", "135932.652500", "135933.112500", "135933.572500", "135934.032500", "135934.492500", "135934.952500", "135935.412500", "135935.872500", "135936.332500", "135936.792500", "135937.252500", "135937.712500", "135938.172500", "135938.632500", "135939.092500", "135939.552500", "135940.012500", "135940.472500", "135940.932500", "135941.392500", "135941.852500", "135942.312500", "135942.772500", "135943.232500", "135943.692500", "135944.152500", "135944.612500", "135945.072500", "135945.532500", "135945.992500", "135946.452500", "135946.912500", "135947.372500", "135947.832500", "135948.292500", "135948.752500", "135949.212500", "135949.672500", "135950.132500", "135950.592500", "135951.052500", "135951.512500", "135951.972500", "135952.432500", "135952.892500", "135953.352500", "135953.812500", "135954.272500", "135954.732500", "135955.192500", "135955.652500", "135956.112500", "135956.572500", "135957.032500", "135957.492500", "135957.952500", "135958.412500", "135958.872500", "135959.332500", "135959.792500", "140000.252500", "140000.712500", "140001.172500", "140001.632500", "140002.092500", "140002.552500", "140003.012500", "140003.472500", "140003.932500", "140004.392500", "140004.852500", "140005.312500", "140005.772500", "140006.232500", "140006.692500", "140007.152500", "140007.612500", "140008.072500", "140008.532500", "140008.992500", "140009.452500", "140009.912500", "140010.372500", "140010.832500", "140011.292500", "140011.752500", "140012.212500", "140012.672500", "140013.132500", "140013.592500", "140014.052500", "140014.512500", "140014.972500", "140015.432500", "140015.892500", "140016.352500", "140016.812500", "140017.272500", "140017.732500", "140018.192500", "140018.652500", "140019.112500", "140019.572500", "140020.032500", "140020.492500", "140020.952500", "140021.412500", "140021.872500", "140022.332500", "140022.792500", "140023.252500", "140023.712500", "140024.172500", "140024.632500", "140025.092500", "140025.552500", "140026.012500", "140026.472500", "140026.932500", "140027.392500", "140027.852500", "140028.312500", "140028.772500", "140029.232500", "140029.692500", "140030.152500", "140030.612500", "140031.072500", "140031.532500", "140031.992500", "140032.452500", "140032.912500", "140033.372500", "140033.832500", "140034.292500", "140034.752500", "140035.212500", "140035.672500", "140036.132500", "140036.592500", "140037.052500", "140037.512500", "140037.972500", "140038.432500", "140038.892500", "140039.352500", "140039.812500", "140040.272500", "140040.732500", "140041.192500", "140041.652500", "140042.112500", "140042.572500", "140043.032500", "140043.492500", "140043.952500", "140044.412500", "140044.872500", "140045.332500", "140045.792500", "140046.252500", "140046.712500", "140047.172500", "140047.632500", "140048.092500", "140048.552500", "140049.012500", "140049.472500", "140049.932500", "140050.392500", "140050.852500", "140051.312500", "140051.772500", "140052.232500", "140052.692500", "140053.152500", "140053.612500", "140054.072500", "140054.532500", "140054.992500", "140055.452500", "140055.912500", "140056.372500", "140056.832500", "140057.292500", "140057.752500", "140058.212500", "140058.672500", "140059.132500", "140059.592500", "140100.052500", "140100.512500", "140100.972500", "140101.432500", "140101.892500", "140102.352500", "140102.812500", "140103.272500", "140103.732500", "140104.192500", "140104.652500", "140105.112500", "140105.572500", "140106.032500", "140106.492500", "140106.952500", "140107.412500", "140107.872500", "140108.332500", "140108.792500", "140109.252500", "140109.712500", "140110.172500", "140110.632500", "140111.092500", "140111.552500", "140112.012500", "140112.472500", "140112.932500", "140113.392500", "140113.852500", "140114.312500", "140114.772500", "140115.232500", "140115.692500", "140116.152500", "140116.612500", "140117.072500", "140117.532500", "140117.992500", "140118.452500", "140118.912500", "140119.372500", "140119.832500", "140120.292500", "140120.752500", "140121.212500", "140121.672500", "140122.132500", "140122.592500", "140123.052500", "140123.512500", "140123.972500", "140124.432500", "140124.892500", "140125.352500", "140125.812500", "140126.272500", "140126.732500", "140127.192500", "140127.652500", "140128.112500", "140128.572500", "140129.032500", "140129.492500", "140129.952500", "140130.412500", "140130.872500", "140131.332500", "140131.792500", "140132.252500", "140132.712500", "140133.172500", "140133.632500", "140134.092500", "140134.552500", "140135.012500", "140135.472500", "140135.932500", "140136.392500", "140136.852500", "140137.312500", "140137.772500", "140138.232500", "140138.692500", "140139.152500", "140139.612500", "140140.072500", "140140.532500", "140140.992500", "140141.452500", "140141.912500", "140142.372500", "140142.832500", "140143.292500", "140143.752500", "140144.212500", "140144.672500", "140145.132500", "140145.592500", "140146.052500", "140146.512500", "140146.972500", "140147.432500", "140147.892500", "140148.352500", "140148.812500", "140149.272500", "140149.732500", "140150.192500", "140150.652500", "140151.112500", "140151.572500", "140152.032500", "140152.492500", "140152.952500", "140153.412500", "140153.872500", "140154.332500", "140154.792500", "140155.252500", "140155.712500", "140156.172500", "140156.632500", "140157.092500", "140157.552500", "140158.012500", "140158.472500", "140158.932500", "140159.392500", "140159.852500", "140200.312500", "140200.772500", "140201.232500", "140201.692500", "140202.152500", "140202.612500", "140203.072500", "140203.532500", "140203.992500"],
