{
  "AcquisitionMatrixPE": 82,
  "AcquisitionNumber": 1,
  "AcquisitionTime": "13:48:21.187500",
  "BandwidthPerPixelPhaseEncode": 24.888,
  "BaseResolution": 82,
  "BodyPartExamined": "BRAIN",
  "ConsistencyInfo": "N4_VE11C_LATEST_20160120",
  "ConversionSoftware": "dcm2niix",
  "ConversionSoftwareVersion": "v1.0.20201102",
  "DerivedVendorReportedEchoSpacing": 0.00049,
  "DeviceSerialNumber": "66112",
  "DwellTime": 2e-06,
  "EchoTime": 0.0272,
  "EchoTrainLength": 82,
  "EffectiveEchoSpacing": 0.00049,
  "FlipAngle": 44,
  "ImageComments": "Unaliased MB8/PE3",
  "ImageOrientationPatientDICOM": [0.999904, -0.00606079, 0.0124279, 0.00610821, 0.999974, -0.00378182],
  "ImageType": [
    "ORIGINAL",
    "PRIMARY",
    "M",
    "MB",
    "ND",
    "NORM",
    "MOSAIC"
],
  "ImagingFrequency": 123.252,
  "InPlanePhaseEncodingDirectionDICOM": "COL",
  "InstitutionAddress": "Maynard 3,Hanover,NH,US,03755",
  "InstitutionName": "Dartmouth College - PBS",
  "InstitutionalDepartmentName": "Department",
  "MRAcquisitionType": "2D",
  "MagneticFieldStrength": 3,
  "Manufacturer": "Siemens",
  "ManufacturersModelName": "Prisma",
  "Modality": "MR",
  "MultibandAccelerationFactor": 8,
  "PartialFourier": 1,
  "PatientPosition": "HFS",
  "PercentPhaseFOV": 100,
  "PercentSampling": 100,
  "PhaseEncodingDirection": "j-",
  "PhaseEncodingSteps": 82,
  "PhaseResolution": 1,
  "PixelBandwidth": 3050,
  "ProcedureStepDescription": "Wager_Wager^1076_spacetop",
  "ProtocolName": "func_run-03_task-social_acq-ap-mb8",
  "PulseSequenceDetails": "%CustomerSeq%\\cmrr_mbep2d_bold",
  "ReceiveCoilActiveElements": "HEA;HEP",
  "ReceiveCoilName": "Head_32",
  "ReconMatrixPE": 82,
  "RepetitionTime": 0.46,
  "SAR": 0.100817,
  "ScanOptions": "FS",
  "ScanningSequence": "EP",
  "SequenceName": "epfid2d1_82",
  "SequenceVariant": "SK\\SS",
  "SeriesDescription": "func_run-03_task-social_acq-ap-mb8",
  "SeriesNumber": 12,
  "ShimSetting": [4144, -7757, -7248, 554, -38, 2, -37, 47],
  "SliceThickness": 2.7,
  "SliceTiming": [0, 0.2525, 0.0625, 0.315, 0.125, 0.3775, 0.19, 0, 0.2525, 0.0625, 0.315, 0.125, 0.3775, 0.19, 0, 0.2525, 0.0625, 0.315, 0.125, 0.3775, 0.19, 0, 0.2525, 0.0625, 0.315, 0.125, 0.3775, 0.19, 0, 0.2525, 0.0625, 0.315, 0.125, 0.3775, 0.19, 0, 0.2525, 0.0625, 0.315, 0.125, 0.3775, 0.19, 0, 0.2525, 0.0625, 0.315, 0.125, 0.3775, 0.19, 0, 0.2525, 0.0625, 0.315, 0.125, 0.3775, 0.19],
  "SoftwareVersions": "syngo MR E11",
  "SpacingBetweenSlices": 2.7,
  "StationName": "AWP66112",
  "TaskName": "social",
  "TotalReadoutTime": 0.03969,
  "TxRefAmp": 243.969,
  "WipMemBlock": "6e4c3f57-8d32-4a92-bbae-800f658490e9||Sequence: R016 ve11c/master r/e634e98; Dec 19 2017 11:00:25 by eja",
  "dcmmeta_affine": [
    [-2.6826703548431396, 0.01638789102435112, 0.033492524176836014, 111.96635437011719],
    [0.016260646283626556, 2.6828577518463135, -0.010414899326860905, -98.06129455566406],
    [0.03334309533238411, 0.01014634594321251, 2.6997721195220947, -57.33991622924805],
    [0.0, 0.0, 0.0, 1.0]
],
  "dcmmeta_reorient_transform": [
    [0.0, -1.0, 0.0, 81.0],
    [1.0, 0.0, 0.0, 0.0],
    [0.0, 0.0, 1.0, 0.0],
    [0.0, 0.0, 0.0, 1.0]
],
  "dcmmeta_shape": [82, 82, 56, 872],
  "dcmmeta_slice_dim": 2,
  "dcmmeta_version": 0.6,
  "global": {
    "const": {
      "AccessionNumber": "A003640",
      "AcquisitionMatrix": [82, 0, 0, 82],
      "AngioFlag": "N",
      "BitsAllocated": 16,
      "BitsStored": 16,
      "BodyPartExamined": "BRAIN",
      "Columns": 656,
      "EchoNumbers": 1,
      "EchoTime": 27.2,
      "EchoTrainLength": 82,
      "FlipAngle": 44.0,
      "HighBit": 15,
      "ImageOrientationPatient": [0.99990440275605, -0.0060607859659, 0.01242788085496, 0.0061082134897, 0.99997419345127, -0.003781819596],
      "ImagePositionPatient": [-887.92350984924, -884.56351434074, -63.175527802638],
      "ImageType": [
        "ORIGINAL",
        "PRIMARY",
        "M",
        "MB",
        "ND",
        "NORM",
        "MOSAIC"
],
      "ImagedNucleus": "1H",
      "ImagingFrequency": 123.252184,
      "InPlanePhaseEncodingDirection": "COL",
      "MRAcquisitionType": "2D",
      "MagneticFieldStrength": 3.0,
      "Manufacturer": "SIEMENS",
      "ManufacturerModelName": "Prisma",
      "Modality": "MR",
      "NumberOfAverages": 1.0,
      "NumberOfPhaseEncodingSteps": 82,
      "PercentPhaseFieldOfView": 100.0,
      "PercentSampling": 100.0,
      "PerformedProcedureStepStartTime": "131708.282000",
      "PhotometricInterpretation": "MONOCHROME2",
      "PixelBandwidth": 3050.0,
      "PixelRepresentation": 0,
      "PixelSpacing": [2.6829268932343, 2.6829268932343],
      "ProtocolName": "func_run-03_task-social_acq-ap-mb8",
      "RepetitionTime": 460.0,
      "Rows": 656,
      "SAR": 0.10081727264076,
      "SamplesPerPixel": 1,
      "ScanOptions": "FS",
      "ScanningSequence": "EP",
      "SequenceName": "epfid2d1_82",
      "SequenceVariant": [
        "SK",
        "SS"
],
      "SeriesDescription": "func_run-03_task-social_acq-ap-mb8",
      "SeriesNumber": 12,
      "SeriesTime": "134844.012000",
      "SliceLocation": -55.567915059903,
      "SliceThickness": 2.7000000476837,
      "SmallestImagePixelValue": 0,
      "SoftwareVersions": "syngo MR E11",
      "SpacingBetweenSlices": 2.6999999171614,
      "SpecificCharacterSet": "ISO_IR 100",
      "StudyID": "1",
      "StudyTime": "131708.162000",
      "TransmitCoilName": "Body",
      "VariableFlipAngleFlag": "N",
      "WindowCenterWidthExplanation": "Algo1",
      "dBdt": 0.0},
    "slices": {}
  },
  "time": {
    "samples": {
      "AcquisitionNumber": [1, 2, 3, 4, 5, 6, 7, 8, 9, 10, 11, 12, 13, 14, 15, 16, 17, 18, 19, 20, 21, 22, 23, 24, 25, 26, 27, 28, 29, 30, 31, 32, 33, 34, 35, 36, 37, 38, 39, 40, 41, 42, 43, 44, 45, 46, 47, 48, 49, 50, 51, 52, 53, 54, 55, 56, 57, 58, 59, 60, 61, 62, 63, 64, 65, 66, 67, 68, 69, 70, 71, 72, 73, 74, 75, 76, 77, 78, 79, 80, 81, 82, 83, 84, 85, 86, 87, 88, 89, 90, 91, 92, 93, 94, 95, 96, 97, 98, 99, 100, 101, 102, 103, 104, 105, 106, 107, 108, 109, 110, 111, 112, 113, 114, 115, 116, 117, 118, 119, 120, 121, 122, 123, 124, 125, 126, 127, 128, 129, 130, 131, 132, 133, 134, 135, 136, 137, 138, 139, 140, 141, 142, 143, 144, 145, 146, 147, 148, 149, 150, 151, 152, 153, 154, 155, 156, 157, 158, 159, 160, 161, 162, 163, 164, 165, 166, 167, 168, 169, 170, 171, 172, 173, 174, 175, 176, 177, 178, 179, 180, 181, 182, 183, 184, 185, 186, 187, 188, 189, 190, 191, 192, 193, 194, 195, 196, 197, 198, 199, 200, 201, 202, 203, 204, 205, 206, 207, 208, 209, 210, 211, 212, 213, 214, 215, 216, 217, 218, 219, 220, 221, 222, 223, 224, 225, 226, 227, 228, 229, 230, 231, 232, 233, 234, 235, 236, 237, 238, 239, 240, 241, 242, 243, 244, 245, 246, 247, 248, 249, 250, 251, 252, 253, 254, 255, 256, 257, 258, 259, 260, 261, 262, 263, 264, 265, 266, 267, 268, 269, 270, 271, 272, 273, 274, 275, 276, 277, 278, 279, 280, 281, 282, 283, 284, 285, 286, 287, 288, 289, 290, 291, 292, 293, 294, 295, 296, 297, 298, 299, 300, 301, 302, 303, 304, 305, 306, 307, 308, 309, 310, 311, 312, 313, 314, 315, 316, 317, 318, 319, 320, 321, 322, 323, 324, 325, 326, 327, 328, 329, 330, 331, 332, 333, 334, 335, 336, 337, 338, 339, 340, 341, 342, 343, 344, 345, 346, 347, 348, 349, 350, 351, 352, 353, 354, 355, 356, 357, 358, 359, 360, 361, 362, 363, 364, 365, 366, 367, 368, 369, 370, 371, 372, 373, 374, 375, 376, 377, 378, 379, 380, 381, 382, 383, 384, 385, 386, 387, 388, 389, 390, 391, 392, 393, 394, 395, 396, 397, 398, 399, 400, 401, 402, 403, 404, 405, 406, 407, 408, 409, 410, 411, 412, 413, 414, 415, 416, 417, 418, 419, 420, 421, 422, 423, 424, 425, 426, 427, 428, 429, 430, 431, 432, 433, 434, 435, 436, 437, 438, 439, 440, 441, 442, 443, 444, 445, 446, 447, 448, 449, 450, 451, 452, 453, 454, 455, 456, 457, 458, 459, 460, 461, 462, 463, 464, 465, 466, 467, 468, 469, 470, 471, 472, 473, 474, 475, 476, 477, 478, 479, 480, 481, 482, 483, 484, 485, 486, 487, 488, 489, 490, 491, 492, 493, 494, 495, 496, 497, 498, 499, 500, 501, 502, 503, 504, 505, 506, 507, 508, 509, 510, 511, 512, 513, 514, 515, 516, 517, 518, 519, 520, 521, 522, 523, 524, 525, 526, 527, 528, 529, 530, 531, 532, 533, 534, 535, 536, 537, 538, 539, 540, 541, 542, 543, 544, 545, 546, 547, 548, 549, 550, 551, 552, 553, 554, 555, 556, 557, 558, 559, 560, 561, 562, 563, 564, 565, 566, 567, 568, 569, 570, 571, 572, 573, 574, 575, 576, 577, 578, 579, 580, 581, 582, 583, 584, 585, 586, 587, 588, 589, 590, 591, 592, 593, 594, 595, 596, 597, 598, 599, 600, 601, 602, 603, 604, 605, 606, 607, 608, 609, 610, 611, 612, 613, 614, 615, 616, 617, 618, 619, 620, 621, 622, 623, 624, 625, 626, 627, 628, 629, 630, 631, 632, 633, 634, 635, 636, 637, 638, 639, 640, 641, 642, 643, 644, 645, 646, 647, 648, 649, 650, 651, 652, 653, 654, 655, 656, 657, 658, 659, 660, 661, 662, 663, 664, 665, 666, 667, 668, 669, 670, 671, 672, 673, 674, 675, 676, 677, 678, 679, 680, 681, 682, 683, 684, 685, 686, 687, 688, 689, 690, 691, 692, 693, 694, 695, 696, 697, 698, 699, 700, 701, 702, 703, 704, 705, 706, 707, 708, 709, 710, 711, 712, 713, 714, 715, 716, 717, 718, 719, 720, 721, 722, 723, 724, 725, 726, 727, 728, 729, 730, 731, 732, 733, 734, 735, 736, 737, 738, 739, 740, 741, 742, 743, 744, 745, 746, 747, 748, 749, 750, 751, 752, 753, 754, 755, 756, 757, 758, 759, 760, 761, 762, 763, 764, 765, 766, 767, 768, 769, 770, 771, 772, 773, 774, 775, 776, 777, 778, 779, 780, 781, 782, 783, 784, 785, 786, 787, 788, 789, 790, 791, 792, 793, 794, 795, 796, 797, 798, 799, 800, 801, 802, 803, 804, 805, 806, 807, 808, 809, 810, 811, 812, 813, 814, 815, 816, 817, 818, 819, 820, 821, 822, 823, 824, 825, 826, 827, 828, 829, 830, 831, 832, 833, 834, 835, 836, 837, 838, 839, 840, 841, 842, 843, 844, 845, 846, 847, 848, 849, 850, 851, 852, 853, 854, 855, 856, 857, 858, 859, 860, 861, 862, 863, 864, 865, 866, 867, 868, 869, 870, 871, 872],
      "AcquisitionTime": ["134821.187500", "134821.647500", "134822.107500", "134822.567500", "134823.027500", "134823.487500", "134823.947500", "134824.407500", "134824.867500", "134825.327500", "134825.787500", "134826.247500", "134826.707500", "134827.167500", "134827.627500", "134828.087500", "134828.547500", "134829.007500", "134829.467500", "134829.927500", "134830.387500", "134830.847500", "134831.307500", "134831.767500", "134832.227500", "134832.687500", "134833.147500", "134833.607500", "134834.067500", "134834.527500", "134834.987500", "134835.447500", "134835.907500", "134836.367500", "134836.827500", "134837.287500", "134837.747500", "134838.207500", "134838.667500", "134839.127500", "134839.587500", "134840.047500", "134840.507500", "134840.967500", "134841.427500", "134841.887500", "134842.347500", "134842.807500", "134843.267500", "134843.727500", "134844.187500", "134844.647500", "134845.107500", "134845.567500", "134846.027500", "134846.487500", "134846.947500", "134847.407500", "134847.867500", "134848.327500", "134848.787500", "134849.247500", "134849.707500", "134850.167500", "134850.627500", "134851.087500", "134851.547500", "134852.007500", "134852.467500", "134852.927500", "134853.387500", "134853.847500", "134854.307500", "134854.767500", "134855.227500", "134855.687500", "134856.147500", "134856.607500", "134857.067500", "134857.527500", "134857.987500", "134858.447500", "134858.907500", "134859.367500", "134859.827500", "134900.287500", "134900.747500", "134901.207500", "134901.667500", "134902.127500", "134902.587500", "134903.047500", "134903.507500", "134903.967500", "134904.427500", "134904.887500", "134905.347500", "134905.807500", "134906.267500", "134906.727500", "134907.187500", "134907.647500", "134908.107500", "134908.567500", "134909.027500", "134909.487500", "134909.947500", "134910.407500", "134910.867500", "134911.327500", "134911.787500", "134912.247500", "134912.707500", "134913.167500", "134913.627500", "134914.087500", "134914.547500", "134915.007500", "134915.467500", "134915.927500", "134916.387500", "134916.847500", "134917.307500", "134917.767500", "134918.227500", "134918.687500", "134919.147500", "134919.607500", "134920.067500", "134920.527500", "134920.987500", "134921.447500", "134921.907500", "134922.367500", "134922.827500", "134923.287500", "134923.747500", "134924.207500", "134924.667500", "134925.127500", "134925.587500", "134926.047500", "134926.507500", "134926.967500", "134927.427500", "134927.887500", "134928.347500", "134928.807500", "134929.267500", "134929.727500", "134930.187500", "134930.647500", "134931.107500", "134931.567500", "134932.027500", "134932.487500", "134932.947500", "134933.407500", "134933.867500", "134934.327500", "134934.787500", "134935.247500", "134935.707500", "134936.167500", "134936.627500", "134937.087500", "134937.547500", "134938.007500", "134938.467500", "134938.927500", "134939.387500", "134939.847500", "134940.307500", "134940.767500", "134941.227500", "134941.687500", "134942.147500", "134942.607500", "134943.067500", "134943.527500", "134943.987500", "134944.447500", "134944.907500", "134945.367500", "134945.827500", "134946.287500", "134946.747500", "134947.207500", "134947.667500", "134948.127500", "134948.587500", "134949.047500", "134949.507500", "134949.967500", "134950.427500", "134950.887500", "134951.347500", "134951.807500", "134952.267500", "134952.727500", "134953.187500", "134953.647500", "134954.107500", "134954.567500", "134955.027500", "134955.487500", "134955.947500", "134956.407500", "134956.867500", "134957.327500", "134957.787500", "134958.247500", "134958.707500", "134959.167500", "134959.627500", "135000.087500", "135000.547500", "135001.007500", "135001.467500", "135001.927500", "135002.387500", "135002.847500", "135003.307500", "135003.767500", "135004.227500", "135004.687500", "135005.147500", "135005.607500", "135006.067500", "135006.527500", "135006.987500", "135007.447500", "135007.907500", "135008.367500", "135008.827500", "135009.287500", "135009.747500", "135010.207500", "135010.667500", "135011.127500", "135011.587500", "135012.047500", "135012.507500", "135012.967500", "135013.427500", "135013.887500", "135014.347500", "135014.807500", "135015.267500", "135015.727500", "135016.187500", "135016.647500", "135017.107500", "135017.567500", "135018.027500", "135018.487500", "135018.947500", "135019.407500", "135019.867500", "135020.327500", "135020.787500", "135021.247500", "135021.707500", "135022.167500", "135022.627500", "135023.087500", "135023.547500", "135024.007500", "135024.467500", "135024.927500", "135025.387500", "135025.847500", "135026.307500", "135026.767500", "135027.227500", "135027.687500", "135028.147500", "135028.607500", "135029.067500", "135029.527500", "135029.987500", "135030.447500", "135030.907500", "135031.367500", "135031.827500", "135032.287500", "135032.747500", "135033.207500", "135033.667500", "135034.127500", "135034.587500", "135035.047500", "135035.507500", "135035.967500", "135036.427500", "135036.887500", "135037.347500", "135037.807500", "135038.267500", "135038.727500", "135039.187500", "135039.647500", "135040.107500", "135040.567500", "135041.027500", "135041.487500", "135041.947500", "135042.407500", "135042.867500", "135043.327500", "135043.787500", "135044.247500", "135044.707500", "135045.167500", "135045.627500", "135046.087500", "135046.547500", "135047.007500", "135047.467500", "135047.927500", "135048.387500", "135048.847500", "135049.307500", "135049.767500", "135050.227500", "135050.687500", "135051.147500", "135051.607500", "135052.067500", "135052.527500", "135052.987500", "135053.447500", "135053.907500", "135054.367500", "135054.827500", "135055.287500", "135055.747500", "135056.207500", "135056.667500", "135057.127500", "135057.587500", "135058.047500", "135058.507500", "135058.967500", "135059.427500", "135059.887500", "135100.347500", "135100.807500", "135101.267500", "135101.727500", "135102.187500", "135102.647500", "135103.107500", "135103.567500", "135104.027500", "135104.487500", "135104.947500", "135105.407500", "135105.867500", "135106.327500", "135106.787500", "135107.247500", "135107.707500", "135108.167500", "135108.627500", "135109.087500", "135109.547500", "135110.007500", "135110.467500", "135110.927500", "135111.387500", "135111.847500", "135112.307500", "135112.767500", "135113.227500", "135113.687500", "135114.147500", "135114.607500", "135115.067500", "135115.527500", "135115.987500", "135116.447500", "135116.907500", "135117.367500", "135117.827500", "135118.287500", "135118.747500", "135119.207500", "135119.667500", "135120.127500", "135120.587500", "135121.047500", "135121.507500", "135121.967500", "135122.427500", "135122.887500", "135123.347500", "135123.807500", "135124.267500", "135124.727500", "135125.187500", "135125.647500", "135126.107500", "135126.567500", "135127.027500", "135127.487500", "135127.947500", "135128.407500", "135128.867500", "135129.327500", "135129.787500", "135130.247500", "135130.707500", "135131.167500", "135131.627500", "135132.087500", "135132.547500", "135133.007500", "135133.467500", "135133.927500", "135134.387500", "135134.847500", "135135.307500", "135135.767500", "135136.227500", "135136.687500", "135137.147500", "135137.607500", "135138.067500", "135138.527500", "135138.987500", "135139.447500", "135139.907500", "135140.367500", "135140.827500", "135141.287500", "135141.747500", "135142.207500", "135142.667500", "135143.127500", "135143.587500", "135144.047500", "135144.507500", "135144.967500", "135145.427500", "135145.887500", "135146.347500", "135146.807500", "135147.267500", "135147.727500", "135148.187500", "135148.647500", "135149.107500", "135149.567500", "135150.027500", "135150.487500", "135150.947500", "135151.407500", "135151.867500", "135152.327500", "135152.787500", "135153.247500", "135153.707500", "135154.167500", "135154.627500", "135155.087500", "135155.547500", "135156.007500", "135156.467500", "135156.927500", "135157.387500", "135157.847500", "135158.307500", "135158.767500", "135159.227500", "135159.687500", "135200.147500", "135200.607500", "135201.067500", "135201.527500", "135201.987500", "135202.447500", "135202.907500", "135203.367500", "135203.827500", "135204.287500", "135204.747500", "135205.207500", "135205.667500", "135206.127500", "135206.587500", "135207.047500", "135207.507500", "135207.967500", "135208.427500", "135208.887500", "135209.347500", "135209.807500", "135210.267500", "135210.727500", "135211.187500", "135211.647500", "135212.107500", "135212.567500", "135213.027500", "135213.487500", "135213.947500", "135214.407500", "135214.867500", "135215.327500", "135215.787500", "135216.247500", "135216.707500", "135217.167500", "135217.627500", "135218.087500", "135218.547500", "135219.007500", "135219.467500", "135219.927500", "135220.387500", "135220.847500", "135221.307500", "135221.767500", "135222.227500", "135222.687500", "135223.147500", "135223.607500", "135224.067500", "135224.527500", "135224.987500", "135225.447500", "135225.907500", "135226.367500", "135226.827500", "135227.287500", "135227.747500", "135228.207500", "135228.667500", "135229.127500", "135229.587500", "135230.047500", "135230.507500", "135230.967500", "135231.427500", "135231.887500", "135232.347500", "135232.807500", "135233.267500", "135233.727500", "135234.187500", "135234.647500", "135235.107500", "135235.567500", "135236.027500", "135236.487500", "135236.947500", "135237.407500", "135237.867500", "135238.327500", "135238.787500", "135239.247500", "135239.707500", "135240.167500", "135240.627500", "135241.087500", "135241.547500", "135242.007500", "135242.467500", "135242.927500", "135243.387500", "135243.847500", "135244.307500", "135244.767500", "135245.227500", "135245.687500", "135246.147500", "135246.607500", "135247.067500", "135247.527500", "135247.987500", "135248.447500", "135248.907500", "135249.367500", "135249.827500", "135250.287500", "135250.747500", "135251.207500", "135251.667500", "135252.127500", "135252.587500", "135253.047500", "135253.507500", "135253.967500", "135254.427500", "135254.887500", "135255.347500", "135255.807500", "135256.267500", "135256.727500", "135257.187500", "135257.647500", "135258.107500", "135258.567500", "135259.027500", "135259.487500", "135259.947500", "135300.407500", "135300.867500", "135301.327500", "135301.787500", "135302.247500", "135302.707500", "135303.167500", "135303.627500", "135304.087500", "135304.547500", "135305.007500", "135305.467500", "135305.927500", "135306.387500", "135306.847500", "135307.307500", "135307.767500", "135308.227500", "135308.687500", "135309.147500", "135309.607500", "135310.067500", "135310.527500", "135310.987500", "135311.447500", "135311.907500", "135312.367500", "135312.827500", "135313.287500", "135313.747500", "135314.207500", "135314.667500", "135315.127500", "135315.587500", "135316.047500", "135316.507500", "135316.967500", "135317.427500", "135317.887500", "135318.347500", "135318.807500", "135319.267500", "135319.727500", "135320.187500", "135320.647500", "135321.107500", "135321.567500", "135322.027500", "135322.487500", "135322.947500", "135323.407500", "135323.867500", "135324.327500", "135324.787500", "135325.247500", "135325.707500", "135326.167500", "135326.627500", "135327.087500", "135327.547500", "135328.007500", "135328.467500", "135328.927500", "135329.387500", "135329.847500", "135330.307500", "135330.767500", "135331.227500", "135331.687500", "135332.147500", "135332.607500", "135333.067500", "135333.527500", "135333.987500", "135334.447500", "135334.907500", "135335.367500", "135335.827500", "135336.287500", "135336.747500", "135337.207500", "135337.667500", "135338.127500", "135338.587500", "135339.047500", "135339.507500", "135339.967500", "135340.427500", "135340.887500", "135341.347500", "135341.807500", "135342.267500", "135342.727500", "135343.187500", "135343.647500", "135344.107500", "135344.567500", "135345.027500", "135345.487500", "135345.947500", "135346.407500", "135346.867500", "135347.327500", "135347.787500", "135348.247500", "135348.707500", "135349.167500", "135349.627500", "135350.087500", "135350.547500", "135351.007500", "135351.467500", "135351.927500", "135352.387500", "135352.847500", "135353.307500", "135353.767500", "135354.227500", "135354.687500", "135355.147500", "135355.607500", "135356.067500", "135356.527500", "135356.987500", "135357.447500", "135357.907500", "135358.367500", "135358.827500", "135359.287500", "135359.747500", "135400.207500", "135400.667500", "135401.127500", "135401.587500", "135402.047500", "135402.507500", "135402.967500", "135403.427500", "135403.887500", "135404.347500", "135404.807500", "135405.267500", "135405.727500", "135406.187500", "135406.647500", "135407.107500", "135407.567500", "135408.027500", "135408.487500", "135408.947500", "135409.407500", "135409.867500", "135410.327500", "135410.787500", "135411.247500", "135411.707500", "135412.167500", "135412.627500", "135413.087500", "135413.547500", "135414.007500", "135414.467500", "135414.927500", "135415.387500", "135415.847500", "135416.307500", "135416.767500", "135417.227500", "135417.687500", "135418.147500", "135418.607500", "135419.067500", "135419.527500", "135419.987500", "135420.447500", "135420.907500", "135421.367500", "135421.827500", "135422.287500", "135422.747500", "135423.207500", "135423.667500", "135424.127500", "135424.587500", "135425.047500", "135425.507500", "135425.967500", "135426.427500", "135426.887500", "135427.347500", "135427.807500", "135428.267500", "135428.727500", "135429.187500", "135429.647500", "135430.107500", "135430.567500", "135431.027500", "135431.487500", "135431.947500", "135432.407500", "135432.867500", "135433.327500", "135433.787500", "135434.247500", "135434.707500", "135435.167500", "135435.627500", "135436.087500", "135436.547500", "135437.007500", "135437.467500", "135437.927500", "135438.387500", "135438.847500", "135439.307500", "135439.767500", "135440.227500", "135440.687500", "135441.147500", "135441.607500", "135442.067500", "135442.527500", "135442.987500", "135443.447500", "135443.907500", "135444.367500", "135444.827500", "135445.287500", "135445.747500", "135446.207500", "135446.667500", "135447.127500", "135447.587500", "135448.047500", "135448.507500", "135448.967500", "135449.427500", "135449.887500", "135450.347500", "135450.807500", "135451.267500", "135451.727500", "135452.187500", "135452.647500", "135453.107500", "135453.567500", "135454.027500", "135454.487500", "135454.947500", "135455.407500", "135455.867500", "135456.327500", "135456.787500", "135457.247500", "135457.707500", "135458.167500", "135458.627500", "135459.087500", "135459.547500", "135500.007500", "135500.467500", "135500.927500", "135501.387500", "135501.847500"],
