{
  "AcquisitionMatrixPE": 82,
  "AcquisitionNumber": 1,
  "AcquisitionTime": "14:14:19.747500",
  "BandwidthPerPixelPhaseEncode": 24.888,
  "BaseResolution": 82,
  "BodyPartExamined": "BRAIN",
  "ConsistencyInfo": "N4_VE11C_LATEST_20160120",
  "ConversionSoftware": "dcm2niix",
  "ConversionSoftwareVersion": "v1.0.20201102",
  "DerivedVendorReportedEchoSpacing": 0.00049,
  "DeviceSerialNumber": "66112",
  "DwellTime": 2e-06,
  "EchoTime": 0.0272,
  "EchoTrainLength": 82,
  "EffectiveEchoSpacing": 0.00049,
  "FlipAngle": 44,
  "ImageComments": "Unaliased MB8/PE3",
  "ImageOrientationPatientDICOM": [0.999904, -0.00606079, 0.0124279, 0.00610821, 0.999974, -0.00378182],
  "ImageType": [
    "ORIGINAL",
    "PRIMARY",
    "M",
    "MB",
    "ND",
    "NORM",
    "MOSAIC"
],
  "ImagingFrequency": 123.252,
  "InPlanePhaseEncodingDirectionDICOM": "COL",
  "InstitutionAddress": "Maynard 3,Hanover,NH,US,03755",
  "InstitutionName": "Dartmouth College - PBS",
  "InstitutionalDepartmentName": "Department",
  "MRAcquisitionType": "2D",
  "MagneticFieldStrength": 3,
  "Manufacturer": "Siemens",
  "ManufacturersModelName": "Prisma",
  "Modality": "MR",
  "MultibandAccelerationFactor": 8,
  "PartialFourier": 1,
  "PatientPosition": "HFS",
  "PercentPhaseFOV": 100,
  "PercentSampling": 100,
  "PhaseEncodingDirection": "j-",
  "PhaseEncodingSteps": 82,
  "PhaseResolution": 1,
  "PixelBandwidth": 3050,
  "ProcedureStepDescription": "Wager_Wager^1076_spacetop",
  "ProtocolName": "func_run-06_task-social_acq-ap-mb8",
  "PulseSequenceDetails": "%CustomerSeq%\\cmrr_mbep2d_bold",
  "ReceiveCoilActiveElements": "HEA;HEP",
  "ReceiveCoilName": "Head_32",
  "ReconMatrixPE": 82,
  "RepetitionTime": 0.46,
  "SAR": 0.100817,
  "ScanOptions": "FS",
  "ScanningSequence": "EP",
  "SequenceName": "epfid2d1_82",
  "SequenceVariant": "SK\\SS",
  "SeriesDescription": "func_run-06_task-social_acq-ap-mb8",
  "SeriesNumber": 18,
  "ShimSetting": [4144, -7757, -7248, 554, -38, 2, -37, 47],
  "SliceThickness": 2.7,
  "SliceTiming": [0, 0.2525, 0.0625, 0.315, 0.125, 0.3775, 0.19, 0, 0.2525, 0.0625, 0.315, 0.125, 0.3775, 0.19, 0, 0.2525, 0.0625, 0.315, 0.125, 0.3775, 0.19, 0, 0.2525, 0.0625, 0.315, 0.125, 0.3775, 0.19, 0, 0.2525, 0.0625, 0.315, 0.125, 0.3775, 0.19, 0, 0.2525, 0.0625, 0.315, 0.125, 0.3775, 0.19, 0, 0.2525, 0.0625, 0.315, 0.125, 0.3775, 0.19, 0, 0.2525, 0.0625, 0.315, 0.125, 0.3775, 0.19],
  "SoftwareVersions": "syngo MR E11",
  "SpacingBetweenSlices": 2.7,
  "StationName": "AWP66112",
  "TaskName": "social",
  "TotalReadoutTime": 0.03969,
  "TxRefAmp": 243.969,
  "WipMemBlock": "6be1d107-7d7a-47a0-a553-48a1a5cfb046||Sequence: R016 ve11c/master r/e634e98; Dec 19 2017 11:00:25 by eja",
  "dcmmeta_affine": [
    [-2.6826703548431396, 0.01638789102435112, 0.033492524176836014, 111.96635437011719],
    [0.016260646283626556, 2.6828577518463135, -0.010414899326860905, -98.06129455566406],
    [0.03334309533238411, 0.01014634594321251, 2.6997721195220947, -57.33991622924805],
    [0.0, 0.0, 0.0, 1.0]
],
  "dcmmeta_reorient_transform": [
    [0.0, -1.0, 0.0, 81.0],
    [1.0, 0.0, 0.0, 0.0],
    [0.0, 0.0, 1.0, 0.0],
    [0.0, 0.0, 0.0, 1.0]
],
  "dcmmeta_shape": [82, 82, 56, 872],
  "dcmmeta_slice_dim": 2,
  "dcmmeta_version": 0.6,
  "global": {
    "const": {
      "AccessionNumber": "A003640",
      "AcquisitionMatrix": [82, 0, 0, 82],
      "AngioFlag": "N",
      "BitsAllocated": 16,
      "BitsStored": 16,
      "BodyPartExamined": "BRAIN",
      "Columns": 656,
      "EchoNumbers": 1,
      "EchoTime": 27.2,
      "EchoTrainLength": 82,
      "FlipAngle": 44.0,
      "HighBit": 15,
      "ImageOrientationPatient": [0.99990440275605, -0.0060607859659, 0.01242788085496, 0.0061082134897, 0.99997419345127, -0.003781819596],
      "ImagePositionPatient": [-887.92350984924, -884.56351434074, -63.175527802638],
      "ImageType": [
        "ORIGINAL",
        "PRIMARY",
        "M",
        "MB",
        "ND",
        "NORM",
        "MOSAIC"
],
      "ImagedNucleus": "1H",
      "ImagingFrequency": 123.252196,
      "InPlanePhaseEncodingDirection": "COL",
      "MRAcquisitionType": "2D",
      "MagneticFieldStrength": 3.0,
      "Manufacturer": "SIEMENS",
      "ManufacturerModelName": "Prisma",
      "Modality": "MR",
      "NumberOfAverages": 1.0,
      "NumberOfPhaseEncodingSteps": 82,
      "PercentPhaseFieldOfView": 100.0,
      "PercentSampling": 100.0,
      "PerformedProcedureStepStartTime": "131708.282000",
      "PhotometricInterpretation": "MONOCHROME2",
      "PixelBandwidth": 3050.0,
      "PixelRepresentation": 0,
      "PixelSpacing": [2.6829268932343, 2.6829268932343],
      "ProtocolName": "func_run-06_task-social_acq-ap-mb8",
      "RepetitionTime": 460.0,
      "Rows": 656,
      "SAR": 0.10081727264076,
      "SamplesPerPixel": 1,
      "ScanOptions": "FS",
      "ScanningSequence": "EP",
      "SequenceName": "epfid2d1_82",
      "SequenceVariant": [
        "SK",
        "SS"
],
      "SeriesDescription": "func_run-06_task-social_acq-ap-mb8",
      "SeriesNumber": 18,
      "SeriesTime": "141444.027000",
      "SliceLocation": -55.567915059903,
      "SliceThickness": 2.7000000476837,
      "SmallestImagePixelValue": 0,
      "SoftwareVersions": "syngo MR E11",
      "SpacingBetweenSlices": 2.6999999171614,
      "SpecificCharacterSet": "ISO_IR 100",
      "StudyID": "1",
      "StudyTime": "131708.162000",
      "TransmitCoilName": "Body",
      "VariableFlipAngleFlag": "N",
      "WindowCenterWidthExplanation": "Algo1",
      "dBdt": 0.0},
    "slices": {}
  },
  "time": {
    "samples": {
      "AcquisitionNumber": [1, 2, 3, 4, 5, 6, 7, 8, 9, 10, 11, 12, 13, 14, 15, 16, 17, 18, 19, 20, 21, 22, 23, 24, 25, 26, 27, 28, 29, 30, 31, 32, 33, 34, 35, 36, 37, 38, 39, 40, 41, 42, 43, 44, 45, 46, 47, 48, 49, 50, 51, 52, 53, 54, 55, 56, 57, 58, 59, 60, 61, 62, 63, 64, 65, 66, 67, 68, 69, 70, 71, 72, 73, 74, 75, 76, 77, 78, 79, 80, 81, 82, 83, 84, 85, 86, 87, 88, 89, 90, 91, 92, 93, 94, 95, 96, 97, 98, 99, 100, 101, 102, 103, 104, 105, 106, 107, 108, 109, 110, 111, 112, 113, 114, 115, 116, 117, 118, 119, 120, 121, 122, 123, 124, 125, 126, 127, 128, 129, 130, 131, 132, 133, 134, 135, 136, 137, 138, 139, 140, 141, 142, 143, 144, 145, 146, 147, 148, 149, 150, 151, 152, 153, 154, 155, 156, 157, 158, 159, 160, 161, 162, 163, 164, 165, 166, 167, 168, 169, 170, 171, 172, 173, 174, 175, 176, 177, 178, 179, 180, 181, 182, 183, 184, 185, 186, 187, 188, 189, 190, 191, 192, 193, 194, 195, 196, 197, 198, 199, 200, 201, 202, 203, 204, 205, 206, 207, 208, 209, 210, 211, 212, 213, 214, 215, 216, 217, 218, 219, 220, 221, 222, 223, 224, 225, 226, 227, 228, 229, 230, 231, 232, 233, 234, 235, 236, 237, 238, 239, 240, 241, 242, 243, 244, 245, 246, 247, 248, 249, 250, 251, 252, 253, 254, 255, 256, 257, 258, 259, 260, 261, 262, 263, 264, 265, 266, 267, 268, 269, 270, 271, 272, 273, 274, 275, 276, 277, 278, 279, 280, 281, 282, 283, 284, 285, 286, 287, 288, 289, 290, 291, 292, 293, 294, 295, 296, 297, 298, 299, 300, 301, 302, 303, 304, 305, 306, 307, 308, 309, 310, 311, 312, 313, 314, 315, 316, 317, 318, 319, 320, 321, 322, 323, 324, 325, 326, 327, 328, 329, 330, 331, 332, 333, 334, 335, 336, 337, 338, 339, 340, 341, 342, 343, 344, 345, 346, 347, 348, 349, 350, 351, 352, 353, 354, 355, 356, 357, 358, 359, 360, 361, 362, 363, 364, 365, 366, 367, 368, 369, 370, 371, 372, 373, 374, 375, 376, 377, 378, 379, 380, 381, 382, 383, 384, 385, 386, 387, 388, 389, 390, 391, 392, 393, 394, 395, 396, 397, 398, 399, 400, 401, 402, 403, 404, 405, 406, 407, 408, 409, 410, 411, 412, 413, 414, 415, 416, 417, 418, 419, 420, 421, 422, 423, 424, 425, 426, 427, 428, 429, 430, 431, 432, 433, 434, 435, 436, 437, 438, 439, 440, 441, 442, 443, 444, 445, 446, 447, 448, 449, 450, 451, 452, 453, 454, 455, 456, 457, 458, 459, 460, 461, 462, 463, 464, 465, 466, 467, 468, 469, 470, 471, 472, 473, 474, 475, 476, 477, 478, 479, 480, 481, 482, 483, 484, 485, 486, 487, 488, 489, 490, 491, 492, 493, 494, 495, 496, 497, 498, 499, 500, 501, 502, 503, 504, 505, 506, 507, 508, 509, 510, 511, 512, 513, 514, 515, 516, 517, 518, 519, 520, 521, 522, 523, 524, 525, 526, 527, 528, 529, 530, 531, 532, 533, 534, 535, 536, 537, 538, 539, 540, 541, 542, 543, 544, 545, 546, 547, 548, 549, 550, 551, 552, 553, 554, 555, 556, 557, 558, 559, 560, 561, 562, 563, 564, 565, 566, 567, 568, 569, 570, 571, 572, 573, 574, 575, 576, 577, 578, 579, 580, 581, 582, 583, 584, 585, 586, 587, 588, 589, 590, 591, 592, 593, 594, 595, 596, 597, 598, 599, 600, 601, 602, 603, 604, 605, 606, 607, 608, 609, 610, 611, 612, 613, 614, 615, 616, 617, 618, 619, 620, 621, 622, 623, 624, 625, 626, 627, 628, 629, 630, 631, 632, 633, 634, 635, 636, 637, 638, 639, 640, 641, 642, 643, 644, 645, 646, 647, 648, 649, 650, 651, 652, 653, 654, 655, 656, 657, 658, 659, 660, 661, 662, 663, 664, 665, 666, 667, 668, 669, 670, 671, 672, 673, 674, 675, 676, 677, 678, 679, 680, 681, 682, 683, 684, 685, 686, 687, 688, 689, 690, 691, 692, 693, 694, 695, 696, 697, 698, 699, 700, 701, 702, 703, 704, 705, 706, 707, 708, 709, 710, 711, 712, 713, 714, 715, 716, 717, 718, 719, 720, 721, 722, 723, 724, 725, 726, 727, 728, 729, 730, 731, 732, 733, 734, 735, 736, 737, 738, 739, 740, 741, 742, 743, 744, 745, 746, 747, 748, 749, 750, 751, 752, 753, 754, 755, 756, 757, 758, 759, 760, 761, 762, 763, 764, 765, 766, 767, 768, 769, 770, 771, 772, 773, 774, 775, 776, 777, 778, 779, 780, 781, 782, 783, 784, 785, 786, 787, 788, 789, 790, 791, 792, 793, 794, 795, 796, 797, 798, 799, 800, 801, 802, 803, 804, 805, 806, 807, 808, 809, 810, 811, 812, 813, 814, 815, 816, 817, 818, 819, 820, 821, 822, 823, 824, 825, 826, 827, 828, 829, 830, 831, 832, 833, 834, 835, 836, 837, 838, 839, 840, 841, 842, 843, 844, 845, 846, 847, 848, 849, 850, 851, 852, 853, 854, 855, 856, 857, 858, 859, 860, 861, 862, 863, 864, 865, 866, 867, 868, 869, 870, 871, 872],
      "AcquisitionTime": ["141419.747500", "141420.207500", "141420.667500", "141421.127500", "141421.587500", "141422.047500", "141422.507500", "141422.967500", "141423.427500", "141423.887500", "141424.347500", "141424.807500", "141425.267500", "141425.727500", "141426.187500", "141426.647500", "141427.107500", "141427.567500", "141428.027500", "141428.487500", "141428.947500", "141429.407500", "141429.867500", "141430.327500", "141430.787500", "141431.247500", "141431.707500", "141432.167500", "141432.627500", "141433.087500", "141433.547500", "141434.007500", "141434.467500", "141434.927500", "141435.387500", "141435.847500", "141436.307500", "141436.767500", "141437.227500", "141437.687500", "141438.147500", "141438.607500", "141439.067500", "141439.527500", "141439.987500", "141440.447500", "141440.907500", "141441.367500", "141441.827500", "141442.287500", "141442.747500", "141443.207500", "141443.667500", "141444.127500", "141444.587500", "141445.047500", "141445.507500", "141445.967500", "141446.427500", "141446.887500", "141447.347500", "141447.807500", "141448.267500", "141448.727500", "141449.187500", "141449.647500", "141450.107500", "141450.567500", "141451.027500", "141451.487500", "141451.947500", "141452.407500", "141452.867500", "141453.327500", "141453.787500", "141454.247500", "141454.707500", "141455.167500", "141455.627500", "141456.087500", "141456.547500", "141457.007500", "141457.467500", "141457.927500", "141458.387500", "141458.847500", "141459.307500", "141459.767500", "141500.227500", "141500.687500", "141501.147500", "141501.607500", "141502.067500", "141502.527500", "141502.987500", "141503.447500", "141503.907500", "141504.367500", "141504.827500", "141505.287500", "141505.747500", "141506.207500", "141506.667500", "141507.127500", "141507.587500", "141508.047500", "141508.507500", "141508.967500", "141509.427500", "141509.887500", "141510.347500", "141510.807500", "141511.267500", "141511.727500", "141512.187500", "141512.647500", "141513.107500", "141513.567500", "141514.027500", "141514.487500", "141514.947500", "141515.407500", "141515.867500", "141516.327500", "141516.787500", "141517.247500", "141517.707500", "141518.167500", "141518.627500", "141519.087500", "141519.547500", "141520.007500", "141520.467500", "141520.927500", "141521.387500", "141521.847500", "141522.307500", "141522.767500", "141523.227500", "141523.687500", "141524.147500", "141524.607500", "141525.067500", "141525.527500", "141525.987500", "141526.447500", "141526.907500", "141527.367500", "141527.827500", "141528.287500", "141528.747500", "141529.207500", "141529.667500", "141530.127500", "141530.587500", "141531.047500", "141531.507500", "141531.967500", "141532.427500", "141532.887500", "141533.347500", "141533.807500", "141534.267500", "141534.727500", "141535.187500", "141535.647500", "141536.107500", "141536.567500", "141537.027500", "141537.487500", "141537.947500", "141538.407500", "141538.867500", "141539.327500", "141539.787500", "141540.247500", "141540.707500", "141541.167500", "141541.627500", "141542.087500", "141542.547500", "141543.007500", "141543.467500", "141543.927500", "141544.387500", "141544.847500", "141545.307500", "141545.767500", "141546.227500", "141546.687500", "141547.147500", "141547.607500", "141548.067500", "141548.527500", "141548.987500", "141549.447500", "141549.907500", "141550.367500", "141550.827500", "141551.287500", "141551.747500", "141552.207500", "141552.667500", "141553.127500", "141553.587500", "141554.047500", "141554.507500", "141554.967500", "141555.427500", "141555.887500", "141556.347500", "141556.807500", "141557.267500", "141557.727500", "141558.187500", "141558.647500", "141559.107500", "141559.567500", "141600.027500", "141600.487500", "141600.947500", "141601.407500", "141601.867500", "141602.327500", "141602.787500", "141603.247500", "141603.707500", "141604.167500", "141604.627500", "141605.087500", "141605.547500", "141606.007500", "141606.467500", "141606.927500", "141607.387500", "141607.847500", "141608.307500", "141608.767500", "141609.227500", "141609.687500", "141610.147500", "141610.607500", "141611.067500", "141611.527500", "141611.987500", "141612.447500", "141612.907500", "141613.367500", "141613.827500", "141614.287500", "141614.747500", "141615.207500", "141615.667500", "141616.127500", "141616.587500", "141617.047500", "141617.507500", "141617.967500", "141618.427500", "141618.887500", "141619.347500", "141619.807500", "141620.267500", "141620.727500", "141621.187500", "141621.647500", "141622.107500", "141622.567500", "141623.027500", "141623.487500", "141623.947500", "141624.407500", "141624.867500", "141625.327500", "141625.787500", "141626.247500", "141626.707500", "141627.167500", "141627.627500", "141628.087500", "141628.547500", "141629.007500", "141629.467500", "141629.927500", "141630.387500", "141630.847500", "141631.307500", "141631.767500", "141632.227500", "141632.687500", "141633.147500", "141633.607500", "141634.067500", "141634.527500", "141634.987500", "141635.447500", "141635.907500", "141636.367500", "141636.827500", "141637.287500", "141637.747500", "141638.207500", "141638.667500", "141639.127500", "141639.587500", "141640.047500", "141640.507500", "141640.967500", "141641.427500", "141641.887500", "141642.347500", "141642.807500", "141643.267500", "141643.727500", "141644.187500", "141644.647500", "141645.107500", "141645.567500", "141646.027500", "141646.487500", "141646.947500", "141647.407500", "141647.867500", "141648.327500", "141648.787500", "141649.247500", "141649.707500", "141650.167500", "141650.627500", "141651.087500", "141651.547500", "141652.007500", "141652.467500", "141652.927500", "141653.387500", "141653.847500", "141654.307500", "141654.767500", "141655.227500", "141655.687500", "141656.147500", "141656.607500", "141657.067500", "141657.527500", "141657.987500", "141658.447500", "141658.907500", "141659.367500", "141659.827500", "141700.287500", "141700.747500", "141701.207500", "141701.667500", "141702.127500", "141702.587500", "141703.047500", "141703.507500", "141703.967500", "141704.427500", "141704.887500", "141705.347500", "141705.807500", "141706.267500", "141706.727500", "141707.187500", "141707.647500", "141708.107500", "141708.567500", "141709.027500", "141709.487500", "141709.947500", "141710.407500", "141710.867500", "141711.327500", "141711.787500", "141712.247500", "141712.707500", "141713.167500", "141713.627500", "141714.087500", "141714.547500", "141715.007500", "141715.467500", "141715.927500", "141716.387500", "141716.847500", "141717.307500", "141717.767500", "141718.227500", "141718.687500", "141719.147500", "141719.607500", "141720.067500", "141720.527500", "141720.987500", "141721.447500", "141721.907500", "141722.367500", "141722.827500", "141723.287500", "141723.747500", "141724.207500", "141724.667500", "141725.127500", "141725.587500", "141726.047500", "141726.507500", "141726.967500", "141727.427500", "141727.887500", "141728.347500", "141728.807500", "141729.267500", "141729.727500", "141730.187500", "141730.647500", "141731.107500", "141731.567500", "141732.027500", "141732.487500", "141732.947500", "141733.407500", "141733.867500", "141734.327500", "141734.787500", "141735.247500", "141735.707500", "141736.167500", "141736.627500", "141737.087500", "141737.547500", "141738.007500", "141738.467500", "141738.927500", "141739.387500", "141739.847500", "141740.307500", "141740.767500", "141741.227500", "141741.687500", "141742.147500", "141742.607500", "141743.067500", "141743.527500", "141743.987500", "141744.447500", "141744.907500", "141745.367500", "141745.827500", "141746.287500", "141746.747500", "141747.207500", "141747.667500", "141748.127500", "141748.587500", "141749.047500", "141749.507500", "141749.967500", "141750.427500", "141750.887500", "141751.347500", "141751.807500", "141752.267500", "141752.727500", "141753.187500", "141753.647500", "141754.107500", "141754.567500", "141755.027500", "141755.487500", "141755.947500", "141756.407500", "141756.867500", "141757.327500", "141757.787500", "141758.247500", "141758.707500", "141759.167500", "141759.627500", "141800.087500", "141800.547500", "141801.007500", "141801.467500", "141801.927500", "141802.387500", "141802.847500", "141803.307500", "141803.767500", "141804.227500", "141804.687500", "141805.147500", "141805.607500", "141806.067500", "141806.527500", "141806.987500", "141807.447500", "141807.907500", "141808.367500", "141808.827500", "141809.287500", "141809.747500", "141810.207500", "141810.667500", "141811.127500", "141811.587500", "141812.047500", "141812.507500", "141812.967500", "141813.427500", "141813.887500", "141814.347500", "141814.807500", "141815.267500", "141815.727500", "141816.187500", "141816.647500", "141817.107500", "141817.567500", "141818.027500", "141818.487500", "141818.947500", "141819.407500", "141819.867500", "141820.327500", "141820.787500", "141821.247500", "141821.707500", "141822.167500", "141822.627500", "141823.087500", "141823.547500", "141824.007500", "141824.467500", "141824.927500", "141825.387500", "141825.847500", "141826.307500", "141826.767500", "141827.227500", "141827.687500", "141828.147500", "141828.607500", "141829.067500", "141829.527500", "141829.987500", "141830.447500", "141830.907500", "141831.367500", "141831.827500", "141832.287500", "141832.747500", "141833.207500", "141833.667500", "141834.127500", "141834.587500", "141835.047500", "141835.507500", "141835.967500", "141836.427500", "141836.887500", "141837.347500", "141837.807500", "141838.267500", "141838.727500", "141839.187500", "141839.647500", "141840.107500", "141840.567500", "141841.027500", "141841.487500", "141841.947500", "141842.407500", "141842.867500", "141843.327500", "141843.787500", "141844.247500", "141844.707500", "141845.167500", "141845.627500", "141846.087500", "141846.547500", "141847.007500", "141847.467500", "141847.927500", "141848.387500", "141848.847500", "141849.307500", "141849.767500", "141850.227500", "141850.687500", "141851.147500", "141851.607500", "141852.067500", "141852.527500", "141852.987500", "141853.447500", "141853.907500", "141854.367500", "141854.827500", "141855.287500", "141855.747500", "141856.207500", "141856.667500", "141857.127500", "141857.587500", "141858.047500", "141858.507500", "141858.967500", "141859.427500", "141859.887500", "141900.347500", "141900.807500", "141901.267500", "141901.727500", "141902.187500", "141902.647500", "141903.107500", "141903.567500", "141904.027500", "141904.487500", "141904.947500", "141905.407500", "141905.867500", "141906.327500", "141906.787500", "141907.247500", "141907.707500", "141908.167500", "141908.627500", "141909.087500", "141909.547500", "141910.007500", "141910.467500", "141910.927500", "141911.387500", "141911.847500", "141912.307500", "141912.767500", "141913.227500", "141913.687500", "141914.147500", "141914.607500", "141915.067500", "141915.527500", "141915.987500", "141916.447500", "141916.907500", "141917.367500", "141917.827500", "141918.287500", "141918.747500", "141919.207500", "141919.667500", "141920.127500", "141920.587500", "141921.047500", "141921.507500", "141921.967500", "141922.427500", "141922.887500", "141923.347500", "141923.807500", "141924.267500", "141924.727500", "141925.187500", "141925.647500", "141926.107500", "141926.567500", "141927.027500", "141927.487500", "141927.947500", "141928.407500", "141928.867500", "141929.327500", "141929.787500", "141930.247500", "141930.707500", "141931.167500", "141931.627500", "141932.087500", "141932.547500", "141933.007500", "141933.467500", "141933.927500", "141934.387500", "141934.847500", "141935.307500", "141935.767500", "141936.227500", "141936.687500", "141937.147500", "141937.607500", "141938.067500", "141938.527500", "141938.987500", "141939.447500", "141939.907500", "141940.367500", "141940.827500", "141941.287500", "141941.747500", "141942.207500", "141942.667500", "141943.127500", "141943.587500", "141944.047500", "141944.507500", "141944.967500", "141945.427500", "141945.887500", "141946.347500", "141946.807500", "141947.267500", "141947.727500", "141948.187500", "141948.647500", "141949.107500", "141949.567500", "141950.027500", "141950.487500", "141950.947500", "141951.407500", "141951.867500", "141952.327500", "141952.787500", "141953.247500", "141953.707500", "141954.167500", "141954.627500", "141955.087500", "141955.547500", "141956.007500", "141956.467500", "141956.927500", "141957.387500", "141957.847500", "141958.307500", "141958.767500", "141959.227500", "141959.687500", "142000.147500", "142000.607500", "142001.067500", "142001.527500", "142001.987500", "142002.447500", "142002.907500", "142003.367500", "142003.827500", "142004.287500", "142004.747500", "142005.207500", "142005.667500", "142006.127500", "142006.587500", "142007.047500", "142007.507500", "142007.967500", "142008.427500", "142008.887500", "142009.347500", "142009.807500", "142010.267500", "142010.727500", "142011.187500", "142011.647500", "142012.107500", "142012.567500", "142013.027500", "142013.487500", "142013.947500", "142014.407500", "142014.867500", "142015.327500", "142015.787500", "142016.247500", "142016.707500", "142017.167500", "142017.627500", "142018.087500", "142018.547500", "142019.007500", "142019.467500", "142019.927500", "142020.387500", "142020.847500", "142021.307500", "142021.767500", "142022.227500", "142022.687500", "142023.147500", "142023.607500", "142024.067500", "142024.527500", "142024.987500", "142025.447500", "142025.907500", "142026.367500", "142026.827500", "142027.287500", "142027.747500", "142028.207500", "142028.667500", "142029.127500", "142029.587500", "142030.047500", "142030.507500", "142030.967500", "142031.427500", "142031.887500", "142032.347500", "142032.807500", "142033.267500", "142033.727500", "142034.187500", "142034.647500", "142035.107500", "142035.567500", "142036.027500", "142036.487500", "142036.947500", "142037.407500", "142037.867500", "142038.327500", "142038.787500", "142039.247500", "142039.707500", "142040.167500", "142040.627500", "142041.087500", "142041.547500", "142042.007500", "142042.467500", "142042.927500", "142043.387500", "142043.847500", "142044.307500", "142044.767500", "142045.227500", "142045.687500", "142046.147500", "142046.607500", "142047.067500", "142047.527500", "142047.987500", "142048.447500", "142048.907500", "142049.367500", "142049.827500", "142050.287500", "142050.747500", "142051.207500", "142051.667500", "142052.127500", "142052.587500", "142053.047500", "142053.507500", "142053.967500", "142054.427500", "142054.887500", "142055.347500", "142055.807500", "142056.267500", "142056.727500", "142057.187500", "142057.647500", "142058.107500", "142058.567500", "142059.027500", "142059.487500", "142059.947500", "142100.407500"],
