{
  "AcquisitionMatrixPE": 82,
  "AcquisitionNumber": 1,
  "AcquisitionTime": "13:41:19.160000",
  "BandwidthPerPixelPhaseEncode": 24.888,
  "BaseResolution": 82,
  "BodyPartExamined": "BRAIN",
  "ConsistencyInfo": "N4_VE11C_LATEST_20160120",
  "ConversionSoftware": "dcm2niix",
  "ConversionSoftwareVersion": "v1.0.20201102",
  "DerivedVendorReportedEchoSpacing": 0.00049,
  "DeviceSerialNumber": "66112",
  "DwellTime": 2e-06,
  "EchoTime": 0.0272,
  "EchoTrainLength": 82,
  "EffectiveEchoSpacing": 0.00049,
  "FlipAngle": 44,
  "ImageComments": "Unaliased MB8/PE3",
  "ImageOrientationPatientDICOM": [0.999904, -0.00606079, 0.0124279, 0.00610821, 0.999974, -0.00378182],
  "ImageType": [
    "ORIGINAL",
    "PRIMARY",
    "M",
    "MB",
    "ND",
    "NORM",
    "MOSAIC"
],
  "ImagingFrequency": 123.252,
  "InPlanePhaseEncodingDirectionDICOM": "COL",
  "InstitutionAddress": "Maynard 3,Hanover,NH,US,03755",
  "InstitutionName": "Dartmouth College - PBS",
  "InstitutionalDepartmentName": "Department",
  "MRAcquisitionType": "2D",
  "MagneticFieldStrength": 3,
  "Manufacturer": "Siemens",
  "ManufacturersModelName": "Prisma",
  "Modality": "MR",
  "MultibandAccelerationFactor": 8,
  "PartialFourier": 1,
  "PatientPosition": "HFS",
  "PercentPhaseFOV": 100,
  "PercentSampling": 100,
  "PhaseEncodingDirection": "j-",
  "PhaseEncodingSteps": 82,
  "PhaseResolution": 1,
  "PixelBandwidth": 3050,
  "ProcedureStepDescription": "Wager_Wager^1076_spacetop",
  "ProtocolName": "func_run-02_task-social_acq-ap-mb8",
  "PulseSequenceDetails": "%CustomerSeq%\\cmrr_mbep2d_bold",
  "ReceiveCoilActiveElements": "HEA;HEP",
  "ReceiveCoilName": "Head_32",
  "ReconMatrixPE": 82,
  "RepetitionTime": 0.46,
  "SAR": 0.100817,
  "ScanOptions": "FS",
  "ScanningSequence": "EP",
  "SequenceName": "epfid2d1_82",
  "SequenceVariant": "SK\\SS",
  "SeriesDescription": "func_run-02_task-social_acq-ap-mb8",
  "SeriesNumber": 10,
  "ShimSetting": [4144, -7757, -7248, 554, -38, 2, -37, 47],
  "SliceThickness": 2.7,
  "SliceTiming": [0, 0.2525, 0.065, 0.315, 0.1275, 0.3775, 0.19, 0, 0.2525, 0.065, 0.315, 0.1275, 0.3775, 0.19, 0, 0.2525, 0.065, 0.315, 0.1275, 0.3775, 0.19, 0, 0.2525, 0.065, 0.315, 0.1275, 0.3775, 0.19, 0, 0.2525, 0.065, 0.315, 0.1275, 0.3775, 0.19, 0, 0.2525, 0.065, 0.315, 0.1275, 0.3775, 0.19, 0, 0.2525, 0.065, 0.315, 0.1275, 0.3775, 0.19, 0, 0.2525, 0.065, 0.315, 0.1275, 0.3775, 0.19],
  "SoftwareVersions": "syngo MR E11",
  "SpacingBetweenSlices": 2.7,
  "StationName": "AWP66112",
  "TaskName": "social",
  "TotalReadoutTime": 0.03969,
  "TxRefAmp": 243.969,
  "WipMemBlock": "8ee2de6d-fc9b-454d-a8ae-c57f17cd9799||Sequence: R016 ve11c/master r/e634e98; Dec 19 2017 11:00:25 by eja",
  "dcmmeta_affine": [
    [-2.6826703548431396, 0.01638789102435112, 0.033492524176836014, 111.96635437011719],
    [0.016260646283626556, 2.6828577518463135, -0.010414899326860905, -98.06129455566406],
    [0.03334309533238411, 0.01014634594321251, 2.6997721195220947, -57.33991622924805],
    [0.0, 0.0, 0.0, 1.0]
],
  "dcmmeta_reorient_transform": [
    [0.0, -1.0, 0.0, 81.0],
    [1.0, 0.0, 0.0, 0.0],
    [0.0, 0.0, 1.0, 0.0],
    [0.0, 0.0, 0.0, 1.0]
],
  "dcmmeta_shape": [82, 82, 56, 872],
  "dcmmeta_slice_dim": 2,
  "dcmmeta_version": 0.6,
  "global": {
    "const": {
      "AccessionNumber": "A003640",
      "AcquisitionMatrix": [82, 0, 0, 82],
      "AngioFlag": "N",
      "BitsAllocated": 16,
      "BitsStored": 16,
      "BodyPartExamined": "BRAIN",
      "Columns": 656,
      "EchoNumbers": 1,
      "EchoTime": 27.2,
      "EchoTrainLength": 82,
      "FlipAngle": 44.0,
      "HighBit": 15,
      "ImageOrientationPatient": [0.99990440275605, -0.0060607859659, 0.01242788085496, 0.0061082134897, 0.99997419345127, -0.003781819596],
      "ImagePositionPatient": [-887.92350984924, -884.56351434074, -63.175527802638],
      "ImageType": [
        "ORIGINAL",
        "PRIMARY",
        "M",
        "MB",
        "ND",
        "NORM",
        "MOSAIC"
],
      "ImagedNucleus": "1H",
      "ImagingFrequency": 123.252176,
      "InPlanePhaseEncodingDirection": "COL",
      "MRAcquisitionType": "2D",
      "MagneticFieldStrength": 3.0,
      "Manufacturer": "SIEMENS",
      "ManufacturerModelName": "Prisma",
      "Modality": "MR",
      "NumberOfAverages": 1.0,
      "NumberOfPhaseEncodingSteps": 82,
      "PercentPhaseFieldOfView": 100.0,
      "PercentSampling": 100.0,
      "PerformedProcedureStepStartTime": "131708.282000",
      "PhotometricInterpretation": "MONOCHROME2",
      "PixelBandwidth": 3050.0,
      "PixelRepresentation": 0,
      "PixelSpacing": [2.6829268932343, 2.6829268932343],
      "ProtocolName": "func_run-02_task-social_acq-ap-mb8",
      "RepetitionTime": 460.0,
      "Rows": 656,
      "SAR": 0.10081727264076,
      "SamplesPerPixel": 1,
      "ScanOptions": "FS",
      "ScanningSequence": "EP",
      "SequenceName": "epfid2d1_82",
      "SequenceVariant": [
        "SK",
        "SS"
],
      "SeriesDescription": "func_run-02_task-social_acq-ap-mb8",
      "SeriesNumber": 10,
      "SeriesTime": "134123.944000",
      "SliceLocation": -55.567915059903,
      "SliceThickness": 2.7000000476837,
      "SmallestImagePixelValue": 0,
      "SoftwareVersions": "syngo MR E11",
      "SpacingBetweenSlices": 2.6999999171614,
      "SpecificCharacterSet": "ISO_IR 100",
      "StudyID": "1",
      "StudyTime": "131708.162000",
      "TransmitCoilName": "Body",
      "VariableFlipAngleFlag": "N",
      "WindowCenterWidthExplanation": "Algo1",
      "dBdt": 0.0},
    "slices": {}
  },
  "time": {
    "samples": {
      "AcquisitionNumber": [1, 2, 3, 4, 5, 6, 7, 8, 9, 10, 11, 12, 13, 14, 15, 16, 17, 18, 19, 20, 21, 22, 23, 24, 25, 26, 27, 28, 29, 30, 31, 32, 33, 34, 35, 36, 37, 38, 39, 40, 41, 42, 43, 44, 45, 46, 47, 48, 49, 50, 51, 52, 53, 54, 55, 56, 57, 58, 59, 60, 61, 62, 63, 64, 65, 66, 67, 68, 69, 70, 71, 72, 73, 74, 75, 76, 77, 78, 79, 80, 81, 82, 83, 84, 85, 86, 87, 88, 89, 90, 91, 92, 93, 94, 95, 96, 97, 98, 99, 100, 101, 102, 103, 104, 105, 106, 107, 108, 109, 110, 111, 112, 113, 114, 115, 116, 117, 118, 119, 120, 121, 122, 123, 124, 125, 126, 127, 128, 129, 130, 131, 132, 133, 134, 135, 136, 137, 138, 139, 140, 141, 142, 143, 144, 145, 146, 147, 148, 149, 150, 151, 152, 153, 154, 155, 156, 157, 158, 159, 160, 161, 162, 163, 164, 165, 166, 167, 168, 169, 170, 171, 172, 173, 174, 175, 176, 177, 178, 179, 180, 181, 182, 183, 184, 185, 186, 187, 188, 189, 190, 191, 192, 193, 194, 195, 196, 197, 198, 199, 200, 201, 202, 203, 204, 205, 206, 207, 208, 209, 210, 211, 212, 213, 214, 215, 216, 217, 218, 219, 220, 221, 222, 223, 224, 225, 226, 227, 228, 229, 230, 231, 232, 233, 234, 235, 236, 237, 238, 239, 240, 241, 242, 243, 244, 245, 246, 247, 248, 249, 250, 251, 252, 253, 254, 255, 256, 257, 258, 259, 260, 261, 262, 263, 264, 265, 266, 267, 268, 269, 270, 271, 272, 273, 274, 275, 276, 277, 278, 279, 280, 281, 282, 283, 284, 285, 286, 287, 288, 289, 290, 291, 292, 293, 294, 295, 296, 297, 298, 299, 300, 301, 302, 303, 304, 305, 306, 307, 308, 309, 310, 311, 312, 313, 314, 315, 316, 317, 318, 319, 320, 321, 322, 323, 324, 325, 326, 327, 328, 329, 330, 331, 332, 333, 334, 335, 336, 337, 338, 339, 340, 341, 342, 343, 344, 345, 346, 347, 348, 349, 350, 351, 352, 353, 354, 355, 356, 357, 358, 359, 360, 361, 362, 363, 364, 365, 366, 367, 368, 369, 370, 371, 372, 373, 374, 375, 376, 377, 378, 379, 380, 381, 382, 383, 384, 385, 386, 387, 388, 389, 390, 391, 392, 393, 394, 395, 396, 397, 398, 399, 400, 401, 402, 403, 404, 405, 406, 407, 408, 409, 410, 411, 412, 413, 414, 415, 416, 417, 418, 419, 420, 421, 422, 423, 424, 425, 426, 427, 428, 429, 430, 431, 432, 433, 434, 435, 436, 437, 438, 439, 440, 441, 442, 443, 444, 445, 446, 447, 448, 449, 450, 451, 452, 453, 454, 455, 456, 457, 458, 459, 460, 461, 462, 463, 464, 465, 466, 467, 468, 469, 470, 471, 472, 473, 474, 475, 476, 477, 478, 479, 480, 481, 482, 483, 484, 485, 486, 487, 488, 489, 490, 491, 492, 493, 494, 495, 496, 497, 498, 499, 500, 501, 502, 503, 504, 505, 506, 507, 508, 509, 510, 511, 512, 513, 514, 515, 516, 517, 518, 519, 520, 521, 522, 523, 524, 525, 526, 527, 528, 529, 530, 531, 532, 533, 534, 535, 536, 537, 538, 539, 540, 541, 542, 543, 544, 545, 546, 547, 548, 549, 550, 551, 552, 553, 554, 555, 556, 557, 558, 559, 560, 561, 562, 563, 564, 565, 566, 567, 568, 569, 570, 571, 572, 573, 574, 575, 576, 577, 578, 579, 580, 581, 582, 583, 584, 585, 586, 587, 588, 589, 590, 591, 592, 593, 594, 595, 596, 597, 598, 599, 600, 601, 602, 603, 604, 605, 606, 607, 608, 609, 610, 611, 612, 613, 614, 615, 616, 617, 618, 619, 620, 621, 622, 623, 624, 625, 626, 627, 628, 629, 630, 631, 632, 633, 634, 635, 636, 637, 638, 639, 640, 641, 642, 643, 644, 645, 646, 647, 648, 649, 650, 651, 652, 653, 654, 655, 656, 657, 658, 659, 660, 661, 662, 663, 664, 665, 666, 667, 668, 669, 670, 671, 672, 673, 674, 675, 676, 677, 678, 679, 680, 681, 682, 683, 684, 685, 686, 687, 688, 689, 690, 691, 692, 693, 694, 695, 696, 697, 698, 699, 700, 701, 702, 703, 704, 705, 706, 707, 708, 709, 710, 711, 712, 713, 714, 715, 716, 717, 718, 719, 720, 721, 722, 723, 724, 725, 726, 727, 728, 729, 730, 731, 732, 733, 734, 735, 736, 737, 738, 739, 740, 741, 742, 743, 744, 745, 746, 747, 748, 749, 750, 751, 752, 753, 754, 755, 756, 757, 758, 759, 760, 761, 762, 763, 764, 765, 766, 767, 768, 769, 770, 771, 772, 773, 774, 775, 776, 777, 778, 779, 780, 781, 782, 783, 784, 785, 786, 787, 788, 789, 790, 791, 792, 793, 794, 795, 796, 797, 798, 799, 800, 801, 802, 803, 804, 805, 806, 807, 808, 809, 810, 811, 812, 813, 814, 815, 816, 817, 818, 819, 820, 821, 822, 823, 824, 825, 826, 827, 828, 829, 830, 831, 832, 833, 834, 835, 836, 837, 838, 839, 840, 841, 842, 843, 844, 845, 846, 847, 848, 849, 850, 851, 852, 853, 854, 855, 856, 857, 858, 859, 860, 861, 862, 863, 864, 865, 866, 867, 868, 869, 870, 871, 872],
      "AcquisitionTime": ["134119.160000", "134119.620000", "134120.080000", "134120.540000", "134121.000000", "134121.460000", "134121.920000", "134122.380000", "134122.840000", "134123.300000", "134123.760000", "134124.220000", "134124.680000", "134125.140000", "134125.600000", "134126.060000", "134126.520000", "134126.980000", "134127.440000", "134127.900000", "134128.360000", "134128.820000", "134129.280000", "134129.740000", "134130.200000", "134130.660000", "134131.120000", "134131.580000", "134132.040000", "134132.500000", "134132.960000", "134133.420000", "134133.880000", "134134.340000", "134134.800000", "134135.260000", "134135.720000", "134136.180000", "134136.640000", "134137.100000", "134137.560000", "134138.020000", "134138.480000", "134138.940000", "134139.400000", "134139.860000", "134140.320000", "134140.780000", "134141.240000", "134141.700000", "134142.160000", "134142.620000", "134143.080000", "134143.540000", "134144.000000", "134144.460000", "134144.920000", "134145.380000", "134145.840000", "134146.300000", "134146.760000", "134147.220000", "134147.680000", "134148.140000", "134148.600000", "134149.060000", "134149.520000", "134149.980000", "134150.440000", "134150.900000", "134151.360000", "134151.820000", "134152.280000", "134152.740000", "134153.200000", "134153.660000", "134154.120000", "134154.580000", "134155.040000", "134155.500000", "134155.960000", "134156.420000", "134156.880000", "134157.340000", "134157.800000", "134158.260000", "134158.720000", "134159.180000", "134159.640000", "134200.100000", "134200.560000", "134201.020000", "134201.480000", "134201.940000", "134202.400000", "134202.860000", "134203.320000", "134203.780000", "134204.240000", "134204.700000", "134205.160000", "134205.620000", "134206.080000", "134206.540000", "134207.000000", "134207.460000", "134207.920000", "134208.380000", "134208.840000", "134209.300000", "134209.760000", "134210.220000", "134210.680000", "134211.140000", "134211.600000", "134212.060000", "134212.520000", "134212.980000", "134213.440000", "134213.900000", "134214.360000", "134214.820000", "134215.280000", "134215.740000", "134216.200000", "134216.660000", "134217.120000", "134217.580000", "134218.040000", "134218.500000", "134218.960000", "134219.420000", "134219.880000", "134220.340000", "134220.800000", "134221.260000", "134221.720000", "134222.180000", "134222.640000", "134223.100000", "134223.560000", "134224.020000", "134224.480000", "134224.940000", "134225.400000", "134225.860000", "134226.320000", "134226.780000", "134227.240000", "134227.700000", "134228.160000", "134228.620000", "134229.080000", "134229.540000", "134230.000000", "134230.460000", "134230.920000", "134231.380000", "134231.840000", "134232.300000", "134232.760000", "134233.220000", "134233.680000", "134234.140000", "134234.600000", "134235.060000", "134235.520000", "134235.980000", "134236.440000", "134236.900000", "134237.360000", "134237.820000", "134238.280000", "134238.740000", "134239.200000", "134239.660000", "134240.120000", "134240.580000", "134241.040000", "134241.500000", "134241.960000", "134242.420000", "134242.880000", "134243.340000", "134243.800000", "134244.260000", "134244.720000", "134245.180000", "134245.640000", "134246.100000", "134246.560000", "134247.020000", "134247.480000", "134247.940000", "134248.400000", "134248.860000", "134249.320000", "134249.780000", "134250.240000", "134250.700000", "134251.160000", "134251.620000", "134252.080000", "134252.540000", "134253.000000", "134253.460000", "134253.920000", "134254.380000", "134254.840000", "134255.300000", "134255.760000", "134256.220000", "134256.680000", "134257.140000", "134257.600000", "134258.060000", "134258.520000", "134258.980000", "134259.440000", "134259.900000", "134300.360000", "134300.820000", "134301.280000", "134301.740000", "134302.200000", "134302.660000", "134303.120000", "134303.580000", "134304.040000", "134304.500000", "134304.960000", "134305.420000", "134305.880000", "134306.340000", "134306.800000", "134307.260000", "134307.720000", "134308.180000", "134308.640000", "134309.100000", "134309.560000", "134310.020000", "134310.480000", "134310.940000", "134311.400000", "134311.860000", "134312.320000", "134312.780000", "134313.240000", "134313.700000", "134314.160000", "134314.620000", "134315.080000", "134315.540000", "134316.000000", "134316.460000", "134316.920000", "134317.380000", "134317.840000", "134318.300000", "134318.760000", "134319.220000", "134319.680000", "134320.140000", "134320.600000", "134321.060000", "134321.520000", "134321.980000", "134322.440000", "134322.900000", "134323.360000", "134323.820000", "134324.280000", "134324.740000", "134325.200000", "134325.660000", "134326.120000", "134326.580000", "134327.040000", "134327.500000", "134327.960000", "134328.420000", "134328.880000", "134329.340000", "134329.800000", "134330.260000", "134330.720000", "134331.180000", "134331.640000", "134332.100000", "134332.560000", "134333.020000", "134333.480000", "134333.940000", "134334.400000", "134334.860000", "134335.320000", "134335.780000", "134336.240000", "134336.700000", "134337.160000", "134337.620000", "134338.080000", "134338.540000", "134339.000000", "134339.460000", "134339.920000", "134340.380000", "134340.840000", "134341.300000", "134341.760000", "134342.220000", "134342.680000", "134343.140000", "134343.600000", "134344.060000", "134344.520000", "134344.980000", "134345.440000", "134345.900000", "134346.360000", "134346.820000", "134347.280000", "134347.740000", "134348.200000", "134348.660000", "134349.120000", "134349.580000", "134350.040000", "134350.500000", "134350.960000", "134351.420000", "134351.880000", "134352.340000", "134352.800000", "134353.260000", "134353.720000", "134354.180000", "134354.640000", "134355.100000", "134355.560000", "134356.020000", "134356.480000", "134356.940000", "134357.400000", "134357.860000", "134358.320000", "134358.780000", "134359.240000", "134359.700000", "134400.160000", "134400.620000", "134401.080000", "134401.540000", "134402.000000", "134402.460000", "134402.920000", "134403.380000", "134403.840000", "134404.300000", "134404.760000", "134405.220000", "134405.680000", "134406.140000", "134406.600000", "134407.060000", "134407.520000", "134407.980000", "134408.440000", "134408.900000", "134409.360000", "134409.820000", "134410.280000", "134410.740000", "134411.200000", "134411.660000", "134412.120000", "134412.580000", "134413.040000", "134413.500000", "134413.960000", "134414.420000", "134414.880000", "134415.340000", "134415.800000", "134416.260000", "134416.720000", "134417.180000", "134417.640000", "134418.100000", "134418.560000", "134419.020000", "134419.480000", "134419.940000", "134420.400000", "134420.860000", "134421.320000", "134421.780000", "134422.240000", "134422.700000", "134423.160000", "134423.620000", "134424.080000", "134424.540000", "134425.000000", "134425.460000", "134425.920000", "134426.380000", "134426.840000", "134427.300000", "134427.760000", "134428.220000", "134428.680000", "134429.140000", "134429.600000", "134430.060000", "134430.520000", "134430.980000", "134431.440000", "134431.900000", "134432.360000", "134432.820000", "134433.280000", "134433.740000", "134434.200000", "134434.660000", "134435.120000", "134435.580000", "134436.040000", "134436.500000", "134436.960000", "134437.420000", "134437.880000", "134438.340000", "134438.800000", "134439.260000", "134439.720000", "134440.180000", "134440.640000", "134441.100000", "134441.560000", "134442.020000", "134442.480000", "134442.940000", "134443.400000", "134443.860000", "134444.320000", "134444.780000", "134445.240000", "134445.700000", "134446.160000", "134446.620000", "134447.080000", "134447.540000", "134448.000000", "134448.460000", "134448.920000", "134449.380000", "134449.840000", "134450.300000", "134450.760000", "134451.220000", "134451.680000", "134452.140000", "134452.600000", "134453.060000", "134453.520000", "134453.980000", "134454.440000", "134454.900000", "134455.360000", "134455.820000", "134456.280000", "134456.740000", "134457.200000", "134457.660000", "134458.120000", "134458.580000", "134459.040000", "134459.500000", "134459.960000", "134500.420000", "134500.880000", "134501.340000", "134501.800000", "134502.260000", "134502.720000", "134503.180000", "134503.640000", "134504.100000", "134504.560000", "134505.020000", "134505.480000", "134505.940000", "134506.400000", "134506.860000", "134507.320000", "134507.780000", "134508.240000", "134508.700000", "134509.160000", "134509.620000", "134510.080000", "134510.540000", "134511.000000", "134511.460000", "134511.920000", "134512.380000", "134512.840000", "134513.300000", "134513.760000", "134514.220000", "134514.680000", "134515.140000", "134515.600000", "134516.060000", "134516.520000", "134516.980000", "134517.440000", "134517.900000", "134518.360000", "134518.820000", "134519.280000", "134519.740000", "134520.200000", "134520.660000", "134521.120000", "134521.580000", "134522.040000", "134522.500000", "134522.960000", "134523.420000", "134523.880000", "134524.340000", "134524.800000", "134525.260000", "134525.720000", "134526.180000", "134526.640000", "134527.100000", "134527.560000", "134528.020000", "134528.480000", "134528.940000", "134529.400000", "134529.860000", "134530.320000", "134530.780000", "134531.240000", "134531.700000", "134532.160000", "134532.620000", "134533.080000", "134533.540000", "134534.000000", "134534.460000", "134534.920000", "134535.380000", "134535.840000", "134536.300000", "134536.760000", "134537.220000", "134537.680000", "134538.140000", "134538.600000", "134539.060000", "134539.520000", "134539.980000", "134540.440000", "134540.900000", "134541.360000", "134541.820000", "134542.280000", "134542.740000", "134543.200000", "134543.660000", "134544.120000", "134544.580000", "134545.040000", "134545.500000", "134545.960000", "134546.420000", "134546.880000", "134547.340000", "134547.800000", "134548.260000", "134548.720000", "134549.180000", "134549.640000", "134550.100000", "134550.560000", "134551.020000", "134551.480000", "134551.940000", "134552.400000", "134552.860000", "134553.320000", "134553.780000", "134554.240000", "134554.700000", "134555.160000", "134555.620000", "134556.080000", "134556.540000", "134557.000000", "134557.460000", "134557.920000", "134558.380000", "134558.840000", "134559.300000", "134559.760000", "134600.220000", "134600.680000", "134601.140000", "134601.600000", "134602.060000", "134602.520000", "134602.980000", "134603.440000", "134603.900000", "134604.360000", "134604.820000", "134605.280000", "134605.740000", "134606.200000", "134606.660000", "134607.120000", "134607.580000", "134608.040000", "134608.500000", "134608.960000", "134609.420000", "134609.880000", "134610.340000", "134610.800000", "134611.260000", "134611.720000", "134612.180000", "134612.640000", "134613.100000", "134613.560000", "134614.020000", "134614.480000", "134614.940000", "134615.400000", "134615.860000", "134616.320000", "134616.780000", "134617.240000", "134617.700000", "134618.160000", "134618.620000", "134619.080000", "134619.540000", "134620.000000", "134620.460000", "134620.920000", "134621.380000", "134621.840000", "134622.300000", "134622.760000", "134623.220000", "134623.680000", "134624.140000", "134624.600000", "134625.060000", "134625.520000", "134625.980000", "134626.440000", "134626.900000", "134627.360000", "134627.820000", "134628.280000", "134628.740000", "134629.200000", "134629.660000", "134630.120000", "134630.580000", "134631.040000", "134631.500000", "134631.960000", "134632.420000", "134632.880000", "134633.340000", "134633.800000", "134634.260000", "134634.720000", "134635.180000", "134635.640000", "134636.100000", "134636.560000", "134637.020000", "134637.480000", "134637.940000", "134638.400000", "134638.860000", "134639.320000", "134639.780000", "134640.240000", "134640.700000", "134641.160000", "134641.620000", "134642.080000", "134642.540000", "134643.000000", "134643.460000", "134643.920000", "134644.380000", "134644.840000", "134645.300000", "134645.760000", "134646.220000", "134646.680000", "134647.140000", "134647.600000", "134648.060000", "134648.520000", "134648.980000", "134649.440000", "134649.900000", "134650.360000", "134650.820000", "134651.280000", "134651.740000", "134652.200000", "134652.660000", "134653.120000", "134653.580000", "134654.040000", "134654.500000", "134654.960000", "134655.420000", "134655.880000", "134656.340000", "134656.800000", "134657.260000", "134657.720000", "134658.180000", "134658.640000", "134659.100000", "134659.560000", "134700.020000", "134700.480000", "134700.940000", "134701.400000", "134701.860000", "134702.320000", "134702.780000", "134703.240000", "134703.700000", "134704.160000", "134704.620000", "134705.080000", "134705.540000", "134706.000000", "134706.460000", "134706.920000", "134707.380000", "134707.840000", "134708.300000", "134708.760000", "134709.220000", "134709.680000", "134710.140000", "134710.600000", "134711.060000", "134711.520000", "134711.980000", "134712.440000", "134712.900000", "134713.360000", "134713.820000", "134714.280000", "134714.740000", "134715.200000", "134715.660000", "134716.120000", "134716.580000", "134717.040000", "134717.500000", "134717.960000", "134718.420000", "134718.880000", "134719.340000", "134719.800000", "134720.260000", "134720.720000", "134721.180000", "134721.640000", "134722.100000", "134722.560000", "134723.020000", "134723.480000", "134723.940000", "134724.400000", "134724.860000", "134725.320000", "134725.780000", "134726.240000", "134726.700000", "134727.160000", "134727.620000", "134728.080000", "134728.540000", "134729.000000", "134729.460000", "134729.920000", "134730.380000", "134730.840000", "134731.300000", "134731.760000", "134732.220000", "134732.680000", "134733.140000", "134733.600000", "134734.060000", "134734.520000", "134734.980000", "134735.440000", "134735.900000", "134736.360000", "134736.820000", "134737.280000", "134737.740000", "134738.200000", "134738.660000", "134739.120000", "134739.580000", "134740.040000", "134740.500000", "134740.960000", "134741.420000", "134741.880000", "134742.340000", "134742.800000", "134743.260000", "134743.720000", "134744.180000", "134744.640000", "134745.100000", "134745.560000", "134746.020000", "134746.480000", "134746.940000", "134747.400000", "134747.860000", "134748.320000", "134748.780000", "134749.240000", "134749.700000", "134750.160000", "134750.620000", "134751.080000", "134751.540000", "134752.000000", "134752.460000", "134752.920000", "134753.380000", "134753.840000", "134754.300000", "134754.760000", "134755.220000", "134755.680000", "134756.140000", "134756.600000", "134757.060000", "134757.520000", "134757.980000", "134758.440000", "134758.900000", "134759.360000", "134759.820000"],
