{
  "AcquisitionMatrixPE": 82,
  "AcquisitionNumber": 1,
  "AcquisitionTime": "20:16:6.350000",
  "BandwidthPerPixelPhaseEncode": 24.888,
  "BaseResolution": 82,
  "BodyPartExamined": "BRAIN",
  "ConsistencyInfo": "N4_VE11E_LATEST_20181129",
  "ConversionSoftware": "dcm2niix",
  "ConversionSoftwareVersion": "v1.0.20201102",
  "DerivedVendorReportedEchoSpacing": 0.00049,
  "DeviceSerialNumber": "66112",
  "DwellTime": 2e-06,
  "EchoTime": 0.0272,
  "EchoTrainLength": 82,
  "EffectiveEchoSpacing": 0.00049,
  "FlipAngle": 44,
  "ImageComments": "Unaliased MB8/PE3",
  "ImageOrientationPatientDICOM": [0.999475, 0.0125274, 0.0298718, -0.0141307, 0.998437, 0.0540794],
  "ImageType": [
    "ORIGINAL",
    "PRIMARY",
    "M",
    "MB",
    "ND",
    "NORM",
    "MOSAIC"
],
  "ImagingFrequency": 123.259,
  "InPlanePhaseEncodingDirectionDICOM": "COL",
  "InstitutionAddress": "Maynard 3,Hanover,NH,US,03755",
  "InstitutionName": "Dartmouth College - PBS",
  "InstitutionalDepartmentName": "Department",
  "MRAcquisitionType": "2D",
  "MagneticFieldStrength": 3,
  "Manufacturer": "Siemens",
  "ManufacturersModelName": "Prisma",
  "Modality": "MR",
  "MultibandAccelerationFactor": 8,
  "PartialFourier": 1,
  "PatientPosition": "HFS",
  "PercentPhaseFOV": 100,
  "PercentSampling": 100,
  "PhaseEncodingDirection": "j-",
  "PhaseEncodingSteps": 82,
  "PhaseResolution": 1,
  "PixelBandwidth": 3050,
  "ProcedureStepDescription": "Wager_Wager^1076_spacetop",
  "ProtocolName": "func_run-02_task-social_acq-ap-mb8",
  "PulseSequenceDetails": "%CustomerSeq%\\cmrr_mbep2d_bold",
  "ReceiveCoilActiveElements": "HEA;HEP",
  "ReceiveCoilName": "Head_32",
  "ReconMatrixPE": 82,
  "RepetitionTime": 0.46,
  "SAR": 0.111059,
  "ScanOptions": "FS",
  "ScanningSequence": "EP",
  "SequenceName": "epfid2d1_82",
  "SequenceVariant": "SK\\SS",
  "SeriesDescription": "func_run-02_task-social_acq-ap-mb8",
  "SeriesNumber": 14,
  "ShimSetting": [4206, -7800, -7209, -8, -136, -129, -13, 102],
  "SliceThickness": 2.7,
  "SliceTiming": [0, 0.2525, 0.0625, 0.315, 0.1275, 0.3775, 0.19, 0, 0.2525, 0.0625, 0.315, 0.1275, 0.3775, 0.19, 0, 0.2525, 0.0625, 0.315, 0.1275, 0.3775, 0.19, 0, 0.2525, 0.0625, 0.315, 0.1275, 0.3775, 0.19, 0, 0.2525, 0.0625, 0.315, 0.1275, 0.3775, 0.19, 0, 0.2525, 0.0625, 0.315, 0.1275, 0.3775, 0.19, 0, 0.2525, 0.0625, 0.315, 0.1275, 0.3775, 0.19, 0, 0.2525, 0.0625, 0.315, 0.1275, 0.3775, 0.19],
  "SoftwareVersions": "syngo MR E11",
  "SpacingBetweenSlices": 2.7,
  "StationName": "AWP66112",
  "TaskName": "social",
  "TotalReadoutTime": 0.03969,
  "TxRefAmp": 295.539,
  "WipMemBlock": "c02cb348-ba2c-4b80-b4df-1032440dc4e7||Sequence: R016 ve11e/master r/434b28f1; Aug  7 2019 18:53:46 by eja",
  "dcmmeta_affine": [
    [-2.681519031524658, -0.03791151940822601, 0.07869859784841537, 116.43205261230469],
    [-0.033610038459300995, 2.6787326335906982, 0.14707744121551514, -86.81262969970703],
    [0.08014386147260666, -0.14509107172489166, 2.6948423385620117, -72.54352569580078],
    [0.0, 0.0, 0.0, 1.0]
],
  "dcmmeta_reorient_transform": [
    [0.0, -1.0, 0.0, 81.0],
    [1.0, 0.0, 0.0, 0.0],
    [0.0, 0.0, 1.0, 0.0],
    [0.0, 0.0, 0.0, 1.0]
],
  "dcmmeta_shape": [82, 82, 56, 872],
  "dcmmeta_slice_dim": 2,
  "dcmmeta_version": 0.6,
  "global": {
    "const": {
      "AccessionNumber": "A004854",
      "AcquisitionMatrix": [82, 0, 0, 82],
      "AngioFlag": "N",
      "BitsAllocated": 16,
      "BitsStored": 16,
      "BodyPartExamined": "BRAIN",
      "Columns": 656,
      "EchoNumbers": 1,
      "EchoTime": 27.2,
      "EchoTrainLength": 82,
      "FlipAngle": 44.0,
      "HighBit": 15,
      "ImageOrientationPatient": [0.99947523246629, 0.01252737763556, 0.02987180101764, -0.014130657278, 0.99843664959162, 0.05407939789927],
      "ImagePositionPatient": [-872.07656350852, -908.60702529652, -148.93832847572],
      "ImageType": [
        "ORIGINAL",
        "PRIMARY",
        "M",
        "MB",
        "ND",
        "NORM",
        "MOSAIC"
],
      "ImagedNucleus": "1H",
      "ImagingFrequency": 123.259028,
      "InPlanePhaseEncodingDirection": "COL",
      "MRAcquisitionType": "2D",
      "MagneticFieldStrength": 3.0,
      "Manufacturer": "SIEMENS",
      "ManufacturerModelName": "Prisma",
      "Modality": "MR",
      "NumberOfAverages": 1.0,
      "NumberOfPhaseEncodingSteps": 82,
      "PercentPhaseFieldOfView": 100.0,
      "PercentSampling": 100.0,
      "PerformedProcedureStepStartTime": "194002.443000",
      "PhotometricInterpretation": "MONOCHROME2",
      "PixelBandwidth": 3050.0,
      "PixelRepresentation": 0,
      "PixelSpacing": [2.6829268932343, 2.6829268932343],
      "ProtocolName": "func_run-02_task-social_acq-ap-mb8",
      "RepetitionTime": 460.0,
      "Rows": 656,
      "SAR": 0.11105869209159,
      "SamplesPerPixel": 1,
      "ScanOptions": "FS",
      "ScanningSequence": "EP",
      "SequenceName": "epfid2d1_82",
      "SequenceVariant": [
        "SK",
        "SS"
],
      "SeriesDescription": "func_run-02_task-social_acq-ap-mb8",
      "SeriesNumber": 14,
      "SeriesTime": "201619.941000",
      "SliceLocation": -73.740185927762,
      "SliceThickness": 2.7000000476837,
      "SmallestImagePixelValue": 0,
      "SoftwareVersions": "syngo MR E11",
      "SpacingBetweenSlices": 2.7000000014056,
      "SpecificCharacterSet": "ISO_IR 100",
      "StudyID": "6",
      "StudyTime": "194002.383000",
      "TransmitCoilName": "Body",
      "VariableFlipAngleFlag": "N",
      "WindowCenterWidthExplanation": "Algo1"
    },
    "slices": {}
  },
  "time": {
    "samples": {
      "AcquisitionNumber": [1, 2, 3, 4, 5, 6, 7, 8, 9, 10, 11, 12, 13, 14, 15, 16, 17, 18, 19, 20, 21, 22, 23, 24, 25, 26, 27, 28, 29, 30, 31, 32, 33, 34, 35, 36, 37, 38, 39, 40, 41, 42, 43, 44, 45, 46, 47, 48, 49, 50, 51, 52, 53, 54, 55, 56, 57, 58, 59, 60, 61, 62, 63, 64, 65, 66, 67, 68, 69, 70, 71, 72, 73, 74, 75, 76, 77, 78, 79, 80, 81, 82, 83, 84, 85, 86, 87, 88, 89, 90, 91, 92, 93, 94, 95, 96, 97, 98, 99, 100, 101, 102, 103, 104, 105, 106, 107, 108, 109, 110, 111, 112, 113, 114, 115, 116, 117, 118, 119, 120, 121, 122, 123, 124, 125, 126, 127, 128, 129, 130, 131, 132, 133, 134, 135, 136, 137, 138, 139, 140, 141, 142, 143, 144, 145, 146, 147, 148, 149, 150, 151, 152, 153, 154, 155, 156, 157, 158, 159, 160, 161, 162, 163, 164, 165, 166, 167, 168, 169, 170, 171, 172, 173, 174, 175, 176, 177, 178, 179, 180, 181, 182, 183, 184, 185, 186, 187, 188, 189, 190, 191, 192, 193, 194, 195, 196, 197, 198, 199, 200, 201, 202, 203, 204, 205, 206, 207, 208, 209, 210, 211, 212, 213, 214, 215, 216, 217, 218, 219, 220, 221, 222, 223, 224, 225, 226, 227, 228, 229, 230, 231, 232, 233, 234, 235, 236, 237, 238, 239, 240, 241, 242, 243, 244, 245, 246, 247, 248, 249, 250, 251, 252, 253, 254, 255, 256, 257, 258, 259, 260, 261, 262, 263, 264, 265, 266, 267, 268, 269, 270, 271, 272, 273, 274, 275, 276, 277, 278, 279, 280, 281, 282, 283, 284, 285, 286, 287, 288, 289, 290, 291, 292, 293, 294, 295, 296, 297, 298, 299, 300, 301, 302, 303, 304, 305, 306, 307, 308, 309, 310, 311, 312, 313, 314, 315, 316, 317, 318, 319, 320, 321, 322, 323, 324, 325, 326, 327, 328, 329, 330, 331, 332, 333, 334, 335, 336, 337, 338, 339, 340, 341, 342, 343, 344, 345, 346, 347, 348, 349, 350, 351, 352, 353, 354, 355, 356, 357, 358, 359, 360, 361, 362, 363, 364, 365, 366, 367, 368, 369, 370, 371, 372, 373, 374, 375, 376, 377, 378, 379, 380, 381, 382, 383, 384, 385, 386, 387, 388, 389, 390, 391, 392, 393, 394, 395, 396, 397, 398, 399, 400, 401, 402, 403, 404, 405, 406, 407, 408, 409, 410, 411, 412, 413, 414, 415, 416, 417, 418, 419, 420, 421, 422, 423, 424, 425, 426, 427, 428, 429, 430, 431, 432, 433, 434, 435, 436, 437, 438, 439, 440, 441, 442, 443, 444, 445, 446, 447, 448, 449, 450, 451, 452, 453, 454, 455, 456, 457, 458, 459, 460, 461, 462, 463, 464, 465, 466, 467, 468, 469, 470, 471, 472, 473, 474, 475, 476, 477, 478, 479, 480, 481, 482, 483, 484, 485, 486, 487, 488, 489, 490, 491, 492, 493, 494, 495, 496, 497, 498, 499, 500, 501, 502, 503, 504, 505, 506, 507, 508, 509, 510, 511, 512, 513, 514, 515, 516, 517, 518, 519, 520, 521, 522, 523, 524, 525, 526, 527, 528, 529, 530, 531, 532, 533, 534, 535, 536, 537, 538, 539, 540, 541, 542, 543, 544, 545, 546, 547, 548, 549, 550, 551, 552, 553, 554, 555, 556, 557, 558, 559, 560, 561, 562, 563, 564, 565, 566, 567, 568, 569, 570, 571, 572, 573, 574, 575, 576, 577, 578, 579, 580, 581, 582, 583, 584, 585, 586, 587, 588, 589, 590, 591, 592, 593, 594, 595, 596, 597, 598, 599, 600, 601, 602, 603, 604, 605, 606, 607, 608, 609, 610, 611, 612, 613, 614, 615, 616, 617, 618, 619, 620, 621, 622, 623, 624, 625, 626, 627, 628, 629, 630, 631, 632, 633, 634, 635, 636, 637, 638, 639, 640, 641, 642, 643, 644, 645, 646, 647, 648, 649, 650, 651, 652, 653, 654, 655, 656, 657, 658, 659, 660, 661, 662, 663, 664, 665, 666, 667, 668, 669, 670, 671, 672, 673, 674, 675, 676, 677, 678, 679, 680, 681, 682, 683, 684, 685, 686, 687, 688, 689, 690, 691, 692, 693, 694, 695, 696, 697, 698, 699, 700, 701, 702, 703, 704, 705, 706, 707, 708, 709, 710, 711, 712, 713, 714, 715, 716, 717, 718, 719, 720, 721, 722, 723, 724, 725, 726, 727, 728, 729, 730, 731, 732, 733, 734, 735, 736, 737, 738, 739, 740, 741, 742, 743, 744, 745, 746, 747, 748, 749, 750, 751, 752, 753, 754, 755, 756, 757, 758, 759, 760, 761, 762, 763, 764, 765, 766, 767, 768, 769, 770, 771, 772, 773, 774, 775, 776, 777, 778, 779, 780, 781, 782, 783, 784, 785, 786, 787, 788, 789, 790, 791, 792, 793, 794, 795, 796, 797, 798, 799, 800, 801, 802, 803, 804, 805, 806, 807, 808, 809, 810, 811, 812, 813, 814, 815, 816, 817, 818, 819, 820, 821, 822, 823, 824, 825, 826, 827, 828, 829, 830, 831, 832, 833, 834, 835, 836, 837, 838, 839, 840, 841, 842, 843, 844, 845, 846, 847, 848, 849, 850, 851, 852, 853, 854, 855, 856, 857, 858, 859, 860, 861, 862, 863, 864, 865, 866, 867, 868, 869, 870, 871, 872],
      "AcquisitionTime": ["201606.350000", "201606.810000", "201607.270000", "201607.730000", "201608.190000", "201608.650000", "201609.110000", "201609.570000", "201610.030000", "201610.490000", "201610.950000", "201611.410000", "201611.870000", "201612.330000", "201612.790000", "201613.250000", "201613.710000", "201614.170000", "201614.630000", "201615.090000", "201615.550000", "201616.010000", "201616.470000", "201616.930000", "201617.390000", "201617.850000", "201618.310000", "201618.770000", "201619.230000", "201619.690000", "201620.150000", "201620.610000", "201621.070000", "201621.530000", "201621.990000", "201622.450000", "201622.910000", "201623.370000", "201623.830000", "201624.290000", "201624.750000", "201625.210000", "201625.670000", "201626.130000", "201626.590000", "201627.050000", "201627.510000", "201627.970000", "201628.430000", "201628.890000", "201629.350000", "201629.810000", "201630.270000", "201630.730000", "201631.190000", "201631.650000", "201632.110000", "201632.570000", "201633.030000", "201633.490000", "201633.950000", "201634.410000", "201634.870000", "201635.330000", "201635.790000", "201636.250000", "201636.710000", "201637.170000", "201637.630000", "201638.090000", "201638.550000", "201639.010000", "201639.470000", "201639.930000", "201640.390000", "201640.850000", "201641.310000", "201641.770000", "201642.230000", "201642.690000", "201643.150000", "201643.610000", "201644.070000", "201644.530000", "201644.990000", "201645.450000", "201645.910000", "201646.370000", "201646.830000", "201647.290000", "201647.750000", "201648.210000", "201648.670000", "201649.130000", "201649.590000", "201650.050000", "201650.510000", "201650.970000", "201651.430000", "201651.890000", "201652.350000", "201652.810000", "201653.270000", "201653.730000", "201654.190000", "201654.650000", "201655.110000", "201655.570000", "201656.030000", "201656.490000", "201656.950000", "201657.410000", "201657.870000", "201658.330000", "201658.790000", "201659.250000", "201659.710000", "201700.170000", "201700.630000", "201701.090000", "201701.550000", "201702.010000", "201702.470000", "201702.930000", "201703.390000", "201703.850000", "201704.310000", "201704.770000", "201705.230000", "201705.690000", "201706.150000", "201706.610000", "201707.070000", "201707.530000", "201707.990000", "201708.450000", "201708.910000", "201709.370000", "201709.830000", "201710.290000", "201710.750000", "201711.210000", "201711.670000", "201712.130000", "201712.590000", "201713.050000", "201713.510000", "201713.970000", "201714.430000", "201714.890000", "201715.350000", "201715.810000", "201716.270000", "201716.730000", "201717.190000", "201717.650000", "201718.110000", "201718.570000", "201719.030000", "201719.490000", "201719.950000", "201720.410000", "201720.870000", "201721.330000", "201721.790000", "201722.250000", "201722.710000", "201723.170000", "201723.630000", "201724.090000", "201724.550000", "201725.010000", "201725.470000", "201725.930000", "201726.390000", "201726.850000", "201727.310000", "201727.770000", "201728.230000", "201728.690000", "201729.150000", "201729.610000", "201730.070000", "201730.530000", "201730.990000", "201731.450000", "201731.910000", "201732.370000", "201732.830000", "201733.290000", "201733.750000", "201734.210000", "201734.670000", "201735.130000", "201735.590000", "201736.050000", "201736.510000", "201736.970000", "201737.430000", "201737.890000", "201738.350000", "201738.810000", "201739.270000", "201739.730000", "201740.190000", "201740.650000", "201741.110000", "201741.570000", "201742.030000", "201742.490000", "201742.950000", "201743.410000", "201743.870000", "201744.330000", "201744.790000", "201745.250000", "201745.710000", "201746.170000", "201746.630000", "201747.090000", "201747.550000", "201748.010000", "201748.470000", "201748.930000", "201749.390000", "201749.850000", "201750.310000", "201750.770000", "201751.230000", "201751.690000", "201752.150000", "201752.610000", "201753.070000", "201753.530000", "201753.990000", "201754.450000", "201754.910000", "201755.370000", "201755.830000", "201756.290000", "201756.750000", "201757.210000", "201757.670000", "201758.130000", "201758.590000", "201759.050000", "201759.510000", "201759.970000", "201800.430000", "201800.890000", "201801.350000", "201801.810000", "201802.270000", "201802.730000", "201803.190000", "201803.650000", "201804.110000", "201804.570000", "201805.030000", "201805.490000", "201805.950000", "201806.410000", "201806.870000", "201807.330000", "201807.790000", "201808.250000", "201808.710000", "201809.170000", "201809.630000", "201810.090000", "201810.550000", "201811.010000", "201811.470000", "201811.930000", "201812.390000", "201812.850000", "201813.310000", "201813.770000", "201814.230000", "201814.690000", "201815.150000", "201815.610000", "201816.070000", "201816.530000", "201816.990000", "201817.450000", "201817.910000", "201818.370000", "201818.830000", "201819.290000", "201819.750000", "201820.210000", "201820.670000", "201821.130000", "201821.590000", "201822.050000", "201822.510000", "201822.970000", "201823.430000", "201823.890000", "201824.350000", "201824.810000", "201825.270000", "201825.730000", "201826.190000", "201826.650000", "201827.110000", "201827.570000", "201828.030000", "201828.490000", "201828.950000", "201829.410000", "201829.870000", "201830.330000", "201830.790000", "201831.250000", "201831.710000", "201832.170000", "201832.630000", "201833.090000", "201833.550000", "201834.010000", "201834.470000", "201834.930000", "201835.390000", "201835.850000", "201836.310000", "201836.770000", "201837.230000", "201837.690000", "201838.150000", "201838.610000", "201839.070000", "201839.530000", "201839.990000", "201840.450000", "201840.910000", "201841.370000", "201841.830000", "201842.290000", "201842.750000", "201843.210000", "201843.670000", "201844.130000", "201844.590000", "201845.050000", "201845.510000", "201845.970000", "201846.430000", "201846.890000", "201847.350000", "201847.810000", "201848.270000", "201848.730000", "201849.190000", "201849.650000", "201850.110000", "201850.570000", "201851.030000", "201851.490000", "201851.950000", "201852.410000", "201852.870000", "201853.330000", "201853.790000", "201854.250000", "201854.710000", "201855.170000", "201855.630000", "201856.090000", "201856.550000", "201857.010000", "201857.470000", "201857.930000", "201858.390000", "201858.850000", "201859.310000", "201859.770000", "201900.230000", "201900.690000", "201901.150000", "201901.610000", "201902.070000", "201902.530000", "201902.990000", "201903.450000", "201903.910000", "201904.370000", "201904.830000", "201905.290000", "201905.750000", "201906.210000", "201906.670000", "201907.130000", "201907.590000", "201908.050000", "201908.510000", "201908.970000", "201909.430000", "201909.890000", "201910.350000", "201910.810000", "201911.270000", "201911.730000", "201912.190000", "201912.650000", "201913.110000", "201913.570000", "201914.030000", "201914.490000", "201914.950000", "201915.410000", "201915.870000", "201916.330000", "201916.790000", "201917.250000", "201917.710000", "201918.170000", "201918.630000", "201919.090000", "201919.550000", "201920.010000", "201920.470000", "201920.930000", "201921.390000", "201921.850000", "201922.310000", "201922.770000", "201923.230000", "201923.690000", "201924.150000", "201924.610000", "201925.070000", "201925.530000", "201925.990000", "201926.450000", "201926.910000", "201927.370000", "201927.830000", "201928.290000", "201928.750000", "201929.210000", "201929.670000", "201930.130000", "201930.590000", "201931.050000", "201931.510000", "201931.970000", "201932.430000", "201932.890000", "201933.350000", "201933.810000", "201934.270000", "201934.730000", "201935.190000", "201935.650000", "201936.110000", "201936.570000", "201937.030000", "201937.490000", "201937.950000", "201938.410000", "201938.870000", "201939.330000", "201939.790000", "201940.250000", "201940.710000", "201941.170000", "201941.630000", "201942.090000", "201942.550000", "201943.010000", "201943.470000", "201943.930000", "201944.390000", "201944.850000", "201945.310000", "201945.770000", "201946.230000", "201946.690000", "201947.150000", "201947.610000", "201948.070000", "201948.530000", "201948.990000", "201949.450000", "201949.910000", "201950.370000", "201950.830000", "201951.290000", "201951.750000", "201952.210000", "201952.670000", "201953.130000", "201953.590000", "201954.050000", "201954.510000", "201954.970000", "201955.430000", "201955.890000", "201956.350000", "201956.810000", "201957.270000", "201957.730000", "201958.190000", "201958.650000", "201959.110000", "201959.570000", "202000.030000", "202000.490000", "202000.950000", "202001.410000", "202001.870000", "202002.330000", "202002.790000", "202003.250000", "202003.710000", "202004.170000", "202004.630000", "202005.090000", "202005.550000", "202006.010000", "202006.470000", "202006.930000", "202007.390000", "202007.850000", "202008.310000", "202008.770000", "202009.230000", "202009.690000", "202010.150000", "202010.610000", "202011.070000", "202011.530000", "202011.990000", "202012.450000", "202012.910000", "202013.370000", "202013.830000", "202014.290000", "202014.750000", "202015.210000", "202015.670000", "202016.130000", "202016.590000", "202017.050000", "202017.510000", "202017.970000", "202018.430000", "202018.890000", "202019.350000", "202019.810000", "202020.270000", "202020.730000", "202021.190000", "202021.650000", "202022.110000", "202022.570000", "202023.030000", "202023.490000", "202023.950000", "202024.410000", "202024.870000", "202025.330000", "202025.790000", "202026.250000", "202026.710000", "202027.170000", "202027.630000", "202028.090000", "202028.550000", "202029.010000", "202029.470000", "202029.930000", "202030.390000", "202030.850000", "202031.310000", "202031.770000", "202032.230000", "202032.690000", "202033.150000", "202033.610000", "202034.070000", "202034.530000", "202034.990000", "202035.450000", "202035.910000", "202036.370000", "202036.830000", "202037.290000", "202037.750000", "202038.210000", "202038.670000", "202039.130000", "202039.590000", "202040.050000", "202040.510000", "202040.970000", "202041.430000", "202041.890000", "202042.350000", "202042.810000", "202043.270000", "202043.730000", "202044.190000", "202044.650000", "202045.110000", "202045.570000", "202046.030000", "202046.490000", "202046.950000", "202047.410000", "202047.870000", "202048.330000", "202048.790000", "202049.250000", "202049.710000", "202050.170000", "202050.630000", "202051.090000", "202051.550000", "202052.010000", "202052.470000", "202052.930000", "202053.390000", "202053.850000", "202054.310000", "202054.770000", "202055.230000", "202055.690000", "202056.150000", "202056.610000", "202057.070000", "202057.530000", "202057.990000", "202058.450000", "202058.910000", "202059.370000", "202059.830000", "202100.290000", "202100.750000", "202101.210000", "202101.670000", "202102.130000", "202102.590000", "202103.050000", "202103.510000", "202103.970000", "202104.430000", "202104.890000", "202105.350000", "202105.810000", "202106.270000", "202106.730000", "202107.190000", "202107.650000", "202108.110000", "202108.570000", "202109.030000", "202109.490000", "202109.950000", "202110.410000", "202110.870000", "202111.330000", "202111.790000", "202112.250000", "202112.710000", "202113.170000", "202113.630000", "202114.090000", "202114.550000", "202115.010000", "202115.470000", "202115.930000", "202116.390000", "202116.850000", "202117.310000", "202117.770000", "202118.230000", "202118.690000", "202119.150000", "202119.610000", "202120.070000", "202120.530000", "202120.990000", "202121.450000", "202121.910000", "202122.370000", "202122.830000", "202123.290000", "202123.750000", "202124.210000", "202124.670000", "202125.130000", "202125.590000", "202126.050000", "202126.510000", "202126.970000", "202127.430000", "202127.890000", "202128.350000", "202128.810000", "202129.270000", "202129.730000", "202130.190000", "202130.650000", "202131.110000", "202131.570000", "202132.030000", "202132.490000", "202132.950000", "202133.410000", "202133.870000", "202134.330000", "202134.790000", "202135.250000", "202135.710000", "202136.170000", "202136.630000", "202137.090000", "202137.550000", "202138.010000", "202138.470000", "202138.930000", "202139.390000", "202139.850000", "202140.310000", "202140.770000", "202141.230000", "202141.690000", "202142.150000", "202142.610000", "202143.070000", "202143.530000", "202143.990000", "202144.450000", "202144.910000", "202145.370000", "202145.830000", "202146.290000", "202146.750000", "202147.210000", "202147.670000", "202148.130000", "202148.590000", "202149.050000", "202149.510000", "202149.970000", "202150.430000", "202150.890000", "202151.350000", "202151.810000", "202152.270000", "202152.730000", "202153.190000", "202153.650000", "202154.110000", "202154.570000", "202155.030000", "202155.490000", "202155.950000", "202156.410000", "202156.870000", "202157.330000", "202157.790000", "202158.250000", "202158.710000", "202159.170000", "202159.630000", "202200.090000", "202200.550000", "202201.010000", "202201.470000", "202201.930000", "202202.390000", "202202.850000", "202203.310000", "202203.770000", "202204.230000", "202204.690000", "202205.150000", "202205.610000", "202206.070000", "202206.530000", "202206.990000", "202207.450000", "202207.910000", "202208.370000", "202208.830000", "202209.290000", "202209.750000", "202210.210000", "202210.670000", "202211.130000", "202211.590000", "202212.050000", "202212.510000", "202212.970000", "202213.430000", "202213.890000", "202214.350000", "202214.810000", "202215.270000", "202215.730000", "202216.190000", "202216.650000", "202217.110000", "202217.570000", "202218.030000", "202218.490000", "202218.950000", "202219.410000", "202219.870000", "202220.330000", "202220.790000", "202221.250000", "202221.710000", "202222.170000", "202222.630000", "202223.090000", "202223.550000", "202224.010000", "202224.470000", "202224.930000", "202225.390000", "202225.850000", "202226.310000", "202226.770000", "202227.230000", "202227.690000", "202228.150000", "202228.610000", "202229.070000", "202229.530000", "202229.990000", "202230.450000", "202230.910000", "202231.370000", "202231.830000", "202232.290000", "202232.750000", "202233.210000", "202233.670000", "202234.130000", "202234.590000", "202235.050000", "202235.510000", "202235.970000", "202236.430000", "202236.890000", "202237.350000", "202237.810000", "202238.270000", "202238.730000", "202239.190000", "202239.650000", "202240.110000", "202240.570000", "202241.030000", "202241.490000", "202241.950000", "202242.410000", "202242.870000", "202243.330000", "202243.790000", "202244.250000", "202244.710000", "202245.170000", "202245.630000", "202246.090000", "202246.550000", "202247.010000"],
