{
  "AcquisitionMatrixPE": 82,
  "AcquisitionNumber": 1,
  "AcquisitionTime": "21:05:41.725000",
  "BandwidthPerPixelPhaseEncode": 24.888,
  "BaseResolution": 82,
  "BodyPartExamined": "BRAIN",
  "ConsistencyInfo": "N4_VE11E_LATEST_20181129",
  "ConversionSoftware": "dcm2niix",
  "ConversionSoftwareVersion": "v1.0.20201102",
  "DerivedVendorReportedEchoSpacing": 0.00049,
  "DeviceSerialNumber": "66112",
  "DwellTime": 2e-06,
  "EchoTime": 0.0272,
  "EchoTrainLength": 82,
  "EffectiveEchoSpacing": 0.00049,
  "FlipAngle": 44,
  "ImageComments": "Unaliased MB8/PE3",
  "ImageOrientationPatientDICOM": [0.999778, -0.00212327, 0.0209769, 0.000523511, 0.99711, 0.075976],
  "ImageType": [
    "ORIGINAL",
    "PRIMARY",
    "M",
    "MB",
    "ND",
    "NORM",
    "MOSAIC"
],
  "ImagingFrequency": 123.259,
  "InPlanePhaseEncodingDirectionDICOM": "COL",
  "InstitutionAddress": "Maynard 3,Hanover,NH,US,03755",
  "InstitutionName": "Dartmouth College - PBS",
  "InstitutionalDepartmentName": "Department",
  "MRAcquisitionType": "2D",
  "MagneticFieldStrength": 3,
  "Manufacturer": "Siemens",
  "ManufacturersModelName": "Prisma",
  "Modality": "MR",
  "MultibandAccelerationFactor": 8,
  "PartialFourier": 1,
  "PatientPosition": "HFS",
  "PercentPhaseFOV": 100,
  "PercentSampling": 100,
  "PhaseEncodingDirection": "j-",
  "PhaseEncodingSteps": 82,
  "PhaseResolution": 1,
  "PixelBandwidth": 3050,
  "ProcedureStepDescription": "Wager_Wager^1076_spacetop",
  "ProtocolName": "func_run-02_task-alignvideo_acq-ap-mb8",
  "PulseSequenceDetails": "%CustomerSeq%\\cmrr_mbep2d_bold",
  "ReceiveCoilActiveElements": "HEA;HEP",
  "ReceiveCoilName": "Head_32",
  "ReconMatrixPE": 82,
  "RepetitionTime": 0.46,
  "SAR": 0.111099,
  "ScanOptions": "FS",
  "ScanningSequence": "EP",
  "SequenceName": "epfid2d1_82",
  "SequenceVariant": "SK\\SS",
  "SeriesDescription": "func_run-02_task-alignvideo_acq-ap-mb8",
  "SeriesNumber": 32,
  "ShimSetting": [4207, -7801, -7206, -5, -133, -139, -14, 103],
  "SliceThickness": 2.7,
  "SliceTiming": [0, 0.25, 0.0625, 0.3125, 0.125, 0.3775, 0.1875, 0, 0.25, 0.0625, 0.3125, 0.125, 0.3775, 0.1875, 0, 0.25, 0.0625, 0.3125, 0.125, 0.3775, 0.1875, 0, 0.25, 0.0625, 0.3125, 0.125, 0.3775, 0.1875, 0, 0.25, 0.0625, 0.3125, 0.125, 0.3775, 0.1875, 0, 0.25, 0.0625, 0.3125, 0.125, 0.3775, 0.1875, 0, 0.25, 0.0625, 0.3125, 0.125, 0.3775, 0.1875, 0, 0.25, 0.0625, 0.3125, 0.125, 0.3775, 0.1875],
  "SoftwareVersions": "syngo MR E11",
  "SpacingBetweenSlices": 2.7,
  "StationName": "AWP66112",
  "TaskName": "alignvideo",
  "TotalReadoutTime": 0.03969,
  "TxRefAmp": 295.539,
  "WipMemBlock": "d1ebafa9-50bc-4076-b2f9-2afc60902db5||Sequence: R016 ve11e/master r/434b28f1; Aug  7 2019 18:53:46 by eja",
  "dcmmeta_affine": [
    [-2.68233060836792, 0.0014045415446162224, 0.056909509003162384, 115.82284545898438],
    [0.005696585401892662, 2.6751718521118164, 0.20505982637405396, -89.74211120605469],
    [0.05627952143549919, -0.20383793115615845, 2.6916000843048096, -69.1455078125],
    [0.0, 0.0, 0.0, 1.0]
],
  "dcmmeta_reorient_transform": [
    [0.0, -1.0, 0.0, 81.0],
    [1.0, 0.0, 0.0, 0.0],
    [0.0, 0.0, 1.0, 0.0],
    [0.0, 0.0, 0.0, 1.0]
],
  "dcmmeta_shape": [82, 82, 56, 926],
  "dcmmeta_slice_dim": 2,
  "dcmmeta_version": 0.6,
  "global": {
    "const": {
      "AccessionNumber": "A004854",
      "AcquisitionMatrix": [82, 0, 0, 82],
      "AngioFlag": "N",
      "BitsAllocated": 16,
      "BitsStored": 16,
      "BodyPartExamined": "BRAIN",
      "Columns": 656,
      "EchoNumbers": 1,
      "EchoTime": 27.2,
      "EchoTrainLength": 82,
      "FlipAngle": 44.0,
      "HighBit": 15,
      "ImageOrientationPatient": [0.99977770572511, -0.0021232727399, 0.02097691225868, 0.00052351091266, 0.99710951276328, 0.07597595338859],
      "ImagePositionPatient": [-886.16856643613, -893.08623935143, -160.31008569339],
      "ImageType": [
        "ORIGINAL",
        "PRIMARY",
        "M",
        "MB",
        "ND",
        "NORM",
        "MOSAIC"
],
      "ImagedNucleus": "1H",
      "ImagingFrequency": 123.259032,
      "InPlanePhaseEncodingDirection": "COL",
      "MRAcquisitionType": "2D",
      "MagneticFieldStrength": 3.0,
      "Manufacturer": "SIEMENS",
      "ManufacturerModelName": "Prisma",
      "Modality": "MR",
      "NumberOfAverages": 1.0,
      "NumberOfPhaseEncodingSteps": 82,
      "PercentPhaseFieldOfView": 100.0,
      "PercentSampling": 100.0,
      "PerformedProcedureStepStartTime": "194002.443000",
      "PhotometricInterpretation": "MONOCHROME2",
      "PixelBandwidth": 3050.0,
      "PixelRepresentation": 0,
      "PixelSpacing": [2.6829268932343, 2.6829268932343],
      "ProtocolName": "func_run-02_task-alignvideo_acq-ap-mb8",
      "RepetitionTime": 460.0,
      "Rows": 656,
      "SAR": 0.11109892710423,
      "SamplesPerPixel": 1,
      "ScanOptions": "FS",
      "ScanningSequence": "EP",
      "SequenceName": "epfid2d1_82",
      "SequenceVariant": [
        "SK",
        "SS"
],
      "SeriesDescription": "func_run-02_task-alignvideo_acq-ap-mb8",
      "SeriesNumber": 32,
      "SeriesTime": "210559.941000",
      "SliceLocation": -73.304865619106,
      "SliceThickness": 2.7000000476837,
      "SmallestImagePixelValue": 0,
      "SoftwareVersions": "syngo MR E11",
      "SpacingBetweenSlices": 2.6999999484512,
      "SpecificCharacterSet": "ISO_IR 100",
      "StudyID": "6",
      "StudyTime": "194002.383000",
      "TransmitCoilName": "Body",
      "VariableFlipAngleFlag": "N",
      "WindowCenterWidthExplanation": "Algo1"
    },
    "slices": {}
  },
  "time": {
    "samples": {
      "AcquisitionNumber": [1, 2, 3, 4, 5, 6, 7, 8, 9, 10, 11, 12, 13, 14, 15, 16, 17, 18, 19, 20, 21, 22, 23, 24, 25, 26, 27, 28, 29, 30, 31, 32, 33, 34, 35, 36, 37, 38, 39, 40, 41, 42, 43, 44, 45, 46, 47, 48, 49, 50, 51, 52, 53, 54, 55, 56, 57, 58, 59, 60, 61, 62, 63, 64, 65, 66, 67, 68, 69, 70, 71, 72, 73, 74, 75, 76, 77, 78, 79, 80, 81, 82, 83, 84, 85, 86, 87, 88, 89, 90, 91, 92, 93, 94, 95, 96, 97, 98, 99, 100, 101, 102, 103, 104, 105, 106, 107, 108, 109, 110, 111, 112, 113, 114, 115, 116, 117, 118, 119, 120, 121, 122, 123, 124, 125, 126, 127, 128, 129, 130, 131, 132, 133, 134, 135, 136, 137, 138, 139, 140, 141, 142, 143, 144, 145, 146, 147, 148, 149, 150, 151, 152, 153, 154, 155, 156, 157, 158, 159, 160, 161, 162, 163, 164, 165, 166, 167, 168, 169, 170, 171, 172, 173, 174, 175, 176, 177, 178, 179, 180, 181, 182, 183, 184, 185, 186, 187, 188, 189, 190, 191, 192, 193, 194, 195, 196, 197, 198, 199, 200, 201, 202, 203, 204, 205, 206, 207, 208, 209, 210, 211, 212, 213, 214, 215, 216, 217, 218, 219, 220, 221, 222, 223, 224, 225, 226, 227, 228, 229, 230, 231, 232, 233, 234, 235, 236, 237, 238, 239, 240, 241, 242, 243, 244, 245, 246, 247, 248, 249, 250, 251, 252, 253, 254, 255, 256, 257, 258, 259, 260, 261, 262, 263, 264, 265, 266, 267, 268, 269, 270, 271, 272, 273, 274, 275, 276, 277, 278, 279, 280, 281, 282, 283, 284, 285, 286, 287, 288, 289, 290, 291, 292, 293, 294, 295, 296, 297, 298, 299, 300, 301, 302, 303, 304, 305, 306, 307, 308, 309, 310, 311, 312, 313, 314, 315, 316, 317, 318, 319, 320, 321, 322, 323, 324, 325, 326, 327, 328, 329, 330, 331, 332, 333, 334, 335, 336, 337, 338, 339, 340, 341, 342, 343, 344, 345, 346, 347, 348, 349, 350, 351, 352, 353, 354, 355, 356, 357, 358, 359, 360, 361, 362, 363, 364, 365, 366, 367, 368, 369, 370, 371, 372, 373, 374, 375, 376, 377, 378, 379, 380, 381, 382, 383, 384, 385, 386, 387, 388, 389, 390, 391, 392, 393, 394, 395, 396, 397, 398, 399, 400, 401, 402, 403, 404, 405, 406, 407, 408, 409, 410, 411, 412, 413, 414, 415, 416, 417, 418, 419, 420, 421, 422, 423, 424, 425, 426, 427, 428, 429, 430, 431, 432, 433, 434, 435, 436, 437, 438, 439, 440, 441, 442, 443, 444, 445, 446, 447, 448, 449, 450, 451, 452, 453, 454, 455, 456, 457, 458, 459, 460, 461, 462, 463, 464, 465, 466, 467, 468, 469, 470, 471, 472, 473, 474, 475, 476, 477, 478, 479, 480, 481, 482, 483, 484, 485, 486, 487, 488, 489, 490, 491, 492, 493, 494, 495, 496, 497, 498, 499, 500, 501, 502, 503, 504, 505, 506, 507, 508, 509, 510, 511, 512, 513, 514, 515, 516, 517, 518, 519, 520, 521, 522, 523, 524, 525, 526, 527, 528, 529, 530, 531, 532, 533, 534, 535, 536, 537, 538, 539, 540, 541, 542, 543, 544, 545, 546, 547, 548, 549, 550, 551, 552, 553, 554, 555, 556, 557, 558, 559, 560, 561, 562, 563, 564, 565, 566, 567, 568, 569, 570, 571, 572, 573, 574, 575, 576, 577, 578, 579, 580, 581, 582, 583, 584, 585, 586, 587, 588, 589, 590, 591, 592, 593, 594, 595, 596, 597, 598, 599, 600, 601, 602, 603, 604, 605, 606, 607, 608, 609, 610, 611, 612, 613, 614, 615, 616, 617, 618, 619, 620, 621, 622, 623, 624, 625, 626, 627, 628, 629, 630, 631, 632, 633, 634, 635, 636, 637, 638, 639, 640, 641, 642, 643, 644, 645, 646, 647, 648, 649, 650, 651, 652, 653, 654, 655, 656, 657, 658, 659, 660, 661, 662, 663, 664, 665, 666, 667, 668, 669, 670, 671, 672, 673, 674, 675, 676, 677, 678, 679, 680, 681, 682, 683, 684, 685, 686, 687, 688, 689, 690, 691, 692, 693, 694, 695, 696, 697, 698, 699, 700, 701, 702, 703, 704, 705, 706, 707, 708, 709, 710, 711, 712, 713, 714, 715, 716, 717, 718, 719, 720, 721, 722, 723, 724, 725, 726, 727, 728, 729, 730, 731, 732, 733, 734, 735, 736, 737, 738, 739, 740, 741, 742, 743, 744, 745, 746, 747, 748, 749, 750, 751, 752, 753, 754, 755, 756, 757, 758, 759, 760, 761, 762, 763, 764, 765, 766, 767, 768, 769, 770, 771, 772, 773, 774, 775, 776, 777, 778, 779, 780, 781, 782, 783, 784, 785, 786, 787, 788, 789, 790, 791, 792, 793, 794, 795, 796, 797, 798, 799, 800, 801, 802, 803, 804, 805, 806, 807, 808, 809, 810, 811, 812, 813, 814, 815, 816, 817, 818, 819, 820, 821, 822, 823, 824, 825, 826, 827, 828, 829, 830, 831, 832, 833, 834, 835, 836, 837, 838, 839, 840, 841, 842, 843, 844, 845, 846, 847, 848, 849, 850, 851, 852, 853, 854, 855, 856, 857, 858, 859, 860, 861, 862, 863, 864, 865, 866, 867, 868, 869, 870, 871, 872, 873, 874, 875, 876, 877, 878, 879, 880, 881, 882, 883, 884, 885, 886, 887, 888, 889, 890, 891, 892, 893, 894, 895, 896, 897, 898, 899, 900, 901, 902, 903, 904, 905, 906, 907, 908, 909, 910, 911, 912, 913, 914, 915, 916, 917, 918, 919, 920, 921, 922, 923, 924, 925, 926],
      "AcquisitionTime": ["210541.725000", "210542.185000", "210542.645000", "210543.105000", "210543.565000", "210544.025000", "210544.485000", "210544.945000", "210545.405000", "210545.865000", "210546.325000", "210546.785000", "210547.245000", "210547.705000", "210548.165000", "210548.625000", "210549.085000", "210549.545000", "210550.005000", "210550.465000", "210550.925000", "210551.385000", "210551.845000", "210552.305000", "210552.765000", "210553.225000", "210553.685000", "210554.145000", "210554.605000", "210555.065000", "210555.525000", "210555.985000", "210556.445000", "210556.905000", "210557.365000", "210557.825000", "210558.285000", "210558.745000", "210559.205000", "210559.665000", "210600.125000", "210600.585000", "210601.045000", "210601.505000", "210601.965000", "210602.425000", "210602.885000", "210603.345000", "210603.805000", "210604.265000", "210604.725000", "210605.185000", "210605.645000", "210606.105000", "210606.565000", "210607.025000", "210607.485000", "210607.945000", "210608.405000", "210608.865000", "210609.325000", "210609.785000", "210610.245000", "210610.705000", "210611.165000", "210611.625000", "210612.085000", "210612.545000", "210613.005000", "210613.465000", "210613.925000", "210614.385000", "210614.845000", "210615.305000", "210615.765000", "210616.225000", "210616.685000", "210617.145000", "210617.605000", "210618.065000", "210618.525000", "210618.985000", "210619.445000", "210619.905000", "210620.365000", "210620.825000", "210621.285000", "210621.745000", "210622.205000", "210622.665000", "210623.125000", "210623.585000", "210624.045000", "210624.505000", "210624.965000", "210625.425000", "210625.885000", "210626.345000", "210626.805000", "210627.265000", "210627.725000", "210628.185000", "210628.645000", "210629.105000", "210629.565000", "210630.025000", "210630.485000", "210630.945000", "210631.405000", "210631.865000", "210632.325000", "210632.785000", "210633.245000", "210633.705000", "210634.165000", "210634.625000", "210635.085000", "210635.545000", "210636.005000", "210636.465000", "210636.925000", "210637.385000", "210637.845000", "210638.305000", "210638.765000", "210639.225000", "210639.685000", "210640.145000", "210640.605000", "210641.065000", "210641.525000", "210641.985000", "210642.445000", "210642.905000", "210643.365000", "210643.825000", "210644.285000", "210644.745000", "210645.205000", "210645.665000", "210646.125000", "210646.585000", "210647.045000", "210647.505000", "210647.965000", "210648.425000", "210648.885000", "210649.345000", "210649.805000", "210650.265000", "210650.725000", "210651.185000", "210651.645000", "210652.105000", "210652.565000", "210653.025000", "210653.485000", "210653.945000", "210654.405000", "210654.865000", "210655.325000", "210655.785000", "210656.245000", "210656.705000", "210657.165000", "210657.625000", "210658.085000", "210658.545000", "210659.005000", "210659.465000", "210659.925000", "210700.385000", "210700.845000", "210701.305000", "210701.765000", "210702.225000", "210702.685000", "210703.145000", "210703.605000", "210704.065000", "210704.525000", "210704.985000", "210705.445000", "210705.905000", "210706.365000", "210706.825000", "210707.285000", "210707.745000", "210708.205000", "210708.665000", "210709.125000", "210709.585000", "210710.045000", "210710.505000", "210710.965000", "210711.425000", "210711.885000", "210712.345000", "210712.805000", "210713.265000", "210713.725000", "210714.185000", "210714.645000", "210715.105000", "210715.565000", "210716.025000", "210716.485000", "210716.945000", "210717.405000", "210717.865000", "210718.325000", "210718.785000", "210719.245000", "210719.705000", "210720.165000", "210720.625000", "210721.085000", "210721.545000", "210722.005000", "210722.465000", "210722.925000", "210723.385000", "210723.845000", "210724.305000", "210724.765000", "210725.225000", "210725.685000", "210726.145000", "210726.605000", "210727.065000", "210727.525000", "210727.985000", "210728.445000", "210728.905000", "210729.365000", "210729.825000", "210730.285000", "210730.745000", "210731.205000", "210731.665000", "210732.125000", "210732.585000", "210733.045000", "210733.505000", "210733.965000", "210734.425000", "210734.885000", "210735.345000", "210735.805000", "210736.265000", "210736.725000", "210737.185000", "210737.645000", "210738.105000", "210738.565000", "210739.025000", "210739.485000", "210739.945000", "210740.405000", "210740.865000", "210741.325000", "210741.785000", "210742.245000", "210742.705000", "210743.165000", "210743.625000", "210744.085000", "210744.545000", "210745.005000", "210745.465000", "210745.925000", "210746.385000", "210746.845000", "210747.305000", "210747.765000", "210748.225000", "210748.685000", "210749.145000", "210749.605000", "210750.065000", "210750.525000", "210750.985000", "210751.445000", "210751.905000", "210752.365000", "210752.825000", "210753.285000", "210753.745000", "210754.205000", "210754.665000", "210755.125000", "210755.585000", "210756.045000", "210756.505000", "210756.965000", "210757.425000", "210757.885000", "210758.345000", "210758.805000", "210759.265000", "210759.725000", "210800.185000", "210800.645000", "210801.105000", "210801.565000", "210802.025000", "210802.485000", "210802.945000", "210803.405000", "210803.865000", "210804.325000", "210804.785000", "210805.245000", "210805.705000", "210806.165000", "210806.625000", "210807.085000", "210807.545000", "210808.005000", "210808.465000", "210808.925000", "210809.385000", "210809.845000", "210810.305000", "210810.765000", "210811.225000", "210811.685000", "210812.145000", "210812.605000", "210813.065000", "210813.525000", "210813.985000", "210814.445000", "210814.905000", "210815.365000", "210815.825000", "210816.285000", "210816.745000", "210817.205000", "210817.665000", "210818.125000", "210818.585000", "210819.045000", "210819.505000", "210819.965000", "210820.425000", "210820.885000", "210821.345000", "210821.805000", "210822.265000", "210822.725000", "210823.185000", "210823.645000", "210824.105000", "210824.565000", "210825.025000", "210825.485000", "210825.945000", "210826.405000", "210826.865000", "210827.325000", "210827.785000", "210828.245000", "210828.705000", "210829.165000", "210829.625000", "210830.085000", "210830.545000", "210831.005000", "210831.465000", "210831.925000", "210832.385000", "210832.845000", "210833.305000", "210833.765000", "210834.225000", "210834.685000", "210835.145000", "210835.605000", "210836.065000", "210836.525000", "210836.985000", "210837.445000", "210837.905000", "210838.365000", "210838.825000", "210839.285000", "210839.745000", "210840.205000", "210840.665000", "210841.125000", "210841.585000", "210842.045000", "210842.505000", "210842.965000", "210843.425000", "210843.885000", "210844.345000", "210844.805000", "210845.265000", "210845.725000", "210846.185000", "210846.645000", "210847.105000", "210847.565000", "210848.025000", "210848.485000", "210848.945000", "210849.405000", "210849.865000", "210850.325000", "210850.785000", "210851.245000", "210851.705000", "210852.165000", "210852.625000", "210853.085000", "210853.545000", "210854.005000", "210854.465000", "210854.925000", "210855.385000", "210855.845000", "210856.305000", "210856.765000", "210857.225000", "210857.685000", "210858.145000", "210858.605000", "210859.065000", "210859.525000", "210859.985000", "210900.445000", "210900.905000", "210901.365000", "210901.825000", "210902.285000", "210902.745000", "210903.205000", "210903.665000", "210904.125000", "210904.585000", "210905.045000", "210905.505000", "210905.965000", "210906.425000", "210906.885000", "210907.345000", "210907.805000", "210908.265000", "210908.725000", "210909.185000", "210909.645000", "210910.105000", "210910.565000", "210911.025000", "210911.485000", "210911.945000", "210912.405000", "210912.865000", "210913.325000", "210913.785000", "210914.245000", "210914.705000", "210915.165000", "210915.625000", "210916.085000", "210916.545000", "210917.005000", "210917.465000", "210917.925000", "210918.385000", "210918.845000", "210919.305000", "210919.765000", "210920.225000", "210920.685000", "210921.145000", "210921.605000", "210922.065000", "210922.525000", "210922.985000", "210923.445000", "210923.905000", "210924.365000", "210924.825000", "210925.285000", "210925.745000", "210926.205000", "210926.665000", "210927.125000", "210927.585000", "210928.045000", "210928.505000", "210928.965000", "210929.425000", "210929.885000", "210930.345000", "210930.805000", "210931.265000", "210931.725000", "210932.185000", "210932.645000", "210933.105000", "210933.565000", "210934.025000", "210934.485000", "210934.945000", "210935.405000", "210935.865000", "210936.325000", "210936.785000", "210937.245000", "210937.705000", "210938.165000", "210938.625000", "210939.085000", "210939.545000", "210940.005000", "210940.465000", "210940.925000", "210941.385000", "210941.845000", "210942.305000", "210942.765000", "210943.225000", "210943.685000", "210944.145000", "210944.605000", "210945.065000", "210945.525000", "210945.985000", "210946.445000", "210946.905000", "210947.365000", "210947.825000", "210948.285000", "210948.745000", "210949.205000", "210949.665000", "210950.125000", "210950.585000", "210951.045000", "210951.505000", "210951.965000", "210952.425000", "210952.885000", "210953.345000", "210953.805000", "210954.265000", "210954.725000", "210955.185000", "210955.645000", "210956.105000", "210956.565000", "210957.025000", "210957.485000", "210957.945000", "210958.405000", "210958.865000", "210959.325000", "210959.785000", "211000.245000", "211000.705000", "211001.165000", "211001.625000", "211002.085000", "211002.545000", "211003.005000", "211003.465000", "211003.925000", "211004.385000", "211004.845000", "211005.305000", "211005.765000", "211006.225000", "211006.685000", "211007.145000", "211007.605000", "211008.065000", "211008.525000", "211008.985000", "211009.445000", "211009.905000", "211010.365000", "211010.825000", "211011.285000", "211011.745000", "211012.205000", "211012.665000", "211013.125000", "211013.585000", "211014.045000", "211014.505000", "211014.965000", "211015.425000", "211015.885000", "211016.345000", "211016.805000", "211017.265000", "211017.725000", "211018.185000", "211018.645000", "211019.105000", "211019.565000", "211020.025000", "211020.485000", "211020.945000", "211021.405000", "211021.865000", "211022.325000", "211022.785000", "211023.245000", "211023.705000", "211024.165000", "211024.625000", "211025.085000", "211025.545000", "211026.005000", "211026.465000", "211026.925000", "211027.385000", "211027.845000", "211028.305000", "211028.765000", "211029.225000", "211029.685000", "211030.145000", "211030.605000", "211031.065000", "211031.525000", "211031.985000", "211032.445000", "211032.905000", "211033.365000", "211033.825000", "211034.285000", "211034.745000", "211035.205000", "211035.665000", "211036.125000", "211036.585000", "211037.045000", "211037.505000", "211037.965000", "211038.425000", "211038.885000", "211039.345000", "211039.805000", "211040.265000", "211040.725000", "211041.185000", "211041.645000", "211042.105000", "211042.565000", "211043.025000", "211043.485000", "211043.945000", "211044.405000", "211044.865000", "211045.325000", "211045.785000", "211046.245000", "211046.705000", "211047.165000", "211047.625000", "211048.085000", "211048.545000", "211049.005000", "211049.465000", "211049.925000", "211050.385000", "211050.845000", "211051.305000", "211051.765000", "211052.225000", "211052.685000", "211053.145000", "211053.605000", "211054.065000", "211054.525000", "211054.985000", "211055.445000", "211055.905000", "211056.365000", "211056.825000", "211057.285000", "211057.745000", "211058.205000", "211058.665000", "211059.125000", "211059.585000", "211100.045000", "211100.505000", "211100.965000", "211101.425000", "211101.885000", "211102.345000", "211102.805000", "211103.265000", "211103.725000", "211104.185000", "211104.645000", "211105.105000", "211105.565000", "211106.025000", "211106.485000", "211106.945000", "211107.405000", "211107.865000", "211108.325000", "211108.785000", "211109.245000", "211109.705000", "211110.165000", "211110.625000", "211111.085000", "211111.545000", "211112.005000", "211112.465000", "211112.925000", "211113.385000", "211113.845000", "211114.305000", "211114.765000", "211115.225000", "211115.685000", "211116.145000", "211116.605000", "211117.065000", "211117.525000", "211117.985000", "211118.445000", "211118.905000", "211119.365000", "211119.825000", "211120.285000", "211120.745000", "211121.205000", "211121.665000", "211122.125000", "211122.585000", "211123.045000", "211123.505000", "211123.965000", "211124.425000", "211124.885000", "211125.345000", "211125.805000", "211126.265000", "211126.725000", "211127.185000", "211127.645000", "211128.105000", "211128.565000", "211129.025000", "211129.485000", "211129.945000", "211130.405000", "211130.865000", "211131.325000", "211131.785000", "211132.245000", "211132.705000", "211133.165000", "211133.625000", "211134.085000", "211134.545000", "211135.005000", "211135.465000", "211135.925000", "211136.385000", "211136.845000", "211137.305000", "211137.765000", "211138.225000", "211138.685000", "211139.145000", "211139.605000", "211140.065000", "211140.525000", "211140.985000", "211141.445000", "211141.905000", "211142.365000", "211142.825000", "211143.285000", "211143.745000", "211144.205000", "211144.665000", "211145.125000", "211145.585000", "211146.045000", "211146.505000", "211146.965000", "211147.425000", "211147.885000", "211148.345000", "211148.805000", "211149.265000", "211149.725000", "211150.185000", "211150.645000", "211151.105000", "211151.565000", "211152.025000", "211152.485000", "211152.945000", "211153.405000", "211153.865000", "211154.325000", "211154.785000", "211155.245000", "211155.705000", "211156.165000", "211156.625000", "211157.085000", "211157.545000", "211158.005000", "211158.465000", "211158.925000", "211159.385000", "211159.845000", "211200.305000", "211200.765000", "211201.225000", "211201.685000", "211202.145000", "211202.605000", "211203.065000", "211203.525000", "211203.985000", "211204.445000", "211204.905000", "211205.365000", "211205.825000", "211206.285000", "211206.745000", "211207.205000", "211207.665000", "211208.125000", "211208.585000", "211209.045000", "211209.505000", "211209.965000", "211210.425000", "211210.885000", "211211.345000", "211211.805000", "211212.265000", "211212.725000", "211213.185000", "211213.645000", "211214.105000", "211214.565000", "211215.025000", "211215.485000", "211215.945000", "211216.405000", "211216.865000", "211217.325000", "211217.785000", "211218.245000", "211218.705000", "211219.165000", "211219.625000", "211220.085000", "211220.545000", "211221.005000", "211221.465000", "211221.925000", "211222.385000", "211222.845000", "211223.305000", "211223.765000", "211224.225000", "211224.685000", "211225.145000", "211225.605000", "211226.065000", "211226.525000", "211226.985000", "211227.445000", "211227.905000", "211228.365000", "211228.825000", "211229.285000", "211229.745000", "211230.205000", "211230.665000", "211231.125000", "211231.585000", "211232.045000", "211232.505000", "211232.965000", "211233.425000", "211233.885000", "211234.345000", "211234.805000", "211235.265000", "211235.725000", "211236.185000", "211236.645000", "211237.105000", "211237.565000", "211238.025000", "211238.485000", "211238.945000", "211239.405000", "211239.865000", "211240.325000", "211240.785000", "211241.245000", "211241.705000", "211242.165000", "211242.625000", "211243.085000", "211243.545000", "211244.005000", "211244.465000", "211244.925000", "211245.385000", "211245.845000", "211246.305000", "211246.765000", "211247.225000"],
