{
  "AcquisitionMatrixPE": 82,
  "AcquisitionNumber": 1,
  "AcquisitionTime": "18:53:15.777500",
  "BandwidthPerPixelPhaseEncode": 24.888,
  "BaseResolution": 82,
  "BodyPartExamined": "BRAIN",
  "ConsistencyInfo": "N4_VE11E_LATEST_20181129",
  "ConversionSoftware": "dcm2niix",
  "ConversionSoftwareVersion": "v1.0.20201102",
  "DerivedVendorReportedEchoSpacing": 0.00049,
  "DeviceSerialNumber": "66112",
  "DwellTime": 2e-06,
  "EchoTime": 0.0272,
  "EchoTrainLength": 82,
  "EffectiveEchoSpacing": 0.00049,
  "FlipAngle": 44,
  "ImageComments": "Unaliased MB8/PE3",
  "ImageOrientationPatientDICOM": [0.998786, 0.0490244, 0.00476119, -0.0491983, 0.997602, 0.0486789],
  "ImageType": [
    "ORIGINAL",
    "PRIMARY",
    "M",
    "MB",
    "ND",
    "NORM",
    "MOSAIC"
],
  "ImagingFrequency": 123.252,
  "InPlanePhaseEncodingDirectionDICOM": "COL",
  "InstitutionAddress": "Maynard 3,Hanover,NH,US,03755",
  "InstitutionName": "Dartmouth College - PBS",
  "InstitutionalDepartmentName": "Department",
  "MRAcquisitionType": "2D",
  "MagneticFieldStrength": 3,
  "Manufacturer": "Siemens",
  "ManufacturersModelName": "Prisma",
  "Modality": "MR",
  "MultibandAccelerationFactor": 8,
  "PartialFourier": 1,
  "PatientPosition": "HFS",
  "PercentPhaseFOV": 100,
  "PercentSampling": 100,
  "PhaseEncodingDirection": "j-",
  "PhaseEncodingSteps": 82,
  "PhaseResolution": 1,
  "PixelBandwidth": 3050,
  "ProcedureStepDescription": "Wager_Wager^1076_spacetop",
  "ProtocolName": "func_run-01_task-social_acq-ap-mb8",
  "PulseSequenceDetails": "%CustomerSeq%\\cmrr_mbep2d_bold",
  "ReceiveCoilActiveElements": "HEA;HEP",
  "ReceiveCoilName": "Head_32",
  "ReconMatrixPE": 82,
  "RepetitionTime": 0.46,
  "SAR": 0.111738,
  "ScanOptions": "FS",
  "ScanningSequence": "EP",
  "SequenceName": "epfid2d1_82",
  "SequenceVariant": "SK\\SS",
  "SeriesDescription": "func_run-01_task-social_acq-ap-mb8",
  "SeriesNumber": 12,
  "ShimSetting": [4166, -7717, -7219, 591, -17, -25, 93, 65],
  "SliceThickness": 2.7,
  "SliceTiming": [0, 0.2525, 0.0625, 0.315, 0.125, 0.3775, 0.1875, 0, 0.2525, 0.0625, 0.315, 0.125, 0.3775, 0.1875, 0, 0.2525, 0.0625, 0.315, 0.125, 0.3775, 0.1875, 0, 0.2525, 0.0625, 0.315, 0.125, 0.3775, 0.1875, 0, 0.2525, 0.0625, 0.315, 0.125, 0.3775, 0.1875, 0, 0.2525, 0.0625, 0.315, 0.125, 0.3775, 0.1875, 0, 0.2525, 0.0625, 0.315, 0.125, 0.3775, 0.1875, 0, 0.2525, 0.0625, 0.315, 0.125, 0.3775, 0.1875],
  "SoftwareVersions": "syngo MR E11",
  "SpacingBetweenSlices": 2.7,
  "StationName": "AWP66112",
  "TaskName": "social",
  "TotalReadoutTime": 0.03969,
  "TxRefAmp": 291.619,
  "WipMemBlock": "b5e2cc03-ef2b-4402-b247-51c7075f9cc9||Sequence: R016 ve11e/master r/434b28f1; Aug  7 2019 18:53:46 by eja",
  "dcmmeta_affine": [
    [-2.6796703338623047, -0.13199539482593536, 0.006380968727171421, 117.97613525390625],
    [-0.13152876496315002, 2.6764934062957764, 0.13190586864948273, -88.49603271484375],
    [0.012773922644555569, -0.13060185313224792, 2.696768283843994, -45.6597900390625],
    [0.0, 0.0, 0.0, 1.0]
],
  "dcmmeta_reorient_transform": [
    [0.0, -1.0, 0.0, 81.0],
    [1.0, 0.0, 0.0, 0.0],
    [0.0, 0.0, 1.0, 0.0],
    [0.0, 0.0, 0.0, 1.0]
],
  "dcmmeta_shape": [82, 82, 56, 872],
  "dcmmeta_slice_dim": 2,
  "dcmmeta_version": 0.6,
  "global": {
    "const": {
      "AccessionNumber": "A003871",
      "AcquisitionMatrix": [82, 0, 0, 82],
      "AngioFlag": "N",
      "BitsAllocated": 16,
      "BitsStored": 16,
      "BodyPartExamined": "BRAIN",
      "Columns": 656,
      "EchoNumbers": 1,
      "EchoTime": 27.2,
      "EchoTrainLength": 82,
      "FlipAngle": 44.0,
      "HighBit": 15,
      "ImageOrientationPatient": [0.998786235137, 0.0490243569953, 0.00476118914389, -0.04919828463, 0.99760207320009, 0.04867886950562],
      "ImagePositionPatient": [-838.46724439318, -934.20230676089, -97.387386857539],
      "ImageType": [
        "ORIGINAL",
        "PRIMARY",
        "M",
        "MB",
        "ND",
        "NORM",
        "MOSAIC"
],
      "ImagedNucleus": "1H",
      "ImagingFrequency": 123.252154,
      "InPlanePhaseEncodingDirection": "COL",
      "MRAcquisitionType": "2D",
      "MagneticFieldStrength": 3.0,
      "Manufacturer": "SIEMENS",
      "ManufacturerModelName": "Prisma",
      "Modality": "MR",
      "NumberOfAverages": 1.0,
      "NumberOfPhaseEncodingSteps": 82,
      "PercentPhaseFieldOfView": 100.0,
      "PercentSampling": 100.0,
      "PerformedProcedureStepStartTime": "182222.861000",
      "PhotometricInterpretation": "MONOCHROME2",
      "PixelBandwidth": 3050.0,
      "PixelRepresentation": 0,
      "PixelSpacing": [2.6829268932343, 2.6829268932343],
      "ProtocolName": "func_run-01_task-social_acq-ap-mb8",
      "RepetitionTime": 460.0,
      "Rows": 656,
      "SAR": 0.11173812577341,
      "SamplesPerPixel": 1,
      "ScanOptions": "FS",
      "ScanningSequence": "EP",
      "SequenceName": "epfid2d1_82",
      "SequenceVariant": [
        "SK",
        "SS"
],
      "SeriesDescription": "func_run-01_task-social_acq-ap-mb8",
      "SeriesNumber": 12,
      "SeriesTime": "185341.552000",
      "SliceLocation": -49.649714281003,
      "SliceThickness": 2.7000000476837,
      "SmallestImagePixelValue": 0,
      "SoftwareVersions": "syngo MR E11",
      "SpacingBetweenSlices": 2.6999999377492,
      "SpecificCharacterSet": "ISO_IR 100",
      "StudyID": "1",
      "StudyTime": "182222.799000",
      "TransmitCoilName": "Body",
      "VariableFlipAngleFlag": "N",
      "WindowCenterWidthExplanation": "Algo1"
    },
    "slices": {}
  },
  "time": {
    "samples": {
      "AcquisitionNumber": [1, 2, 3, 4, 5, 6, 7, 8, 9, 10, 11, 12, 13, 14, 15, 16, 17, 18, 19, 20, 21, 22, 23, 24, 25, 26, 27, 28, 29, 30, 31, 32, 33, 34, 35, 36, 37, 38, 39, 40, 41, 42, 43, 44, 45, 46, 47, 48, 49, 50, 51, 52, 53, 54, 55, 56, 57, 58, 59, 60, 61, 62, 63, 64, 65, 66, 67, 68, 69, 70, 71, 72, 73, 74, 75, 76, 77, 78, 79, 80, 81, 82, 83, 84, 85, 86, 87, 88, 89, 90, 91, 92, 93, 94, 95, 96, 97, 98, 99, 100, 101, 102, 103, 104, 105, 106, 107, 108, 109, 110, 111, 112, 113, 114, 115, 116, 117, 118, 119, 120, 121, 122, 123, 124, 125, 126, 127, 128, 129, 130, 131, 132, 133, 134, 135, 136, 137, 138, 139, 140, 141, 142, 143, 144, 145, 146, 147, 148, 149, 150, 151, 152, 153, 154, 155, 156, 157, 158, 159, 160, 161, 162, 163, 164, 165, 166, 167, 168, 169, 170, 171, 172, 173, 174, 175, 176, 177, 178, 179, 180, 181, 182, 183, 184, 185, 186, 187, 188, 189, 190, 191, 192, 193, 194, 195, 196, 197, 198, 199, 200, 201, 202, 203, 204, 205, 206, 207, 208, 209, 210, 211, 212, 213, 214, 215, 216, 217, 218, 219, 220, 221, 222, 223, 224, 225, 226, 227, 228, 229, 230, 231, 232, 233, 234, 235, 236, 237, 238, 239, 240, 241, 242, 243, 244, 245, 246, 247, 248, 249, 250, 251, 252, 253, 254, 255, 256, 257, 258, 259, 260, 261, 262, 263, 264, 265, 266, 267, 268, 269, 270, 271, 272, 273, 274, 275, 276, 277, 278, 279, 280, 281, 282, 283, 284, 285, 286, 287, 288, 289, 290, 291, 292, 293, 294, 295, 296, 297, 298, 299, 300, 301, 302, 303, 304, 305, 306, 307, 308, 309, 310, 311, 312, 313, 314, 315, 316, 317, 318, 319, 320, 321, 322, 323, 324, 325, 326, 327, 328, 329, 330, 331, 332, 333, 334, 335, 336, 337, 338, 339, 340, 341, 342, 343, 344, 345, 346, 347, 348, 349, 350, 351, 352, 353, 354, 355, 356, 357, 358, 359, 360, 361, 362, 363, 364, 365, 366, 367, 368, 369, 370, 371, 372, 373, 374, 375, 376, 377, 378, 379, 380, 381, 382, 383, 384, 385, 386, 387, 388, 389, 390, 391, 392, 393, 394, 395, 396, 397, 398, 399, 400, 401, 402, 403, 404, 405, 406, 407, 408, 409, 410, 411, 412, 413, 414, 415, 416, 417, 418, 419, 420, 421, 422, 423, 424, 425, 426, 427, 428, 429, 430, 431, 432, 433, 434, 435, 436, 437, 438, 439, 440, 441, 442, 443, 444, 445, 446, 447, 448, 449, 450, 451, 452, 453, 454, 455, 456, 457, 458, 459, 460, 461, 462, 463, 464, 465, 466, 467, 468, 469, 470, 471, 472, 473, 474, 475, 476, 477, 478, 479, 480, 481, 482, 483, 484, 485, 486, 487, 488, 489, 490, 491, 492, 493, 494, 495, 496, 497, 498, 499, 500, 501, 502, 503, 504, 505, 506, 507, 508, 509, 510, 511, 512, 513, 514, 515, 516, 517, 518, 519, 520, 521, 522, 523, 524, 525, 526, 527, 528, 529, 530, 531, 532, 533, 534, 535, 536, 537, 538, 539, 540, 541, 542, 543, 544, 545, 546, 547, 548, 549, 550, 551, 552, 553, 554, 555, 556, 557, 558, 559, 560, 561, 562, 563, 564, 565, 566, 567, 568, 569, 570, 571, 572, 573, 574, 575, 576, 577, 578, 579, 580, 581, 582, 583, 584, 585, 586, 587, 588, 589, 590, 591, 592, 593, 594, 595, 596, 597, 598, 599, 600, 601, 602, 603, 604, 605, 606, 607, 608, 609, 610, 611, 612, 613, 614, 615, 616, 617, 618, 619, 620, 621, 622, 623, 624, 625, 626, 627, 628, 629, 630, 631, 632, 633, 634, 635, 636, 637, 638, 639, 640, 641, 642, 643, 644, 645, 646, 647, 648, 649, 650, 651, 652, 653, 654, 655, 656, 657, 658, 659, 660, 661, 662, 663, 664, 665, 666, 667, 668, 669, 670, 671, 672, 673, 674, 675, 676, 677, 678, 679, 680, 681, 682, 683, 684, 685, 686, 687, 688, 689, 690, 691, 692, 693, 694, 695, 696, 697, 698, 699, 700, 701, 702, 703, 704, 705, 706, 707, 708, 709, 710, 711, 712, 713, 714, 715, 716, 717, 718, 719, 720, 721, 722, 723, 724, 725, 726, 727, 728, 729, 730, 731, 732, 733, 734, 735, 736, 737, 738, 739, 740, 741, 742, 743, 744, 745, 746, 747, 748, 749, 750, 751, 752, 753, 754, 755, 756, 757, 758, 759, 760, 761, 762, 763, 764, 765, 766, 767, 768, 769, 770, 771, 772, 773, 774, 775, 776, 777, 778, 779, 780, 781, 782, 783, 784, 785, 786, 787, 788, 789, 790, 791, 792, 793, 794, 795, 796, 797, 798, 799, 800, 801, 802, 803, 804, 805, 806, 807, 808, 809, 810, 811, 812, 813, 814, 815, 816, 817, 818, 819, 820, 821, 822, 823, 824, 825, 826, 827, 828, 829, 830, 831, 832, 833, 834, 835, 836, 837, 838, 839, 840, 841, 842, 843, 844, 845, 846, 847, 848, 849, 850, 851, 852, 853, 854, 855, 856, 857, 858, 859, 860, 861, 862, 863, 864, 865, 866, 867, 868, 869, 870, 871, 872],
      "AcquisitionTime": ["185315.777500", "185316.237500", "185316.697500", "185317.157500", "185317.617500", "185318.077500", "185318.537500", "185318.997500", "185319.457500", "185319.917500", "185320.377500", "185320.837500", "185321.297500", "185321.757500", "185322.217500", "185322.677500", "185323.137500", "185323.597500", "185324.057500", "185324.517500", "185324.977500", "185325.437500", "185325.897500", "185326.357500", "185326.817500", "185327.277500", "185327.737500", "185328.197500", "185328.657500", "185329.117500", "185329.577500", "185330.037500", "185330.497500", "185330.957500", "185331.417500", "185331.877500", "185332.337500", "185332.797500", "185333.257500", "185333.717500", "185334.177500", "185334.637500", "185335.097500", "185335.557500", "185336.017500", "185336.477500", "185336.937500", "185337.397500", "185337.857500", "185338.317500", "185338.777500", "185339.237500", "185339.697500", "185340.157500", "185340.617500", "185341.077500", "185341.537500", "185341.997500", "185342.457500", "185342.917500", "185343.377500", "185343.837500", "185344.297500", "185344.757500", "185345.217500", "185345.677500", "185346.137500", "185346.597500", "185347.057500", "185347.517500", "185347.977500", "185348.437500", "185348.897500", "185349.357500", "185349.817500", "185350.277500", "185350.737500", "185351.197500", "185351.657500", "185352.117500", "185352.577500", "185353.037500", "185353.497500", "185353.957500", "185354.417500", "185354.877500", "185355.337500", "185355.797500", "185356.257500", "185356.717500", "185357.177500", "185357.637500", "185358.097500", "185358.557500", "185359.017500", "185359.477500", "185359.937500", "185400.397500", "185400.857500", "185401.317500", "185401.777500", "185402.237500", "185402.697500", "185403.157500", "185403.617500", "185404.077500", "185404.537500", "185404.997500", "185405.457500", "185405.917500", "185406.377500", "185406.837500", "185407.297500", "185407.757500", "185408.217500", "185408.677500", "185409.137500", "185409.597500", "185410.057500", "185410.517500", "185410.977500", "185411.437500", "185411.897500", "185412.357500", "185412.817500", "185413.277500", "185413.737500", "185414.197500", "185414.657500", "185415.117500", "185415.577500", "185416.037500", "185416.497500", "185416.957500", "185417.417500", "185417.877500", "185418.337500", "185418.797500", "185419.257500", "185419.717500", "185420.177500", "185420.637500", "185421.097500", "185421.557500", "185422.017500", "185422.477500", "185422.937500", "185423.397500", "185423.857500", "185424.317500", "185424.777500", "185425.237500", "185425.697500", "185426.157500", "185426.617500", "185427.077500", "185427.537500", "185427.997500", "185428.457500", "185428.917500", "185429.377500", "185429.837500", "185430.297500", "185430.757500", "185431.217500", "185431.677500", "185432.137500", "185432.597500", "185433.057500", "185433.517500", "185433.977500", "185434.437500", "185434.897500", "185435.357500", "185435.817500", "185436.277500", "185436.737500", "185437.197500", "185437.657500", "185438.117500", "185438.577500", "185439.037500", "185439.497500", "185439.957500", "185440.417500", "185440.877500", "185441.337500", "185441.797500", "185442.257500", "185442.717500", "185443.177500", "185443.637500", "185444.097500", "185444.557500", "185445.017500", "185445.477500", "185445.937500", "185446.397500", "185446.857500", "185447.317500", "185447.777500", "185448.237500", "185448.697500", "185449.157500", "185449.617500", "185450.077500", "185450.537500", "185450.997500", "185451.457500", "185451.917500", "185452.377500", "185452.837500", "185453.297500", "185453.757500", "185454.217500", "185454.677500", "185455.137500", "185455.597500", "185456.057500", "185456.517500", "185456.977500", "185457.437500", "185457.897500", "185458.357500", "185458.817500", "185459.277500", "185459.737500", "185500.197500", "185500.657500", "185501.117500", "185501.577500", "185502.037500", "185502.497500", "185502.957500", "185503.417500", "185503.877500", "185504.337500", "185504.797500", "185505.257500", "185505.717500", "185506.177500", "185506.637500", "185507.097500", "185507.557500", "185508.017500", "185508.477500", "185508.937500", "185509.397500", "185509.857500", "185510.317500", "185510.777500", "185511.237500", "185511.697500", "185512.157500", "185512.617500", "185513.077500", "185513.537500", "185513.997500", "185514.457500", "185514.917500", "185515.377500", "185515.837500", "185516.297500", "185516.757500", "185517.217500", "185517.677500", "185518.137500", "185518.597500", "185519.057500", "185519.517500", "185519.977500", "185520.437500", "185520.897500", "185521.357500", "185521.817500", "185522.277500", "185522.737500", "185523.197500", "185523.657500", "185524.117500", "185524.577500", "185525.037500", "185525.497500", "185525.957500", "185526.417500", "185526.877500", "185527.337500", "185527.797500", "185528.257500", "185528.717500", "185529.177500", "185529.637500", "185530.097500", "185530.557500", "185531.017500", "185531.477500", "185531.937500", "185532.397500", "185532.857500", "185533.317500", "185533.777500", "185534.237500", "185534.697500", "185535.157500", "185535.617500", "185536.077500", "185536.537500", "185536.997500", "185537.457500", "185537.917500", "185538.377500", "185538.837500", "185539.297500", "185539.757500", "185540.217500", "185540.677500", "185541.137500", "185541.597500", "185542.057500", "185542.517500", "185542.977500", "185543.437500", "185543.897500", "185544.357500", "185544.817500", "185545.277500", "185545.737500", "185546.197500", "185546.657500", "185547.117500", "185547.577500", "185548.037500", "185548.497500", "185548.957500", "185549.417500", "185549.877500", "185550.337500", "185550.797500", "185551.257500", "185551.717500", "185552.177500", "185552.637500", "185553.097500", "185553.557500", "185554.017500", "185554.477500", "185554.937500", "185555.397500", "185555.857500", "185556.317500", "185556.777500", "185557.237500", "185557.697500", "185558.157500", "185558.617500", "185559.077500", "185559.537500", "185559.997500", "185600.457500", "185600.917500", "185601.377500", "185601.837500", "185602.297500", "185602.757500", "185603.217500", "185603.677500", "185604.137500", "185604.597500", "185605.057500", "185605.517500", "185605.977500", "185606.437500", "185606.897500", "185607.357500", "185607.817500", "185608.277500", "185608.737500", "185609.197500", "185609.657500", "185610.117500", "185610.577500", "185611.037500", "185611.497500", "185611.957500", "185612.417500", "185612.877500", "185613.337500", "185613.797500", "185614.257500", "185614.717500", "185615.177500", "185615.637500", "185616.097500", "185616.557500", "185617.017500", "185617.477500", "185617.937500", "185618.397500", "185618.857500", "185619.317500", "185619.777500", "185620.237500", "185620.697500", "185621.157500", "185621.617500", "185622.077500", "185622.537500", "185622.997500", "185623.457500", "185623.917500", "185624.377500", "185624.837500", "185625.297500", "185625.757500", "185626.217500", "185626.677500", "185627.137500", "185627.597500", "185628.057500", "185628.517500", "185628.977500", "185629.437500", "185629.897500", "185630.357500", "185630.817500", "185631.277500", "185631.737500", "185632.197500", "185632.657500", "185633.117500", "185633.577500", "185634.037500", "185634.497500", "185634.957500", "185635.417500", "185635.877500", "185636.337500", "185636.797500", "185637.257500", "185637.717500", "185638.177500", "185638.637500", "185639.097500", "185639.557500", "185640.017500", "185640.477500", "185640.937500", "185641.397500", "185641.857500", "185642.317500", "185642.777500", "185643.237500", "185643.697500", "185644.157500", "185644.617500", "185645.077500", "185645.537500", "185645.997500", "185646.457500", "185646.917500", "185647.377500", "185647.837500", "185648.297500", "185648.757500", "185649.217500", "185649.677500", "185650.137500", "185650.597500", "185651.057500", "185651.517500", "185651.977500", "185652.437500", "185652.897500", "185653.357500", "185653.817500", "185654.277500", "185654.737500", "185655.197500", "185655.657500", "185656.117500", "185656.577500", "185657.037500", "185657.497500", "185657.957500", "185658.417500", "185658.877500", "185659.337500", "185659.797500", "185700.257500", "185700.717500", "185701.177500", "185701.637500", "185702.097500", "185702.557500", "185703.017500", "185703.477500", "185703.937500", "185704.397500", "185704.857500", "185705.317500", "185705.777500", "185706.237500", "185706.697500", "185707.157500", "185707.617500", "185708.077500", "185708.537500", "185708.997500", "185709.457500", "185709.917500", "185710.377500", "185710.837500", "185711.297500", "185711.757500", "185712.217500", "185712.677500", "185713.137500", "185713.597500", "185714.057500", "185714.517500", "185714.977500", "185715.437500", "185715.897500", "185716.357500", "185716.817500", "185717.277500", "185717.737500", "185718.197500", "185718.657500", "185719.117500", "185719.577500", "185720.037500", "185720.497500", "185720.957500", "185721.417500", "185721.877500", "185722.337500", "185722.797500", "185723.257500", "185723.717500", "185724.177500", "185724.637500", "185725.097500", "185725.557500", "185726.017500", "185726.477500", "185726.937500", "185727.397500", "185727.857500", "185728.317500", "185728.777500", "185729.237500", "185729.697500", "185730.157500", "185730.617500", "185731.077500", "185731.537500", "185731.997500", "185732.457500", "185732.917500", "185733.377500", "185733.837500", "185734.297500", "185734.757500", "185735.217500", "185735.677500", "185736.137500", "185736.597500", "185737.057500", "185737.517500", "185737.977500", "185738.437500", "185738.897500", "185739.357500", "185739.817500", "185740.277500", "185740.737500", "185741.197500", "185741.657500", "185742.117500", "185742.577500", "185743.037500", "185743.497500", "185743.957500", "185744.417500", "185744.877500", "185745.337500", "185745.797500", "185746.257500", "185746.717500", "185747.177500", "185747.637500", "185748.097500", "185748.557500", "185749.017500", "185749.477500", "185749.937500", "185750.397500", "185750.857500", "185751.317500", "185751.777500", "185752.237500", "185752.697500", "185753.157500", "185753.617500", "185754.077500", "185754.537500", "185754.997500", "185755.457500", "185755.917500", "185756.377500", "185756.837500", "185757.297500", "185757.757500", "185758.217500", "185758.677500", "185759.137500", "185759.597500", "185800.057500", "185800.517500", "185800.977500", "185801.437500", "185801.897500", "185802.357500", "185802.817500", "185803.277500", "185803.737500", "185804.197500", "185804.657500", "185805.117500", "185805.577500", "185806.037500", "185806.497500", "185806.957500", "185807.417500", "185807.877500", "185808.337500", "185808.797500", "185809.257500", "185809.717500", "185810.177500", "185810.637500", "185811.097500", "185811.557500", "185812.017500", "185812.477500", "185812.937500", "185813.397500", "185813.857500", "185814.317500", "185814.777500", "185815.237500", "185815.697500", "185816.157500", "185816.617500", "185817.077500", "185817.537500", "185817.997500", "185818.457500", "185818.917500", "185819.377500", "185819.837500", "185820.297500", "185820.757500", "185821.217500", "185821.677500", "185822.137500", "185822.597500", "185823.057500", "185823.517500", "185823.977500", "185824.437500", "185824.897500", "185825.357500", "185825.817500", "185826.277500", "185826.737500", "185827.197500", "185827.657500", "185828.117500", "185828.577500", "185829.037500", "185829.497500", "185829.957500", "185830.417500", "185830.877500", "185831.337500", "185831.797500", "185832.257500", "185832.717500", "185833.177500", "185833.637500", "185834.097500", "185834.557500", "185835.017500", "185835.477500", "185835.937500", "185836.397500", "185836.857500", "185837.317500", "185837.777500", "185838.237500", "185838.697500", "185839.157500", "185839.617500", "185840.077500", "185840.537500", "185840.997500", "185841.457500", "185841.917500", "185842.377500", "185842.837500", "185843.297500", "185843.757500", "185844.217500", "185844.677500", "185845.137500", "185845.597500", "185846.057500", "185846.517500", "185846.977500", "185847.437500", "185847.897500", "185848.357500", "185848.817500", "185849.277500", "185849.737500", "185850.197500", "185850.657500", "185851.117500", "185851.577500", "185852.037500", "185852.497500", "185852.957500", "185853.417500", "185853.877500", "185854.337500", "185854.797500", "185855.257500", "185855.717500", "185856.177500", "185856.637500", "185857.097500", "185857.557500", "185858.017500", "185858.477500", "185858.937500", "185859.397500", "185859.857500", "185900.317500", "185900.777500", "185901.237500", "185901.697500", "185902.157500", "185902.617500", "185903.077500", "185903.537500", "185903.997500", "185904.457500", "185904.917500", "185905.377500", "185905.837500", "185906.297500", "185906.757500", "185907.217500", "185907.677500", "185908.137500", "185908.597500", "185909.057500", "185909.517500", "185909.977500", "185910.437500", "185910.897500", "185911.357500", "185911.817500", "185912.277500", "185912.737500", "185913.197500", "185913.657500", "185914.117500", "185914.577500", "185915.037500", "185915.497500", "185915.957500", "185916.417500", "185916.877500", "185917.337500", "185917.797500", "185918.257500", "185918.717500", "185919.177500", "185919.637500", "185920.097500", "185920.557500", "185921.017500", "185921.477500", "185921.937500", "185922.397500", "185922.857500", "185923.317500", "185923.777500", "185924.237500", "185924.697500", "185925.157500", "185925.617500", "185926.077500", "185926.537500", "185926.997500", "185927.457500", "185927.917500", "185928.377500", "185928.837500", "185929.297500", "185929.757500", "185930.217500", "185930.677500", "185931.137500", "185931.597500", "185932.057500", "185932.517500", "185932.977500", "185933.437500", "185933.897500", "185934.357500", "185934.817500", "185935.277500", "185935.737500", "185936.197500", "185936.657500", "185937.117500", "185937.577500", "185938.037500", "185938.497500", "185938.957500", "185939.417500", "185939.877500", "185940.337500", "185940.797500", "185941.257500", "185941.717500", "185942.177500", "185942.637500", "185943.097500", "185943.557500", "185944.017500", "185944.477500", "185944.937500", "185945.397500", "185945.857500", "185946.317500", "185946.777500", "185947.237500", "185947.697500", "185948.157500", "185948.617500", "185949.077500", "185949.537500", "185949.997500", "185950.457500", "185950.917500", "185951.377500", "185951.837500", "185952.297500", "185952.757500", "185953.217500", "185953.677500", "185954.137500", "185954.597500", "185955.057500", "185955.517500", "185955.977500", "185956.437500"],
