{
  "AcquisitionMatrixPE": 82,
  "AcquisitionNumber": 1,
  "AcquisitionTime": "19:07:15.422500",
  "BandwidthPerPixelPhaseEncode": 24.888,
  "BaseResolution": 82,
  "BodyPartExamined": "BRAIN",
  "ConsistencyInfo": "N4_VE11E_LATEST_20181129",
  "ConversionSoftware": "dcm2niix",
  "ConversionSoftwareVersion": "v1.0.20201102",
  "DerivedVendorReportedEchoSpacing": 0.00049,
  "DeviceSerialNumber": "66112",
  "DwellTime": 2e-06,
  "EchoTime": 0.0272,
  "EchoTrainLength": 82,
  "EffectiveEchoSpacing": 0.00049,
  "FlipAngle": 44,
  "ImageComments": "Unaliased MB8/PE3",
  "ImageOrientationPatientDICOM": [0.998786, 0.0490244, 0.00476119, -0.0491983, 0.997602, 0.0486789],
  "ImageType": [
    "ORIGINAL",
    "PRIMARY",
    "M",
    "MB",
    "ND",
    "NORM",
    "MOSAIC"
],
  "ImagingFrequency": 123.252,
  "InPlanePhaseEncodingDirectionDICOM": "COL",
  "InstitutionAddress": "Maynard 3,Hanover,NH,US,03755",
  "InstitutionName": "Dartmouth College - PBS",
  "InstitutionalDepartmentName": "Department",
  "MRAcquisitionType": "2D",
  "MagneticFieldStrength": 3,
  "Manufacturer": "Siemens",
  "ManufacturersModelName": "Prisma",
  "Modality": "MR",
  "MultibandAccelerationFactor": 8,
  "PartialFourier": 1,
  "PatientPosition": "HFS",
  "PercentPhaseFOV": 100,
  "PercentSampling": 100,
  "PhaseEncodingDirection": "j-",
  "PhaseEncodingSteps": 82,
  "PhaseResolution": 1,
  "PixelBandwidth": 3050,
  "ProcedureStepDescription": "Wager_Wager^1076_spacetop",
  "ProtocolName": "func_run-03_task-social_acq-ap-mb8",
  "PulseSequenceDetails": "%CustomerSeq%\\cmrr_mbep2d_bold",
  "ReceiveCoilActiveElements": "HEA;HEP",
  "ReceiveCoilName": "Head_32",
  "ReconMatrixPE": 82,
  "RepetitionTime": 0.46,
  "SAR": 0.111738,
  "ScanOptions": "FS",
  "ScanningSequence": "EP",
  "SequenceName": "epfid2d1_82",
  "SequenceVariant": "SK\\SS",
  "SeriesDescription": "func_run-03_task-social_acq-ap-mb8",
  "SeriesNumber": 16,
  "ShimSetting": [4166, -7717, -7219, 591, -17, -25, 93, 65],
  "SliceThickness": 2.7,
  "SliceTiming": [0, 0.25, 0.0625, 0.3125, 0.125, 0.3775, 0.1875, 0, 0.25, 0.0625, 0.3125, 0.125, 0.3775, 0.1875, 0, 0.25, 0.0625, 0.3125, 0.125, 0.3775, 0.1875, 0, 0.25, 0.0625, 0.3125, 0.125, 0.3775, 0.1875, 0, 0.25, 0.0625, 0.3125, 0.125, 0.3775, 0.1875, 0, 0.25, 0.0625, 0.3125, 0.125, 0.3775, 0.1875, 0, 0.25, 0.0625, 0.3125, 0.125, 0.3775, 0.1875, 0, 0.25, 0.0625, 0.3125, 0.125, 0.3775, 0.1875],
  "SoftwareVersions": "syngo MR E11",
  "SpacingBetweenSlices": 2.7,
  "StationName": "AWP66112",
  "TaskName": "social",
  "TotalReadoutTime": 0.03969,
  "TxRefAmp": 291.619,
  "WipMemBlock": "473ea4fa-4149-483a-9aa9-36f7543ab5bf||Sequence: R016 ve11e/master r/434b28f1; Aug  7 2019 18:53:46 by eja",
  "dcmmeta_affine": [
    [-2.6796703338623047, -0.13199539482593536, 0.006380968727171421, 117.97613525390625],
    [-0.13152876496315002, 2.6764934062957764, 0.13190586864948273, -88.49603271484375],
    [0.012773922644555569, -0.13060185313224792, 2.696768283843994, -45.6597900390625],
    [0.0, 0.0, 0.0, 1.0]
],
  "dcmmeta_reorient_transform": [
    [0.0, -1.0, 0.0, 81.0],
    [1.0, 0.0, 0.0, 0.0],
    [0.0, 0.0, 1.0, 0.0],
    [0.0, 0.0, 0.0, 1.0]
],
  "dcmmeta_shape": [82, 82, 56, 872],
  "dcmmeta_slice_dim": 2,
  "dcmmeta_version": 0.6,
  "global": {
    "const": {
      "AccessionNumber": "A003871",
      "AcquisitionMatrix": [82, 0, 0, 82],
      "AngioFlag": "N",
      "BitsAllocated": 16,
      "BitsStored": 16,
      "BodyPartExamined": "BRAIN",
      "Columns": 656,
      "EchoNumbers": 1,
      "EchoTime": 27.2,
      "EchoTrainLength": 82,
      "FlipAngle": 44.0,
      "HighBit": 15,
      "ImageOrientationPatient": [0.998786235137, 0.0490243569953, 0.00476118914389, -0.04919828463, 0.99760207320009, 0.04867886950562],
      "ImagePositionPatient": [-838.46724439318, -934.20230676089, -97.387386857539],
      "ImageType": [
        "ORIGINAL",
        "PRIMARY",
        "M",
        "MB",
        "ND",
        "NORM",
        "MOSAIC"
],
      "ImagedNucleus": "1H",
      "ImagingFrequency": 123.252157,
      "InPlanePhaseEncodingDirection": "COL",
      "MRAcquisitionType": "2D",
      "MagneticFieldStrength": 3.0,
      "Manufacturer": "SIEMENS",
      "ManufacturerModelName": "Prisma",
      "Modality": "MR",
      "NumberOfAverages": 1.0,
      "NumberOfPhaseEncodingSteps": 82,
      "PercentPhaseFieldOfView": 100.0,
      "PercentSampling": 100.0,
      "PerformedProcedureStepStartTime": "182222.861000",
      "PhotometricInterpretation": "MONOCHROME2",
      "PixelBandwidth": 3050.0,
      "PixelRepresentation": 0,
      "PixelSpacing": [2.6829268932343, 2.6829268932343],
      "ProtocolName": "func_run-03_task-social_acq-ap-mb8",
      "RepetitionTime": 460.0,
      "Rows": 656,
      "SAR": 0.11173812577341,
      "SamplesPerPixel": 1,
      "ScanOptions": "FS",
      "ScanningSequence": "EP",
      "SequenceName": "epfid2d1_82",
      "SequenceVariant": [
        "SK",
        "SS"
],
      "SeriesDescription": "func_run-03_task-social_acq-ap-mb8",
      "SeriesNumber": 16,
      "SeriesTime": "190741.718000",
      "SliceLocation": -49.649714281003,
      "SliceThickness": 2.7000000476837,
      "SmallestImagePixelValue": 0,
      "SoftwareVersions": "syngo MR E11",
      "SpacingBetweenSlices": 2.6999999377492,
      "SpecificCharacterSet": "ISO_IR 100",
      "StudyID": "1",
      "StudyTime": "182222.799000",
      "TransmitCoilName": "Body",
      "VariableFlipAngleFlag": "N",
      "WindowCenterWidthExplanation": "Algo1"
    },
    "slices": {}
  },
  "time": {
    "samples": {
      "AcquisitionNumber": [1, 2, 3, 4, 5, 6, 7, 8, 9, 10, 11, 12, 13, 14, 15, 16, 17, 18, 19, 20, 21, 22, 23, 24, 25, 26, 27, 28, 29, 30, 31, 32, 33, 34, 35, 36, 37, 38, 39, 40, 41, 42, 43, 44, 45, 46, 47, 48, 49, 50, 51, 52, 53, 54, 55, 56, 57, 58, 59, 60, 61, 62, 63, 64, 65, 66, 67, 68, 69, 70, 71, 72, 73, 74, 75, 76, 77, 78, 79, 80, 81, 82, 83, 84, 85, 86, 87, 88, 89, 90, 91, 92, 93, 94, 95, 96, 97, 98, 99, 100, 101, 102, 103, 104, 105, 106, 107, 108, 109, 110, 111, 112, 113, 114, 115, 116, 117, 118, 119, 120, 121, 122, 123, 124, 125, 126, 127, 128, 129, 130, 131, 132, 133, 134, 135, 136, 137, 138, 139, 140, 141, 142, 143, 144, 145, 146, 147, 148, 149, 150, 151, 152, 153, 154, 155, 156, 157, 158, 159, 160, 161, 162, 163, 164, 165, 166, 167, 168, 169, 170, 171, 172, 173, 174, 175, 176, 177, 178, 179, 180, 181, 182, 183, 184, 185, 186, 187, 188, 189, 190, 191, 192, 193, 194, 195, 196, 197, 198, 199, 200, 201, 202, 203, 204, 205, 206, 207, 208, 209, 210, 211, 212, 213, 214, 215, 216, 217, 218, 219, 220, 221, 222, 223, 224, 225, 226, 227, 228, 229, 230, 231, 232, 233, 234, 235, 236, 237, 238, 239, 240, 241, 242, 243, 244, 245, 246, 247, 248, 249, 250, 251, 252, 253, 254, 255, 256, 257, 258, 259, 260, 261, 262, 263, 264, 265, 266, 267, 268, 269, 270, 271, 272, 273, 274, 275, 276, 277, 278, 279, 280, 281, 282, 283, 284, 285, 286, 287, 288, 289, 290, 291, 292, 293, 294, 295, 296, 297, 298, 299, 300, 301, 302, 303, 304, 305, 306, 307, 308, 309, 310, 311, 312, 313, 314, 315, 316, 317, 318, 319, 320, 321, 322, 323, 324, 325, 326, 327, 328, 329, 330, 331, 332, 333, 334, 335, 336, 337, 338, 339, 340, 341, 342, 343, 344, 345, 346, 347, 348, 349, 350, 351, 352, 353, 354, 355, 356, 357, 358, 359, 360, 361, 362, 363, 364, 365, 366, 367, 368, 369, 370, 371, 372, 373, 374, 375, 376, 377, 378, 379, 380, 381, 382, 383, 384, 385, 386, 387, 388, 389, 390, 391, 392, 393, 394, 395, 396, 397, 398, 399, 400, 401, 402, 403, 404, 405, 406, 407, 408, 409, 410, 411, 412, 413, 414, 415, 416, 417, 418, 419, 420, 421, 422, 423, 424, 425, 426, 427, 428, 429, 430, 431, 432, 433, 434, 435, 436, 437, 438, 439, 440, 441, 442, 443, 444, 445, 446, 447, 448, 449, 450, 451, 452, 453, 454, 455, 456, 457, 458, 459, 460, 461, 462, 463, 464, 465, 466, 467, 468, 469, 470, 471, 472, 473, 474, 475, 476, 477, 478, 479, 480, 481, 482, 483, 484, 485, 486, 487, 488, 489, 490, 491, 492, 493, 494, 495, 496, 497, 498, 499, 500, 501, 502, 503, 504, 505, 506, 507, 508, 509, 510, 511, 512, 513, 514, 515, 516, 517, 518, 519, 520, 521, 522, 523, 524, 525, 526, 527, 528, 529, 530, 531, 532, 533, 534, 535, 536, 537, 538, 539, 540, 541, 542, 543, 544, 545, 546, 547, 548, 549, 550, 551, 552, 553, 554, 555, 556, 557, 558, 559, 560, 561, 562, 563, 564, 565, 566, 567, 568, 569, 570, 571, 572, 573, 574, 575, 576, 577, 578, 579, 580, 581, 582, 583, 584, 585, 586, 587, 588, 589, 590, 591, 592, 593, 594, 595, 596, 597, 598, 599, 600, 601, 602, 603, 604, 605, 606, 607, 608, 609, 610, 611, 612, 613, 614, 615, 616, 617, 618, 619, 620, 621, 622, 623, 624, 625, 626, 627, 628, 629, 630, 631, 632, 633, 634, 635, 636, 637, 638, 639, 640, 641, 642, 643, 644, 645, 646, 647, 648, 649, 650, 651, 652, 653, 654, 655, 656, 657, 658, 659, 660, 661, 662, 663, 664, 665, 666, 667, 668, 669, 670, 671, 672, 673, 674, 675, 676, 677, 678, 679, 680, 681, 682, 683, 684, 685, 686, 687, 688, 689, 690, 691, 692, 693, 694, 695, 696, 697, 698, 699, 700, 701, 702, 703, 704, 705, 706, 707, 708, 709, 710, 711, 712, 713, 714, 715, 716, 717, 718, 719, 720, 721, 722, 723, 724, 725, 726, 727, 728, 729, 730, 731, 732, 733, 734, 735, 736, 737, 738, 739, 740, 741, 742, 743, 744, 745, 746, 747, 748, 749, 750, 751, 752, 753, 754, 755, 756, 757, 758, 759, 760, 761, 762, 763, 764, 765, 766, 767, 768, 769, 770, 771, 772, 773, 774, 775, 776, 777, 778, 779, 780, 781, 782, 783, 784, 785, 786, 787, 788, 789, 790, 791, 792, 793, 794, 795, 796, 797, 798, 799, 800, 801, 802, 803, 804, 805, 806, 807, 808, 809, 810, 811, 812, 813, 814, 815, 816, 817, 818, 819, 820, 821, 822, 823, 824, 825, 826, 827, 828, 829, 830, 831, 832, 833, 834, 835, 836, 837, 838, 839, 840, 841, 842, 843, 844, 845, 846, 847, 848, 849, 850, 851, 852, 853, 854, 855, 856, 857, 858, 859, 860, 861, 862, 863, 864, 865, 866, 867, 868, 869, 870, 871, 872],
      "AcquisitionTime": ["190715.422500", "190715.882500", "190716.342500", "190716.802500", "190717.262500", "190717.722500", "190718.182500", "190718.642500", "190719.102500", "190719.562500", "190720.022500", "190720.482500", "190720.942500", "190721.402500", "190721.862500", "190722.322500", "190722.782500", "190723.242500", "190723.702500", "190724.162500", "190724.622500", "190725.082500", "190725.542500", "190726.002500", "190726.462500", "190726.922500", "190727.382500", "190727.842500", "190728.302500", "190728.762500", "190729.222500", "190729.682500", "190730.142500", "190730.602500", "190731.062500", "190731.522500", "190731.982500", "190732.442500", "190732.902500", "190733.362500", "190733.822500", "190734.282500", "190734.742500", "190735.202500", "190735.662500", "190736.122500", "190736.582500", "190737.042500", "190737.502500", "190737.962500", "190738.422500", "190738.882500", "190739.342500", "190739.802500", "190740.262500", "190740.722500", "190741.182500", "190741.642500", "190742.102500", "190742.562500", "190743.022500", "190743.482500", "190743.942500", "190744.402500", "190744.862500", "190745.322500", "190745.782500", "190746.242500", "190746.702500", "190747.162500", "190747.622500", "190748.082500", "190748.542500", "190749.002500", "190749.462500", "190749.922500", "190750.382500", "190750.842500", "190751.302500", "190751.762500", "190752.222500", "190752.682500", "190753.142500", "190753.602500", "190754.062500", "190754.522500", "190754.982500", "190755.442500", "190755.902500", "190756.362500", "190756.822500", "190757.282500", "190757.742500", "190758.202500", "190758.662500", "190759.122500", "190759.582500", "190800.042500", "190800.502500", "190800.962500", "190801.422500", "190801.882500", "190802.342500", "190802.802500", "190803.262500", "190803.722500", "190804.182500", "190804.642500", "190805.102500", "190805.562500", "190806.022500", "190806.482500", "190806.942500", "190807.402500", "190807.862500", "190808.322500", "190808.782500", "190809.242500", "190809.702500", "190810.162500", "190810.622500", "190811.082500", "190811.542500", "190812.002500", "190812.462500", "190812.922500", "190813.382500", "190813.842500", "190814.302500", "190814.762500", "190815.222500", "190815.682500", "190816.142500", "190816.602500", "190817.062500", "190817.522500", "190817.982500", "190818.442500", "190818.902500", "190819.362500", "190819.822500", "190820.282500", "190820.742500", "190821.202500", "190821.662500", "190822.122500", "190822.582500", "190823.042500", "190823.502500", "190823.962500", "190824.422500", "190824.882500", "190825.342500", "190825.802500", "190826.262500", "190826.722500", "190827.182500", "190827.642500", "190828.102500", "190828.562500", "190829.022500", "190829.482500", "190829.942500", "190830.402500", "190830.862500", "190831.322500", "190831.782500", "190832.242500", "190832.702500", "190833.162500", "190833.622500", "190834.082500", "190834.542500", "190835.002500", "190835.462500", "190835.922500", "190836.382500", "190836.842500", "190837.302500", "190837.762500", "190838.222500", "190838.682500", "190839.142500", "190839.602500", "190840.062500", "190840.522500", "190840.982500", "190841.442500", "190841.902500", "190842.362500", "190842.822500", "190843.282500", "190843.742500", "190844.202500", "190844.662500", "190845.122500", "190845.582500", "190846.042500", "190846.502500", "190846.962500", "190847.422500", "190847.882500", "190848.342500", "190848.802500", "190849.262500", "190849.722500", "190850.182500", "190850.642500", "190851.102500", "190851.562500", "190852.022500", "190852.482500", "190852.942500", "190853.402500", "190853.862500", "190854.322500", "190854.782500", "190855.242500", "190855.702500", "190856.162500", "190856.622500", "190857.082500", "190857.542500", "190858.002500", "190858.462500", "190858.922500", "190859.382500", "190859.842500", "190900.302500", "190900.762500", "190901.222500", "190901.682500", "190902.142500", "190902.602500", "190903.062500", "190903.522500", "190903.982500", "190904.442500", "190904.902500", "190905.362500", "190905.822500", "190906.282500", "190906.742500", "190907.202500", "190907.662500", "190908.122500", "190908.582500", "190909.042500", "190909.502500", "190909.962500", "190910.422500", "190910.882500", "190911.342500", "190911.802500", "190912.262500", "190912.722500", "190913.182500", "190913.642500", "190914.102500", "190914.562500", "190915.022500", "190915.482500", "190915.942500", "190916.402500", "190916.862500", "190917.322500", "190917.782500", "190918.242500", "190918.702500", "190919.162500", "190919.622500", "190920.082500", "190920.542500", "190921.002500", "190921.462500", "190921.922500", "190922.382500", "190922.842500", "190923.302500", "190923.762500", "190924.222500", "190924.682500", "190925.142500", "190925.602500", "190926.062500", "190926.522500", "190926.982500", "190927.442500", "190927.902500", "190928.362500", "190928.822500", "190929.282500", "190929.742500", "190930.202500", "190930.662500", "190931.122500", "190931.582500", "190932.042500", "190932.502500", "190932.962500", "190933.422500", "190933.882500", "190934.342500", "190934.802500", "190935.262500", "190935.722500", "190936.182500", "190936.642500", "190937.102500", "190937.562500", "190938.022500", "190938.482500", "190938.942500", "190939.402500", "190939.862500", "190940.322500", "190940.782500", "190941.242500", "190941.702500", "190942.162500", "190942.622500", "190943.082500", "190943.542500", "190944.002500", "190944.462500", "190944.922500", "190945.382500", "190945.842500", "190946.302500", "190946.762500", "190947.222500", "190947.682500", "190948.142500", "190948.602500", "190949.062500", "190949.522500", "190949.982500", "190950.442500", "190950.902500", "190951.362500", "190951.822500", "190952.282500", "190952.742500", "190953.202500", "190953.662500", "190954.122500", "190954.582500", "190955.042500", "190955.502500", "190955.962500", "190956.422500", "190956.882500", "190957.342500", "190957.802500", "190958.262500", "190958.722500", "190959.182500", "190959.642500", "191000.102500", "191000.562500", "191001.022500", "191001.482500", "191001.942500", "191002.402500", "191002.862500", "191003.322500", "191003.782500", "191004.242500", "191004.702500", "191005.162500", "191005.622500", "191006.082500", "191006.542500", "191007.002500", "191007.462500", "191007.922500", "191008.382500", "191008.842500", "191009.302500", "191009.762500", "191010.222500", "191010.682500", "191011.142500", "191011.602500", "191012.062500", "191012.522500", "191012.982500", "191013.442500", "191013.902500", "191014.362500", "191014.822500", "191015.282500", "191015.742500", "191016.202500", "191016.662500", "191017.122500", "191017.582500", "191018.042500", "191018.502500", "191018.962500", "191019.422500", "191019.882500", "191020.342500", "191020.802500", "191021.262500", "191021.722500", "191022.182500", "191022.642500", "191023.102500", "191023.562500", "191024.022500", "191024.482500", "191024.942500", "191025.402500", "191025.862500", "191026.322500", "191026.782500", "191027.242500", "191027.702500", "191028.162500", "191028.622500", "191029.082500", "191029.542500", "191030.002500", "191030.462500", "191030.922500", "191031.382500", "191031.842500", "191032.302500", "191032.762500", "191033.222500", "191033.682500", "191034.142500", "191034.602500", "191035.062500", "191035.522500", "191035.982500", "191036.442500", "191036.902500", "191037.362500", "191037.822500", "191038.282500", "191038.742500", "191039.202500", "191039.662500", "191040.122500", "191040.582500", "191041.042500", "191041.502500", "191041.962500", "191042.422500", "191042.882500", "191043.342500", "191043.802500", "191044.262500", "191044.722500", "191045.182500", "191045.642500", "191046.102500", "191046.562500", "191047.022500", "191047.482500", "191047.942500", "191048.402500", "191048.862500", "191049.322500", "191049.782500", "191050.242500", "191050.702500", "191051.162500", "191051.622500", "191052.082500", "191052.542500", "191053.002500", "191053.462500", "191053.922500", "191054.382500", "191054.842500", "191055.302500", "191055.762500", "191056.222500", "191056.682500", "191057.142500", "191057.602500", "191058.062500", "191058.522500", "191058.982500", "191059.442500", "191059.902500", "191100.362500", "191100.822500", "191101.282500", "191101.742500", "191102.202500", "191102.662500", "191103.122500", "191103.582500", "191104.042500", "191104.502500", "191104.962500", "191105.422500", "191105.882500", "191106.342500", "191106.802500", "191107.262500", "191107.722500", "191108.182500", "191108.642500", "191109.102500", "191109.562500", "191110.022500", "191110.482500", "191110.942500", "191111.402500", "191111.862500", "191112.322500", "191112.782500", "191113.242500", "191113.702500", "191114.162500", "191114.622500", "191115.082500", "191115.542500", "191116.002500", "191116.462500", "191116.922500", "191117.382500", "191117.842500", "191118.302500", "191118.762500", "191119.222500", "191119.682500", "191120.142500", "191120.602500", "191121.062500", "191121.522500", "191121.982500", "191122.442500", "191122.902500", "191123.362500", "191123.822500", "191124.282500", "191124.742500", "191125.202500", "191125.662500", "191126.122500", "191126.582500", "191127.042500", "191127.502500", "191127.962500", "191128.422500", "191128.882500", "191129.342500", "191129.802500", "191130.262500", "191130.722500", "191131.182500", "191131.642500", "191132.102500", "191132.562500", "191133.022500", "191133.482500", "191133.942500", "191134.402500", "191134.862500", "191135.322500", "191135.782500", "191136.242500", "191136.702500", "191137.162500", "191137.622500", "191138.082500", "191138.542500", "191139.002500", "191139.462500", "191139.922500", "191140.382500", "191140.842500", "191141.302500", "191141.762500", "191142.222500", "191142.682500", "191143.142500", "191143.602500", "191144.062500", "191144.522500", "191144.982500", "191145.442500", "191145.902500", "191146.362500", "191146.822500", "191147.282500", "191147.742500", "191148.202500", "191148.662500", "191149.122500", "191149.582500", "191150.042500", "191150.502500", "191150.962500", "191151.422500", "191151.882500", "191152.342500", "191152.802500", "191153.262500", "191153.722500", "191154.182500", "191154.642500", "191155.102500", "191155.562500", "191156.022500", "191156.482500", "191156.942500", "191157.402500", "191157.862500", "191158.322500", "191158.782500", "191159.242500", "191159.702500", "191200.162500", "191200.622500", "191201.082500", "191201.542500", "191202.002500", "191202.462500", "191202.922500", "191203.382500", "191203.842500", "191204.302500", "191204.762500", "191205.222500", "191205.682500", "191206.142500", "191206.602500", "191207.062500", "191207.522500", "191207.982500", "191208.442500", "191208.902500", "191209.362500", "191209.822500", "191210.282500", "191210.742500", "191211.202500", "191211.662500", "191212.122500", "191212.582500", "191213.042500", "191213.502500", "191213.962500", "191214.422500", "191214.882500", "191215.342500", "191215.802500", "191216.262500", "191216.722500", "191217.182500", "191217.642500", "191218.102500", "191218.562500", "191219.022500", "191219.482500", "191219.942500", "191220.402500", "191220.862500", "191221.322500", "191221.782500", "191222.242500", "191222.702500", "191223.162500", "191223.622500", "191224.082500", "191224.542500", "191225.002500", "191225.462500", "191225.922500", "191226.382500", "191226.842500", "191227.302500", "191227.762500", "191228.222500", "191228.682500", "191229.142500", "191229.602500", "191230.062500", "191230.522500", "191230.982500", "191231.442500", "191231.902500", "191232.362500", "191232.822500", "191233.282500", "191233.742500", "191234.202500", "191234.662500", "191235.122500", "191235.582500", "191236.042500", "191236.502500", "191236.962500", "191237.422500", "191237.882500", "191238.342500", "191238.802500", "191239.262500", "191239.722500", "191240.182500", "191240.642500", "191241.102500", "191241.562500", "191242.022500", "191242.482500", "191242.942500", "191243.402500", "191243.862500", "191244.322500", "191244.782500", "191245.242500", "191245.702500", "191246.162500", "191246.622500", "191247.082500", "191247.542500", "191248.002500", "191248.462500", "191248.922500", "191249.382500", "191249.842500", "191250.302500", "191250.762500", "191251.222500", "191251.682500", "191252.142500", "191252.602500", "191253.062500", "191253.522500", "191253.982500", "191254.442500", "191254.902500", "191255.362500", "191255.822500", "191256.282500", "191256.742500", "191257.202500", "191257.662500", "191258.122500", "191258.582500", "191259.042500", "191259.502500", "191259.962500", "191300.422500", "191300.882500", "191301.342500", "191301.802500", "191302.262500", "191302.722500", "191303.182500", "191303.642500", "191304.102500", "191304.562500", "191305.022500", "191305.482500", "191305.942500", "191306.402500", "191306.862500", "191307.322500", "191307.782500", "191308.242500", "191308.702500", "191309.162500", "191309.622500", "191310.082500", "191310.542500", "191311.002500", "191311.462500", "191311.922500", "191312.382500", "191312.842500", "191313.302500", "191313.762500", "191314.222500", "191314.682500", "191315.142500", "191315.602500", "191316.062500", "191316.522500", "191316.982500", "191317.442500", "191317.902500", "191318.362500", "191318.822500", "191319.282500", "191319.742500", "191320.202500", "191320.662500", "191321.122500", "191321.582500", "191322.042500", "191322.502500", "191322.962500", "191323.422500", "191323.882500", "191324.342500", "191324.802500", "191325.262500", "191325.722500", "191326.182500", "191326.642500", "191327.102500", "191327.562500", "191328.022500", "191328.482500", "191328.942500", "191329.402500", "191329.862500", "191330.322500", "191330.782500", "191331.242500", "191331.702500", "191332.162500", "191332.622500", "191333.082500", "191333.542500", "191334.002500", "191334.462500", "191334.922500", "191335.382500", "191335.842500", "191336.302500", "191336.762500", "191337.222500", "191337.682500", "191338.142500", "191338.602500", "191339.062500", "191339.522500", "191339.982500", "191340.442500", "191340.902500", "191341.362500", "191341.822500", "191342.282500", "191342.742500", "191343.202500", "191343.662500", "191344.122500", "191344.582500", "191345.042500", "191345.502500", "191345.962500", "191346.422500", "191346.882500", "191347.342500", "191347.802500", "191348.262500", "191348.722500", "191349.182500", "191349.642500", "191350.102500", "191350.562500", "191351.022500", "191351.482500", "191351.942500", "191352.402500", "191352.862500", "191353.322500", "191353.782500", "191354.242500", "191354.702500", "191355.162500", "191355.622500", "191356.082500"],
