{
  "AcquisitionMatrixPE": 82,
  "AcquisitionNumber": 1,
  "AcquisitionTime": "19:29:31.485000",
  "BandwidthPerPixelPhaseEncode": 24.888,
  "BaseResolution": 82,
  "BodyPartExamined": "BRAIN",
  "ConsistencyInfo": "N4_VE11E_LATEST_20181129",
  "ConversionSoftware": "dcm2niix",
  "ConversionSoftwareVersion": "v1.0.20201102",
  "DerivedVendorReportedEchoSpacing": 0.00049,
  "DeviceSerialNumber": "66112",
  "DwellTime": 2e-06,
  "EchoTime": 0.0272,
  "EchoTrainLength": 82,
  "EffectiveEchoSpacing": 0.00049,
  "FlipAngle": 44,
  "ImageComments": "Unaliased MB8/PE3",
  "ImageOrientationPatientDICOM": [0.998786, 0.0490244, 0.00476119, -0.0491983, 0.997602, 0.0486789],
  "ImageType": [
    "ORIGINAL",
    "PRIMARY",
    "M",
    "MB",
    "ND",
    "NORM",
    "MOSAIC"
],
  "ImagingFrequency": 123.252,
  "InPlanePhaseEncodingDirectionDICOM": "COL",
  "InstitutionAddress": "Maynard 3,Hanover,NH,US,03755",
  "InstitutionName": "Dartmouth College - PBS",
  "InstitutionalDepartmentName": "Department",
  "MRAcquisitionType": "2D",
  "MagneticFieldStrength": 3,
  "Manufacturer": "Siemens",
  "ManufacturersModelName": "Prisma",
  "Modality": "MR",
  "MultibandAccelerationFactor": 8,
  "PartialFourier": 1,
  "PatientPosition": "HFS",
  "PercentPhaseFOV": 100,
  "PercentSampling": 100,
  "PhaseEncodingDirection": "j-",
  "PhaseEncodingSteps": 82,
  "PhaseResolution": 1,
  "PixelBandwidth": 3050,
  "ProcedureStepDescription": "Wager_Wager^1076_spacetop",
  "ProtocolName": "func_run-06_task-social_acq-ap-mb8",
  "PulseSequenceDetails": "%CustomerSeq%\\cmrr_mbep2d_bold",
  "ReceiveCoilActiveElements": "HEA;HEP",
  "ReceiveCoilName": "Head_32",
  "ReconMatrixPE": 82,
  "RepetitionTime": 0.46,
  "SAR": 0.111738,
  "ScanOptions": "FS",
  "ScanningSequence": "EP",
  "SequenceName": "epfid2d1_82",
  "SequenceVariant": "SK\\SS",
  "SeriesDescription": "func_run-06_task-social_acq-ap-mb8",
  "SeriesNumber": 22,
  "ShimSetting": [4166, -7717, -7219, 591, -17, -25, 93, 65],
  "SliceThickness": 2.7,
  "SliceTiming": [0, 0.25, 0.0625, 0.3125, 0.125, 0.3775, 0.1875, 0, 0.25, 0.0625, 0.3125, 0.125, 0.3775, 0.1875, 0, 0.25, 0.0625, 0.3125, 0.125, 0.3775, 0.1875, 0, 0.25, 0.0625, 0.3125, 0.125, 0.3775, 0.1875, 0, 0.25, 0.0625, 0.3125, 0.125, 0.3775, 0.1875, 0, 0.25, 0.0625, 0.3125, 0.125, 0.3775, 0.1875, 0, 0.25, 0.0625, 0.3125, 0.125, 0.3775, 0.1875, 0, 0.25, 0.0625, 0.3125, 0.125, 0.3775, 0.1875],
  "SoftwareVersions": "syngo MR E11",
  "SpacingBetweenSlices": 2.7,
  "StationName": "AWP66112",
  "TaskName": "social",
  "TotalReadoutTime": 0.03969,
  "TxRefAmp": 291.619,
  "WipMemBlock": "f6ffd0a0-ec25-4e49-a50e-77cac19d6022||Sequence: R016 ve11e/master r/434b28f1; Aug  7 2019 18:53:46 by eja",
  "dcmmeta_affine": [
    [-2.6796703338623047, -0.13199539482593536, 0.006380968727171421, 117.97613525390625],
    [-0.13152876496315002, 2.6764934062957764, 0.13190586864948273, -88.49603271484375],
    [0.012773922644555569, -0.13060185313224792, 2.696768283843994, -45.6597900390625],
    [0.0, 0.0, 0.0, 1.0]
],
  "dcmmeta_reorient_transform": [
    [0.0, -1.0, 0.0, 81.0],
    [1.0, 0.0, 0.0, 0.0],
    [0.0, 0.0, 1.0, 0.0],
    [0.0, 0.0, 0.0, 1.0]
],
  "dcmmeta_shape": [82, 82, 56, 872],
  "dcmmeta_slice_dim": 2,
  "dcmmeta_version": 0.6,
  "global": {
    "const": {
      "AccessionNumber": "A003871",
      "AcquisitionMatrix": [82, 0, 0, 82],
      "AngioFlag": "N",
      "BitsAllocated": 16,
      "BitsStored": 16,
      "BodyPartExamined": "BRAIN",
      "Columns": 656,
      "EchoNumbers": 1,
      "EchoTime": 27.2,
      "EchoTrainLength": 82,
      "FlipAngle": 44.0,
      "HighBit": 15,
      "ImageOrientationPatient": [0.998786235137, 0.0490243569953, 0.00476118914389, -0.04919828463, 0.99760207320009, 0.04867886950562],
      "ImagePositionPatient": [-838.46724439318, -934.20230676089, -97.387386857539],
      "ImageType": [
        "ORIGINAL",
        "PRIMARY",
        "M",
        "MB",
        "ND",
        "NORM",
        "MOSAIC"
],
      "ImagedNucleus": "1H",
      "ImagingFrequency": 123.252164,
      "InPlanePhaseEncodingDirection": "COL",
      "MRAcquisitionType": "2D",
      "MagneticFieldStrength": 3.0,
      "Manufacturer": "SIEMENS",
      "ManufacturerModelName": "Prisma",
      "Modality": "MR",
      "NumberOfAverages": 1.0,
      "NumberOfPhaseEncodingSteps": 82,
      "PercentPhaseFieldOfView": 100.0,
      "PercentSampling": 100.0,
      "PerformedProcedureStepStartTime": "182222.861000",
      "PhotometricInterpretation": "MONOCHROME2",
      "PixelBandwidth": 3050.0,
      "PixelRepresentation": 0,
      "PixelSpacing": [2.6829268932343, 2.6829268932343],
      "ProtocolName": "func_run-06_task-social_acq-ap-mb8",
      "RepetitionTime": 460.0,
      "Rows": 656,
      "SAR": 0.11173812577341,
      "SamplesPerPixel": 1,
      "ScanOptions": "FS",
      "ScanningSequence": "EP",
      "SequenceName": "epfid2d1_82",
      "SequenceVariant": [
        "SK",
        "SS"
],
      "SeriesDescription": "func_run-06_task-social_acq-ap-mb8",
      "SeriesNumber": 22,
      "SeriesTime": "192941.723000",
      "SliceLocation": -49.649714281003,
      "SliceThickness": 2.7000000476837,
      "SmallestImagePixelValue": 0,
      "SoftwareVersions": "syngo MR E11",
      "SpacingBetweenSlices": 2.6999999377492,
      "SpecificCharacterSet": "ISO_IR 100",
      "StudyID": "1",
      "StudyTime": "182222.799000",
      "TransmitCoilName": "Body",
      "VariableFlipAngleFlag": "N",
      "WindowCenterWidthExplanation": "Algo1"
    },
    "slices": {}
  },
  "time": {
    "samples": {
      "AcquisitionNumber": [1, 2, 3, 4, 5, 6, 7, 8, 9, 10, 11, 12, 13, 14, 15, 16, 17, 18, 19, 20, 21, 22, 23, 24, 25, 26, 27, 28, 29, 30, 31, 32, 33, 34, 35, 36, 37, 38, 39, 40, 41, 42, 43, 44, 45, 46, 47, 48, 49, 50, 51, 52, 53, 54, 55, 56, 57, 58, 59, 60, 61, 62, 63, 64, 65, 66, 67, 68, 69, 70, 71, 72, 73, 74, 75, 76, 77, 78, 79, 80, 81, 82, 83, 84, 85, 86, 87, 88, 89, 90, 91, 92, 93, 94, 95, 96, 97, 98, 99, 100, 101, 102, 103, 104, 105, 106, 107, 108, 109, 110, 111, 112, 113, 114, 115, 116, 117, 118, 119, 120, 121, 122, 123, 124, 125, 126, 127, 128, 129, 130, 131, 132, 133, 134, 135, 136, 137, 138, 139, 140, 141, 142, 143, 144, 145, 146, 147, 148, 149, 150, 151, 152, 153, 154, 155, 156, 157, 158, 159, 160, 161, 162, 163, 164, 165, 166, 167, 168, 169, 170, 171, 172, 173, 174, 175, 176, 177, 178, 179, 180, 181, 182, 183, 184, 185, 186, 187, 188, 189, 190, 191, 192, 193, 194, 195, 196, 197, 198, 199, 200, 201, 202, 203, 204, 205, 206, 207, 208, 209, 210, 211, 212, 213, 214, 215, 216, 217, 218, 219, 220, 221, 222, 223, 224, 225, 226, 227, 228, 229, 230, 231, 232, 233, 234, 235, 236, 237, 238, 239, 240, 241, 242, 243, 244, 245, 246, 247, 248, 249, 250, 251, 252, 253, 254, 255, 256, 257, 258, 259, 260, 261, 262, 263, 264, 265, 266, 267, 268, 269, 270, 271, 272, 273, 274, 275, 276, 277, 278, 279, 280, 281, 282, 283, 284, 285, 286, 287, 288, 289, 290, 291, 292, 293, 294, 295, 296, 297, 298, 299, 300, 301, 302, 303, 304, 305, 306, 307, 308, 309, 310, 311, 312, 313, 314, 315, 316, 317, 318, 319, 320, 321, 322, 323, 324, 325, 326, 327, 328, 329, 330, 331, 332, 333, 334, 335, 336, 337, 338, 339, 340, 341, 342, 343, 344, 345, 346, 347, 348, 349, 350, 351, 352, 353, 354, 355, 356, 357, 358, 359, 360, 361, 362, 363, 364, 365, 366, 367, 368, 369, 370, 371, 372, 373, 374, 375, 376, 377, 378, 379, 380, 381, 382, 383, 384, 385, 386, 387, 388, 389, 390, 391, 392, 393, 394, 395, 396, 397, 398, 399, 400, 401, 402, 403, 404, 405, 406, 407, 408, 409, 410, 411, 412, 413, 414, 415, 416, 417, 418, 419, 420, 421, 422, 423, 424, 425, 426, 427, 428, 429, 430, 431, 432, 433, 434, 435, 436, 437, 438, 439, 440, 441, 442, 443, 444, 445, 446, 447, 448, 449, 450, 451, 452, 453, 454, 455, 456, 457, 458, 459, 460, 461, 462, 463, 464, 465, 466, 467, 468, 469, 470, 471, 472, 473, 474, 475, 476, 477, 478, 479, 480, 481, 482, 483, 484, 485, 486, 487, 488, 489, 490, 491, 492, 493, 494, 495, 496, 497, 498, 499, 500, 501, 502, 503, 504, 505, 506, 507, 508, 509, 510, 511, 512, 513, 514, 515, 516, 517, 518, 519, 520, 521, 522, 523, 524, 525, 526, 527, 528, 529, 530, 531, 532, 533, 534, 535, 536, 537, 538, 539, 540, 541, 542, 543, 544, 545, 546, 547, 548, 549, 550, 551, 552, 553, 554, 555, 556, 557, 558, 559, 560, 561, 562, 563, 564, 565, 566, 567, 568, 569, 570, 571, 572, 573, 574, 575, 576, 577, 578, 579, 580, 581, 582, 583, 584, 585, 586, 587, 588, 589, 590, 591, 592, 593, 594, 595, 596, 597, 598, 599, 600, 601, 602, 603, 604, 605, 606, 607, 608, 609, 610, 611, 612, 613, 614, 615, 616, 617, 618, 619, 620, 621, 622, 623, 624, 625, 626, 627, 628, 629, 630, 631, 632, 633, 634, 635, 636, 637, 638, 639, 640, 641, 642, 643, 644, 645, 646, 647, 648, 649, 650, 651, 652, 653, 654, 655, 656, 657, 658, 659, 660, 661, 662, 663, 664, 665, 666, 667, 668, 669, 670, 671, 672, 673, 674, 675, 676, 677, 678, 679, 680, 681, 682, 683, 684, 685, 686, 687, 688, 689, 690, 691, 692, 693, 694, 695, 696, 697, 698, 699, 700, 701, 702, 703, 704, 705, 706, 707, 708, 709, 710, 711, 712, 713, 714, 715, 716, 717, 718, 719, 720, 721, 722, 723, 724, 725, 726, 727, 728, 729, 730, 731, 732, 733, 734, 735, 736, 737, 738, 739, 740, 741, 742, 743, 744, 745, 746, 747, 748, 749, 750, 751, 752, 753, 754, 755, 756, 757, 758, 759, 760, 761, 762, 763, 764, 765, 766, 767, 768, 769, 770, 771, 772, 773, 774, 775, 776, 777, 778, 779, 780, 781, 782, 783, 784, 785, 786, 787, 788, 789, 790, 791, 792, 793, 794, 795, 796, 797, 798, 799, 800, 801, 802, 803, 804, 805, 806, 807, 808, 809, 810, 811, 812, 813, 814, 815, 816, 817, 818, 819, 820, 821, 822, 823, 824, 825, 826, 827, 828, 829, 830, 831, 832, 833, 834, 835, 836, 837, 838, 839, 840, 841, 842, 843, 844, 845, 846, 847, 848, 849, 850, 851, 852, 853, 854, 855, 856, 857, 858, 859, 860, 861, 862, 863, 864, 865, 866, 867, 868, 869, 870, 871, 872],
      "AcquisitionTime": ["192931.485000", "192931.945000", "192932.405000", "192932.865000", "192933.325000", "192933.785000", "192934.245000", "192934.705000", "192935.165000", "192935.625000", "192936.085000", "192936.545000", "192937.005000", "192937.465000", "192937.925000", "192938.385000", "192938.845000", "192939.305000", "192939.765000", "192940.225000", "192940.685000", "192941.145000", "192941.605000", "192942.065000", "192942.525000", "192942.985000", "192943.445000", "192943.905000", "192944.365000", "192944.825000", "192945.285000", "192945.745000", "192946.205000", "192946.665000", "192947.125000", "192947.585000", "192948.045000", "192948.505000", "192948.965000", "192949.425000", "192949.885000", "192950.345000", "192950.805000", "192951.265000", "192951.725000", "192952.185000", "192952.645000", "192953.105000", "192953.565000", "192954.025000", "192954.485000", "192954.945000", "192955.405000", "192955.865000", "192956.325000", "192956.785000", "192957.245000", "192957.705000", "192958.165000", "192958.625000", "192959.085000", "192959.545000", "193000.005000", "193000.465000", "193000.925000", "193001.385000", "193001.845000", "193002.305000", "193002.765000", "193003.225000", "193003.685000", "193004.145000", "193004.605000", "193005.065000", "193005.525000", "193005.985000", "193006.445000", "193006.905000", "193007.365000", "193007.825000", "193008.285000", "193008.745000", "193009.205000", "193009.665000", "193010.125000", "193010.585000", "193011.045000", "193011.505000", "193011.965000", "193012.425000", "193012.885000", "193013.345000", "193013.805000", "193014.265000", "193014.725000", "193015.185000", "193015.645000", "193016.105000", "193016.565000", "193017.025000", "193017.485000", "193017.945000", "193018.405000", "193018.865000", "193019.325000", "193019.785000", "193020.245000", "193020.705000", "193021.165000", "193021.625000", "193022.085000", "193022.545000", "193023.005000", "193023.465000", "193023.925000", "193024.385000", "193024.845000", "193025.305000", "193025.765000", "193026.225000", "193026.685000", "193027.145000", "193027.605000", "193028.065000", "193028.525000", "193028.985000", "193029.445000", "193029.905000", "193030.365000", "193030.825000", "193031.285000", "193031.745000", "193032.205000", "193032.665000", "193033.125000", "193033.585000", "193034.045000", "193034.505000", "193034.965000", "193035.425000", "193035.885000", "193036.345000", "193036.805000", "193037.265000", "193037.725000", "193038.185000", "193038.645000", "193039.105000", "193039.565000", "193040.025000", "193040.485000", "193040.945000", "193041.405000", "193041.865000", "193042.325000", "193042.785000", "193043.245000", "193043.705000", "193044.165000", "193044.625000", "193045.085000", "193045.545000", "193046.005000", "193046.465000", "193046.925000", "193047.385000", "193047.845000", "193048.305000", "193048.765000", "193049.225000", "193049.685000", "193050.145000", "193050.605000", "193051.065000", "193051.525000", "193051.985000", "193052.445000", "193052.905000", "193053.365000", "193053.825000", "193054.285000", "193054.745000", "193055.205000", "193055.665000", "193056.125000", "193056.585000", "193057.045000", "193057.505000", "193057.965000", "193058.425000", "193058.885000", "193059.345000", "193059.805000", "193100.265000", "193100.725000", "193101.185000", "193101.645000", "193102.105000", "193102.565000", "193103.025000", "193103.485000", "193103.945000", "193104.405000", "193104.865000", "193105.325000", "193105.785000", "193106.245000", "193106.705000", "193107.165000", "193107.625000", "193108.085000", "193108.545000", "193109.005000", "193109.465000", "193109.925000", "193110.385000", "193110.845000", "193111.305000", "193111.765000", "193112.225000", "193112.685000", "193113.145000", "193113.605000", "193114.065000", "193114.525000", "193114.985000", "193115.445000", "193115.905000", "193116.365000", "193116.825000", "193117.285000", "193117.745000", "193118.205000", "193118.665000", "193119.125000", "193119.585000", "193120.045000", "193120.505000", "193120.965000", "193121.425000", "193121.885000", "193122.345000", "193122.805000", "193123.265000", "193123.725000", "193124.185000", "193124.645000", "193125.105000", "193125.565000", "193126.025000", "193126.485000", "193126.945000", "193127.405000", "193127.865000", "193128.325000", "193128.785000", "193129.245000", "193129.705000", "193130.165000", "193130.625000", "193131.085000", "193131.545000", "193132.005000", "193132.465000", "193132.925000", "193133.385000", "193133.845000", "193134.305000", "193134.765000", "193135.225000", "193135.685000", "193136.145000", "193136.605000", "193137.065000", "193137.525000", "193137.985000", "193138.445000", "193138.905000", "193139.365000", "193139.825000", "193140.285000", "193140.745000", "193141.205000", "193141.665000", "193142.125000", "193142.585000", "193143.045000", "193143.505000", "193143.965000", "193144.425000", "193144.885000", "193145.345000", "193145.805000", "193146.265000", "193146.725000", "193147.185000", "193147.645000", "193148.105000", "193148.565000", "193149.025000", "193149.485000", "193149.945000", "193150.405000", "193150.865000", "193151.325000", "193151.785000", "193152.245000", "193152.705000", "193153.165000", "193153.625000", "193154.085000", "193154.545000", "193155.005000", "193155.465000", "193155.925000", "193156.385000", "193156.845000", "193157.305000", "193157.765000", "193158.225000", "193158.685000", "193159.145000", "193159.605000", "193200.065000", "193200.525000", "193200.985000", "193201.445000", "193201.905000", "193202.365000", "193202.825000", "193203.285000", "193203.745000", "193204.205000", "193204.665000", "193205.125000", "193205.585000", "193206.045000", "193206.505000", "193206.965000", "193207.425000", "193207.885000", "193208.345000", "193208.805000", "193209.265000", "193209.725000", "193210.185000", "193210.645000", "193211.105000", "193211.565000", "193212.025000", "193212.485000", "193212.945000", "193213.405000", "193213.865000", "193214.325000", "193214.785000", "193215.245000", "193215.705000", "193216.165000", "193216.625000", "193217.085000", "193217.545000", "193218.005000", "193218.465000", "193218.925000", "193219.385000", "193219.845000", "193220.305000", "193220.765000", "193221.225000", "193221.685000", "193222.145000", "193222.605000", "193223.065000", "193223.525000", "193223.985000", "193224.445000", "193224.905000", "193225.365000", "193225.825000", "193226.285000", "193226.745000", "193227.205000", "193227.665000", "193228.125000", "193228.585000", "193229.045000", "193229.505000", "193229.965000", "193230.425000", "193230.885000", "193231.345000", "193231.805000", "193232.265000", "193232.725000", "193233.185000", "193233.645000", "193234.105000", "193234.565000", "193235.025000", "193235.485000", "193235.945000", "193236.405000", "193236.865000", "193237.325000", "193237.785000", "193238.245000", "193238.705000", "193239.165000", "193239.625000", "193240.085000", "193240.545000", "193241.005000", "193241.465000", "193241.925000", "193242.385000", "193242.845000", "193243.305000", "193243.765000", "193244.225000", "193244.685000", "193245.145000", "193245.605000", "193246.065000", "193246.525000", "193246.985000", "193247.445000", "193247.905000", "193248.365000", "193248.825000", "193249.285000", "193249.745000", "193250.205000", "193250.665000", "193251.125000", "193251.585000", "193252.045000", "193252.505000", "193252.965000", "193253.425000", "193253.885000", "193254.345000", "193254.805000", "193255.265000", "193255.725000", "193256.185000", "193256.645000", "193257.105000", "193257.565000", "193258.025000", "193258.485000", "193258.945000", "193259.405000", "193259.865000", "193300.325000", "193300.785000", "193301.245000", "193301.705000", "193302.165000", "193302.625000", "193303.085000", "193303.545000", "193304.005000", "193304.465000", "193304.925000", "193305.385000", "193305.845000", "193306.305000", "193306.765000", "193307.225000", "193307.685000", "193308.145000", "193308.605000", "193309.065000", "193309.525000", "193309.985000", "193310.445000", "193310.905000", "193311.365000", "193311.825000", "193312.285000", "193312.745000", "193313.205000", "193313.665000", "193314.125000", "193314.585000", "193315.045000", "193315.505000", "193315.965000", "193316.425000", "193316.885000", "193317.345000", "193317.805000", "193318.265000", "193318.725000", "193319.185000", "193319.645000", "193320.105000", "193320.565000", "193321.025000", "193321.485000", "193321.945000", "193322.405000", "193322.865000", "193323.325000", "193323.785000", "193324.245000", "193324.705000", "193325.165000", "193325.625000", "193326.085000", "193326.545000", "193327.005000", "193327.465000", "193327.925000", "193328.385000", "193328.845000", "193329.305000", "193329.765000", "193330.225000", "193330.685000", "193331.145000", "193331.605000", "193332.065000", "193332.525000", "193332.985000", "193333.445000", "193333.905000", "193334.365000", "193334.825000", "193335.285000", "193335.745000", "193336.205000", "193336.665000", "193337.125000", "193337.585000", "193338.045000", "193338.505000", "193338.965000", "193339.425000", "193339.885000", "193340.345000", "193340.805000", "193341.265000", "193341.725000", "193342.185000", "193342.645000", "193343.105000", "193343.565000", "193344.025000", "193344.485000", "193344.945000", "193345.405000", "193345.865000", "193346.325000", "193346.785000", "193347.245000", "193347.705000", "193348.165000", "193348.625000", "193349.085000", "193349.545000", "193350.005000", "193350.465000", "193350.925000", "193351.385000", "193351.845000", "193352.305000", "193352.765000", "193353.225000", "193353.685000", "193354.145000", "193354.605000", "193355.065000", "193355.525000", "193355.985000", "193356.445000", "193356.905000", "193357.365000", "193357.825000", "193358.285000", "193358.745000", "193359.205000", "193359.665000", "193400.125000", "193400.585000", "193401.045000", "193401.505000", "193401.965000", "193402.425000", "193402.885000", "193403.345000", "193403.805000", "193404.265000", "193404.725000", "193405.185000", "193405.645000", "193406.105000", "193406.565000", "193407.025000", "193407.485000", "193407.945000", "193408.405000", "193408.865000", "193409.325000", "193409.785000", "193410.245000", "193410.705000", "193411.165000", "193411.625000", "193412.085000", "193412.545000", "193413.005000", "193413.465000", "193413.925000", "193414.385000", "193414.845000", "193415.305000", "193415.765000", "193416.225000", "193416.685000", "193417.145000", "193417.605000", "193418.065000", "193418.525000", "193418.985000", "193419.445000", "193419.905000", "193420.365000", "193420.825000", "193421.285000", "193421.745000", "193422.205000", "193422.665000", "193423.125000", "193423.585000", "193424.045000", "193424.505000", "193424.965000", "193425.425000", "193425.885000", "193426.345000", "193426.805000", "193427.265000", "193427.725000", "193428.185000", "193428.645000", "193429.105000", "193429.565000", "193430.025000", "193430.485000", "193430.945000", "193431.405000", "193431.865000", "193432.325000", "193432.785000", "193433.245000", "193433.705000", "193434.165000", "193434.625000", "193435.085000", "193435.545000", "193436.005000", "193436.465000", "193436.925000", "193437.385000", "193437.845000", "193438.305000", "193438.765000", "193439.225000", "193439.685000", "193440.145000", "193440.605000", "193441.065000", "193441.525000", "193441.985000", "193442.445000", "193442.905000", "193443.365000", "193443.825000", "193444.285000", "193444.745000", "193445.205000", "193445.665000", "193446.125000", "193446.585000", "193447.045000", "193447.505000", "193447.965000", "193448.425000", "193448.885000", "193449.345000", "193449.805000", "193450.265000", "193450.725000", "193451.185000", "193451.645000", "193452.105000", "193452.565000", "193453.025000", "193453.485000", "193453.945000", "193454.405000", "193454.865000", "193455.325000", "193455.785000", "193456.245000", "193456.705000", "193457.165000", "193457.625000", "193458.085000", "193458.545000", "193459.005000", "193459.465000", "193459.925000", "193500.385000", "193500.845000", "193501.305000", "193501.765000", "193502.225000", "193502.685000", "193503.145000", "193503.605000", "193504.065000", "193504.525000", "193504.985000", "193505.445000", "193505.905000", "193506.365000", "193506.825000", "193507.285000", "193507.745000", "193508.205000", "193508.665000", "193509.125000", "193509.585000", "193510.045000", "193510.505000", "193510.965000", "193511.425000", "193511.885000", "193512.345000", "193512.805000", "193513.265000", "193513.725000", "193514.185000", "193514.645000", "193515.105000", "193515.565000", "193516.025000", "193516.485000", "193516.945000", "193517.405000", "193517.865000", "193518.325000", "193518.785000", "193519.245000", "193519.705000", "193520.165000", "193520.625000", "193521.085000", "193521.545000", "193522.005000", "193522.465000", "193522.925000", "193523.385000", "193523.845000", "193524.305000", "193524.765000", "193525.225000", "193525.685000", "193526.145000", "193526.605000", "193527.065000", "193527.525000", "193527.985000", "193528.445000", "193528.905000", "193529.365000", "193529.825000", "193530.285000", "193530.745000", "193531.205000", "193531.665000", "193532.125000", "193532.585000", "193533.045000", "193533.505000", "193533.965000", "193534.425000", "193534.885000", "193535.345000", "193535.805000", "193536.265000", "193536.725000", "193537.185000", "193537.645000", "193538.105000", "193538.565000", "193539.025000", "193539.485000", "193539.945000", "193540.405000", "193540.865000", "193541.325000", "193541.785000", "193542.245000", "193542.705000", "193543.165000", "193543.625000", "193544.085000", "193544.545000", "193545.005000", "193545.465000", "193545.925000", "193546.385000", "193546.845000", "193547.305000", "193547.765000", "193548.225000", "193548.685000", "193549.145000", "193549.605000", "193550.065000", "193550.525000", "193550.985000", "193551.445000", "193551.905000", "193552.365000", "193552.825000", "193553.285000", "193553.745000", "193554.205000", "193554.665000", "193555.125000", "193555.585000", "193556.045000", "193556.505000", "193556.965000", "193557.425000", "193557.885000", "193558.345000", "193558.805000", "193559.265000", "193559.725000", "193600.185000", "193600.645000", "193601.105000", "193601.565000", "193602.025000", "193602.485000", "193602.945000", "193603.405000", "193603.865000", "193604.325000", "193604.785000", "193605.245000", "193605.705000", "193606.165000", "193606.625000", "193607.085000", "193607.545000", "193608.005000", "193608.465000", "193608.925000", "193609.385000", "193609.845000", "193610.305000", "193610.765000", "193611.225000", "193611.685000", "193612.145000"],
