{
  "AcquisitionMatrixPE": 82,
  "AcquisitionNumber": 1,
  "AcquisitionTime": "19:15:29.845000",
  "BandwidthPerPixelPhaseEncode": 24.888,
  "BaseResolution": 82,
  "BodyPartExamined": "BRAIN",
  "ConsistencyInfo": "N4_VE11E_LATEST_20181129",
  "ConversionSoftware": "dcm2niix",
  "ConversionSoftwareVersion": "v1.0.20201102",
  "DerivedVendorReportedEchoSpacing": 0.00049,
  "DeviceSerialNumber": "66112",
  "DwellTime": 2e-06,
  "EchoTime": 0.0272,
  "EchoTrainLength": 82,
  "EffectiveEchoSpacing": 0.00049,
  "FlipAngle": 44,
  "ImageComments": "Unaliased MB8/PE3",
  "ImageOrientationPatientDICOM": [0.998786, 0.0490244, 0.00476119, -0.0491983, 0.997602, 0.0486789],
  "ImageType": [
    "ORIGINAL",
    "PRIMARY",
    "M",
    "MB",
    "ND",
    "NORM",
    "MOSAIC"
],
  "ImagingFrequency": 123.252,
  "InPlanePhaseEncodingDirectionDICOM": "COL",
  "InstitutionAddress": "Maynard 3,Hanover,NH,US,03755",
  "InstitutionName": "Dartmouth College - PBS",
  "InstitutionalDepartmentName": "Department",
  "MRAcquisitionType": "2D",
  "MagneticFieldStrength": 3,
  "Manufacturer": "Siemens",
  "ManufacturersModelName": "Prisma",
  "Modality": "MR",
  "MultibandAccelerationFactor": 8,
  "PartialFourier": 1,
  "PatientPosition": "HFS",
  "PercentPhaseFOV": 100,
  "PercentSampling": 100,
  "PhaseEncodingDirection": "j-",
  "PhaseEncodingSteps": 82,
  "PhaseResolution": 1,
  "PixelBandwidth": 3050,
  "ProcedureStepDescription": "Wager_Wager^1076_spacetop",
  "ProtocolName": "func_run-04_task-social_acq-ap-mb8",
  "PulseSequenceDetails": "%CustomerSeq%\\cmrr_mbep2d_bold",
  "ReceiveCoilActiveElements": "HEA;HEP",
  "ReceiveCoilName": "Head_32",
  "ReconMatrixPE": 82,
  "RepetitionTime": 0.46,
  "SAR": 0.111738,
  "ScanOptions": "FS",
  "ScanningSequence": "EP",
  "SequenceName": "epfid2d1_82",
  "SequenceVariant": "SK\\SS",
  "SeriesDescription": "func_run-04_task-social_acq-ap-mb8",
  "SeriesNumber": 18,
  "ShimSetting": [4166, -7717, -7219, 591, -17, -25, 93, 65],
  "SliceThickness": 2.7,
  "SliceTiming": [0, 0.2525, 0.0625, 0.315, 0.125, 0.3775, 0.1875, 0, 0.2525, 0.0625, 0.315, 0.125, 0.3775, 0.1875, 0, 0.2525, 0.0625, 0.315, 0.125, 0.3775, 0.1875, 0, 0.2525, 0.0625, 0.315, 0.125, 0.3775, 0.1875, 0, 0.2525, 0.0625, 0.315, 0.125, 0.3775, 0.1875, 0, 0.2525, 0.0625, 0.315, 0.125, 0.3775, 0.1875, 0, 0.2525, 0.0625, 0.315, 0.125, 0.3775, 0.1875, 0, 0.2525, 0.0625, 0.315, 0.125, 0.3775, 0.1875],
  "SoftwareVersions": "syngo MR E11",
  "SpacingBetweenSlices": 2.7,
  "StationName": "AWP66112",
  "TaskName": "social",
  "TotalReadoutTime": 0.03969,
  "TxRefAmp": 291.619,
  "WipMemBlock": "07c866c7-ac07-4bef-ba8c-6dca7016692c||Sequence: R016 ve11e/master r/434b28f1; Aug  7 2019 18:53:46 by eja",
  "dcmmeta_affine": [
    [-2.6796703338623047, -0.13199539482593536, 0.006380968727171421, 117.97613525390625],
    [-0.13152876496315002, 2.6764934062957764, 0.13190586864948273, -88.49603271484375],
    [0.012773922644555569, -0.13060185313224792, 2.696768283843994, -45.6597900390625],
    [0.0, 0.0, 0.0, 1.0]
],
  "dcmmeta_reorient_transform": [
    [0.0, -1.0, 0.0, 81.0],
    [1.0, 0.0, 0.0, 0.0],
    [0.0, 0.0, 1.0, 0.0],
    [0.0, 0.0, 0.0, 1.0]
],
  "dcmmeta_shape": [82, 82, 56, 872],
  "dcmmeta_slice_dim": 2,
  "dcmmeta_version": 0.6,
  "global": {
    "const": {
      "AccessionNumber": "A003871",
      "AcquisitionMatrix": [82, 0, 0, 82],
      "AngioFlag": "N",
      "BitsAllocated": 16,
      "BitsStored": 16,
      "BodyPartExamined": "BRAIN",
      "Columns": 656,
      "EchoNumbers": 1,
      "EchoTime": 27.2,
      "EchoTrainLength": 82,
      "FlipAngle": 44.0,
      "HighBit": 15,
      "ImageOrientationPatient": [0.998786235137, 0.0490243569953, 0.00476118914389, -0.04919828463, 0.99760207320009, 0.04867886950562],
      "ImagePositionPatient": [-838.46724439318, -934.20230676089, -97.387386857539],
      "ImageType": [
        "ORIGINAL",
        "PRIMARY",
        "M",
        "MB",
        "ND",
        "NORM",
        "MOSAIC"
],
      "ImagedNucleus": "1H",
      "ImagingFrequency": 123.252163,
      "InPlanePhaseEncodingDirection": "COL",
      "MRAcquisitionType": "2D",
      "MagneticFieldStrength": 3.0,
      "Manufacturer": "SIEMENS",
      "ManufacturerModelName": "Prisma",
      "Modality": "MR",
      "NumberOfAverages": 1.0,
      "NumberOfPhaseEncodingSteps": 82,
      "PercentPhaseFieldOfView": 100.0,
      "PercentSampling": 100.0,
      "PerformedProcedureStepStartTime": "182222.861000",
      "PhotometricInterpretation": "MONOCHROME2",
      "PixelBandwidth": 3050.0,
      "PixelRepresentation": 0,
      "PixelSpacing": [2.6829268932343, 2.6829268932343],
      "ProtocolName": "func_run-04_task-social_acq-ap-mb8",
      "RepetitionTime": 460.0,
      "Rows": 656,
      "SAR": 0.11173812577341,
      "SamplesPerPixel": 1,
      "ScanOptions": "FS",
      "ScanningSequence": "EP",
      "SequenceName": "epfid2d1_82",
      "SequenceVariant": [
        "SK",
        "SS"
],
      "SeriesDescription": "func_run-04_task-social_acq-ap-mb8",
      "SeriesNumber": 18,
      "SeriesTime": "191541.551000",
      "SliceLocation": -49.649714281003,
      "SliceThickness": 2.7000000476837,
      "SmallestImagePixelValue": 0,
      "SoftwareVersions": "syngo MR E11",
      "SpacingBetweenSlices": 2.6999999377492,
      "SpecificCharacterSet": "ISO_IR 100",
      "StudyID": "1",
      "StudyTime": "182222.799000",
      "TransmitCoilName": "Body",
      "VariableFlipAngleFlag": "N",
      "WindowCenterWidthExplanation": "Algo1"
    },
    "slices": {}
  },
  "time": {
    "samples": {
      "AcquisitionNumber": [1, 2, 3, 4, 5, 6, 7, 8, 9, 10, 11, 12, 13, 14, 15, 16, 17, 18, 19, 20, 21, 22, 23, 24, 25, 26, 27, 28, 29, 30, 31, 32, 33, 34, 35, 36, 37, 38, 39, 40, 41, 42, 43, 44, 45, 46, 47, 48, 49, 50, 51, 52, 53, 54, 55, 56, 57, 58, 59, 60, 61, 62, 63, 64, 65, 66, 67, 68, 69, 70, 71, 72, 73, 74, 75, 76, 77, 78, 79, 80, 81, 82, 83, 84, 85, 86, 87, 88, 89, 90, 91, 92, 93, 94, 95, 96, 97, 98, 99, 100, 101, 102, 103, 104, 105, 106, 107, 108, 109, 110, 111, 112, 113, 114, 115, 116, 117, 118, 119, 120, 121, 122, 123, 124, 125, 126, 127, 128, 129, 130, 131, 132, 133, 134, 135, 136, 137, 138, 139, 140, 141, 142, 143, 144, 145, 146, 147, 148, 149, 150, 151, 152, 153, 154, 155, 156, 157, 158, 159, 160, 161, 162, 163, 164, 165, 166, 167, 168, 169, 170, 171, 172, 173, 174, 175, 176, 177, 178, 179, 180, 181, 182, 183, 184, 185, 186, 187, 188, 189, 190, 191, 192, 193, 194, 195, 196, 197, 198, 199, 200, 201, 202, 203, 204, 205, 206, 207, 208, 209, 210, 211, 212, 213, 214, 215, 216, 217, 218, 219, 220, 221, 222, 223, 224, 225, 226, 227, 228, 229, 230, 231, 232, 233, 234, 235, 236, 237, 238, 239, 240, 241, 242, 243, 244, 245, 246, 247, 248, 249, 250, 251, 252, 253, 254, 255, 256, 257, 258, 259, 260, 261, 262, 263, 264, 265, 266, 267, 268, 269, 270, 271, 272, 273, 274, 275, 276, 277, 278, 279, 280, 281, 282, 283, 284, 285, 286, 287, 288, 289, 290, 291, 292, 293, 294, 295, 296, 297, 298, 299, 300, 301, 302, 303, 304, 305, 306, 307, 308, 309, 310, 311, 312, 313, 314, 315, 316, 317, 318, 319, 320, 321, 322, 323, 324, 325, 326, 327, 328, 329, 330, 331, 332, 333, 334, 335, 336, 337, 338, 339, 340, 341, 342, 343, 344, 345, 346, 347, 348, 349, 350, 351, 352, 353, 354, 355, 356, 357, 358, 359, 360, 361, 362, 363, 364, 365, 366, 367, 368, 369, 370, 371, 372, 373, 374, 375, 376, 377, 378, 379, 380, 381, 382, 383, 384, 385, 386, 387, 388, 389, 390, 391, 392, 393, 394, 395, 396, 397, 398, 399, 400, 401, 402, 403, 404, 405, 406, 407, 408, 409, 410, 411, 412, 413, 414, 415, 416, 417, 418, 419, 420, 421, 422, 423, 424, 425, 426, 427, 428, 429, 430, 431, 432, 433, 434, 435, 436, 437, 438, 439, 440, 441, 442, 443, 444, 445, 446, 447, 448, 449, 450, 451, 452, 453, 454, 455, 456, 457, 458, 459, 460, 461, 462, 463, 464, 465, 466, 467, 468, 469, 470, 471, 472, 473, 474, 475, 476, 477, 478, 479, 480, 481, 482, 483, 484, 485, 486, 487, 488, 489, 490, 491, 492, 493, 494, 495, 496, 497, 498, 499, 500, 501, 502, 503, 504, 505, 506, 507, 508, 509, 510, 511, 512, 513, 514, 515, 516, 517, 518, 519, 520, 521, 522, 523, 524, 525, 526, 527, 528, 529, 530, 531, 532, 533, 534, 535, 536, 537, 538, 539, 540, 541, 542, 543, 544, 545, 546, 547, 548, 549, 550, 551, 552, 553, 554, 555, 556, 557, 558, 559, 560, 561, 562, 563, 564, 565, 566, 567, 568, 569, 570, 571, 572, 573, 574, 575, 576, 577, 578, 579, 580, 581, 582, 583, 584, 585, 586, 587, 588, 589, 590, 591, 592, 593, 594, 595, 596, 597, 598, 599, 600, 601, 602, 603, 604, 605, 606, 607, 608, 609, 610, 611, 612, 613, 614, 615, 616, 617, 618, 619, 620, 621, 622, 623, 624, 625, 626, 627, 628, 629, 630, 631, 632, 633, 634, 635, 636, 637, 638, 639, 640, 641, 642, 643, 644, 645, 646, 647, 648, 649, 650, 651, 652, 653, 654, 655, 656, 657, 658, 659, 660, 661, 662, 663, 664, 665, 666, 667, 668, 669, 670, 671, 672, 673, 674, 675, 676, 677, 678, 679, 680, 681, 682, 683, 684, 685, 686, 687, 688, 689, 690, 691, 692, 693, 694, 695, 696, 697, 698, 699, 700, 701, 702, 703, 704, 705, 706, 707, 708, 709, 710, 711, 712, 713, 714, 715, 716, 717, 718, 719, 720, 721, 722, 723, 724, 725, 726, 727, 728, 729, 730, 731, 732, 733, 734, 735, 736, 737, 738, 739, 740, 741, 742, 743, 744, 745, 746, 747, 748, 749, 750, 751, 752, 753, 754, 755, 756, 757, 758, 759, 760, 761, 762, 763, 764, 765, 766, 767, 768, 769, 770, 771, 772, 773, 774, 775, 776, 777, 778, 779, 780, 781, 782, 783, 784, 785, 786, 787, 788, 789, 790, 791, 792, 793, 794, 795, 796, 797, 798, 799, 800, 801, 802, 803, 804, 805, 806, 807, 808, 809, 810, 811, 812, 813, 814, 815, 816, 817, 818, 819, 820, 821, 822, 823, 824, 825, 826, 827, 828, 829, 830, 831, 832, 833, 834, 835, 836, 837, 838, 839, 840, 841, 842, 843, 844, 845, 846, 847, 848, 849, 850, 851, 852, 853, 854, 855, 856, 857, 858, 859, 860, 861, 862, 863, 864, 865, 866, 867, 868, 869, 870, 871, 872],
      "AcquisitionTime": ["191529.845000", "191530.305000", "191530.765000", "191531.225000", "191531.685000", "191532.145000", "191532.605000", "191533.065000", "191533.525000", "191533.985000", "191534.445000", "191534.905000", "191535.365000", "191535.825000", "191536.285000", "191536.745000", "191537.205000", "191537.665000", "191538.125000", "191538.585000", "191539.045000", "191539.505000", "191539.965000", "191540.425000", "191540.885000", "191541.345000", "191541.805000", "191542.265000", "191542.725000", "191543.185000", "191543.645000", "191544.105000", "191544.565000", "191545.025000", "191545.485000", "191545.945000", "191546.405000", "191546.865000", "191547.325000", "191547.785000", "191548.245000", "191548.705000", "191549.165000", "191549.625000", "191550.085000", "191550.545000", "191551.005000", "191551.465000", "191551.925000", "191552.385000", "191552.845000", "191553.305000", "191553.765000", "191554.225000", "191554.685000", "191555.145000", "191555.605000", "191556.065000", "191556.525000", "191556.985000", "191557.445000", "191557.905000", "191558.365000", "191558.825000", "191559.285000", "191559.745000", "191600.205000", "191600.665000", "191601.125000", "191601.585000", "191602.045000", "191602.505000", "191602.965000", "191603.425000", "191603.885000", "191604.345000", "191604.805000", "191605.265000", "191605.725000", "191606.185000", "191606.645000", "191607.105000", "191607.565000", "191608.025000", "191608.485000", "191608.945000", "191609.405000", "191609.865000", "191610.325000", "191610.785000", "191611.245000", "191611.705000", "191612.165000", "191612.625000", "191613.085000", "191613.545000", "191614.005000", "191614.465000", "191614.925000", "191615.385000", "191615.845000", "191616.305000", "191616.765000", "191617.225000", "191617.685000", "191618.145000", "191618.605000", "191619.065000", "191619.525000", "191619.985000", "191620.445000", "191620.905000", "191621.365000", "191621.825000", "191622.285000", "191622.745000", "191623.205000", "191623.665000", "191624.125000", "191624.585000", "191625.045000", "191625.505000", "191625.965000", "191626.425000", "191626.885000", "191627.345000", "191627.805000", "191628.265000", "191628.725000", "191629.185000", "191629.645000", "191630.105000", "191630.565000", "191631.025000", "191631.485000", "191631.945000", "191632.405000", "191632.865000", "191633.325000", "191633.785000", "191634.245000", "191634.705000", "191635.165000", "191635.625000", "191636.085000", "191636.545000", "191637.005000", "191637.465000", "191637.925000", "191638.385000", "191638.845000", "191639.305000", "191639.765000", "191640.225000", "191640.685000", "191641.145000", "191641.605000", "191642.065000", "191642.525000", "191642.985000", "191643.445000", "191643.905000", "191644.365000", "191644.825000", "191645.285000", "191645.745000", "191646.205000", "191646.665000", "191647.125000", "191647.585000", "191648.045000", "191648.505000", "191648.965000", "191649.425000", "191649.885000", "191650.345000", "191650.805000", "191651.265000", "191651.725000", "191652.185000", "191652.645000", "191653.105000", "191653.565000", "191654.025000", "191654.485000", "191654.945000", "191655.405000", "191655.865000", "191656.325000", "191656.785000", "191657.245000", "191657.705000", "191658.165000", "191658.625000", "191659.085000", "191659.545000", "191700.005000", "191700.465000", "191700.925000", "191701.385000", "191701.845000", "191702.305000", "191702.765000", "191703.225000", "191703.685000", "191704.145000", "191704.605000", "191705.065000", "191705.525000", "191705.985000", "191706.445000", "191706.905000", "191707.365000", "191707.825000", "191708.285000", "191708.745000", "191709.205000", "191709.665000", "191710.125000", "191710.585000", "191711.045000", "191711.505000", "191711.965000", "191712.425000", "191712.885000", "191713.345000", "191713.805000", "191714.265000", "191714.725000", "191715.185000", "191715.645000", "191716.105000", "191716.565000", "191717.025000", "191717.485000", "191717.945000", "191718.405000", "191718.865000", "191719.325000", "191719.785000", "191720.245000", "191720.705000", "191721.165000", "191721.625000", "191722.085000", "191722.545000", "191723.005000", "191723.465000", "191723.925000", "191724.385000", "191724.845000", "191725.305000", "191725.765000", "191726.225000", "191726.685000", "191727.145000", "191727.605000", "191728.065000", "191728.525000", "191728.985000", "191729.445000", "191729.905000", "191730.365000", "191730.825000", "191731.285000", "191731.745000", "191732.205000", "191732.665000", "191733.125000", "191733.585000", "191734.045000", "191734.505000", "191734.965000", "191735.425000", "191735.885000", "191736.345000", "191736.805000", "191737.265000", "191737.725000", "191738.185000", "191738.645000", "191739.105000", "191739.565000", "191740.025000", "191740.485000", "191740.945000", "191741.405000", "191741.865000", "191742.325000", "191742.785000", "191743.245000", "191743.705000", "191744.165000", "191744.625000", "191745.085000", "191745.545000", "191746.005000", "191746.465000", "191746.925000", "191747.385000", "191747.845000", "191748.305000", "191748.765000", "191749.225000", "191749.685000", "191750.145000", "191750.605000", "191751.065000", "191751.525000", "191751.985000", "191752.445000", "191752.905000", "191753.365000", "191753.825000", "191754.285000", "191754.745000", "191755.205000", "191755.665000", "191756.125000", "191756.585000", "191757.045000", "191757.505000", "191757.965000", "191758.425000", "191758.885000", "191759.345000", "191759.805000", "191800.265000", "191800.725000", "191801.185000", "191801.645000", "191802.105000", "191802.565000", "191803.025000", "191803.485000", "191803.945000", "191804.405000", "191804.865000", "191805.325000", "191805.785000", "191806.245000", "191806.705000", "191807.165000", "191807.625000", "191808.085000", "191808.545000", "191809.005000", "191809.465000", "191809.925000", "191810.385000", "191810.845000", "191811.305000", "191811.765000", "191812.225000", "191812.685000", "191813.145000", "191813.605000", "191814.065000", "191814.525000", "191814.985000", "191815.445000", "191815.905000", "191816.365000", "191816.825000", "191817.285000", "191817.745000", "191818.205000", "191818.665000", "191819.125000", "191819.585000", "191820.045000", "191820.505000", "191820.965000", "191821.425000", "191821.885000", "191822.345000", "191822.805000", "191823.265000", "191823.725000", "191824.185000", "191824.645000", "191825.105000", "191825.565000", "191826.025000", "191826.485000", "191826.945000", "191827.405000", "191827.865000", "191828.325000", "191828.785000", "191829.245000", "191829.705000", "191830.165000", "191830.625000", "191831.085000", "191831.545000", "191832.005000", "191832.465000", "191832.925000", "191833.385000", "191833.845000", "191834.305000", "191834.765000", "191835.225000", "191835.685000", "191836.145000", "191836.605000", "191837.065000", "191837.525000", "191837.985000", "191838.445000", "191838.905000", "191839.365000", "191839.825000", "191840.285000", "191840.745000", "191841.205000", "191841.665000", "191842.125000", "191842.585000", "191843.045000", "191843.505000", "191843.965000", "191844.425000", "191844.885000", "191845.345000", "191845.805000", "191846.265000", "191846.725000", "191847.185000", "191847.645000", "191848.105000", "191848.565000", "191849.025000", "191849.485000", "191849.945000", "191850.405000", "191850.865000", "191851.325000", "191851.785000", "191852.245000", "191852.705000", "191853.165000", "191853.625000", "191854.085000", "191854.545000", "191855.005000", "191855.465000", "191855.925000", "191856.385000", "191856.845000", "191857.305000", "191857.765000", "191858.225000", "191858.685000", "191859.145000", "191859.605000", "191900.065000", "191900.525000", "191900.985000", "191901.445000", "191901.905000", "191902.365000", "191902.825000", "191903.285000", "191903.745000", "191904.205000", "191904.665000", "191905.125000", "191905.585000", "191906.045000", "191906.505000", "191906.965000", "191907.425000", "191907.885000", "191908.345000", "191908.805000", "191909.265000", "191909.725000", "191910.185000", "191910.645000", "191911.105000", "191911.565000", "191912.025000", "191912.485000", "191912.945000", "191913.405000", "191913.865000", "191914.325000", "191914.785000", "191915.245000", "191915.705000", "191916.165000", "191916.625000", "191917.085000", "191917.545000", "191918.005000", "191918.465000", "191918.925000", "191919.385000", "191919.845000", "191920.305000", "191920.765000", "191921.225000", "191921.685000", "191922.145000", "191922.605000", "191923.065000", "191923.525000", "191923.985000", "191924.445000", "191924.905000", "191925.365000", "191925.825000", "191926.285000", "191926.745000", "191927.205000", "191927.665000", "191928.125000", "191928.585000", "191929.045000", "191929.505000", "191929.965000", "191930.425000", "191930.885000", "191931.345000", "191931.805000", "191932.265000", "191932.725000", "191933.185000", "191933.645000", "191934.105000", "191934.565000", "191935.025000", "191935.485000", "191935.945000", "191936.405000", "191936.865000", "191937.325000", "191937.785000", "191938.245000", "191938.705000", "191939.165000", "191939.625000", "191940.085000", "191940.545000", "191941.005000", "191941.465000", "191941.925000", "191942.385000", "191942.845000", "191943.305000", "191943.765000", "191944.225000", "191944.685000", "191945.145000", "191945.605000", "191946.065000", "191946.525000", "191946.985000", "191947.445000", "191947.905000", "191948.365000", "191948.825000", "191949.285000", "191949.745000", "191950.205000", "191950.665000", "191951.125000", "191951.585000", "191952.045000", "191952.505000", "191952.965000", "191953.425000", "191953.885000", "191954.345000", "191954.805000", "191955.265000", "191955.725000", "191956.185000", "191956.645000", "191957.105000", "191957.565000", "191958.025000", "191958.485000", "191958.945000", "191959.405000", "191959.865000", "192000.325000", "192000.785000", "192001.245000", "192001.705000", "192002.165000", "192002.625000", "192003.085000", "192003.545000", "192004.005000", "192004.465000", "192004.925000", "192005.385000", "192005.845000", "192006.305000", "192006.765000", "192007.225000", "192007.685000", "192008.145000", "192008.605000", "192009.065000", "192009.525000", "192009.985000", "192010.445000", "192010.905000", "192011.365000", "192011.825000", "192012.285000", "192012.745000", "192013.205000", "192013.665000", "192014.125000", "192014.585000", "192015.045000", "192015.505000", "192015.965000", "192016.425000", "192016.885000", "192017.345000", "192017.805000", "192018.265000", "192018.725000", "192019.185000", "192019.645000", "192020.105000", "192020.565000", "192021.025000", "192021.485000", "192021.945000", "192022.405000", "192022.865000", "192023.325000", "192023.785000", "192024.245000", "192024.705000", "192025.165000", "192025.625000", "192026.085000", "192026.545000", "192027.005000", "192027.465000", "192027.925000", "192028.385000", "192028.845000", "192029.305000", "192029.765000", "192030.225000", "192030.685000", "192031.145000", "192031.605000", "192032.065000", "192032.525000", "192032.985000", "192033.445000", "192033.905000", "192034.365000", "192034.825000", "192035.285000", "192035.745000", "192036.205000", "192036.665000", "192037.125000", "192037.585000", "192038.045000", "192038.505000", "192038.965000", "192039.425000", "192039.885000", "192040.345000", "192040.805000", "192041.265000", "192041.725000", "192042.185000", "192042.645000", "192043.105000", "192043.565000", "192044.025000", "192044.485000", "192044.945000", "192045.405000", "192045.865000", "192046.325000", "192046.785000", "192047.245000", "192047.705000", "192048.165000", "192048.625000", "192049.085000", "192049.545000", "192050.005000", "192050.465000", "192050.925000", "192051.385000", "192051.845000", "192052.305000", "192052.765000", "192053.225000", "192053.685000", "192054.145000", "192054.605000", "192055.065000", "192055.525000", "192055.985000", "192056.445000", "192056.905000", "192057.365000", "192057.825000", "192058.285000", "192058.745000", "192059.205000", "192059.665000", "192100.125000", "192100.585000", "192101.045000", "192101.505000", "192101.965000", "192102.425000", "192102.885000", "192103.345000", "192103.805000", "192104.265000", "192104.725000", "192105.185000", "192105.645000", "192106.105000", "192106.565000", "192107.025000", "192107.485000", "192107.945000", "192108.405000", "192108.865000", "192109.325000", "192109.785000", "192110.245000", "192110.705000", "192111.165000", "192111.625000", "192112.085000", "192112.545000", "192113.005000", "192113.465000", "192113.925000", "192114.385000", "192114.845000", "192115.305000", "192115.765000", "192116.225000", "192116.685000", "192117.145000", "192117.605000", "192118.065000", "192118.525000", "192118.985000", "192119.445000", "192119.905000", "192120.365000", "192120.825000", "192121.285000", "192121.745000", "192122.205000", "192122.665000", "192123.125000", "192123.585000", "192124.045000", "192124.505000", "192124.965000", "192125.425000", "192125.885000", "192126.345000", "192126.805000", "192127.265000", "192127.725000", "192128.185000", "192128.645000", "192129.105000", "192129.565000", "192130.025000", "192130.485000", "192130.945000", "192131.405000", "192131.865000", "192132.325000", "192132.785000", "192133.245000", "192133.705000", "192134.165000", "192134.625000", "192135.085000", "192135.545000", "192136.005000", "192136.465000", "192136.925000", "192137.385000", "192137.845000", "192138.305000", "192138.765000", "192139.225000", "192139.685000", "192140.145000", "192140.605000", "192141.065000", "192141.525000", "192141.985000", "192142.445000", "192142.905000", "192143.365000", "192143.825000", "192144.285000", "192144.745000", "192145.205000", "192145.665000", "192146.125000", "192146.585000", "192147.045000", "192147.505000", "192147.965000", "192148.425000", "192148.885000", "192149.345000", "192149.805000", "192150.265000", "192150.725000", "192151.185000", "192151.645000", "192152.105000", "192152.565000", "192153.025000", "192153.485000", "192153.945000", "192154.405000", "192154.865000", "192155.325000", "192155.785000", "192156.245000", "192156.705000", "192157.165000", "192157.625000", "192158.085000", "192158.545000", "192159.005000", "192159.465000", "192159.925000", "192200.385000", "192200.845000", "192201.305000", "192201.765000", "192202.225000", "192202.685000", "192203.145000", "192203.605000", "192204.065000", "192204.525000", "192204.985000", "192205.445000", "192205.905000", "192206.365000", "192206.825000", "192207.285000", "192207.745000", "192208.205000", "192208.665000", "192209.125000", "192209.585000", "192210.045000", "192210.505000"],
