{
  "AcquisitionMatrixPE": 82,
  "AcquisitionNumber": 1,
  "AcquisitionTime": "15:19:56.797500",
  "BandwidthPerPixelPhaseEncode": 24.888,
  "BaseResolution": 82,
  "BodyPartExamined": "BRAIN",
  "ConsistencyInfo": "N4_VE11E_LATEST_20181129",
  "ConversionSoftware": "dcm2niix",
  "ConversionSoftwareVersion": "v1.0.20201102",
  "DerivedVendorReportedEchoSpacing": 0.00049,
  "DeviceSerialNumber": "66112",
  "DwellTime": 2e-06,
  "EchoTime": 0.0272,
  "EchoTrainLength": 82,
  "EffectiveEchoSpacing": 0.00049,
  "FlipAngle": 44,
  "ImageComments": "Unaliased MB8/PE3",
  "ImageOrientationPatientDICOM": [0.99979, 0.0178514, -0.0101093, -0.0165787, 0.993296, 0.114405],
  "ImageType": [
    "ORIGINAL",
    "PRIMARY",
    "M",
    "MB",
    "ND",
    "NORM",
    "MOSAIC"
],
  "ImagingFrequency": 123.259,
  "InPlanePhaseEncodingDirectionDICOM": "COL",
  "InstitutionAddress": "Maynard 3,Hanover,NH,US,03755",
  "InstitutionName": "Dartmouth College - PBS",
  "InstitutionalDepartmentName": "Department",
  "MRAcquisitionType": "2D",
  "MagneticFieldStrength": 3,
  "Manufacturer": "Siemens",
  "ManufacturersModelName": "Prisma",
  "Modality": "MR",
  "MultibandAccelerationFactor": 8,
  "PartialFourier": 1,
  "PatientPosition": "HFS",
  "PercentPhaseFOV": 100,
  "PercentSampling": 100,
  "PhaseEncodingDirection": "j-",
  "PhaseEncodingSteps": 82,
  "PhaseResolution": 1,
  "PixelBandwidth": 3050,
  "ProcedureStepDescription": "Wager_Wager^1076_spacetop",
  "ProtocolName": "func_run-04_task-social_acq-ap-mb8",
  "PulseSequenceDetails": "%CustomerSeq%\\cmrr_mbep2d_bold",
  "ReceiveCoilActiveElements": "HEA;HEP",
  "ReceiveCoilName": "Head_32",
  "ReconMatrixPE": 82,
  "RepetitionTime": 0.46,
  "SAR": 0.0912745,
  "ScanOptions": "FS",
  "ScanningSequence": "EP",
  "SequenceName": "epfid2d1_82",
  "SequenceVariant": "SK\\SS",
  "SeriesDescription": "func_run-04_task-social_acq-ap-mb8",
  "SeriesNumber": 18,
  "ShimSetting": [4223, -7777, -7181, 414, -112, 64, 65, 75],
  "SliceThickness": 2.7,
  "SliceTiming": [0, 0.2525, 0.0625, 0.315, 0.125, 0.3775, 0.1875, 0, 0.2525, 0.0625, 0.315, 0.125, 0.3775, 0.1875, 0, 0.2525, 0.0625, 0.315, 0.125, 0.3775, 0.1875, 0, 0.2525, 0.0625, 0.315, 0.125, 0.3775, 0.1875, 0, 0.2525, 0.0625, 0.315, 0.125, 0.3775, 0.1875, 0, 0.2525, 0.0625, 0.315, 0.125, 0.3775, 0.1875, 0, 0.2525, 0.0625, 0.315, 0.125, 0.3775, 0.1875, 0, 0.2525, 0.0625, 0.315, 0.125, 0.3775, 0.1875],
  "SoftwareVersions": "syngo MR E11",
  "SpacingBetweenSlices": 2.7,
  "StationName": "AWP66112",
  "TaskName": "social",
  "TotalReadoutTime": 0.03969,
  "TxRefAmp": 234.211,
  "WipMemBlock": "e21df90d-ac89-42bf-9ec1-6f85c6e1a5b1||Sequence: R016 ve11e/master r/434b28f1; Aug  7 2019 18:53:46 by eja",
  "dcmmeta_affine": [
    [-2.6823623180389404, -0.04447931796312332, -0.032626159489154816, 115.63626861572266],
    [-0.04789397120475769, 2.664940118789673, 0.30837520956993103, -111.92510986328125],
    [-0.027122387662529945, -0.3069394826889038, 2.682133436203003, -39.916603088378906],
    [0.0, 0.0, 0.0, 1.0]
],
  "dcmmeta_reorient_transform": [
    [0.0, -1.0, 0.0, 81.0],
    [1.0, 0.0, 0.0, 0.0],
    [0.0, 0.0, 1.0, 0.0],
    [0.0, 0.0, 0.0, 1.0]
],
  "dcmmeta_shape": [82, 82, 56, 872],
  "dcmmeta_slice_dim": 2,
  "dcmmeta_version": 0.6,
  "global": {
    "const": {
      "AccessionNumber": "A004542",
      "AcquisitionMatrix": [82, 0, 0, 82],
      "AngioFlag": "N",
      "BitsAllocated": 16,
      "BitsStored": 16,
      "BodyPartExamined": "BRAIN",
      "Columns": 656,
      "EchoNumbers": 1,
      "EchoTime": 27.2,
      "EchoTrainLength": 82,
      "FlipAngle": 44.0,
      "HighBit": 15,
      "ImageOrientationPatient": [0.99978954329714, 0.01785138952582, -0.0101092534687, -0.0165786545696, 0.99329588244969, 0.11440471197091],
      "ImagePositionPatient": [-869.10584624859, -882.51846855273, -145.08620760496],
      "ImageType": [
        "ORIGINAL",
        "PRIMARY",
        "M",
        "MB",
        "ND",
        "NORM",
        "MOSAIC"
],
      "ImagedNucleus": "1H",
      "ImagingFrequency": 123.25906,
      "InPlanePhaseEncodingDirection": "COL",
      "MRAcquisitionType": "2D",
      "MagneticFieldStrength": 3.0,
      "Manufacturer": "SIEMENS",
      "ManufacturerModelName": "Prisma",
      "Modality": "MR",
      "NumberOfAverages": 1.0,
      "NumberOfPhaseEncodingSteps": 82,
      "PercentPhaseFieldOfView": 100.0,
      "PercentSampling": 100.0,
      "PerformedProcedureStepStartTime": "142410.627000",
      "PhotometricInterpretation": "MONOCHROME2",
      "PixelBandwidth": 3050.0,
      "PixelRepresentation": 0,
      "PixelSpacing": [2.6829268932343, 2.6829268932343],
      "ProtocolName": "func_run-04_task-social_acq-ap-mb8",
      "RepetitionTime": 460.0,
      "Rows": 656,
      "SAR": 0.09127450599317,
      "SamplesPerPixel": 1,
      "ScanOptions": "FS",
      "ScanningSequence": "EP",
      "SequenceName": "epfid2d1_82",
      "SequenceVariant": [
        "SK",
        "SS"
],
      "SeriesDescription": "func_run-04_task-social_acq-ap-mb8",
      "SeriesNumber": 18,
      "SeriesTime": "152011.658000",
      "SliceLocation": -53.833096088248,
      "SliceThickness": 2.7000000476837,
      "SmallestImagePixelValue": 0,
      "SoftwareVersions": "syngo MR E11",
      "SpacingBetweenSlices": 2.7000000219709,
      "SpecificCharacterSet": "ISO_IR 100",
      "StudyID": "1",
      "StudyTime": "142410.567000",
      "TransmitCoilName": "Body",
      "VariableFlipAngleFlag": "N",
      "WindowCenterWidthExplanation": "Algo1"
    },
    "slices": {}
  },
  "time": {
    "samples": {
      "AcquisitionNumber": [1, 2, 3, 4, 5, 6, 7, 8, 9, 10, 11, 12, 13, 14, 15, 16, 17, 18, 19, 20, 21, 22, 23, 24, 25, 26, 27, 28, 29, 30, 31, 32, 33, 34, 35, 36, 37, 38, 39, 40, 41, 42, 43, 44, 45, 46, 47, 48, 49, 50, 51, 52, 53, 54, 55, 56, 57, 58, 59, 60, 61, 62, 63, 64, 65, 66, 67, 68, 69, 70, 71, 72, 73, 74, 75, 76, 77, 78, 79, 80, 81, 82, 83, 84, 85, 86, 87, 88, 89, 90, 91, 92, 93, 94, 95, 96, 97, 98, 99, 100, 101, 102, 103, 104, 105, 106, 107, 108, 109, 110, 111, 112, 113, 114, 115, 116, 117, 118, 119, 120, 121, 122, 123, 124, 125, 126, 127, 128, 129, 130, 131, 132, 133, 134, 135, 136, 137, 138, 139, 140, 141, 142, 143, 144, 145, 146, 147, 148, 149, 150, 151, 152, 153, 154, 155, 156, 157, 158, 159, 160, 161, 162, 163, 164, 165, 166, 167, 168, 169, 170, 171, 172, 173, 174, 175, 176, 177, 178, 179, 180, 181, 182, 183, 184, 185, 186, 187, 188, 189, 190, 191, 192, 193, 194, 195, 196, 197, 198, 199, 200, 201, 202, 203, 204, 205, 206, 207, 208, 209, 210, 211, 212, 213, 214, 215, 216, 217, 218, 219, 220, 221, 222, 223, 224, 225, 226, 227, 228, 229, 230, 231, 232, 233, 234, 235, 236, 237, 238, 239, 240, 241, 242, 243, 244, 245, 246, 247, 248, 249, 250, 251, 252, 253, 254, 255, 256, 257, 258, 259, 260, 261, 262, 263, 264, 265, 266, 267, 268, 269, 270, 271, 272, 273, 274, 275, 276, 277, 278, 279, 280, 281, 282, 283, 284, 285, 286, 287, 288, 289, 290, 291, 292, 293, 294, 295, 296, 297, 298, 299, 300, 301, 302, 303, 304, 305, 306, 307, 308, 309, 310, 311, 312, 313, 314, 315, 316, 317, 318, 319, 320, 321, 322, 323, 324, 325, 326, 327, 328, 329, 330, 331, 332, 333, 334, 335, 336, 337, 338, 339, 340, 341, 342, 343, 344, 345, 346, 347, 348, 349, 350, 351, 352, 353, 354, 355, 356, 357, 358, 359, 360, 361, 362, 363, 364, 365, 366, 367, 368, 369, 370, 371, 372, 373, 374, 375, 376, 377, 378, 379, 380, 381, 382, 383, 384, 385, 386, 387, 388, 389, 390, 391, 392, 393, 394, 395, 396, 397, 398, 399, 400, 401, 402, 403, 404, 405, 406, 407, 408, 409, 410, 411, 412, 413, 414, 415, 416, 417, 418, 419, 420, 421, 422, 423, 424, 425, 426, 427, 428, 429, 430, 431, 432, 433, 434, 435, 436, 437, 438, 439, 440, 441, 442, 443, 444, 445, 446, 447, 448, 449, 450, 451, 452, 453, 454, 455, 456, 457, 458, 459, 460, 461, 462, 463, 464, 465, 466, 467, 468, 469, 470, 471, 472, 473, 474, 475, 476, 477, 478, 479, 480, 481, 482, 483, 484, 485, 486, 487, 488, 489, 490, 491, 492, 493, 494, 495, 496, 497, 498, 499, 500, 501, 502, 503, 504, 505, 506, 507, 508, 509, 510, 511, 512, 513, 514, 515, 516, 517, 518, 519, 520, 521, 522, 523, 524, 525, 526, 527, 528, 529, 530, 531, 532, 533, 534, 535, 536, 537, 538, 539, 540, 541, 542, 543, 544, 545, 546, 547, 548, 549, 550, 551, 552, 553, 554, 555, 556, 557, 558, 559, 560, 561, 562, 563, 564, 565, 566, 567, 568, 569, 570, 571, 572, 573, 574, 575, 576, 577, 578, 579, 580, 581, 582, 583, 584, 585, 586, 587, 588, 589, 590, 591, 592, 593, 594, 595, 596, 597, 598, 599, 600, 601, 602, 603, 604, 605, 606, 607, 608, 609, 610, 611, 612, 613, 614, 615, 616, 617, 618, 619, 620, 621, 622, 623, 624, 625, 626, 627, 628, 629, 630, 631, 632, 633, 634, 635, 636, 637, 638, 639, 640, 641, 642, 643, 644, 645, 646, 647, 648, 649, 650, 651, 652, 653, 654, 655, 656, 657, 658, 659, 660, 661, 662, 663, 664, 665, 666, 667, 668, 669, 670, 671, 672, 673, 674, 675, 676, 677, 678, 679, 680, 681, 682, 683, 684, 685, 686, 687, 688, 689, 690, 691, 692, 693, 694, 695, 696, 697, 698, 699, 700, 701, 702, 703, 704, 705, 706, 707, 708, 709, 710, 711, 712, 713, 714, 715, 716, 717, 718, 719, 720, 721, 722, 723, 724, 725, 726, 727, 728, 729, 730, 731, 732, 733, 734, 735, 736, 737, 738, 739, 740, 741, 742, 743, 744, 745, 746, 747, 748, 749, 750, 751, 752, 753, 754, 755, 756, 757, 758, 759, 760, 761, 762, 763, 764, 765, 766, 767, 768, 769, 770, 771, 772, 773, 774, 775, 776, 777, 778, 779, 780, 781, 782, 783, 784, 785, 786, 787, 788, 789, 790, 791, 792, 793, 794, 795, 796, 797, 798, 799, 800, 801, 802, 803, 804, 805, 806, 807, 808, 809, 810, 811, 812, 813, 814, 815, 816, 817, 818, 819, 820, 821, 822, 823, 824, 825, 826, 827, 828, 829, 830, 831, 832, 833, 834, 835, 836, 837, 838, 839, 840, 841, 842, 843, 844, 845, 846, 847, 848, 849, 850, 851, 852, 853, 854, 855, 856, 857, 858, 859, 860, 861, 862, 863, 864, 865, 866, 867, 868, 869, 870, 871, 872],
      "AcquisitionTime": ["151956.797500", "151957.257500", "151957.717500", "151958.177500", "151958.637500", "151959.097500", "151959.557500", "152000.017500", "152000.477500", "152000.937500", "152001.397500", "152001.857500", "152002.317500", "152002.777500", "152003.237500", "152003.697500", "152004.157500", "152004.617500", "152005.077500", "152005.537500", "152005.997500", "152006.457500", "152006.917500", "152007.377500", "152007.837500", "152008.297500", "152008.757500", "152009.217500", "152009.677500", "152010.137500", "152010.597500", "152011.057500", "152011.517500", "152011.977500", "152012.437500", "152012.897500", "152013.357500", "152013.817500", "152014.277500", "152014.737500", "152015.197500", "152015.657500", "152016.117500", "152016.577500", "152017.037500", "152017.497500", "152017.957500", "152018.417500", "152018.877500", "152019.337500", "152019.797500", "152020.257500", "152020.717500", "152021.177500", "152021.637500", "152022.097500", "152022.557500", "152023.017500", "152023.477500", "152023.937500", "152024.397500", "152024.857500", "152025.317500", "152025.777500", "152026.237500", "152026.697500", "152027.157500", "152027.617500", "152028.077500", "152028.537500", "152028.997500", "152029.457500", "152029.917500", "152030.377500", "152030.837500", "152031.297500", "152031.757500", "152032.217500", "152032.677500", "152033.137500", "152033.597500", "152034.057500", "152034.517500", "152034.977500", "152035.437500", "152035.897500", "152036.357500", "152036.817500", "152037.277500", "152037.737500", "152038.197500", "152038.657500", "152039.117500", "152039.577500", "152040.037500", "152040.497500", "152040.957500", "152041.417500", "152041.877500", "152042.337500", "152042.797500", "152043.257500", "152043.717500", "152044.177500", "152044.637500", "152045.097500", "152045.557500", "152046.017500", "152046.477500", "152046.937500", "152047.397500", "152047.857500", "152048.317500", "152048.777500", "152049.237500", "152049.697500", "152050.157500", "152050.617500", "152051.077500", "152051.537500", "152051.997500", "152052.457500", "152052.917500", "152053.377500", "152053.837500", "152054.297500", "152054.757500", "152055.217500", "152055.677500", "152056.137500", "152056.597500", "152057.057500", "152057.517500", "152057.977500", "152058.437500", "152058.897500", "152059.357500", "152059.817500", "152100.277500", "152100.737500", "152101.197500", "152101.657500", "152102.117500", "152102.577500", "152103.037500", "152103.497500", "152103.957500", "152104.417500", "152104.877500", "152105.337500", "152105.797500", "152106.257500", "152106.717500", "152107.177500", "152107.637500", "152108.097500", "152108.557500", "152109.017500", "152109.477500", "152109.937500", "152110.397500", "152110.857500", "152111.317500", "152111.777500", "152112.237500", "152112.697500", "152113.157500", "152113.617500", "152114.077500", "152114.537500", "152114.997500", "152115.457500", "152115.917500", "152116.377500", "152116.837500", "152117.297500", "152117.757500", "152118.217500", "152118.677500", "152119.137500", "152119.597500", "152120.057500", "152120.517500", "152120.977500", "152121.437500", "152121.897500", "152122.357500", "152122.817500", "152123.277500", "152123.737500", "152124.197500", "152124.657500", "152125.117500", "152125.577500", "152126.037500", "152126.497500", "152126.957500", "152127.417500", "152127.877500", "152128.337500", "152128.797500", "152129.257500", "152129.717500", "152130.177500", "152130.637500", "152131.097500", "152131.557500", "152132.017500", "152132.477500", "152132.937500", "152133.397500", "152133.857500", "152134.317500", "152134.777500", "152135.237500", "152135.697500", "152136.157500", "152136.617500", "152137.077500", "152137.537500", "152137.997500", "152138.457500", "152138.917500", "152139.377500", "152139.837500", "152140.297500", "152140.757500", "152141.217500", "152141.677500", "152142.137500", "152142.597500", "152143.057500", "152143.517500", "152143.977500", "152144.437500", "152144.897500", "152145.357500", "152145.817500", "152146.277500", "152146.737500", "152147.197500", "152147.657500", "152148.117500", "152148.577500", "152149.037500", "152149.497500", "152149.957500", "152150.417500", "152150.877500", "152151.337500", "152151.797500", "152152.257500", "152152.717500", "152153.177500", "152153.637500", "152154.097500", "152154.557500", "152155.017500", "152155.477500", "152155.937500", "152156.397500", "152156.857500", "152157.317500", "152157.777500", "152158.237500", "152158.697500", "152159.157500", "152159.617500", "152200.077500", "152200.537500", "152200.997500", "152201.457500", "152201.917500", "152202.377500", "152202.837500", "152203.297500", "152203.757500", "152204.217500", "152204.677500", "152205.137500", "152205.597500", "152206.057500", "152206.517500", "152206.977500", "152207.437500", "152207.897500", "152208.357500", "152208.817500", "152209.277500", "152209.737500", "152210.197500", "152210.657500", "152211.117500", "152211.577500", "152212.037500", "152212.497500", "152212.957500", "152213.417500", "152213.877500", "152214.337500", "152214.797500", "152215.257500", "152215.717500", "152216.177500", "152216.637500", "152217.097500", "152217.557500", "152218.017500", "152218.477500", "152218.937500", "152219.397500", "152219.857500", "152220.317500", "152220.777500", "152221.237500", "152221.697500", "152222.157500", "152222.617500", "152223.077500", "152223.537500", "152223.997500", "152224.457500", "152224.917500", "152225.377500", "152225.837500", "152226.297500", "152226.757500", "152227.217500", "152227.677500", "152228.137500", "152228.597500", "152229.057500", "152229.517500", "152229.977500", "152230.437500", "152230.897500", "152231.357500", "152231.817500", "152232.277500", "152232.737500", "152233.197500", "152233.657500", "152234.117500", "152234.577500", "152235.037500", "152235.497500", "152235.957500", "152236.417500", "152236.877500", "152237.337500", "152237.797500", "152238.257500", "152238.717500", "152239.177500", "152239.637500", "152240.097500", "152240.557500", "152241.017500", "152241.477500", "152241.937500", "152242.397500", "152242.857500", "152243.317500", "152243.777500", "152244.237500", "152244.697500", "152245.157500", "152245.617500", "152246.077500", "152246.537500", "152246.997500", "152247.457500", "152247.917500", "152248.377500", "152248.837500", "152249.297500", "152249.757500", "152250.217500", "152250.677500", "152251.137500", "152251.597500", "152252.057500", "152252.517500", "152252.977500", "152253.437500", "152253.897500", "152254.357500", "152254.817500", "152255.277500", "152255.737500", "152256.197500", "152256.657500", "152257.117500", "152257.577500", "152258.037500", "152258.497500", "152258.957500", "152259.417500", "152259.877500", "152300.337500", "152300.797500", "152301.257500", "152301.717500", "152302.177500", "152302.637500", "152303.097500", "152303.557500", "152304.017500", "152304.477500", "152304.937500", "152305.397500", "152305.857500", "152306.317500", "152306.777500", "152307.237500", "152307.697500", "152308.157500", "152308.617500", "152309.077500", "152309.537500", "152309.997500", "152310.457500", "152310.917500", "152311.377500", "152311.837500", "152312.297500", "152312.757500", "152313.217500", "152313.677500", "152314.137500", "152314.597500", "152315.057500", "152315.517500", "152315.977500", "152316.437500", "152316.897500", "152317.357500", "152317.817500", "152318.277500", "152318.737500", "152319.197500", "152319.657500", "152320.117500", "152320.577500", "152321.037500", "152321.497500", "152321.957500", "152322.417500", "152322.877500", "152323.337500", "152323.797500", "152324.257500", "152324.717500", "152325.177500", "152325.637500", "152326.097500", "152326.557500", "152327.017500", "152327.477500", "152327.937500", "152328.397500", "152328.857500", "152329.317500", "152329.777500", "152330.237500", "152330.697500", "152331.157500", "152331.617500", "152332.077500", "152332.537500", "152332.997500", "152333.457500", "152333.917500", "152334.377500", "152334.837500", "152335.297500", "152335.757500", "152336.217500", "152336.677500", "152337.137500", "152337.597500", "152338.057500", "152338.517500", "152338.977500", "152339.437500", "152339.897500", "152340.357500", "152340.817500", "152341.277500", "152341.737500", "152342.197500", "152342.657500", "152343.117500", "152343.577500", "152344.037500", "152344.497500", "152344.957500", "152345.417500", "152345.877500", "152346.337500", "152346.797500", "152347.257500", "152347.717500", "152348.177500", "152348.637500", "152349.097500", "152349.557500", "152350.017500", "152350.477500", "152350.937500", "152351.397500", "152351.857500", "152352.317500", "152352.777500", "152353.237500", "152353.697500", "152354.157500", "152354.617500", "152355.077500", "152355.537500", "152355.997500", "152356.457500", "152356.917500", "152357.377500", "152357.837500", "152358.297500", "152358.757500", "152359.217500", "152359.677500", "152400.137500", "152400.597500", "152401.057500", "152401.517500", "152401.977500", "152402.437500", "152402.897500", "152403.357500", "152403.817500", "152404.277500", "152404.737500", "152405.197500", "152405.657500", "152406.117500", "152406.577500", "152407.037500", "152407.497500", "152407.957500", "152408.417500", "152408.877500", "152409.337500", "152409.797500", "152410.257500", "152410.717500", "152411.177500", "152411.637500", "152412.097500", "152412.557500", "152413.017500", "152413.477500", "152413.937500", "152414.397500", "152414.857500", "152415.317500", "152415.777500", "152416.237500", "152416.697500", "152417.157500", "152417.617500", "152418.077500", "152418.537500", "152418.997500", "152419.457500", "152419.917500", "152420.377500", "152420.837500", "152421.297500", "152421.757500", "152422.217500", "152422.677500", "152423.137500", "152423.597500", "152424.057500", "152424.517500", "152424.977500", "152425.437500", "152425.897500", "152426.357500", "152426.817500", "152427.277500", "152427.737500", "152428.197500", "152428.657500", "152429.117500", "152429.577500", "152430.037500", "152430.497500", "152430.957500", "152431.417500", "152431.877500", "152432.337500", "152432.797500", "152433.257500", "152433.717500", "152434.177500", "152434.637500", "152435.097500", "152435.557500", "152436.017500", "152436.477500", "152436.937500", "152437.397500", "152437.857500", "152438.317500", "152438.777500", "152439.237500", "152439.697500", "152440.157500", "152440.617500", "152441.077500", "152441.537500", "152441.997500", "152442.457500", "152442.917500", "152443.377500", "152443.837500", "152444.297500", "152444.757500", "152445.217500", "152445.677500", "152446.137500", "152446.597500", "152447.057500", "152447.517500", "152447.977500", "152448.437500", "152448.897500", "152449.357500", "152449.817500", "152450.277500", "152450.737500", "152451.197500", "152451.657500", "152452.117500", "152452.577500", "152453.037500", "152453.497500", "152453.957500", "152454.417500", "152454.877500", "152455.337500", "152455.797500", "152456.257500", "152456.717500", "152457.177500", "152457.637500", "152458.097500", "152458.557500", "152459.017500", "152459.477500", "152459.937500", "152500.397500", "152500.857500", "152501.317500", "152501.777500", "152502.237500", "152502.697500", "152503.157500", "152503.617500", "152504.077500", "152504.537500", "152504.997500", "152505.457500", "152505.917500", "152506.377500", "152506.837500", "152507.297500", "152507.757500", "152508.217500", "152508.677500", "152509.137500", "152509.597500", "152510.057500", "152510.517500", "152510.977500", "152511.437500", "152511.897500", "152512.357500", "152512.817500", "152513.277500", "152513.737500", "152514.197500", "152514.657500", "152515.117500", "152515.577500", "152516.037500", "152516.497500", "152516.957500", "152517.417500", "152517.877500", "152518.337500", "152518.797500", "152519.257500", "152519.717500", "152520.177500", "152520.637500", "152521.097500", "152521.557500", "152522.017500", "152522.477500", "152522.937500", "152523.397500", "152523.857500", "152524.317500", "152524.777500", "152525.237500", "152525.697500", "152526.157500", "152526.617500", "152527.077500", "152527.537500", "152527.997500", "152528.457500", "152528.917500", "152529.377500", "152529.837500", "152530.297500", "152530.757500", "152531.217500", "152531.677500", "152532.137500", "152532.597500", "152533.057500", "152533.517500", "152533.977500", "152534.437500", "152534.897500", "152535.357500", "152535.817500", "152536.277500", "152536.737500", "152537.197500", "152537.657500", "152538.117500", "152538.577500", "152539.037500", "152539.497500", "152539.957500", "152540.417500", "152540.877500", "152541.337500", "152541.797500", "152542.257500", "152542.717500", "152543.177500", "152543.637500", "152544.097500", "152544.557500", "152545.017500", "152545.477500", "152545.937500", "152546.397500", "152546.857500", "152547.317500", "152547.777500", "152548.237500", "152548.697500", "152549.157500", "152549.617500", "152550.077500", "152550.537500", "152550.997500", "152551.457500", "152551.917500", "152552.377500", "152552.837500", "152553.297500", "152553.757500", "152554.217500", "152554.677500", "152555.137500", "152555.597500", "152556.057500", "152556.517500", "152556.977500", "152557.437500", "152557.897500", "152558.357500", "152558.817500", "152559.277500", "152559.737500", "152600.197500", "152600.657500", "152601.117500", "152601.577500", "152602.037500", "152602.497500", "152602.957500", "152603.417500", "152603.877500", "152604.337500", "152604.797500", "152605.257500", "152605.717500", "152606.177500", "152606.637500", "152607.097500", "152607.557500", "152608.017500", "152608.477500", "152608.937500", "152609.397500", "152609.857500", "152610.317500", "152610.777500", "152611.237500", "152611.697500", "152612.157500", "152612.617500", "152613.077500", "152613.537500", "152613.997500", "152614.457500", "152614.917500", "152615.377500", "152615.837500", "152616.297500", "152616.757500", "152617.217500", "152617.677500", "152618.137500", "152618.597500", "152619.057500", "152619.517500", "152619.977500", "152620.437500", "152620.897500", "152621.357500", "152621.817500", "152622.277500", "152622.737500", "152623.197500", "152623.657500", "152624.117500", "152624.577500", "152625.037500", "152625.497500", "152625.957500", "152626.417500", "152626.877500", "152627.337500", "152627.797500", "152628.257500", "152628.717500", "152629.177500", "152629.637500", "152630.097500", "152630.557500", "152631.017500", "152631.477500", "152631.937500", "152632.397500", "152632.857500", "152633.317500", "152633.777500", "152634.237500", "152634.697500", "152635.157500", "152635.617500", "152636.077500", "152636.537500", "152636.997500", "152637.457500"],
