{
  "AcquisitionMatrixPE": 82,
  "AcquisitionNumber": 1,
  "AcquisitionTime": "15:55:25.652500",
  "BandwidthPerPixelPhaseEncode": 24.888,
  "BaseResolution": 82,
  "BodyPartExamined": "BRAIN",
  "ConsistencyInfo": "N4_VE11E_LATEST_20181129",
  "ConversionSoftware": "dcm2niix",
  "ConversionSoftwareVersion": "v1.0.20201102",
  "DerivedVendorReportedEchoSpacing": 0.00049,
  "DeviceSerialNumber": "66112",
  "DwellTime": 2e-06,
  "EchoTime": 0.0272,
  "EchoTrainLength": 82,
  "EffectiveEchoSpacing": 0.00049,
  "FlipAngle": 44,
  "ImageComments": "Unaliased MB8/PE3",
  "ImageOrientationPatientDICOM": [0.999758, 0.0194831, 0.0101973, -0.0200691, 0.99794, 0.0609346],
  "ImageType": [
    "ORIGINAL",
    "PRIMARY",
    "M",
    "MB",
    "ND",
    "NORM",
    "MOSAIC"
],
  "ImagingFrequency": 123.259,
  "InPlanePhaseEncodingDirectionDICOM": "COL",
  "InstitutionAddress": "Maynard 3,Hanover,NH,US,03755",
  "InstitutionName": "Dartmouth College - PBS",
  "InstitutionalDepartmentName": "Department",
  "MRAcquisitionType": "2D",
  "MagneticFieldStrength": 3,
  "Manufacturer": "Siemens",
  "ManufacturersModelName": "Prisma",
  "Modality": "MR",
  "MultibandAccelerationFactor": 8,
  "PartialFourier": 1,
  "PatientPosition": "HFS",
  "PercentPhaseFOV": 100,
  "PercentSampling": 100,
  "PhaseEncodingDirection": "j-",
  "PhaseEncodingSteps": 82,
  "PhaseResolution": 1,
  "PixelBandwidth": 3050,
  "ProcedureStepDescription": "Wager_Wager^1076_spacetop",
  "ProtocolName": "func_run-02_task-alignvideo_acq-ap-mb8",
  "PulseSequenceDetails": "%CustomerSeq%\\cmrr_mbep2d_bold",
  "ReceiveCoilActiveElements": "HEA;HEP",
  "ReceiveCoilName": "Head_32",
  "ReconMatrixPE": 82,
  "RepetitionTime": 0.46,
  "SAR": 0.0913076,
  "ScanOptions": "FS",
  "ScanningSequence": "EP",
  "SequenceName": "epfid2d1_82",
  "SequenceVariant": "SK\\SS",
  "SeriesDescription": "func_run-02_task-alignvideo_acq-ap-mb8",
  "SeriesNumber": 32,
  "ShimSetting": [4223, -7773, -7175, 425, -109, 88, 60, 75],
  "SliceThickness": 2.7,
  "SliceTiming": [0, 0.25, 0.0625, 0.315, 0.125, 0.3775, 0.1875, 0, 0.25, 0.0625, 0.315, 0.125, 0.3775, 0.1875, 0, 0.25, 0.0625, 0.315, 0.125, 0.3775, 0.1875, 0, 0.25, 0.0625, 0.315, 0.125, 0.3775, 0.1875, 0, 0.25, 0.0625, 0.315, 0.125, 0.3775, 0.1875, 0, 0.25, 0.0625, 0.315, 0.125, 0.3775, 0.1875, 0, 0.25, 0.0625, 0.315, 0.125, 0.3775, 0.1875, 0, 0.25, 0.0625, 0.315, 0.125, 0.3775, 0.1875],
  "SoftwareVersions": "syngo MR E11",
  "SpacingBetweenSlices": 2.7,
  "StationName": "AWP66112",
  "TaskName": "alignvideo",
  "TotalReadoutTime": 0.03969,
  "TxRefAmp": 234.211,
  "WipMemBlock": "810f909a-c4b5-4fb5-bbaa-92b49cbff650||Sequence: R016 ve11e/master r/434b28f1; Aug  7 2019 18:53:46 by eja",
  "dcmmeta_affine": [
    [-2.6822781562805176, -0.053844016045331955, 0.02427045628428459, 114.07273864746094],
    [-0.05227159708738327, 2.6774001121520996, 0.16503620147705078, -108.7979965209961],
    [0.027358494699001312, -0.16348308324813843, 2.6948421001434326, -44.334163665771484],
    [0.0, 0.0, 0.0, 1.0]
],
  "dcmmeta_reorient_transform": [
    [0.0, -1.0, 0.0, 81.0],
    [1.0, 0.0, 0.0, 0.0],
    [0.0, 0.0, 1.0, 0.0],
    [0.0, 0.0, 0.0, 1.0]
],
  "dcmmeta_shape": [82, 82, 56, 926],
  "dcmmeta_slice_dim": 2,
  "dcmmeta_version": 0.6,
  "global": {
    "const": {
      "AccessionNumber": "A004542",
      "AcquisitionMatrix": [82, 0, 0, 82],
      "AngioFlag": "N",
      "BitsAllocated": 16,
      "BitsStored": 16,
      "BodyPartExamined": "BRAIN",
      "Columns": 656,
      "EchoNumbers": 1,
      "EchoTime": 27.2,
      "EchoTrainLength": 82,
      "FlipAngle": 44.0,
      "HighBit": 15,
      "ImageOrientationPatient": [0.99975818413118, 0.01948304960736, 0.01019725652889, -0.0200691329663, 0.99793998009361, 0.06093460455879],
      "ImagePositionPatient": [-864.07196439331, -891.48715346339, -112.34782834258],
      "ImageType": [
        "ORIGINAL",
        "PRIMARY",
        "M",
        "MB",
        "ND",
        "NORM",
        "MOSAIC"
],
      "ImagedNucleus": "1H",
      "ImagingFrequency": 123.259052,
      "InPlanePhaseEncodingDirection": "COL",
      "MRAcquisitionType": "2D",
      "MagneticFieldStrength": 3.0,
      "Manufacturer": "SIEMENS",
      "ManufacturerModelName": "Prisma",
      "Modality": "MR",
      "NumberOfAverages": 1.0,
      "NumberOfPhaseEncodingSteps": 82,
      "PercentPhaseFieldOfView": 100.0,
      "PercentSampling": 100.0,
      "PerformedProcedureStepStartTime": "142410.627000",
      "PhotometricInterpretation": "MONOCHROME2",
      "PixelBandwidth": 3050.0,
      "PixelRepresentation": 0,
      "PixelSpacing": [2.6829268932343, 2.6829268932343],
      "ProtocolName": "func_run-02_task-alignvideo_acq-ap-mb8",
      "RepetitionTime": 460.0,
      "Rows": 656,
      "SAR": 0.09130757539952,
      "SamplesPerPixel": 1,
      "ScanOptions": "FS",
      "ScanningSequence": "EP",
      "SequenceName": "epfid2d1_82",
      "SequenceVariant": [
        "SK",
        "SS"
],
      "SeriesDescription": "func_run-02_task-alignvideo_acq-ap-mb8",
      "SeriesNumber": 32,
      "SeriesTime": "155551.756000",
      "SliceLocation": -49.87428982111,
      "SliceThickness": 2.7000000476837,
      "SmallestImagePixelValue": 0,
      "SoftwareVersions": "syngo MR E11",
      "SpacingBetweenSlices": 2.6999999343083,
      "SpecificCharacterSet": "ISO_IR 100",
      "StudyID": "1",
      "StudyTime": "142410.567000",
      "TransmitCoilName": "Body",
      "VariableFlipAngleFlag": "N",
      "WindowCenterWidthExplanation": "Algo1"
    },
    "slices": {}
  },
  "time": {
    "samples": {
      "AcquisitionNumber": [1, 2, 3, 4, 5, 6, 7, 8, 9, 10, 11, 12, 13, 14, 15, 16, 17, 18, 19, 20, 21, 22, 23, 24, 25, 26, 27, 28, 29, 30, 31, 32, 33, 34, 35, 36, 37, 38, 39, 40, 41, 42, 43, 44, 45, 46, 47, 48, 49, 50, 51, 52, 53, 54, 55, 56, 57, 58, 59, 60, 61, 62, 63, 64, 65, 66, 67, 68, 69, 70, 71, 72, 73, 74, 75, 76, 77, 78, 79, 80, 81, 82, 83, 84, 85, 86, 87, 88, 89, 90, 91, 92, 93, 94, 95, 96, 97, 98, 99, 100, 101, 102, 103, 104, 105, 106, 107, 108, 109, 110, 111, 112, 113, 114, 115, 116, 117, 118, 119, 120, 121, 122, 123, 124, 125, 126, 127, 128, 129, 130, 131, 132, 133, 134, 135, 136, 137, 138, 139, 140, 141, 142, 143, 144, 145, 146, 147, 148, 149, 150, 151, 152, 153, 154, 155, 156, 157, 158, 159, 160, 161, 162, 163, 164, 165, 166, 167, 168, 169, 170, 171, 172, 173, 174, 175, 176, 177, 178, 179, 180, 181, 182, 183, 184, 185, 186, 187, 188, 189, 190, 191, 192, 193, 194, 195, 196, 197, 198, 199, 200, 201, 202, 203, 204, 205, 206, 207, 208, 209, 210, 211, 212, 213, 214, 215, 216, 217, 218, 219, 220, 221, 222, 223, 224, 225, 226, 227, 228, 229, 230, 231, 232, 233, 234, 235, 236, 237, 238, 239, 240, 241, 242, 243, 244, 245, 246, 247, 248, 249, 250, 251, 252, 253, 254, 255, 256, 257, 258, 259, 260, 261, 262, 263, 264, 265, 266, 267, 268, 269, 270, 271, 272, 273, 274, 275, 276, 277, 278, 279, 280, 281, 282, 283, 284, 285, 286, 287, 288, 289, 290, 291, 292, 293, 294, 295, 296, 297, 298, 299, 300, 301, 302, 303, 304, 305, 306, 307, 308, 309, 310, 311, 312, 313, 314, 315, 316, 317, 318, 319, 320, 321, 322, 323, 324, 325, 326, 327, 328, 329, 330, 331, 332, 333, 334, 335, 336, 337, 338, 339, 340, 341, 342, 343, 344, 345, 346, 347, 348, 349, 350, 351, 352, 353, 354, 355, 356, 357, 358, 359, 360, 361, 362, 363, 364, 365, 366, 367, 368, 369, 370, 371, 372, 373, 374, 375, 376, 377, 378, 379, 380, 381, 382, 383, 384, 385, 386, 387, 388, 389, 390, 391, 392, 393, 394, 395, 396, 397, 398, 399, 400, 401, 402, 403, 404, 405, 406, 407, 408, 409, 410, 411, 412, 413, 414, 415, 416, 417, 418, 419, 420, 421, 422, 423, 424, 425, 426, 427, 428, 429, 430, 431, 432, 433, 434, 435, 436, 437, 438, 439, 440, 441, 442, 443, 444, 445, 446, 447, 448, 449, 450, 451, 452, 453, 454, 455, 456, 457, 458, 459, 460, 461, 462, 463, 464, 465, 466, 467, 468, 469, 470, 471, 472, 473, 474, 475, 476, 477, 478, 479, 480, 481, 482, 483, 484, 485, 486, 487, 488, 489, 490, 491, 492, 493, 494, 495, 496, 497, 498, 499, 500, 501, 502, 503, 504, 505, 506, 507, 508, 509, 510, 511, 512, 513, 514, 515, 516, 517, 518, 519, 520, 521, 522, 523, 524, 525, 526, 527, 528, 529, 530, 531, 532, 533, 534, 535, 536, 537, 538, 539, 540, 541, 542, 543, 544, 545, 546, 547, 548, 549, 550, 551, 552, 553, 554, 555, 556, 557, 558, 559, 560, 561, 562, 563, 564, 565, 566, 567, 568, 569, 570, 571, 572, 573, 574, 575, 576, 577, 578, 579, 580, 581, 582, 583, 584, 585, 586, 587, 588, 589, 590, 591, 592, 593, 594, 595, 596, 597, 598, 599, 600, 601, 602, 603, 604, 605, 606, 607, 608, 609, 610, 611, 612, 613, 614, 615, 616, 617, 618, 619, 620, 621, 622, 623, 624, 625, 626, 627, 628, 629, 630, 631, 632, 633, 634, 635, 636, 637, 638, 639, 640, 641, 642, 643, 644, 645, 646, 647, 648, 649, 650, 651, 652, 653, 654, 655, 656, 657, 658, 659, 660, 661, 662, 663, 664, 665, 666, 667, 668, 669, 670, 671, 672, 673, 674, 675, 676, 677, 678, 679, 680, 681, 682, 683, 684, 685, 686, 687, 688, 689, 690, 691, 692, 693, 694, 695, 696, 697, 698, 699, 700, 701, 702, 703, 704, 705, 706, 707, 708, 709, 710, 711, 712, 713, 714, 715, 716, 717, 718, 719, 720, 721, 722, 723, 724, 725, 726, 727, 728, 729, 730, 731, 732, 733, 734, 735, 736, 737, 738, 739, 740, 741, 742, 743, 744, 745, 746, 747, 748, 749, 750, 751, 752, 753, 754, 755, 756, 757, 758, 759, 760, 761, 762, 763, 764, 765, 766, 767, 768, 769, 770, 771, 772, 773, 774, 775, 776, 777, 778, 779, 780, 781, 782, 783, 784, 785, 786, 787, 788, 789, 790, 791, 792, 793, 794, 795, 796, 797, 798, 799, 800, 801, 802, 803, 804, 805, 806, 807, 808, 809, 810, 811, 812, 813, 814, 815, 816, 817, 818, 819, 820, 821, 822, 823, 824, 825, 826, 827, 828, 829, 830, 831, 832, 833, 834, 835, 836, 837, 838, 839, 840, 841, 842, 843, 844, 845, 846, 847, 848, 849, 850, 851, 852, 853, 854, 855, 856, 857, 858, 859, 860, 861, 862, 863, 864, 865, 866, 867, 868, 869, 870, 871, 872, 873, 874, 875, 876, 877, 878, 879, 880, 881, 882, 883, 884, 885, 886, 887, 888, 889, 890, 891, 892, 893, 894, 895, 896, 897, 898, 899, 900, 901, 902, 903, 904, 905, 906, 907, 908, 909, 910, 911, 912, 913, 914, 915, 916, 917, 918, 919, 920, 921, 922, 923, 924, 925, 926],
      "AcquisitionTime": ["155525.652500", "155526.112500", "155526.572500", "155527.032500", "155527.492500", "155527.952500", "155528.412500", "155528.872500", "155529.332500", "155529.792500", "155530.252500", "155530.712500", "155531.172500", "155531.632500", "155532.092500", "155532.552500", "155533.012500", "155533.472500", "155533.932500", "155534.392500", "155534.852500", "155535.312500", "155535.772500", "155536.232500", "155536.692500", "155537.152500", "155537.612500", "155538.072500", "155538.532500", "155538.992500", "155539.452500", "155539.912500", "155540.372500", "155540.832500", "155541.292500", "155541.752500", "155542.212500", "155542.672500", "155543.132500", "155543.592500", "155544.052500", "155544.512500", "155544.972500", "155545.432500", "155545.892500", "155546.352500", "155546.812500", "155547.272500", "155547.732500", "155548.192500", "155548.652500", "155549.112500", "155549.572500", "155550.032500", "155550.492500", "155550.952500", "155551.412500", "155551.872500", "155552.332500", "155552.792500", "155553.252500", "155553.712500", "155554.172500", "155554.632500", "155555.092500", "155555.552500", "155556.012500", "155556.472500", "155556.932500", "155557.392500", "155557.852500", "155558.312500", "155558.772500", "155559.232500", "155559.692500", "155600.152500", "155600.612500", "155601.072500", "155601.532500", "155601.992500", "155602.452500", "155602.912500", "155603.372500", "155603.832500", "155604.292500", "155604.752500", "155605.212500", "155605.672500", "155606.132500", "155606.592500", "155607.052500", "155607.512500", "155607.972500", "155608.432500", "155608.892500", "155609.352500", "155609.812500", "155610.272500", "155610.732500", "155611.192500", "155611.652500", "155612.112500", "155612.572500", "155613.032500", "155613.492500", "155613.952500", "155614.412500", "155614.872500", "155615.332500", "155615.792500", "155616.252500", "155616.712500", "155617.172500", "155617.632500", "155618.092500", "155618.552500", "155619.012500", "155619.472500", "155619.932500", "155620.392500", "155620.852500", "155621.312500", "155621.772500", "155622.232500", "155622.692500", "155623.152500", "155623.612500", "155624.072500", "155624.532500", "155624.992500", "155625.452500", "155625.912500", "155626.372500", "155626.832500", "155627.292500", "155627.752500", "155628.212500", "155628.672500", "155629.132500", "155629.592500", "155630.052500", "155630.512500", "155630.972500", "155631.432500", "155631.892500", "155632.352500", "155632.812500", "155633.272500", "155633.732500", "155634.192500", "155634.652500", "155635.112500", "155635.572500", "155636.032500", "155636.492500", "155636.952500", "155637.412500", "155637.872500", "155638.332500", "155638.792500", "155639.252500", "155639.712500", "155640.172500", "155640.632500", "155641.092500", "155641.552500", "155642.012500", "155642.472500", "155642.932500", "155643.392500", "155643.852500", "155644.312500", "155644.772500", "155645.232500", "155645.692500", "155646.152500", "155646.612500", "155647.072500", "155647.532500", "155647.992500", "155648.452500", "155648.912500", "155649.372500", "155649.832500", "155650.292500", "155650.752500", "155651.212500", "155651.672500", "155652.132500", "155652.592500", "155653.052500", "155653.512500", "155653.972500", "155654.432500", "155654.892500", "155655.352500", "155655.812500", "155656.272500", "155656.732500", "155657.192500", "155657.652500", "155658.112500", "155658.572500", "155659.032500", "155659.492500", "155659.952500", "155700.412500", "155700.872500", "155701.332500", "155701.792500", "155702.252500", "155702.712500", "155703.172500", "155703.632500", "155704.092500", "155704.552500", "155705.012500", "155705.472500", "155705.932500", "155706.392500", "155706.852500", "155707.312500", "155707.772500", "155708.232500", "155708.692500", "155709.152500", "155709.612500", "155710.072500", "155710.532500", "155710.992500", "155711.452500", "155711.912500", "155712.372500", "155712.832500", "155713.292500", "155713.752500", "155714.212500", "155714.672500", "155715.132500", "155715.592500", "155716.052500", "155716.512500", "155716.972500", "155717.432500", "155717.892500", "155718.352500", "155718.812500", "155719.272500", "155719.732500", "155720.192500", "155720.652500", "155721.112500", "155721.572500", "155722.032500", "155722.492500", "155722.952500", "155723.412500", "155723.872500", "155724.332500", "155724.792500", "155725.252500", "155725.712500", "155726.172500", "155726.632500", "155727.092500", "155727.552500", "155728.012500", "155728.472500", "155728.932500", "155729.392500", "155729.852500", "155730.312500", "155730.772500", "155731.232500", "155731.692500", "155732.152500", "155732.612500", "155733.072500", "155733.532500", "155733.992500", "155734.452500", "155734.912500", "155735.372500", "155735.832500", "155736.292500", "155736.752500", "155737.212500", "155737.672500", "155738.132500", "155738.592500", "155739.052500", "155739.512500", "155739.972500", "155740.432500", "155740.892500", "155741.352500", "155741.812500", "155742.272500", "155742.732500", "155743.192500", "155743.652500", "155744.112500", "155744.572500", "155745.032500", "155745.492500", "155745.952500", "155746.412500", "155746.872500", "155747.332500", "155747.792500", "155748.252500", "155748.712500", "155749.172500", "155749.632500", "155750.092500", "155750.552500", "155751.012500", "155751.472500", "155751.932500", "155752.392500", "155752.852500", "155753.312500", "155753.772500", "155754.232500", "155754.692500", "155755.152500", "155755.612500", "155756.072500", "155756.532500", "155756.992500", "155757.452500", "155757.912500", "155758.372500", "155758.832500", "155759.292500", "155759.752500", "155800.212500", "155800.672500", "155801.132500", "155801.592500", "155802.052500", "155802.512500", "155802.972500", "155803.432500", "155803.892500", "155804.352500", "155804.812500", "155805.272500", "155805.732500", "155806.192500", "155806.652500", "155807.112500", "155807.572500", "155808.032500", "155808.492500", "155808.952500", "155809.412500", "155809.872500", "155810.332500", "155810.792500", "155811.252500", "155811.712500", "155812.172500", "155812.632500", "155813.092500", "155813.552500", "155814.012500", "155814.472500", "155814.932500", "155815.392500", "155815.852500", "155816.312500", "155816.772500", "155817.232500", "155817.692500", "155818.152500", "155818.612500", "155819.072500", "155819.532500", "155819.992500", "155820.452500", "155820.912500", "155821.372500", "155821.832500", "155822.292500", "155822.752500", "155823.212500", "155823.672500", "155824.132500", "155824.592500", "155825.052500", "155825.512500", "155825.972500", "155826.432500", "155826.892500", "155827.352500", "155827.812500", "155828.272500", "155828.732500", "155829.192500", "155829.652500", "155830.112500", "155830.572500", "155831.032500", "155831.492500", "155831.952500", "155832.412500", "155832.872500", "155833.332500", "155833.792500", "155834.252500", "155834.712500", "155835.172500", "155835.632500", "155836.092500", "155836.552500", "155837.012500", "155837.472500", "155837.932500", "155838.392500", "155838.852500", "155839.312500", "155839.772500", "155840.232500", "155840.692500", "155841.152500", "155841.612500", "155842.072500", "155842.532500", "155842.992500", "155843.452500", "155843.912500", "155844.372500", "155844.832500", "155845.292500", "155845.752500", "155846.212500", "155846.672500", "155847.132500", "155847.592500", "155848.052500", "155848.512500", "155848.972500", "155849.432500", "155849.892500", "155850.352500", "155850.812500", "155851.272500", "155851.732500", "155852.192500", "155852.652500", "155853.112500", "155853.572500", "155854.032500", "155854.492500", "155854.952500", "155855.412500", "155855.872500", "155856.332500", "155856.792500", "155857.252500", "155857.712500", "155858.172500", "155858.632500", "155859.092500", "155859.552500", "155900.012500", "155900.472500", "155900.932500", "155901.392500", "155901.852500", "155902.312500", "155902.772500", "155903.232500", "155903.692500", "155904.152500", "155904.612500", "155905.072500", "155905.532500", "155905.992500", "155906.452500", "155906.912500", "155907.372500", "155907.832500", "155908.292500", "155908.752500", "155909.212500", "155909.672500", "155910.132500", "155910.592500", "155911.052500", "155911.512500", "155911.972500", "155912.432500", "155912.892500", "155913.352500", "155913.812500", "155914.272500", "155914.732500", "155915.192500", "155915.652500", "155916.112500", "155916.572500", "155917.032500", "155917.492500", "155917.952500", "155918.412500", "155918.872500", "155919.332500", "155919.792500", "155920.252500", "155920.712500", "155921.172500", "155921.632500", "155922.092500", "155922.552500", "155923.012500", "155923.472500", "155923.932500", "155924.392500", "155924.852500", "155925.312500", "155925.772500", "155926.232500", "155926.692500", "155927.152500", "155927.612500", "155928.072500", "155928.532500", "155928.992500", "155929.452500", "155929.912500", "155930.372500", "155930.832500", "155931.292500", "155931.752500", "155932.212500", "155932.672500", "155933.132500", "155933.592500", "155934.052500", "155934.512500", "155934.972500", "155935.432500", "155935.892500", "155936.352500", "155936.812500", "155937.272500", "155937.732500", "155938.192500", "155938.652500", "155939.112500", "155939.572500", "155940.032500", "155940.492500", "155940.952500", "155941.412500", "155941.872500", "155942.332500", "155942.792500", "155943.252500", "155943.712500", "155944.172500", "155944.632500", "155945.092500", "155945.552500", "155946.012500", "155946.472500", "155946.932500", "155947.392500", "155947.852500", "155948.312500", "155948.772500", "155949.232500", "155949.692500", "155950.152500", "155950.612500", "155951.072500", "155951.532500", "155951.992500", "155952.452500", "155952.912500", "155953.372500", "155953.832500", "155954.292500", "155954.752500", "155955.212500", "155955.672500", "155956.132500", "155956.592500", "155957.052500", "155957.512500", "155957.972500", "155958.432500", "155958.892500", "155959.352500", "155959.812500", "160000.272500", "160000.732500", "160001.192500", "160001.652500", "160002.112500", "160002.572500", "160003.032500", "160003.492500", "160003.952500", "160004.412500", "160004.872500", "160005.332500", "160005.792500", "160006.252500", "160006.712500", "160007.172500", "160007.632500", "160008.092500", "160008.552500", "160009.012500", "160009.472500", "160009.932500", "160010.392500", "160010.852500", "160011.312500", "160011.772500", "160012.232500", "160012.692500", "160013.152500", "160013.612500", "160014.072500", "160014.532500", "160014.992500", "160015.452500", "160015.912500", "160016.372500", "160016.832500", "160017.292500", "160017.752500", "160018.212500", "160018.672500", "160019.132500", "160019.592500", "160020.052500", "160020.512500", "160020.972500", "160021.432500", "160021.892500", "160022.352500", "160022.812500", "160023.272500", "160023.732500", "160024.192500", "160024.652500", "160025.112500", "160025.572500", "160026.032500", "160026.492500", "160026.952500", "160027.412500", "160027.872500", "160028.332500", "160028.792500", "160029.252500", "160029.712500", "160030.172500", "160030.632500", "160031.092500", "160031.552500", "160032.012500", "160032.472500", "160032.932500", "160033.392500", "160033.852500", "160034.312500", "160034.772500", "160035.232500", "160035.692500", "160036.152500", "160036.612500", "160037.072500", "160037.532500", "160037.992500", "160038.452500", "160038.912500", "160039.372500", "160039.832500", "160040.292500", "160040.752500", "160041.212500", "160041.672500", "160042.132500", "160042.592500", "160043.052500", "160043.512500", "160043.972500", "160044.432500", "160044.892500", "160045.352500", "160045.812500", "160046.272500", "160046.732500", "160047.192500", "160047.652500", "160048.112500", "160048.572500", "160049.032500", "160049.492500", "160049.952500", "160050.412500", "160050.872500", "160051.332500", "160051.792500", "160052.252500", "160052.712500", "160053.172500", "160053.632500", "160054.092500", "160054.552500", "160055.012500", "160055.472500", "160055.932500", "160056.392500", "160056.852500", "160057.312500", "160057.772500", "160058.232500", "160058.692500", "160059.152500", "160059.612500", "160100.072500", "160100.532500", "160100.992500", "160101.452500", "160101.912500", "160102.372500", "160102.832500", "160103.292500", "160103.752500", "160104.212500", "160104.672500", "160105.132500", "160105.592500", "160106.052500", "160106.512500", "160106.972500", "160107.432500", "160107.892500", "160108.352500", "160108.812500", "160109.272500", "160109.732500", "160110.192500", "160110.652500", "160111.112500", "160111.572500", "160112.032500", "160112.492500", "160112.952500", "160113.412500", "160113.872500", "160114.332500", "160114.792500", "160115.252500", "160115.712500", "160116.172500", "160116.632500", "160117.092500", "160117.552500", "160118.012500", "160118.472500", "160118.932500", "160119.392500", "160119.852500", "160120.312500", "160120.772500", "160121.232500", "160121.692500", "160122.152500", "160122.612500", "160123.072500", "160123.532500", "160123.992500", "160124.452500", "160124.912500", "160125.372500", "160125.832500", "160126.292500", "160126.752500", "160127.212500", "160127.672500", "160128.132500", "160128.592500", "160129.052500", "160129.512500", "160129.972500", "160130.432500", "160130.892500", "160131.352500", "160131.812500", "160132.272500", "160132.732500", "160133.192500", "160133.652500", "160134.112500", "160134.572500", "160135.032500", "160135.492500", "160135.952500", "160136.412500", "160136.872500", "160137.332500", "160137.792500", "160138.252500", "160138.712500", "160139.172500", "160139.632500", "160140.092500", "160140.552500", "160141.012500", "160141.472500", "160141.932500", "160142.392500", "160142.852500", "160143.312500", "160143.772500", "160144.232500", "160144.692500", "160145.152500", "160145.612500", "160146.072500", "160146.532500", "160146.992500", "160147.452500", "160147.912500", "160148.372500", "160148.832500", "160149.292500", "160149.752500", "160150.212500", "160150.672500", "160151.132500", "160151.592500", "160152.052500", "160152.512500", "160152.972500", "160153.432500", "160153.892500", "160154.352500", "160154.812500", "160155.272500", "160155.732500", "160156.192500", "160156.652500", "160157.112500", "160157.572500", "160158.032500", "160158.492500", "160158.952500", "160159.412500", "160159.872500", "160200.332500", "160200.792500", "160201.252500", "160201.712500", "160202.172500", "160202.632500", "160203.092500", "160203.552500", "160204.012500", "160204.472500", "160204.932500", "160205.392500", "160205.852500", "160206.312500", "160206.772500", "160207.232500", "160207.692500", "160208.152500", "160208.612500", "160209.072500", "160209.532500", "160209.992500", "160210.452500", "160210.912500", "160211.372500", "160211.832500", "160212.292500", "160212.752500", "160213.212500", "160213.672500", "160214.132500", "160214.592500", "160215.052500", "160215.512500", "160215.972500", "160216.432500", "160216.892500", "160217.352500", "160217.812500", "160218.272500", "160218.732500", "160219.192500", "160219.652500", "160220.112500", "160220.572500", "160221.032500", "160221.492500", "160221.952500", "160222.412500", "160222.872500", "160223.332500", "160223.792500", "160224.252500", "160224.712500", "160225.172500", "160225.632500", "160226.092500", "160226.552500", "160227.012500", "160227.472500", "160227.932500", "160228.392500", "160228.852500", "160229.312500", "160229.772500", "160230.232500", "160230.692500", "160231.152500"],
