{
  "AcquisitionMatrixPE": 82,
  "AcquisitionNumber": 1,
  "AcquisitionTime": "15:12:53.640000",
  "BandwidthPerPixelPhaseEncode": 24.888,
  "BaseResolution": 82,
  "BodyPartExamined": "BRAIN",
  "ConsistencyInfo": "N4_VE11E_LATEST_20181129",
  "ConversionSoftware": "dcm2niix",
  "ConversionSoftwareVersion": "v1.0.20201102",
  "DerivedVendorReportedEchoSpacing": 0.00049,
  "DeviceSerialNumber": "66112",
  "DwellTime": 2e-06,
  "EchoTime": 0.0272,
  "EchoTrainLength": 82,
  "EffectiveEchoSpacing": 0.00049,
  "FlipAngle": 44,
  "ImageComments": "Unaliased MB8/PE3",
  "ImageOrientationPatientDICOM": [0.99979, 0.0178514, -0.0101093, -0.0165787, 0.993296, 0.114405],
  "ImageType": [
    "ORIGINAL",
    "PRIMARY",
    "M",
    "MB",
    "ND",
    "NORM",
    "MOSAIC"
],
  "ImagingFrequency": 123.259,
  "InPlanePhaseEncodingDirectionDICOM": "COL",
  "InstitutionAddress": "Maynard 3,Hanover,NH,US,03755",
  "InstitutionName": "Dartmouth College - PBS",
  "InstitutionalDepartmentName": "Department",
  "MRAcquisitionType": "2D",
  "MagneticFieldStrength": 3,
  "Manufacturer": "Siemens",
  "ManufacturersModelName": "Prisma",
  "Modality": "MR",
  "MultibandAccelerationFactor": 8,
  "PartialFourier": 1,
  "PatientPosition": "HFS",
  "PercentPhaseFOV": 100,
  "PercentSampling": 100,
  "PhaseEncodingDirection": "j-",
  "PhaseEncodingSteps": 82,
  "PhaseResolution": 1,
  "PixelBandwidth": 3050,
  "ProcedureStepDescription": "Wager_Wager^1076_spacetop",
  "ProtocolName": "func_run-03_task-social_acq-ap-mb8",
  "PulseSequenceDetails": "%CustomerSeq%\\cmrr_mbep2d_bold",
  "ReceiveCoilActiveElements": "HEA;HEP",
  "ReceiveCoilName": "Head_32",
  "ReconMatrixPE": 82,
  "RepetitionTime": 0.46,
  "SAR": 0.0912745,
  "ScanOptions": "FS",
  "ScanningSequence": "EP",
  "SequenceName": "epfid2d1_82",
  "SequenceVariant": "SK\\SS",
  "SeriesDescription": "func_run-03_task-social_acq-ap-mb8",
  "SeriesNumber": 16,
  "ShimSetting": [4223, -7777, -7181, 414, -112, 64, 65, 75],
  "SliceThickness": 2.7,
  "SliceTiming": [0, 0.2525, 0.0625, 0.315, 0.125, 0.3775, 0.1875, 0, 0.2525, 0.0625, 0.315, 0.125, 0.3775, 0.1875, 0, 0.2525, 0.0625, 0.315, 0.125, 0.3775, 0.1875, 0, 0.2525, 0.0625, 0.315, 0.125, 0.3775, 0.1875, 0, 0.2525, 0.0625, 0.315, 0.125, 0.3775, 0.1875, 0, 0.2525, 0.0625, 0.315, 0.125, 0.3775, 0.1875, 0, 0.2525, 0.0625, 0.315, 0.125, 0.3775, 0.1875, 0, 0.2525, 0.0625, 0.315, 0.125, 0.3775, 0.1875],
  "SoftwareVersions": "syngo MR E11",
  "SpacingBetweenSlices": 2.7,
  "StationName": "AWP66112",
  "TaskName": "social",
  "TotalReadoutTime": 0.03969,
  "TxRefAmp": 234.211,
  "WipMemBlock": "95ceaf36-e255-441d-accf-6292fbef0eb7||Sequence: R016 ve11e/master r/434b28f1; Aug  7 2019 18:53:46 by eja",
  "dcmmeta_affine": [
    [-2.6823623180389404, -0.04447931796312332, -0.032626159489154816, 115.63626861572266],
    [-0.04789397120475769, 2.664940118789673, 0.30837520956993103, -111.92510986328125],
    [-0.027122387662529945, -0.3069394826889038, 2.682133436203003, -39.916603088378906],
    [0.0, 0.0, 0.0, 1.0]
],
  "dcmmeta_reorient_transform": [
    [0.0, -1.0, 0.0, 81.0],
    [1.0, 0.0, 0.0, 0.0],
    [0.0, 0.0, 1.0, 0.0],
    [0.0, 0.0, 0.0, 1.0]
],
  "dcmmeta_shape": [82, 82, 56, 872],
  "dcmmeta_slice_dim": 2,
  "dcmmeta_version": 0.6,
  "global": {
    "const": {
      "AccessionNumber": "A004542",
      "AcquisitionMatrix": [82, 0, 0, 82],
      "AngioFlag": "N",
      "BitsAllocated": 16,
      "BitsStored": 16,
      "BodyPartExamined": "BRAIN",
      "Columns": 656,
      "EchoNumbers": 1,
      "EchoTime": 27.2,
      "EchoTrainLength": 82,
      "FlipAngle": 44.0,
      "HighBit": 15,
      "ImageOrientationPatient": [0.99978954329714, 0.01785138952582, -0.0101092534687, -0.0165786545696, 0.99329588244969, 0.11440471197091],
      "ImagePositionPatient": [-869.10584624859, -882.51846855273, -145.08620760496],
      "ImageType": [
        "ORIGINAL",
        "PRIMARY",
        "M",
        "MB",
        "ND",
        "NORM",
        "MOSAIC"
],
      "ImagedNucleus": "1H",
      "ImagingFrequency": 123.259058,
      "InPlanePhaseEncodingDirection": "COL",
      "MRAcquisitionType": "2D",
      "MagneticFieldStrength": 3.0,
      "Manufacturer": "SIEMENS",
      "ManufacturerModelName": "Prisma",
      "Modality": "MR",
      "NumberOfAverages": 1.0,
      "NumberOfPhaseEncodingSteps": 82,
      "PercentPhaseFieldOfView": 100.0,
      "PercentSampling": 100.0,
      "PerformedProcedureStepStartTime": "142410.627000",
      "PhotometricInterpretation": "MONOCHROME2",
      "PixelBandwidth": 3050.0,
      "PixelRepresentation": 0,
      "PixelSpacing": [2.6829268932343, 2.6829268932343],
      "ProtocolName": "func_run-03_task-social_acq-ap-mb8",
      "RepetitionTime": 460.0,
      "Rows": 656,
      "SAR": 0.09127450599317,
      "SamplesPerPixel": 1,
      "ScanOptions": "FS",
      "ScanningSequence": "EP",
      "SequenceName": "epfid2d1_82",
      "SequenceVariant": [
        "SK",
        "SS"
],
      "SeriesDescription": "func_run-03_task-social_acq-ap-mb8",
      "SeriesNumber": 16,
      "SeriesTime": "151311.823000",
      "SliceLocation": -53.833096088248,
      "SliceThickness": 2.7000000476837,
      "SmallestImagePixelValue": 0,
      "SoftwareVersions": "syngo MR E11",
      "SpacingBetweenSlices": 2.7000000219709,
      "SpecificCharacterSet": "ISO_IR 100",
      "StudyID": "1",
      "StudyTime": "142410.567000",
      "TransmitCoilName": "Body",
      "VariableFlipAngleFlag": "N",
      "WindowCenterWidthExplanation": "Algo1"
    },
    "slices": {}
  },
  "time": {
    "samples": {
      "AcquisitionNumber": [1, 2, 3, 4, 5, 6, 7, 8, 9, 10, 11, 12, 13, 14, 15, 16, 17, 18, 19, 20, 21, 22, 23, 24, 25, 26, 27, 28, 29, 30, 31, 32, 33, 34, 35, 36, 37, 38, 39, 40, 41, 42, 43, 44, 45, 46, 47, 48, 49, 50, 51, 52, 53, 54, 55, 56, 57, 58, 59, 60, 61, 62, 63, 64, 65, 66, 67, 68, 69, 70, 71, 72, 73, 74, 75, 76, 77, 78, 79, 80, 81, 82, 83, 84, 85, 86, 87, 88, 89, 90, 91, 92, 93, 94, 95, 96, 97, 98, 99, 100, 101, 102, 103, 104, 105, 106, 107, 108, 109, 110, 111, 112, 113, 114, 115, 116, 117, 118, 119, 120, 121, 122, 123, 124, 125, 126, 127, 128, 129, 130, 131, 132, 133, 134, 135, 136, 137, 138, 139, 140, 141, 142, 143, 144, 145, 146, 147, 148, 149, 150, 151, 152, 153, 154, 155, 156, 157, 158, 159, 160, 161, 162, 163, 164, 165, 166, 167, 168, 169, 170, 171, 172, 173, 174, 175, 176, 177, 178, 179, 180, 181, 182, 183, 184, 185, 186, 187, 188, 189, 190, 191, 192, 193, 194, 195, 196, 197, 198, 199, 200, 201, 202, 203, 204, 205, 206, 207, 208, 209, 210, 211, 212, 213, 214, 215, 216, 217, 218, 219, 220, 221, 222, 223, 224, 225, 226, 227, 228, 229, 230, 231, 232, 233, 234, 235, 236, 237, 238, 239, 240, 241, 242, 243, 244, 245, 246, 247, 248, 249, 250, 251, 252, 253, 254, 255, 256, 257, 258, 259, 260, 261, 262, 263, 264, 265, 266, 267, 268, 269, 270, 271, 272, 273, 274, 275, 276, 277, 278, 279, 280, 281, 282, 283, 284, 285, 286, 287, 288, 289, 290, 291, 292, 293, 294, 295, 296, 297, 298, 299, 300, 301, 302, 303, 304, 305, 306, 307, 308, 309, 310, 311, 312, 313, 314, 315, 316, 317, 318, 319, 320, 321, 322, 323, 324, 325, 326, 327, 328, 329, 330, 331, 332, 333, 334, 335, 336, 337, 338, 339, 340, 341, 342, 343, 344, 345, 346, 347, 348, 349, 350, 351, 352, 353, 354, 355, 356, 357, 358, 359, 360, 361, 362, 363, 364, 365, 366, 367, 368, 369, 370, 371, 372, 373, 374, 375, 376, 377, 378, 379, 380, 381, 382, 383, 384, 385, 386, 387, 388, 389, 390, 391, 392, 393, 394, 395, 396, 397, 398, 399, 400, 401, 402, 403, 404, 405, 406, 407, 408, 409, 410, 411, 412, 413, 414, 415, 416, 417, 418, 419, 420, 421, 422, 423, 424, 425, 426, 427, 428, 429, 430, 431, 432, 433, 434, 435, 436, 437, 438, 439, 440, 441, 442, 443, 444, 445, 446, 447, 448, 449, 450, 451, 452, 453, 454, 455, 456, 457, 458, 459, 460, 461, 462, 463, 464, 465, 466, 467, 468, 469, 470, 471, 472, 473, 474, 475, 476, 477, 478, 479, 480, 481, 482, 483, 484, 485, 486, 487, 488, 489, 490, 491, 492, 493, 494, 495, 496, 497, 498, 499, 500, 501, 502, 503, 504, 505, 506, 507, 508, 509, 510, 511, 512, 513, 514, 515, 516, 517, 518, 519, 520, 521, 522, 523, 524, 525, 526, 527, 528, 529, 530, 531, 532, 533, 534, 535, 536, 537, 538, 539, 540, 541, 542, 543, 544, 545, 546, 547, 548, 549, 550, 551, 552, 553, 554, 555, 556, 557, 558, 559, 560, 561, 562, 563, 564, 565, 566, 567, 568, 569, 570, 571, 572, 573, 574, 575, 576, 577, 578, 579, 580, 581, 582, 583, 584, 585, 586, 587, 588, 589, 590, 591, 592, 593, 594, 595, 596, 597, 598, 599, 600, 601, 602, 603, 604, 605, 606, 607, 608, 609, 610, 611, 612, 613, 614, 615, 616, 617, 618, 619, 620, 621, 622, 623, 624, 625, 626, 627, 628, 629, 630, 631, 632, 633, 634, 635, 636, 637, 638, 639, 640, 641, 642, 643, 644, 645, 646, 647, 648, 649, 650, 651, 652, 653, 654, 655, 656, 657, 658, 659, 660, 661, 662, 663, 664, 665, 666, 667, 668, 669, 670, 671, 672, 673, 674, 675, 676, 677, 678, 679, 680, 681, 682, 683, 684, 685, 686, 687, 688, 689, 690, 691, 692, 693, 694, 695, 696, 697, 698, 699, 700, 701, 702, 703, 704, 705, 706, 707, 708, 709, 710, 711, 712, 713, 714, 715, 716, 717, 718, 719, 720, 721, 722, 723, 724, 725, 726, 727, 728, 729, 730, 731, 732, 733, 734, 735, 736, 737, 738, 739, 740, 741, 742, 743, 744, 745, 746, 747, 748, 749, 750, 751, 752, 753, 754, 755, 756, 757, 758, 759, 760, 761, 762, 763, 764, 765, 766, 767, 768, 769, 770, 771, 772, 773, 774, 775, 776, 777, 778, 779, 780, 781, 782, 783, 784, 785, 786, 787, 788, 789, 790, 791, 792, 793, 794, 795, 796, 797, 798, 799, 800, 801, 802, 803, 804, 805, 806, 807, 808, 809, 810, 811, 812, 813, 814, 815, 816, 817, 818, 819, 820, 821, 822, 823, 824, 825, 826, 827, 828, 829, 830, 831, 832, 833, 834, 835, 836, 837, 838, 839, 840, 841, 842, 843, 844, 845, 846, 847, 848, 849, 850, 851, 852, 853, 854, 855, 856, 857, 858, 859, 860, 861, 862, 863, 864, 865, 866, 867, 868, 869, 870, 871, 872],
      "AcquisitionTime": ["151253.640000", "151254.100000", "151254.560000", "151255.020000", "151255.480000", "151255.940000", "151256.400000", "151256.860000", "151257.320000", "151257.780000", "151258.240000", "151258.700000", "151259.160000", "151259.620000", "151300.080000", "151300.540000", "151301.000000", "151301.460000", "151301.920000", "151302.380000", "151302.840000", "151303.300000", "151303.760000", "151304.220000", "151304.680000", "151305.140000", "151305.600000", "151306.060000", "151306.520000", "151306.980000", "151307.440000", "151307.900000", "151308.360000", "151308.820000", "151309.280000", "151309.740000", "151310.200000", "151310.660000", "151311.120000", "151311.580000", "151312.040000", "151312.500000", "151312.960000", "151313.420000", "151313.880000", "151314.340000", "151314.800000", "151315.260000", "151315.720000", "151316.180000", "151316.640000", "151317.100000", "151317.560000", "151318.020000", "151318.480000", "151318.940000", "151319.400000", "151319.860000", "151320.320000", "151320.780000", "151321.240000", "151321.700000", "151322.160000", "151322.620000", "151323.080000", "151323.540000", "151324.000000", "151324.460000", "151324.920000", "151325.380000", "151325.840000", "151326.300000", "151326.760000", "151327.220000", "151327.680000", "151328.140000", "151328.600000", "151329.060000", "151329.520000", "151329.980000", "151330.440000", "151330.900000", "151331.360000", "151331.820000", "151332.280000", "151332.740000", "151333.200000", "151333.660000", "151334.120000", "151334.580000", "151335.040000", "151335.500000", "151335.960000", "151336.420000", "151336.880000", "151337.340000", "151337.800000", "151338.260000", "151338.720000", "151339.180000", "151339.640000", "151340.100000", "151340.560000", "151341.020000", "151341.480000", "151341.940000", "151342.400000", "151342.860000", "151343.320000", "151343.780000", "151344.240000", "151344.700000", "151345.160000", "151345.620000", "151346.080000", "151346.540000", "151347.000000", "151347.460000", "151347.920000", "151348.380000", "151348.840000", "151349.300000", "151349.760000", "151350.220000", "151350.680000", "151351.140000", "151351.600000", "151352.060000", "151352.520000", "151352.980000", "151353.440000", "151353.900000", "151354.360000", "151354.820000", "151355.280000", "151355.740000", "151356.200000", "151356.660000", "151357.120000", "151357.580000", "151358.040000", "151358.500000", "151358.960000", "151359.420000", "151359.880000", "151400.340000", "151400.800000", "151401.260000", "151401.720000", "151402.180000", "151402.640000", "151403.100000", "151403.560000", "151404.020000", "151404.480000", "151404.940000", "151405.400000", "151405.860000", "151406.320000", "151406.780000", "151407.240000", "151407.700000", "151408.160000", "151408.620000", "151409.080000", "151409.540000", "151410.000000", "151410.460000", "151410.920000", "151411.380000", "151411.840000", "151412.300000", "151412.760000", "151413.220000", "151413.680000", "151414.140000", "151414.600000", "151415.060000", "151415.520000", "151415.980000", "151416.440000", "151416.900000", "151417.360000", "151417.820000", "151418.280000", "151418.740000", "151419.200000", "151419.660000", "151420.120000", "151420.580000", "151421.040000", "151421.500000", "151421.960000", "151422.420000", "151422.880000", "151423.340000", "151423.800000", "151424.260000", "151424.720000", "151425.180000", "151425.640000", "151426.100000", "151426.560000", "151427.020000", "151427.480000", "151427.940000", "151428.400000", "151428.860000", "151429.320000", "151429.780000", "151430.240000", "151430.700000", "151431.160000", "151431.620000", "151432.080000", "151432.540000", "151433.000000", "151433.460000", "151433.920000", "151434.380000", "151434.840000", "151435.300000", "151435.760000", "151436.220000", "151436.680000", "151437.140000", "151437.600000", "151438.060000", "151438.520000", "151438.980000", "151439.440000", "151439.900000", "151440.360000", "151440.820000", "151441.280000", "151441.740000", "151442.200000", "151442.660000", "151443.120000", "151443.580000", "151444.040000", "151444.500000", "151444.960000", "151445.420000", "151445.880000", "151446.340000", "151446.800000", "151447.260000", "151447.720000", "151448.180000", "151448.640000", "151449.100000", "151449.560000", "151450.020000", "151450.480000", "151450.940000", "151451.400000", "151451.860000", "151452.320000", "151452.780000", "151453.240000", "151453.700000", "151454.160000", "151454.620000", "151455.080000", "151455.540000", "151456.000000", "151456.460000", "151456.920000", "151457.380000", "151457.840000", "151458.300000", "151458.760000", "151459.220000", "151459.680000", "151500.140000", "151500.600000", "151501.060000", "151501.520000", "151501.980000", "151502.440000", "151502.900000", "151503.360000", "151503.820000", "151504.280000", "151504.740000", "151505.200000", "151505.660000", "151506.120000", "151506.580000", "151507.040000", "151507.500000", "151507.960000", "151508.420000", "151508.880000", "151509.340000", "151509.800000", "151510.260000", "151510.720000", "151511.180000", "151511.640000", "151512.100000", "151512.560000", "151513.020000", "151513.480000", "151513.940000", "151514.400000", "151514.860000", "151515.320000", "151515.780000", "151516.240000", "151516.700000", "151517.160000", "151517.620000", "151518.080000", "151518.540000", "151519.000000", "151519.460000", "151519.920000", "151520.380000", "151520.840000", "151521.300000", "151521.760000", "151522.220000", "151522.680000", "151523.140000", "151523.600000", "151524.060000", "151524.520000", "151524.980000", "151525.440000", "151525.900000", "151526.360000", "151526.820000", "151527.280000", "151527.740000", "151528.200000", "151528.660000", "151529.120000", "151529.580000", "151530.040000", "151530.500000", "151530.960000", "151531.420000", "151531.880000", "151532.340000", "151532.800000", "151533.260000", "151533.720000", "151534.180000", "151534.640000", "151535.100000", "151535.560000", "151536.020000", "151536.480000", "151536.940000", "151537.400000", "151537.860000", "151538.320000", "151538.780000", "151539.240000", "151539.700000", "151540.160000", "151540.620000", "151541.080000", "151541.540000", "151542.000000", "151542.460000", "151542.920000", "151543.380000", "151543.840000", "151544.300000", "151544.760000", "151545.220000", "151545.680000", "151546.140000", "151546.600000", "151547.060000", "151547.520000", "151547.980000", "151548.440000", "151548.900000", "151549.360000", "151549.820000", "151550.280000", "151550.740000", "151551.200000", "151551.660000", "151552.120000", "151552.580000", "151553.040000", "151553.500000", "151553.960000", "151554.420000", "151554.880000", "151555.340000", "151555.800000", "151556.260000", "151556.720000", "151557.180000", "151557.640000", "151558.100000", "151558.560000", "151559.020000", "151559.480000", "151559.940000", "151600.400000", "151600.860000", "151601.320000", "151601.780000", "151602.240000", "151602.700000", "151603.160000", "151603.620000", "151604.080000", "151604.540000", "151605.000000", "151605.460000", "151605.920000", "151606.380000", "151606.840000", "151607.300000", "151607.760000", "151608.220000", "151608.680000", "151609.140000", "151609.600000", "151610.060000", "151610.520000", "151610.980000", "151611.440000", "151611.900000", "151612.360000", "151612.820000", "151613.280000", "151613.740000", "151614.200000", "151614.660000", "151615.120000", "151615.580000", "151616.040000", "151616.500000", "151616.960000", "151617.420000", "151617.880000", "151618.340000", "151618.800000", "151619.260000", "151619.720000", "151620.180000", "151620.640000", "151621.100000", "151621.560000", "151622.020000", "151622.480000", "151622.940000", "151623.400000", "151623.860000", "151624.320000", "151624.780000", "151625.240000", "151625.700000", "151626.160000", "151626.620000", "151627.080000", "151627.540000", "151628.000000", "151628.460000", "151628.920000", "151629.380000", "151629.840000", "151630.300000", "151630.760000", "151631.220000", "151631.680000", "151632.140000", "151632.600000", "151633.060000", "151633.520000", "151633.980000", "151634.440000", "151634.900000", "151635.360000", "151635.820000", "151636.280000", "151636.740000", "151637.200000", "151637.660000", "151638.120000", "151638.580000", "151639.040000", "151639.500000", "151639.960000", "151640.420000", "151640.880000", "151641.340000", "151641.800000", "151642.260000", "151642.720000", "151643.180000", "151643.640000", "151644.100000", "151644.560000", "151645.020000", "151645.480000", "151645.940000", "151646.400000", "151646.860000", "151647.320000", "151647.780000", "151648.240000", "151648.700000", "151649.160000", "151649.620000", "151650.080000", "151650.540000", "151651.000000", "151651.460000", "151651.920000", "151652.380000", "151652.840000", "151653.300000", "151653.760000", "151654.220000", "151654.680000", "151655.140000", "151655.600000", "151656.060000", "151656.520000", "151656.980000", "151657.440000", "151657.900000", "151658.360000", "151658.820000", "151659.280000", "151659.740000", "151700.200000", "151700.660000", "151701.120000", "151701.580000", "151702.040000", "151702.500000", "151702.960000", "151703.420000", "151703.880000", "151704.340000", "151704.800000", "151705.260000", "151705.720000", "151706.180000", "151706.640000", "151707.100000", "151707.560000", "151708.020000", "151708.480000", "151708.940000", "151709.400000", "151709.860000", "151710.320000", "151710.780000", "151711.240000", "151711.700000", "151712.160000", "151712.620000", "151713.080000", "151713.540000", "151714.000000", "151714.460000", "151714.920000", "151715.380000", "151715.840000", "151716.300000", "151716.760000", "151717.220000", "151717.680000", "151718.140000", "151718.600000", "151719.060000", "151719.520000", "151719.980000", "151720.440000", "151720.900000", "151721.360000", "151721.820000", "151722.280000", "151722.740000", "151723.200000", "151723.660000", "151724.120000", "151724.580000", "151725.040000", "151725.500000", "151725.960000", "151726.420000", "151726.880000", "151727.340000", "151727.800000", "151728.260000", "151728.720000", "151729.180000", "151729.640000", "151730.100000", "151730.560000", "151731.020000", "151731.480000", "151731.940000", "151732.400000", "151732.860000", "151733.320000", "151733.780000", "151734.240000", "151734.700000", "151735.160000", "151735.620000", "151736.080000", "151736.540000", "151737.000000", "151737.460000", "151737.920000", "151738.380000", "151738.840000", "151739.300000", "151739.760000", "151740.220000", "151740.680000", "151741.140000", "151741.600000", "151742.060000", "151742.520000", "151742.980000", "151743.440000", "151743.900000", "151744.360000", "151744.820000", "151745.280000", "151745.740000", "151746.200000", "151746.660000", "151747.120000", "151747.580000", "151748.040000", "151748.500000", "151748.960000", "151749.420000", "151749.880000", "151750.340000", "151750.800000", "151751.260000", "151751.720000", "151752.180000", "151752.640000", "151753.100000", "151753.560000", "151754.020000", "151754.480000", "151754.940000", "151755.400000", "151755.860000", "151756.320000", "151756.780000", "151757.240000", "151757.700000", "151758.160000", "151758.620000", "151759.080000", "151759.540000", "151800.000000", "151800.460000", "151800.920000", "151801.380000", "151801.840000", "151802.300000", "151802.760000", "151803.220000", "151803.680000", "151804.140000", "151804.600000", "151805.060000", "151805.520000", "151805.980000", "151806.440000", "151806.900000", "151807.360000", "151807.820000", "151808.280000", "151808.740000", "151809.200000", "151809.660000", "151810.120000", "151810.580000", "151811.040000", "151811.500000", "151811.960000", "151812.420000", "151812.880000", "151813.340000", "151813.800000", "151814.260000", "151814.720000", "151815.180000", "151815.640000", "151816.100000", "151816.560000", "151817.020000", "151817.480000", "151817.940000", "151818.400000", "151818.860000", "151819.320000", "151819.780000", "151820.240000", "151820.700000", "151821.160000", "151821.620000", "151822.080000", "151822.540000", "151823.000000", "151823.460000", "151823.920000", "151824.380000", "151824.840000", "151825.300000", "151825.760000", "151826.220000", "151826.680000", "151827.140000", "151827.600000", "151828.060000", "151828.520000", "151828.980000", "151829.440000", "151829.900000", "151830.360000", "151830.820000", "151831.280000", "151831.740000", "151832.200000", "151832.660000", "151833.120000", "151833.580000", "151834.040000", "151834.500000", "151834.960000", "151835.420000", "151835.880000", "151836.340000", "151836.800000", "151837.260000", "151837.720000", "151838.180000", "151838.640000", "151839.100000", "151839.560000", "151840.020000", "151840.480000", "151840.940000", "151841.400000", "151841.860000", "151842.320000", "151842.780000", "151843.240000", "151843.700000", "151844.160000", "151844.620000", "151845.080000", "151845.540000", "151846.000000", "151846.460000", "151846.920000", "151847.380000", "151847.840000", "151848.300000", "151848.760000", "151849.220000", "151849.680000", "151850.140000", "151850.600000", "151851.060000", "151851.520000", "151851.980000", "151852.440000", "151852.900000", "151853.360000", "151853.820000", "151854.280000", "151854.740000", "151855.200000", "151855.660000", "151856.120000", "151856.580000", "151857.040000", "151857.500000", "151857.960000", "151858.420000", "151858.880000", "151859.340000", "151859.800000", "151900.260000", "151900.720000", "151901.180000", "151901.640000", "151902.100000", "151902.560000", "151903.020000", "151903.480000", "151903.940000", "151904.400000", "151904.860000", "151905.320000", "151905.780000", "151906.240000", "151906.700000", "151907.160000", "151907.620000", "151908.080000", "151908.540000", "151909.000000", "151909.460000", "151909.920000", "151910.380000", "151910.840000", "151911.300000", "151911.760000", "151912.220000", "151912.680000", "151913.140000", "151913.600000", "151914.060000", "151914.520000", "151914.980000", "151915.440000", "151915.900000", "151916.360000", "151916.820000", "151917.280000", "151917.740000", "151918.200000", "151918.660000", "151919.120000", "151919.580000", "151920.040000", "151920.500000", "151920.960000", "151921.420000", "151921.880000", "151922.340000", "151922.800000", "151923.260000", "151923.720000", "151924.180000", "151924.640000", "151925.100000", "151925.560000", "151926.020000", "151926.480000", "151926.940000", "151927.400000", "151927.860000", "151928.320000", "151928.780000", "151929.240000", "151929.700000", "151930.160000", "151930.620000", "151931.080000", "151931.540000", "151932.000000", "151932.460000", "151932.920000", "151933.380000", "151933.840000", "151934.300000"],
