{
  "AcquisitionMatrixPE": 82,
  "AcquisitionNumber": 1,
  "AcquisitionTime": "19:59:9.865000",
  "BandwidthPerPixelPhaseEncode": 24.888,
  "BaseResolution": 82,
  "BodyPartExamined": "BRAIN",
  "ConsistencyInfo": "N4_VE11E_LATEST_20181129",
  "ConversionSoftware": "dcm2niix",
  "ConversionSoftwareVersion": "v1.0.20201102",
  "DerivedVendorReportedEchoSpacing": 0.00049,
  "DeviceSerialNumber": "66112",
  "DwellTime": 2e-06,
  "EchoTime": 0.0272,
  "EchoTrainLength": 82,
  "EffectiveEchoSpacing": 0.00049,
  "FlipAngle": 44,
  "ImageComments": "Unaliased MB8/PE3",
  "ImageOrientationPatientDICOM": [0.999262, -0.030937, 0.0227707, 0.0310539, 0.999506, -0.0047972],
  "ImageType": [
    "ORIGINAL",
    "PRIMARY",
    "M",
    "MB",
    "ND",
    "NORM",
    "MOSAIC"
],
  "ImagingFrequency": 123.259,
  "InPlanePhaseEncodingDirectionDICOM": "COL",
  "InstitutionAddress": "Maynard 3,Hanover,NH,US,03755",
  "InstitutionName": "Dartmouth College - PBS",
  "InstitutionalDepartmentName": "Department",
  "MRAcquisitionType": "2D",
  "MagneticFieldStrength": 3,
  "Manufacturer": "Siemens",
  "ManufacturersModelName": "Prisma",
  "Modality": "MR",
  "MultibandAccelerationFactor": 8,
  "PartialFourier": 1,
  "PatientPosition": "HFS",
  "PercentPhaseFOV": 100,
  "PercentSampling": 100,
  "PhaseEncodingDirection": "j-",
  "PhaseEncodingSteps": 82,
  "PhaseResolution": 1,
  "PixelBandwidth": 3050,
  "ProcedureStepDescription": "Wager_Wager^1076_spacetop",
  "ProtocolName": "func_run-01_task-social_acq-ap-mb8",
  "PulseSequenceDetails": "%CustomerSeq%\\cmrr_mbep2d_bold",
  "ReceiveCoilActiveElements": "HEA;HEP",
  "ReceiveCoilName": "Head_32",
  "ReconMatrixPE": 82,
  "RepetitionTime": 0.46,
  "SAR": 0.100479,
  "ScanOptions": "FS",
  "ScanningSequence": "EP",
  "SequenceName": "epfid2d1_82",
  "SequenceVariant": "SK\\SS",
  "SeriesDescription": "func_run-01_task-social_acq-ap-mb8",
  "SeriesNumber": 12,
  "ShimSetting": [4217, -7724, -7259, 384, -147, 78, -21, 70],
  "SliceThickness": 2.7,
  "SliceTiming": [0, 0.25, 0.0625, 0.3125, 0.125, 0.375, 0.1875, 0, 0.25, 0.0625, 0.3125, 0.125, 0.375, 0.1875, 0, 0.25, 0.0625, 0.3125, 0.125, 0.375, 0.1875, 0, 0.25, 0.0625, 0.3125, 0.125, 0.375, 0.1875, 0, 0.25, 0.0625, 0.3125, 0.125, 0.375, 0.1875, 0, 0.25, 0.0625, 0.3125, 0.125, 0.375, 0.1875, 0, 0.25, 0.0625, 0.3125, 0.125, 0.375, 0.1875, 0, 0.25, 0.0625, 0.3125, 0.125, 0.375, 0.1875],
  "SoftwareVersions": "syngo MR E11",
  "SpacingBetweenSlices": 2.7,
  "StationName": "AWP66112",
  "TaskName": "social",
  "TotalReadoutTime": 0.03969,
  "TxRefAmp": 263.911,
  "WipMemBlock": "b7cccab1-fa02-4f31-8d10-f90311e8b01d||Sequence: R016 ve11e/master r/434b28f1; Aug  7 2019 18:53:46 by eja",
  "dcmmeta_affine": [
    [-2.6809465885162354, 0.08331534266471863, 0.061049848794937134, 107.35619354248047],
    [0.0830017626285553, 2.6816020011901855, -0.01485210470855236, -100.31358337402344],
    [0.06109214946627617, 0.012870539911091328, 2.6992688179016113, -69.64543151855469],
    [0.0, 0.0, 0.0, 1.0]
],
  "dcmmeta_reorient_transform": [
    [0.0, -1.0, 0.0, 81.0],
    [1.0, 0.0, 0.0, 0.0],
    [0.0, 0.0, 1.0, 0.0],
    [0.0, 0.0, 0.0, 1.0]
],
  "dcmmeta_shape": [82, 82, 56, 872],
  "dcmmeta_slice_dim": 2,
  "dcmmeta_version": 0.6,
  "global": {
    "const": {
      "AccessionNumber": "A004539",
      "AcquisitionMatrix": [82, 0, 0, 82],
      "AngioFlag": "N",
      "BitsAllocated": 16,
      "BitsStored": 16,
      "BodyPartExamined": "BRAIN",
      "Columns": 656,
      "EchoNumbers": 1,
      "EchoTime": 27.2,
      "EchoTrainLength": 82,
      "FlipAngle": 44.0,
      "HighBit": 15,
      "ImageOrientationPatient": [0.99926192539221, -0.0309370202857, 0.0227707100747, 0.03105389932709, 0.99950619918002, -0.0047972009857],
      "ImagePositionPatient": [-907.44793733721, -862.69446773284, -82.442519979399],
      "ImageType": [
        "ORIGINAL",
        "PRIMARY",
        "M",
        "MB",
        "ND",
        "NORM",
        "MOSAIC"
],
      "ImagedNucleus": "1H",
      "ImagingFrequency": 123.259079,
      "InPlanePhaseEncodingDirection": "COL",
      "MRAcquisitionType": "2D",
      "MagneticFieldStrength": 3.0,
      "Manufacturer": "SIEMENS",
      "ManufacturerModelName": "Prisma",
      "Modality": "MR",
      "NumberOfAverages": 1.0,
      "NumberOfPhaseEncodingSteps": 82,
      "PercentPhaseFieldOfView": 100.0,
      "PercentSampling": 100.0,
      "PerformedProcedureStepStartTime": "192545.640000",
      "PhotometricInterpretation": "MONOCHROME2",
      "PixelBandwidth": 3050.0,
      "PixelRepresentation": 0,
      "PixelSpacing": [2.6829268932343, 2.6829268932343],
      "ProtocolName": "func_run-01_task-social_acq-ap-mb8",
      "RepetitionTime": 460.0,
      "Rows": 656,
      "SAR": 0.10047927041165,
      "SamplesPerPixel": 1,
      "ScanOptions": "FS",
      "ScanningSequence": "EP",
      "SequenceName": "epfid2d1_82",
      "SequenceVariant": [
        "SK",
        "SS"
],
      "SeriesDescription": "func_run-01_task-social_acq-ap-mb8",
      "SeriesNumber": 12,
      "SeriesTime": "195922.836000",
      "SliceLocation": -66.647332026695,
      "SliceThickness": 2.7000000476837,
      "SmallestImagePixelValue": 0,
      "SoftwareVersions": "syngo MR E11",
      "SpacingBetweenSlices": 2.699999975476,
      "SpecificCharacterSet": "ISO_IR 100",
      "StudyID": "1",
      "StudyTime": "192545.585000",
      "TransmitCoilName": "Body",
      "VariableFlipAngleFlag": "N",
      "WindowCenterWidthExplanation": "Algo1"
    },
    "slices": {}
  },
  "time": {
    "samples": {
      "AcquisitionNumber": [1, 2, 3, 4, 5, 6, 7, 8, 9, 10, 11, 12, 13, 14, 15, 16, 17, 18, 19, 20, 21, 22, 23, 24, 25, 26, 27, 28, 29, 30, 31, 32, 33, 34, 35, 36, 37, 38, 39, 40, 41, 42, 43, 44, 45, 46, 47, 48, 49, 50, 51, 52, 53, 54, 55, 56, 57, 58, 59, 60, 61, 62, 63, 64, 65, 66, 67, 68, 69, 70, 71, 72, 73, 74, 75, 76, 77, 78, 79, 80, 81, 82, 83, 84, 85, 86, 87, 88, 89, 90, 91, 92, 93, 94, 95, 96, 97, 98, 99, 100, 101, 102, 103, 104, 105, 106, 107, 108, 109, 110, 111, 112, 113, 114, 115, 116, 117, 118, 119, 120, 121, 122, 123, 124, 125, 126, 127, 128, 129, 130, 131, 132, 133, 134, 135, 136, 137, 138, 139, 140, 141, 142, 143, 144, 145, 146, 147, 148, 149, 150, 151, 152, 153, 154, 155, 156, 157, 158, 159, 160, 161, 162, 163, 164, 165, 166, 167, 168, 169, 170, 171, 172, 173, 174, 175, 176, 177, 178, 179, 180, 181, 182, 183, 184, 185, 186, 187, 188, 189, 190, 191, 192, 193, 194, 195, 196, 197, 198, 199, 200, 201, 202, 203, 204, 205, 206, 207, 208, 209, 210, 211, 212, 213, 214, 215, 216, 217, 218, 219, 220, 221, 222, 223, 224, 225, 226, 227, 228, 229, 230, 231, 232, 233, 234, 235, 236, 237, 238, 239, 240, 241, 242, 243, 244, 245, 246, 247, 248, 249, 250, 251, 252, 253, 254, 255, 256, 257, 258, 259, 260, 261, 262, 263, 264, 265, 266, 267, 268, 269, 270, 271, 272, 273, 274, 275, 276, 277, 278, 279, 280, 281, 282, 283, 284, 285, 286, 287, 288, 289, 290, 291, 292, 293, 294, 295, 296, 297, 298, 299, 300, 301, 302, 303, 304, 305, 306, 307, 308, 309, 310, 311, 312, 313, 314, 315, 316, 317, 318, 319, 320, 321, 322, 323, 324, 325, 326, 327, 328, 329, 330, 331, 332, 333, 334, 335, 336, 337, 338, 339, 340, 341, 342, 343, 344, 345, 346, 347, 348, 349, 350, 351, 352, 353, 354, 355, 356, 357, 358, 359, 360, 361, 362, 363, 364, 365, 366, 367, 368, 369, 370, 371, 372, 373, 374, 375, 376, 377, 378, 379, 380, 381, 382, 383, 384, 385, 386, 387, 388, 389, 390, 391, 392, 393, 394, 395, 396, 397, 398, 399, 400, 401, 402, 403, 404, 405, 406, 407, 408, 409, 410, 411, 412, 413, 414, 415, 416, 417, 418, 419, 420, 421, 422, 423, 424, 425, 426, 427, 428, 429, 430, 431, 432, 433, 434, 435, 436, 437, 438, 439, 440, 441, 442, 443, 444, 445, 446, 447, 448, 449, 450, 451, 452, 453, 454, 455, 456, 457, 458, 459, 460, 461, 462, 463, 464, 465, 466, 467, 468, 469, 470, 471, 472, 473, 474, 475, 476, 477, 478, 479, 480, 481, 482, 483, 484, 485, 486, 487, 488, 489, 490, 491, 492, 493, 494, 495, 496, 497, 498, 499, 500, 501, 502, 503, 504, 505, 506, 507, 508, 509, 510, 511, 512, 513, 514, 515, 516, 517, 518, 519, 520, 521, 522, 523, 524, 525, 526, 527, 528, 529, 530, 531, 532, 533, 534, 535, 536, 537, 538, 539, 540, 541, 542, 543, 544, 545, 546, 547, 548, 549, 550, 551, 552, 553, 554, 555, 556, 557, 558, 559, 560, 561, 562, 563, 564, 565, 566, 567, 568, 569, 570, 571, 572, 573, 574, 575, 576, 577, 578, 579, 580, 581, 582, 583, 584, 585, 586, 587, 588, 589, 590, 591, 592, 593, 594, 595, 596, 597, 598, 599, 600, 601, 602, 603, 604, 605, 606, 607, 608, 609, 610, 611, 612, 613, 614, 615, 616, 617, 618, 619, 620, 621, 622, 623, 624, 625, 626, 627, 628, 629, 630, 631, 632, 633, 634, 635, 636, 637, 638, 639, 640, 641, 642, 643, 644, 645, 646, 647, 648, 649, 650, 651, 652, 653, 654, 655, 656, 657, 658, 659, 660, 661, 662, 663, 664, 665, 666, 667, 668, 669, 670, 671, 672, 673, 674, 675, 676, 677, 678, 679, 680, 681, 682, 683, 684, 685, 686, 687, 688, 689, 690, 691, 692, 693, 694, 695, 696, 697, 698, 699, 700, 701, 702, 703, 704, 705, 706, 707, 708, 709, 710, 711, 712, 713, 714, 715, 716, 717, 718, 719, 720, 721, 722, 723, 724, 725, 726, 727, 728, 729, 730, 731, 732, 733, 734, 735, 736, 737, 738, 739, 740, 741, 742, 743, 744, 745, 746, 747, 748, 749, 750, 751, 752, 753, 754, 755, 756, 757, 758, 759, 760, 761, 762, 763, 764, 765, 766, 767, 768, 769, 770, 771, 772, 773, 774, 775, 776, 777, 778, 779, 780, 781, 782, 783, 784, 785, 786, 787, 788, 789, 790, 791, 792, 793, 794, 795, 796, 797, 798, 799, 800, 801, 802, 803, 804, 805, 806, 807, 808, 809, 810, 811, 812, 813, 814, 815, 816, 817, 818, 819, 820, 821, 822, 823, 824, 825, 826, 827, 828, 829, 830, 831, 832, 833, 834, 835, 836, 837, 838, 839, 840, 841, 842, 843, 844, 845, 846, 847, 848, 849, 850, 851, 852, 853, 854, 855, 856, 857, 858, 859, 860, 861, 862, 863, 864, 865, 866, 867, 868, 869, 870, 871, 872],
      "AcquisitionTime": ["195909.865000", "195910.325000", "195910.785000", "195911.245000", "195911.705000", "195912.165000", "195912.625000", "195913.085000", "195913.545000", "195914.005000", "195914.465000", "195914.925000", "195915.385000", "195915.845000", "195916.305000", "195916.765000", "195917.225000", "195917.685000", "195918.145000", "195918.605000", "195919.065000", "195919.525000", "195919.985000", "195920.445000", "195920.905000", "195921.365000", "195921.825000", "195922.285000", "195922.745000", "195923.205000", "195923.665000", "195924.125000", "195924.585000", "195925.045000", "195925.505000", "195925.965000", "195926.425000", "195926.885000", "195927.345000", "195927.805000", "195928.265000", "195928.725000", "195929.185000", "195929.645000", "195930.105000", "195930.565000", "195931.025000", "195931.485000", "195931.945000", "195932.405000", "195932.865000", "195933.325000", "195933.785000", "195934.245000", "195934.705000", "195935.165000", "195935.625000", "195936.085000", "195936.545000", "195937.005000", "195937.465000", "195937.925000", "195938.385000", "195938.845000", "195939.305000", "195939.765000", "195940.225000", "195940.685000", "195941.145000", "195941.605000", "195942.065000", "195942.525000", "195942.985000", "195943.445000", "195943.905000", "195944.365000", "195944.825000", "195945.285000", "195945.745000", "195946.205000", "195946.665000", "195947.125000", "195947.585000", "195948.045000", "195948.505000", "195948.965000", "195949.425000", "195949.885000", "195950.345000", "195950.805000", "195951.265000", "195951.725000", "195952.185000", "195952.645000", "195953.105000", "195953.565000", "195954.025000", "195954.485000", "195954.945000", "195955.405000", "195955.865000", "195956.325000", "195956.785000", "195957.245000", "195957.705000", "195958.165000", "195958.625000", "195959.085000", "195959.545000", "200000.005000", "200000.465000", "200000.925000", "200001.385000", "200001.845000", "200002.305000", "200002.765000", "200003.225000", "200003.685000", "200004.145000", "200004.605000", "200005.065000", "200005.525000", "200005.985000", "200006.445000", "200006.905000", "200007.365000", "200007.825000", "200008.285000", "200008.745000", "200009.205000", "200009.665000", "200010.125000", "200010.585000", "200011.045000", "200011.505000", "200011.965000", "200012.425000", "200012.885000", "200013.345000", "200013.805000", "200014.265000", "200014.725000", "200015.185000", "200015.645000", "200016.105000", "200016.565000", "200017.025000", "200017.485000", "200017.945000", "200018.405000", "200018.865000", "200019.325000", "200019.785000", "200020.245000", "200020.705000", "200021.165000", "200021.625000", "200022.085000", "200022.545000", "200023.005000", "200023.465000", "200023.925000", "200024.385000", "200024.845000", "200025.305000", "200025.765000", "200026.225000", "200026.685000", "200027.145000", "200027.605000", "200028.065000", "200028.525000", "200028.985000", "200029.445000", "200029.905000", "200030.365000", "200030.825000", "200031.285000", "200031.745000", "200032.205000", "200032.665000", "200033.125000", "200033.585000", "200034.045000", "200034.505000", "200034.965000", "200035.425000", "200035.885000", "200036.345000", "200036.805000", "200037.265000", "200037.725000", "200038.185000", "200038.645000", "200039.105000", "200039.565000", "200040.025000", "200040.485000", "200040.945000", "200041.405000", "200041.865000", "200042.325000", "200042.785000", "200043.245000", "200043.705000", "200044.165000", "200044.625000", "200045.085000", "200045.545000", "200046.005000", "200046.465000", "200046.925000", "200047.385000", "200047.845000", "200048.305000", "200048.765000", "200049.225000", "200049.685000", "200050.145000", "200050.605000", "200051.065000", "200051.525000", "200051.985000", "200052.445000", "200052.905000", "200053.365000", "200053.825000", "200054.285000", "200054.745000", "200055.205000", "200055.665000", "200056.125000", "200056.585000", "200057.045000", "200057.505000", "200057.965000", "200058.425000", "200058.885000", "200059.345000", "200059.805000", "200100.265000", "200100.725000", "200101.185000", "200101.645000", "200102.105000", "200102.565000", "200103.025000", "200103.485000", "200103.945000", "200104.405000", "200104.865000", "200105.325000", "200105.785000", "200106.245000", "200106.705000", "200107.165000", "200107.625000", "200108.085000", "200108.545000", "200109.005000", "200109.465000", "200109.925000", "200110.385000", "200110.845000", "200111.305000", "200111.765000", "200112.225000", "200112.685000", "200113.145000", "200113.605000", "200114.065000", "200114.525000", "200114.985000", "200115.445000", "200115.905000", "200116.365000", "200116.825000", "200117.285000", "200117.745000", "200118.205000", "200118.665000", "200119.125000", "200119.585000", "200120.045000", "200120.505000", "200120.965000", "200121.425000", "200121.885000", "200122.345000", "200122.805000", "200123.265000", "200123.725000", "200124.185000", "200124.645000", "200125.105000", "200125.565000", "200126.025000", "200126.485000", "200126.945000", "200127.405000", "200127.865000", "200128.325000", "200128.785000", "200129.245000", "200129.705000", "200130.165000", "200130.625000", "200131.085000", "200131.545000", "200132.005000", "200132.465000", "200132.925000", "200133.385000", "200133.845000", "200134.305000", "200134.765000", "200135.225000", "200135.685000", "200136.145000", "200136.605000", "200137.065000", "200137.525000", "200137.985000", "200138.445000", "200138.905000", "200139.365000", "200139.825000", "200140.285000", "200140.745000", "200141.205000", "200141.665000", "200142.125000", "200142.585000", "200143.045000", "200143.505000", "200143.965000", "200144.425000", "200144.885000", "200145.345000", "200145.805000", "200146.265000", "200146.725000", "200147.185000", "200147.645000", "200148.105000", "200148.565000", "200149.025000", "200149.485000", "200149.945000", "200150.405000", "200150.865000", "200151.325000", "200151.785000", "200152.245000", "200152.705000", "200153.165000", "200153.625000", "200154.085000", "200154.545000", "200155.005000", "200155.465000", "200155.925000", "200156.385000", "200156.845000", "200157.305000", "200157.765000", "200158.225000", "200158.685000", "200159.145000", "200159.605000", "200200.065000", "200200.525000", "200200.985000", "200201.445000", "200201.905000", "200202.365000", "200202.825000", "200203.285000", "200203.745000", "200204.205000", "200204.665000", "200205.125000", "200205.585000", "200206.045000", "200206.505000", "200206.965000", "200207.425000", "200207.885000", "200208.345000", "200208.805000", "200209.265000", "200209.725000", "200210.185000", "200210.645000", "200211.105000", "200211.565000", "200212.025000", "200212.485000", "200212.945000", "200213.405000", "200213.865000", "200214.325000", "200214.785000", "200215.245000", "200215.705000", "200216.165000", "200216.625000", "200217.085000", "200217.545000", "200218.005000", "200218.465000", "200218.925000", "200219.385000", "200219.845000", "200220.305000", "200220.765000", "200221.225000", "200221.685000", "200222.145000", "200222.605000", "200223.065000", "200223.525000", "200223.985000", "200224.445000", "200224.905000", "200225.365000", "200225.825000", "200226.285000", "200226.745000", "200227.205000", "200227.665000", "200228.125000", "200228.585000", "200229.045000", "200229.505000", "200229.965000", "200230.425000", "200230.885000", "200231.345000", "200231.805000", "200232.265000", "200232.725000", "200233.185000", "200233.645000", "200234.105000", "200234.565000", "200235.025000", "200235.485000", "200235.945000", "200236.405000", "200236.865000", "200237.325000", "200237.785000", "200238.245000", "200238.705000", "200239.165000", "200239.625000", "200240.085000", "200240.545000", "200241.005000", "200241.465000", "200241.925000", "200242.385000", "200242.845000", "200243.305000", "200243.765000", "200244.225000", "200244.685000", "200245.145000", "200245.605000", "200246.065000", "200246.525000", "200246.985000", "200247.445000", "200247.905000", "200248.365000", "200248.825000", "200249.285000", "200249.745000", "200250.205000", "200250.665000", "200251.125000", "200251.585000", "200252.045000", "200252.505000", "200252.965000", "200253.425000", "200253.885000", "200254.345000", "200254.805000", "200255.265000", "200255.725000", "200256.185000", "200256.645000", "200257.105000", "200257.565000", "200258.025000", "200258.485000", "200258.945000", "200259.405000", "200259.865000", "200300.325000", "200300.785000", "200301.245000", "200301.705000", "200302.165000", "200302.625000", "200303.085000", "200303.545000", "200304.005000", "200304.465000", "200304.925000", "200305.385000", "200305.845000", "200306.305000", "200306.765000", "200307.225000", "200307.685000", "200308.145000", "200308.605000", "200309.065000", "200309.525000", "200309.985000", "200310.445000", "200310.905000", "200311.365000", "200311.825000", "200312.285000", "200312.745000", "200313.205000", "200313.665000", "200314.125000", "200314.585000", "200315.045000", "200315.505000", "200315.965000", "200316.425000", "200316.885000", "200317.345000", "200317.805000", "200318.265000", "200318.725000", "200319.185000", "200319.645000", "200320.105000", "200320.565000", "200321.025000", "200321.485000", "200321.945000", "200322.405000", "200322.865000", "200323.325000", "200323.785000", "200324.245000", "200324.705000", "200325.165000", "200325.625000", "200326.085000", "200326.545000", "200327.005000", "200327.465000", "200327.925000", "200328.385000", "200328.845000", "200329.305000", "200329.765000", "200330.225000", "200330.685000", "200331.145000", "200331.605000", "200332.065000", "200332.525000", "200332.985000", "200333.445000", "200333.905000", "200334.365000", "200334.825000", "200335.285000", "200335.745000", "200336.205000", "200336.665000", "200337.125000", "200337.585000", "200338.045000", "200338.505000", "200338.965000", "200339.425000", "200339.885000", "200340.345000", "200340.805000", "200341.265000", "200341.725000", "200342.185000", "200342.645000", "200343.105000", "200343.565000", "200344.025000", "200344.485000", "200344.945000", "200345.405000", "200345.865000", "200346.325000", "200346.785000", "200347.245000", "200347.705000", "200348.165000", "200348.625000", "200349.085000", "200349.545000", "200350.005000", "200350.465000", "200350.925000", "200351.385000", "200351.845000", "200352.305000", "200352.765000", "200353.225000", "200353.685000", "200354.145000", "200354.605000", "200355.065000", "200355.525000", "200355.985000", "200356.445000", "200356.905000", "200357.365000", "200357.825000", "200358.285000", "200358.745000", "200359.205000", "200359.665000", "200400.125000", "200400.585000", "200401.045000", "200401.505000", "200401.965000", "200402.425000", "200402.885000", "200403.345000", "200403.805000", "200404.265000", "200404.725000", "200405.185000", "200405.645000", "200406.105000", "200406.565000", "200407.025000", "200407.485000", "200407.945000", "200408.405000", "200408.865000", "200409.325000", "200409.785000", "200410.245000", "200410.705000", "200411.165000", "200411.625000", "200412.085000", "200412.545000", "200413.005000", "200413.465000", "200413.925000", "200414.385000", "200414.845000", "200415.305000", "200415.765000", "200416.225000", "200416.685000", "200417.145000", "200417.605000", "200418.065000", "200418.525000", "200418.985000", "200419.445000", "200419.905000", "200420.365000", "200420.825000", "200421.285000", "200421.745000", "200422.205000", "200422.665000", "200423.125000", "200423.585000", "200424.045000", "200424.505000", "200424.965000", "200425.425000", "200425.885000", "200426.345000", "200426.805000", "200427.265000", "200427.725000", "200428.185000", "200428.645000", "200429.105000", "200429.565000", "200430.025000", "200430.485000", "200430.945000", "200431.405000", "200431.865000", "200432.325000", "200432.785000", "200433.245000", "200433.705000", "200434.165000", "200434.625000", "200435.085000", "200435.545000", "200436.005000", "200436.465000", "200436.925000", "200437.385000", "200437.845000", "200438.305000", "200438.765000", "200439.225000", "200439.685000", "200440.145000", "200440.605000", "200441.065000", "200441.525000", "200441.985000", "200442.445000", "200442.905000", "200443.365000", "200443.825000", "200444.285000", "200444.745000", "200445.205000", "200445.665000", "200446.125000", "200446.585000", "200447.045000", "200447.505000", "200447.965000", "200448.425000", "200448.885000", "200449.345000", "200449.805000", "200450.265000", "200450.725000", "200451.185000", "200451.645000", "200452.105000", "200452.565000", "200453.025000", "200453.485000", "200453.945000", "200454.405000", "200454.865000", "200455.325000", "200455.785000", "200456.245000", "200456.705000", "200457.165000", "200457.625000", "200458.085000", "200458.545000", "200459.005000", "200459.465000", "200459.925000", "200500.385000", "200500.845000", "200501.305000", "200501.765000", "200502.225000", "200502.685000", "200503.145000", "200503.605000", "200504.065000", "200504.525000", "200504.985000", "200505.445000", "200505.905000", "200506.365000", "200506.825000", "200507.285000", "200507.745000", "200508.205000", "200508.665000", "200509.125000", "200509.585000", "200510.045000", "200510.505000", "200510.965000", "200511.425000", "200511.885000", "200512.345000", "200512.805000", "200513.265000", "200513.725000", "200514.185000", "200514.645000", "200515.105000", "200515.565000", "200516.025000", "200516.485000", "200516.945000", "200517.405000", "200517.865000", "200518.325000", "200518.785000", "200519.245000", "200519.705000", "200520.165000", "200520.625000", "200521.085000", "200521.545000", "200522.005000", "200522.465000", "200522.925000", "200523.385000", "200523.845000", "200524.305000", "200524.765000", "200525.225000", "200525.685000", "200526.145000", "200526.605000", "200527.065000", "200527.525000", "200527.985000", "200528.445000", "200528.905000", "200529.365000", "200529.825000", "200530.285000", "200530.745000", "200531.205000", "200531.665000", "200532.125000", "200532.585000", "200533.045000", "200533.505000", "200533.965000", "200534.425000", "200534.885000", "200535.345000", "200535.805000", "200536.265000", "200536.725000", "200537.185000", "200537.645000", "200538.105000", "200538.565000", "200539.025000", "200539.485000", "200539.945000", "200540.405000", "200540.865000", "200541.325000", "200541.785000", "200542.245000", "200542.705000", "200543.165000", "200543.625000", "200544.085000", "200544.545000", "200545.005000", "200545.465000", "200545.925000", "200546.385000", "200546.845000", "200547.305000", "200547.765000", "200548.225000", "200548.685000", "200549.145000", "200549.605000", "200550.065000", "200550.525000"],
