{
  "AcquisitionMatrixPE": 82,
  "AcquisitionNumber": 1,
  "AcquisitionTime": "20:22:16.472500",
  "BandwidthPerPixelPhaseEncode": 24.888,
  "BaseResolution": 82,
  "BodyPartExamined": "BRAIN",
  "ConsistencyInfo": "N4_VE11E_LATEST_20181129",
  "ConversionSoftware": "dcm2niix",
  "ConversionSoftwareVersion": "v1.0.20201102",
  "DerivedVendorReportedEchoSpacing": 0.00049,
  "DeviceSerialNumber": "66112",
  "DwellTime": 2e-06,
  "EchoTime": 0.0272,
  "EchoTrainLength": 82,
  "EffectiveEchoSpacing": 0.00049,
  "FlipAngle": 44,
  "ImageComments": "Unaliased MB8/PE3",
  "ImageOrientationPatientDICOM": [0.999262, -0.030937, 0.0227707, 0.0310539, 0.999506, -0.0047972],
  "ImageType": [
    "ORIGINAL",
    "PRIMARY",
    "M",
    "MB",
    "ND",
    "NORM",
    "MOSAIC"
],
  "ImagingFrequency": 123.259,
  "InPlanePhaseEncodingDirectionDICOM": "COL",
  "InstitutionAddress": "Maynard 3,Hanover,NH,US,03755",
  "InstitutionName": "Dartmouth College - PBS",
  "InstitutionalDepartmentName": "Department",
  "MRAcquisitionType": "2D",
  "MagneticFieldStrength": 3,
  "Manufacturer": "Siemens",
  "ManufacturersModelName": "Prisma",
  "Modality": "MR",
  "MultibandAccelerationFactor": 8,
  "PartialFourier": 1,
  "PatientPosition": "HFS",
  "PercentPhaseFOV": 100,
  "PercentSampling": 100,
  "PhaseEncodingDirection": "j-",
  "PhaseEncodingSteps": 82,
  "PhaseResolution": 1,
  "PixelBandwidth": 3050,
  "ProcedureStepDescription": "Wager_Wager^1076_spacetop",
  "ProtocolName": "func_run-04_task-social_acq-ap-mb8",
  "PulseSequenceDetails": "%CustomerSeq%\\cmrr_mbep2d_bold",
  "ReceiveCoilActiveElements": "HEA;HEP",
  "ReceiveCoilName": "Head_32",
  "ReconMatrixPE": 82,
  "RepetitionTime": 0.46,
  "SAR": 0.100479,
  "ScanOptions": "FS",
  "ScanningSequence": "EP",
  "SequenceName": "epfid2d1_82",
  "SequenceVariant": "SK\\SS",
  "SeriesDescription": "func_run-04_task-social_acq-ap-mb8",
  "SeriesNumber": 18,
  "ShimSetting": [4217, -7724, -7259, 384, -147, 78, -21, 70],
  "SliceThickness": 2.7,
  "SliceTiming": [0, 0.2525, 0.065, 0.315, 0.1275, 0.3775, 0.19, 0, 0.2525, 0.065, 0.315, 0.1275, 0.3775, 0.19, 0, 0.2525, 0.065, 0.315, 0.1275, 0.3775, 0.19, 0, 0.2525, 0.065, 0.315, 0.1275, 0.3775, 0.19, 0, 0.2525, 0.065, 0.315, 0.1275, 0.3775, 0.19, 0, 0.2525, 0.065, 0.315, 0.1275, 0.3775, 0.19, 0, 0.2525, 0.065, 0.315, 0.1275, 0.3775, 0.19, 0, 0.2525, 0.065, 0.315, 0.1275, 0.3775, 0.19],
  "SoftwareVersions": "syngo MR E11",
  "SpacingBetweenSlices": 2.7,
  "StationName": "AWP66112",
  "TaskName": "social",
  "TotalReadoutTime": 0.03969,
  "TxRefAmp": 263.911,
  "WipMemBlock": "b5926199-7fb9-4aee-a823-444d3979045a||Sequence: R016 ve11e/master r/434b28f1; Aug  7 2019 18:53:46 by eja",
  "dcmmeta_affine": [
    [-2.6809465885162354, 0.08331534266471863, 0.061049848794937134, 107.35619354248047],
    [0.0830017626285553, 2.6816020011901855, -0.01485210470855236, -100.31358337402344],
    [0.06109214946627617, 0.012870539911091328, 2.6992688179016113, -69.64543151855469],
    [0.0, 0.0, 0.0, 1.0]
],
  "dcmmeta_reorient_transform": [
    [0.0, -1.0, 0.0, 81.0],
    [1.0, 0.0, 0.0, 0.0],
    [0.0, 0.0, 1.0, 0.0],
    [0.0, 0.0, 0.0, 1.0]
],
  "dcmmeta_shape": [82, 82, 56, 872],
  "dcmmeta_slice_dim": 2,
  "dcmmeta_version": 0.6,
  "global": {
    "const": {
      "AccessionNumber": "A004539",
      "AcquisitionMatrix": [82, 0, 0, 82],
      "AngioFlag": "N",
      "BitsAllocated": 16,
      "BitsStored": 16,
      "BodyPartExamined": "BRAIN",
      "Columns": 656,
      "EchoNumbers": 1,
      "EchoTime": 27.2,
      "EchoTrainLength": 82,
      "FlipAngle": 44.0,
      "HighBit": 15,
      "ImageOrientationPatient": [0.99926192539221, -0.0309370202857, 0.0227707100747, 0.03105389932709, 0.99950619918002, -0.0047972009857],
      "ImagePositionPatient": [-907.44793733721, -862.69446773284, -82.442519979399],
      "ImageType": [
        "ORIGINAL",
        "PRIMARY",
        "M",
        "MB",
        "ND",
        "NORM",
        "MOSAIC"
],
      "ImagedNucleus": "1H",
      "ImagingFrequency": 123.259086,
      "InPlanePhaseEncodingDirection": "COL",
      "MRAcquisitionType": "2D",
      "MagneticFieldStrength": 3.0,
      "Manufacturer": "SIEMENS",
      "ManufacturerModelName": "Prisma",
      "Modality": "MR",
      "NumberOfAverages": 1.0,
      "NumberOfPhaseEncodingSteps": 82,
      "PercentPhaseFieldOfView": 100.0,
      "PercentSampling": 100.0,
      "PerformedProcedureStepStartTime": "192545.640000",
      "PhotometricInterpretation": "MONOCHROME2",
      "PixelBandwidth": 3050.0,
      "PixelRepresentation": 0,
      "PixelSpacing": [2.6829268932343, 2.6829268932343],
      "ProtocolName": "func_run-04_task-social_acq-ap-mb8",
      "RepetitionTime": 460.0,
      "Rows": 656,
      "SAR": 0.10047927041165,
      "SamplesPerPixel": 1,
      "ScanOptions": "FS",
      "ScanningSequence": "EP",
      "SequenceName": "epfid2d1_82",
      "SequenceVariant": [
        "SK",
        "SS"
],
      "SeriesDescription": "func_run-04_task-social_acq-ap-mb8",
      "SeriesNumber": 18,
      "SeriesTime": "202242.839000",
      "SliceLocation": -66.647332026695,
      "SliceThickness": 2.7000000476837,
      "SmallestImagePixelValue": 0,
      "SoftwareVersions": "syngo MR E11",
      "SpacingBetweenSlices": 2.699999975476,
      "SpecificCharacterSet": "ISO_IR 100",
      "StudyID": "1",
      "StudyTime": "192545.585000",
      "TransmitCoilName": "Body",
      "VariableFlipAngleFlag": "N",
      "WindowCenterWidthExplanation": "Algo1"
    },
    "slices": {}
  },
  "time": {
    "samples": {
      "AcquisitionNumber": [1, 2, 3, 4, 5, 6, 7, 8, 9, 10, 11, 12, 13, 14, 15, 16, 17, 18, 19, 20, 21, 22, 23, 24, 25, 26, 27, 28, 29, 30, 31, 32, 33, 34, 35, 36, 37, 38, 39, 40, 41, 42, 43, 44, 45, 46, 47, 48, 49, 50, 51, 52, 53, 54, 55, 56, 57, 58, 59, 60, 61, 62, 63, 64, 65, 66, 67, 68, 69, 70, 71, 72, 73, 74, 75, 76, 77, 78, 79, 80, 81, 82, 83, 84, 85, 86, 87, 88, 89, 90, 91, 92, 93, 94, 95, 96, 97, 98, 99, 100, 101, 102, 103, 104, 105, 106, 107, 108, 109, 110, 111, 112, 113, 114, 115, 116, 117, 118, 119, 120, 121, 122, 123, 124, 125, 126, 127, 128, 129, 130, 131, 132, 133, 134, 135, 136, 137, 138, 139, 140, 141, 142, 143, 144, 145, 146, 147, 148, 149, 150, 151, 152, 153, 154, 155, 156, 157, 158, 159, 160, 161, 162, 163, 164, 165, 166, 167, 168, 169, 170, 171, 172, 173, 174, 175, 176, 177, 178, 179, 180, 181, 182, 183, 184, 185, 186, 187, 188, 189, 190, 191, 192, 193, 194, 195, 196, 197, 198, 199, 200, 201, 202, 203, 204, 205, 206, 207, 208, 209, 210, 211, 212, 213, 214, 215, 216, 217, 218, 219, 220, 221, 222, 223, 224, 225, 226, 227, 228, 229, 230, 231, 232, 233, 234, 235, 236, 237, 238, 239, 240, 241, 242, 243, 244, 245, 246, 247, 248, 249, 250, 251, 252, 253, 254, 255, 256, 257, 258, 259, 260, 261, 262, 263, 264, 265, 266, 267, 268, 269, 270, 271, 272, 273, 274, 275, 276, 277, 278, 279, 280, 281, 282, 283, 284, 285, 286, 287, 288, 289, 290, 291, 292, 293, 294, 295, 296, 297, 298, 299, 300, 301, 302, 303, 304, 305, 306, 307, 308, 309, 310, 311, 312, 313, 314, 315, 316, 317, 318, 319, 320, 321, 322, 323, 324, 325, 326, 327, 328, 329, 330, 331, 332, 333, 334, 335, 336, 337, 338, 339, 340, 341, 342, 343, 344, 345, 346, 347, 348, 349, 350, 351, 352, 353, 354, 355, 356, 357, 358, 359, 360, 361, 362, 363, 364, 365, 366, 367, 368, 369, 370, 371, 372, 373, 374, 375, 376, 377, 378, 379, 380, 381, 382, 383, 384, 385, 386, 387, 388, 389, 390, 391, 392, 393, 394, 395, 396, 397, 398, 399, 400, 401, 402, 403, 404, 405, 406, 407, 408, 409, 410, 411, 412, 413, 414, 415, 416, 417, 418, 419, 420, 421, 422, 423, 424, 425, 426, 427, 428, 429, 430, 431, 432, 433, 434, 435, 436, 437, 438, 439, 440, 441, 442, 443, 444, 445, 446, 447, 448, 449, 450, 451, 452, 453, 454, 455, 456, 457, 458, 459, 460, 461, 462, 463, 464, 465, 466, 467, 468, 469, 470, 471, 472, 473, 474, 475, 476, 477, 478, 479, 480, 481, 482, 483, 484, 485, 486, 487, 488, 489, 490, 491, 492, 493, 494, 495, 496, 497, 498, 499, 500, 501, 502, 503, 504, 505, 506, 507, 508, 509, 510, 511, 512, 513, 514, 515, 516, 517, 518, 519, 520, 521, 522, 523, 524, 525, 526, 527, 528, 529, 530, 531, 532, 533, 534, 535, 536, 537, 538, 539, 540, 541, 542, 543, 544, 545, 546, 547, 548, 549, 550, 551, 552, 553, 554, 555, 556, 557, 558, 559, 560, 561, 562, 563, 564, 565, 566, 567, 568, 569, 570, 571, 572, 573, 574, 575, 576, 577, 578, 579, 580, 581, 582, 583, 584, 585, 586, 587, 588, 589, 590, 591, 592, 593, 594, 595, 596, 597, 598, 599, 600, 601, 602, 603, 604, 605, 606, 607, 608, 609, 610, 611, 612, 613, 614, 615, 616, 617, 618, 619, 620, 621, 622, 623, 624, 625, 626, 627, 628, 629, 630, 631, 632, 633, 634, 635, 636, 637, 638, 639, 640, 641, 642, 643, 644, 645, 646, 647, 648, 649, 650, 651, 652, 653, 654, 655, 656, 657, 658, 659, 660, 661, 662, 663, 664, 665, 666, 667, 668, 669, 670, 671, 672, 673, 674, 675, 676, 677, 678, 679, 680, 681, 682, 683, 684, 685, 686, 687, 688, 689, 690, 691, 692, 693, 694, 695, 696, 697, 698, 699, 700, 701, 702, 703, 704, 705, 706, 707, 708, 709, 710, 711, 712, 713, 714, 715, 716, 717, 718, 719, 720, 721, 722, 723, 724, 725, 726, 727, 728, 729, 730, 731, 732, 733, 734, 735, 736, 737, 738, 739, 740, 741, 742, 743, 744, 745, 746, 747, 748, 749, 750, 751, 752, 753, 754, 755, 756, 757, 758, 759, 760, 761, 762, 763, 764, 765, 766, 767, 768, 769, 770, 771, 772, 773, 774, 775, 776, 777, 778, 779, 780, 781, 782, 783, 784, 785, 786, 787, 788, 789, 790, 791, 792, 793, 794, 795, 796, 797, 798, 799, 800, 801, 802, 803, 804, 805, 806, 807, 808, 809, 810, 811, 812, 813, 814, 815, 816, 817, 818, 819, 820, 821, 822, 823, 824, 825, 826, 827, 828, 829, 830, 831, 832, 833, 834, 835, 836, 837, 838, 839, 840, 841, 842, 843, 844, 845, 846, 847, 848, 849, 850, 851, 852, 853, 854, 855, 856, 857, 858, 859, 860, 861, 862, 863, 864, 865, 866, 867, 868, 869, 870, 871, 872],
      "AcquisitionTime": ["202216.472500", "202216.932500", "202217.392500", "202217.852500", "202218.312500", "202218.772500", "202219.232500", "202219.692500", "202220.152500", "202220.612500", "202221.072500", "202221.532500", "202221.992500", "202222.452500", "202222.912500", "202223.372500", "202223.832500", "202224.292500", "202224.752500", "202225.212500", "202225.672500", "202226.132500", "202226.592500", "202227.052500", "202227.512500", "202227.972500", "202228.432500", "202228.892500", "202229.352500", "202229.812500", "202230.272500", "202230.732500", "202231.192500", "202231.652500", "202232.112500", "202232.572500", "202233.032500", "202233.492500", "202233.952500", "202234.412500", "202234.872500", "202235.332500", "202235.792500", "202236.252500", "202236.712500", "202237.172500", "202237.632500", "202238.092500", "202238.552500", "202239.012500", "202239.472500", "202239.932500", "202240.392500", "202240.852500", "202241.312500", "202241.772500", "202242.232500", "202242.692500", "202243.152500", "202243.612500", "202244.072500", "202244.532500", "202244.992500", "202245.452500", "202245.912500", "202246.372500", "202246.832500", "202247.292500", "202247.752500", "202248.212500", "202248.672500", "202249.132500", "202249.592500", "202250.052500", "202250.512500", "202250.972500", "202251.432500", "202251.892500", "202252.352500", "202252.812500", "202253.272500", "202253.732500", "202254.192500", "202254.652500", "202255.112500", "202255.572500", "202256.032500", "202256.492500", "202256.952500", "202257.412500", "202257.872500", "202258.332500", "202258.792500", "202259.252500", "202259.712500", "202300.172500", "202300.632500", "202301.092500", "202301.552500", "202302.012500", "202302.472500", "202302.932500", "202303.392500", "202303.852500", "202304.312500", "202304.772500", "202305.232500", "202305.692500", "202306.152500", "202306.612500", "202307.072500", "202307.532500", "202307.992500", "202308.452500", "202308.912500", "202309.372500", "202309.832500", "202310.292500", "202310.752500", "202311.212500", "202311.672500", "202312.132500", "202312.592500", "202313.052500", "202313.512500", "202313.972500", "202314.432500", "202314.892500", "202315.352500", "202315.812500", "202316.272500", "202316.732500", "202317.192500", "202317.652500", "202318.112500", "202318.572500", "202319.032500", "202319.492500", "202319.952500", "202320.412500", "202320.872500", "202321.332500", "202321.792500", "202322.252500", "202322.712500", "202323.172500", "202323.632500", "202324.092500", "202324.552500", "202325.012500", "202325.472500", "202325.932500", "202326.392500", "202326.852500", "202327.312500", "202327.772500", "202328.232500", "202328.692500", "202329.152500", "202329.612500", "202330.072500", "202330.532500", "202330.992500", "202331.452500", "202331.912500", "202332.372500", "202332.832500", "202333.292500", "202333.752500", "202334.212500", "202334.672500", "202335.132500", "202335.592500", "202336.052500", "202336.512500", "202336.972500", "202337.432500", "202337.892500", "202338.352500", "202338.812500", "202339.272500", "202339.732500", "202340.192500", "202340.652500", "202341.112500", "202341.572500", "202342.032500", "202342.492500", "202342.952500", "202343.412500", "202343.872500", "202344.332500", "202344.792500", "202345.252500", "202345.712500", "202346.172500", "202346.632500", "202347.092500", "202347.552500", "202348.012500", "202348.472500", "202348.932500", "202349.392500", "202349.852500", "202350.312500", "202350.772500", "202351.232500", "202351.692500", "202352.152500", "202352.612500", "202353.072500", "202353.532500", "202353.992500", "202354.452500", "202354.912500", "202355.372500", "202355.832500", "202356.292500", "202356.752500", "202357.212500", "202357.672500", "202358.132500", "202358.592500", "202359.052500", "202359.512500", "202359.972500", "202400.432500", "202400.892500", "202401.352500", "202401.812500", "202402.272500", "202402.732500", "202403.192500", "202403.652500", "202404.112500", "202404.572500", "202405.032500", "202405.492500", "202405.952500", "202406.412500", "202406.872500", "202407.332500", "202407.792500", "202408.252500", "202408.712500", "202409.172500", "202409.632500", "202410.092500", "202410.552500", "202411.012500", "202411.472500", "202411.932500", "202412.392500", "202412.852500", "202413.312500", "202413.772500", "202414.232500", "202414.692500", "202415.152500", "202415.612500", "202416.072500", "202416.532500", "202416.992500", "202417.452500", "202417.912500", "202418.372500", "202418.832500", "202419.292500", "202419.752500", "202420.212500", "202420.672500", "202421.132500", "202421.592500", "202422.052500", "202422.512500", "202422.972500", "202423.432500", "202423.892500", "202424.352500", "202424.812500", "202425.272500", "202425.732500", "202426.192500", "202426.652500", "202427.112500", "202427.572500", "202428.032500", "202428.492500", "202428.952500", "202429.412500", "202429.872500", "202430.332500", "202430.792500", "202431.252500", "202431.712500", "202432.172500", "202432.632500", "202433.092500", "202433.552500", "202434.012500", "202434.472500", "202434.932500", "202435.392500", "202435.852500", "202436.312500", "202436.772500", "202437.232500", "202437.692500", "202438.152500", "202438.612500", "202439.072500", "202439.532500", "202439.992500", "202440.452500", "202440.912500", "202441.372500", "202441.832500", "202442.292500", "202442.752500", "202443.212500", "202443.672500", "202444.132500", "202444.592500", "202445.052500", "202445.512500", "202445.972500", "202446.432500", "202446.892500", "202447.352500", "202447.812500", "202448.272500", "202448.732500", "202449.192500", "202449.652500", "202450.112500", "202450.572500", "202451.032500", "202451.492500", "202451.952500", "202452.412500", "202452.872500", "202453.332500", "202453.792500", "202454.252500", "202454.712500", "202455.172500", "202455.632500", "202456.092500", "202456.552500", "202457.012500", "202457.472500", "202457.932500", "202458.392500", "202458.852500", "202459.312500", "202459.772500", "202500.232500", "202500.692500", "202501.152500", "202501.612500", "202502.072500", "202502.532500", "202502.992500", "202503.452500", "202503.912500", "202504.372500", "202504.832500", "202505.292500", "202505.752500", "202506.212500", "202506.672500", "202507.132500", "202507.592500", "202508.052500", "202508.512500", "202508.972500", "202509.432500", "202509.892500", "202510.352500", "202510.812500", "202511.272500", "202511.732500", "202512.192500", "202512.652500", "202513.112500", "202513.572500", "202514.032500", "202514.492500", "202514.952500", "202515.412500", "202515.872500", "202516.332500", "202516.792500", "202517.252500", "202517.712500", "202518.172500", "202518.632500", "202519.092500", "202519.552500", "202520.012500", "202520.472500", "202520.932500", "202521.392500", "202521.852500", "202522.312500", "202522.772500", "202523.232500", "202523.692500", "202524.152500", "202524.612500", "202525.072500", "202525.532500", "202525.992500", "202526.452500", "202526.912500", "202527.372500", "202527.832500", "202528.292500", "202528.752500", "202529.212500", "202529.672500", "202530.132500", "202530.592500", "202531.052500", "202531.512500", "202531.972500", "202532.432500", "202532.892500", "202533.352500", "202533.812500", "202534.272500", "202534.732500", "202535.192500", "202535.652500", "202536.112500", "202536.572500", "202537.032500", "202537.492500", "202537.952500", "202538.412500", "202538.872500", "202539.332500", "202539.792500", "202540.252500", "202540.712500", "202541.172500", "202541.632500", "202542.092500", "202542.552500", "202543.012500", "202543.472500", "202543.932500", "202544.392500", "202544.852500", "202545.312500", "202545.772500", "202546.232500", "202546.692500", "202547.152500", "202547.612500", "202548.072500", "202548.532500", "202548.992500", "202549.452500", "202549.912500", "202550.372500", "202550.832500", "202551.292500", "202551.752500", "202552.212500", "202552.672500", "202553.132500", "202553.592500", "202554.052500", "202554.512500", "202554.972500", "202555.432500", "202555.892500", "202556.352500", "202556.812500", "202557.272500", "202557.732500", "202558.192500", "202558.652500", "202559.112500", "202559.572500", "202600.032500", "202600.492500", "202600.952500", "202601.412500", "202601.872500", "202602.332500", "202602.792500", "202603.252500", "202603.712500", "202604.172500", "202604.632500", "202605.092500", "202605.552500", "202606.012500", "202606.472500", "202606.932500", "202607.392500", "202607.852500", "202608.312500", "202608.772500", "202609.232500", "202609.692500", "202610.152500", "202610.612500", "202611.072500", "202611.532500", "202611.992500", "202612.452500", "202612.912500", "202613.372500", "202613.832500", "202614.292500", "202614.752500", "202615.212500", "202615.672500", "202616.132500", "202616.592500", "202617.052500", "202617.512500", "202617.972500", "202618.432500", "202618.892500", "202619.352500", "202619.812500", "202620.272500", "202620.732500", "202621.192500", "202621.652500", "202622.112500", "202622.572500", "202623.032500", "202623.492500", "202623.952500", "202624.412500", "202624.872500", "202625.332500", "202625.792500", "202626.252500", "202626.712500", "202627.172500", "202627.632500", "202628.092500", "202628.552500", "202629.012500", "202629.472500", "202629.932500", "202630.392500", "202630.852500", "202631.312500", "202631.772500", "202632.232500", "202632.692500", "202633.152500", "202633.612500", "202634.072500", "202634.532500", "202634.992500", "202635.452500", "202635.912500", "202636.372500", "202636.832500", "202637.292500", "202637.752500", "202638.212500", "202638.672500", "202639.132500", "202639.592500", "202640.052500", "202640.512500", "202640.972500", "202641.432500", "202641.892500", "202642.352500", "202642.812500", "202643.272500", "202643.732500", "202644.192500", "202644.652500", "202645.112500", "202645.572500", "202646.032500", "202646.492500", "202646.952500", "202647.412500", "202647.872500", "202648.332500", "202648.792500", "202649.252500", "202649.712500", "202650.172500", "202650.632500", "202651.092500", "202651.552500", "202652.012500", "202652.472500", "202652.932500", "202653.392500", "202653.852500", "202654.312500", "202654.772500", "202655.232500", "202655.692500", "202656.152500", "202656.612500", "202657.072500", "202657.532500", "202657.992500", "202658.452500", "202658.912500", "202659.372500", "202659.832500", "202700.292500", "202700.752500", "202701.212500", "202701.672500", "202702.132500", "202702.592500", "202703.052500", "202703.512500", "202703.972500", "202704.432500", "202704.892500", "202705.352500", "202705.812500", "202706.272500", "202706.732500", "202707.192500", "202707.652500", "202708.112500", "202708.572500", "202709.032500", "202709.492500", "202709.952500", "202710.412500", "202710.872500", "202711.332500", "202711.792500", "202712.252500", "202712.712500", "202713.172500", "202713.632500", "202714.092500", "202714.552500", "202715.012500", "202715.472500", "202715.932500", "202716.392500", "202716.852500", "202717.312500", "202717.772500", "202718.232500", "202718.692500", "202719.152500", "202719.612500", "202720.072500", "202720.532500", "202720.992500", "202721.452500", "202721.912500", "202722.372500", "202722.832500", "202723.292500", "202723.752500", "202724.212500", "202724.672500", "202725.132500", "202725.592500", "202726.052500", "202726.512500", "202726.972500", "202727.432500", "202727.892500", "202728.352500", "202728.812500", "202729.272500", "202729.732500", "202730.192500", "202730.652500", "202731.112500", "202731.572500", "202732.032500", "202732.492500", "202732.952500", "202733.412500", "202733.872500", "202734.332500", "202734.792500", "202735.252500", "202735.712500", "202736.172500", "202736.632500", "202737.092500", "202737.552500", "202738.012500", "202738.472500", "202738.932500", "202739.392500", "202739.852500", "202740.312500", "202740.772500", "202741.232500", "202741.692500", "202742.152500", "202742.612500", "202743.072500", "202743.532500", "202743.992500", "202744.452500", "202744.912500", "202745.372500", "202745.832500", "202746.292500", "202746.752500", "202747.212500", "202747.672500", "202748.132500", "202748.592500", "202749.052500", "202749.512500", "202749.972500", "202750.432500", "202750.892500", "202751.352500", "202751.812500", "202752.272500", "202752.732500", "202753.192500", "202753.652500", "202754.112500", "202754.572500", "202755.032500", "202755.492500", "202755.952500", "202756.412500", "202756.872500", "202757.332500", "202757.792500", "202758.252500", "202758.712500", "202759.172500", "202759.632500", "202800.092500", "202800.552500", "202801.012500", "202801.472500", "202801.932500", "202802.392500", "202802.852500", "202803.312500", "202803.772500", "202804.232500", "202804.692500", "202805.152500", "202805.612500", "202806.072500", "202806.532500", "202806.992500", "202807.452500", "202807.912500", "202808.372500", "202808.832500", "202809.292500", "202809.752500", "202810.212500", "202810.672500", "202811.132500", "202811.592500", "202812.052500", "202812.512500", "202812.972500", "202813.432500", "202813.892500", "202814.352500", "202814.812500", "202815.272500", "202815.732500", "202816.192500", "202816.652500", "202817.112500", "202817.572500", "202818.032500", "202818.492500", "202818.952500", "202819.412500", "202819.872500", "202820.332500", "202820.792500", "202821.252500", "202821.712500", "202822.172500", "202822.632500", "202823.092500", "202823.552500", "202824.012500", "202824.472500", "202824.932500", "202825.392500", "202825.852500", "202826.312500", "202826.772500", "202827.232500", "202827.692500", "202828.152500", "202828.612500", "202829.072500", "202829.532500", "202829.992500", "202830.452500", "202830.912500", "202831.372500", "202831.832500", "202832.292500", "202832.752500", "202833.212500", "202833.672500", "202834.132500", "202834.592500", "202835.052500", "202835.512500", "202835.972500", "202836.432500", "202836.892500", "202837.352500", "202837.812500", "202838.272500", "202838.732500", "202839.192500", "202839.652500", "202840.112500", "202840.572500", "202841.032500", "202841.492500", "202841.952500", "202842.412500", "202842.872500", "202843.332500", "202843.792500", "202844.252500", "202844.712500", "202845.172500", "202845.632500", "202846.092500", "202846.552500", "202847.012500", "202847.472500", "202847.932500", "202848.392500", "202848.852500", "202849.312500", "202849.772500", "202850.232500", "202850.692500", "202851.152500", "202851.612500", "202852.072500", "202852.532500", "202852.992500", "202853.452500", "202853.912500", "202854.372500", "202854.832500", "202855.292500", "202855.752500", "202856.212500", "202856.672500", "202857.132500"],
