{
  "AcquisitionMatrixPE": 82,
  "AcquisitionNumber": 1,
  "AcquisitionTime": "20:14:33.927500",
  "BandwidthPerPixelPhaseEncode": 24.888,
  "BaseResolution": 82,
  "BodyPartExamined": "BRAIN",
  "ConsistencyInfo": "N4_VE11E_LATEST_20181129",
  "ConversionSoftware": "dcm2niix",
  "ConversionSoftwareVersion": "v1.0.20201102",
  "DerivedVendorReportedEchoSpacing": 0.00049,
  "DeviceSerialNumber": "66112",
  "DwellTime": 2e-06,
  "EchoTime": 0.0272,
  "EchoTrainLength": 82,
  "EffectiveEchoSpacing": 0.00049,
  "FlipAngle": 44,
  "ImageComments": "Unaliased MB8/PE3",
  "ImageOrientationPatientDICOM": [0.999262, -0.030937, 0.0227707, 0.0310539, 0.999506, -0.0047972],
  "ImageType": [
    "ORIGINAL",
    "PRIMARY",
    "M",
    "MB",
    "ND",
    "NORM",
    "MOSAIC"
],
  "ImagingFrequency": 123.259,
  "InPlanePhaseEncodingDirectionDICOM": "COL",
  "InstitutionAddress": "Maynard 3,Hanover,NH,US,03755",
  "InstitutionName": "Dartmouth College - PBS",
  "InstitutionalDepartmentName": "Department",
  "MRAcquisitionType": "2D",
  "MagneticFieldStrength": 3,
  "Manufacturer": "Siemens",
  "ManufacturersModelName": "Prisma",
  "Modality": "MR",
  "MultibandAccelerationFactor": 8,
  "PartialFourier": 1,
  "PatientPosition": "HFS",
  "PercentPhaseFOV": 100,
  "PercentSampling": 100,
  "PhaseEncodingDirection": "j-",
  "PhaseEncodingSteps": 82,
  "PhaseResolution": 1,
  "PixelBandwidth": 3050,
  "ProcedureStepDescription": "Wager_Wager^1076_spacetop",
  "ProtocolName": "func_run-03_task-social_acq-ap-mb8",
  "PulseSequenceDetails": "%CustomerSeq%\\cmrr_mbep2d_bold",
  "ReceiveCoilActiveElements": "HEA;HEP",
  "ReceiveCoilName": "Head_32",
  "ReconMatrixPE": 82,
  "RepetitionTime": 0.46,
  "SAR": 0.100479,
  "ScanOptions": "FS",
  "ScanningSequence": "EP",
  "SequenceName": "epfid2d1_82",
  "SequenceVariant": "SK\\SS",
  "SeriesDescription": "func_run-03_task-social_acq-ap-mb8",
  "SeriesNumber": 16,
  "ShimSetting": [4217, -7724, -7259, 384, -147, 78, -21, 70],
  "SliceThickness": 2.7,
  "SliceTiming": [0, 0.2525, 0.0625, 0.315, 0.1275, 0.3775, 0.19, 0, 0.2525, 0.0625, 0.315, 0.1275, 0.3775, 0.19, 0, 0.2525, 0.0625, 0.315, 0.1275, 0.3775, 0.19, 0, 0.2525, 0.0625, 0.315, 0.1275, 0.3775, 0.19, 0, 0.2525, 0.0625, 0.315, 0.1275, 0.3775, 0.19, 0, 0.2525, 0.0625, 0.315, 0.1275, 0.3775, 0.19, 0, 0.2525, 0.0625, 0.315, 0.1275, 0.3775, 0.19, 0, 0.2525, 0.0625, 0.315, 0.1275, 0.3775, 0.19],
  "SoftwareVersions": "syngo MR E11",
  "SpacingBetweenSlices": 2.7,
  "StationName": "AWP66112",
  "TaskName": "social",
  "TotalReadoutTime": 0.03969,
  "TxRefAmp": 263.911,
  "WipMemBlock": "8fd2d7e0-89e1-4422-a83c-4f49535eb6e8||Sequence: R016 ve11e/master r/434b28f1; Aug  7 2019 18:53:46 by eja",
  "dcmmeta_affine": [
    [-2.6809465885162354, 0.08331534266471863, 0.061049848794937134, 107.35619354248047],
    [0.0830017626285553, 2.6816020011901855, -0.01485210470855236, -100.31358337402344],
    [0.06109214946627617, 0.012870539911091328, 2.6992688179016113, -69.64543151855469],
    [0.0, 0.0, 0.0, 1.0]
],
  "dcmmeta_reorient_transform": [
    [0.0, -1.0, 0.0, 81.0],
    [1.0, 0.0, 0.0, 0.0],
    [0.0, 0.0, 1.0, 0.0],
    [0.0, 0.0, 0.0, 1.0]
],
  "dcmmeta_shape": [82, 82, 56, 872],
  "dcmmeta_slice_dim": 2,
  "dcmmeta_version": 0.6,
  "global": {
    "const": {
      "AccessionNumber": "A004539",
      "AcquisitionMatrix": [82, 0, 0, 82],
      "AngioFlag": "N",
      "BitsAllocated": 16,
      "BitsStored": 16,
      "BodyPartExamined": "BRAIN",
      "Columns": 656,
      "EchoNumbers": 1,
      "EchoTime": 27.2,
      "EchoTrainLength": 82,
      "FlipAngle": 44.0,
      "HighBit": 15,
      "ImageOrientationPatient": [0.99926192539221, -0.0309370202857, 0.0227707100747, 0.03105389932709, 0.99950619918002, -0.0047972009857],
      "ImagePositionPatient": [-907.44793733721, -862.69446773284, -82.442519979399],
      "ImageType": [
        "ORIGINAL",
        "PRIMARY",
        "M",
        "MB",
        "ND",
        "NORM",
        "MOSAIC"
],
      "ImagedNucleus": "1H",
      "ImagingFrequency": 123.259086,
      "InPlanePhaseEncodingDirection": "COL",
      "MRAcquisitionType": "2D",
      "MagneticFieldStrength": 3.0,
      "Manufacturer": "SIEMENS",
      "ManufacturerModelName": "Prisma",
      "Modality": "MR",
      "NumberOfAverages": 1.0,
      "NumberOfPhaseEncodingSteps": 82,
      "PercentPhaseFieldOfView": 100.0,
      "PercentSampling": 100.0,
      "PerformedProcedureStepStartTime": "192545.640000",
      "PhotometricInterpretation": "MONOCHROME2",
      "PixelBandwidth": 3050.0,
      "PixelRepresentation": 0,
      "PixelSpacing": [2.6829268932343, 2.6829268932343],
      "ProtocolName": "func_run-03_task-social_acq-ap-mb8",
      "RepetitionTime": 460.0,
      "Rows": 656,
      "SAR": 0.10047927041165,
      "SamplesPerPixel": 1,
      "ScanOptions": "FS",
      "ScanningSequence": "EP",
      "SequenceName": "epfid2d1_82",
      "SequenceVariant": [
        "SK",
        "SS"
],
      "SeriesDescription": "func_run-03_task-social_acq-ap-mb8",
      "SeriesNumber": 16,
      "SeriesTime": "201442.729000",
      "SliceLocation": -66.647332026695,
      "SliceThickness": 2.7000000476837,
      "SmallestImagePixelValue": 0,
      "SoftwareVersions": "syngo MR E11",
      "SpacingBetweenSlices": 2.699999975476,
      "SpecificCharacterSet": "ISO_IR 100",
      "StudyID": "1",
      "StudyTime": "192545.585000",
      "TransmitCoilName": "Body",
      "VariableFlipAngleFlag": "N",
      "WindowCenterWidthExplanation": "Algo1"
    },
    "slices": {}
  },
  "time": {
    "samples": {
      "AcquisitionNumber": [1, 2, 3, 4, 5, 6, 7, 8, 9, 10, 11, 12, 13, 14, 15, 16, 17, 18, 19, 20, 21, 22, 23, 24, 25, 26, 27, 28, 29, 30, 31, 32, 33, 34, 35, 36, 37, 38, 39, 40, 41, 42, 43, 44, 45, 46, 47, 48, 49, 50, 51, 52, 53, 54, 55, 56, 57, 58, 59, 60, 61, 62, 63, 64, 65, 66, 67, 68, 69, 70, 71, 72, 73, 74, 75, 76, 77, 78, 79, 80, 81, 82, 83, 84, 85, 86, 87, 88, 89, 90, 91, 92, 93, 94, 95, 96, 97, 98, 99, 100, 101, 102, 103, 104, 105, 106, 107, 108, 109, 110, 111, 112, 113, 114, 115, 116, 117, 118, 119, 120, 121, 122, 123, 124, 125, 126, 127, 128, 129, 130, 131, 132, 133, 134, 135, 136, 137, 138, 139, 140, 141, 142, 143, 144, 145, 146, 147, 148, 149, 150, 151, 152, 153, 154, 155, 156, 157, 158, 159, 160, 161, 162, 163, 164, 165, 166, 167, 168, 169, 170, 171, 172, 173, 174, 175, 176, 177, 178, 179, 180, 181, 182, 183, 184, 185, 186, 187, 188, 189, 190, 191, 192, 193, 194, 195, 196, 197, 198, 199, 200, 201, 202, 203, 204, 205, 206, 207, 208, 209, 210, 211, 212, 213, 214, 215, 216, 217, 218, 219, 220, 221, 222, 223, 224, 225, 226, 227, 228, 229, 230, 231, 232, 233, 234, 235, 236, 237, 238, 239, 240, 241, 242, 243, 244, 245, 246, 247, 248, 249, 250, 251, 252, 253, 254, 255, 256, 257, 258, 259, 260, 261, 262, 263, 264, 265, 266, 267, 268, 269, 270, 271, 272, 273, 274, 275, 276, 277, 278, 279, 280, 281, 282, 283, 284, 285, 286, 287, 288, 289, 290, 291, 292, 293, 294, 295, 296, 297, 298, 299, 300, 301, 302, 303, 304, 305, 306, 307, 308, 309, 310, 311, 312, 313, 314, 315, 316, 317, 318, 319, 320, 321, 322, 323, 324, 325, 326, 327, 328, 329, 330, 331, 332, 333, 334, 335, 336, 337, 338, 339, 340, 341, 342, 343, 344, 345, 346, 347, 348, 349, 350, 351, 352, 353, 354, 355, 356, 357, 358, 359, 360, 361, 362, 363, 364, 365, 366, 367, 368, 369, 370, 371, 372, 373, 374, 375, 376, 377, 378, 379, 380, 381, 382, 383, 384, 385, 386, 387, 388, 389, 390, 391, 392, 393, 394, 395, 396, 397, 398, 399, 400, 401, 402, 403, 404, 405, 406, 407, 408, 409, 410, 411, 412, 413, 414, 415, 416, 417, 418, 419, 420, 421, 422, 423, 424, 425, 426, 427, 428, 429, 430, 431, 432, 433, 434, 435, 436, 437, 438, 439, 440, 441, 442, 443, 444, 445, 446, 447, 448, 449, 450, 451, 452, 453, 454, 455, 456, 457, 458, 459, 460, 461, 462, 463, 464, 465, 466, 467, 468, 469, 470, 471, 472, 473, 474, 475, 476, 477, 478, 479, 480, 481, 482, 483, 484, 485, 486, 487, 488, 489, 490, 491, 492, 493, 494, 495, 496, 497, 498, 499, 500, 501, 502, 503, 504, 505, 506, 507, 508, 509, 510, 511, 512, 513, 514, 515, 516, 517, 518, 519, 520, 521, 522, 523, 524, 525, 526, 527, 528, 529, 530, 531, 532, 533, 534, 535, 536, 537, 538, 539, 540, 541, 542, 543, 544, 545, 546, 547, 548, 549, 550, 551, 552, 553, 554, 555, 556, 557, 558, 559, 560, 561, 562, 563, 564, 565, 566, 567, 568, 569, 570, 571, 572, 573, 574, 575, 576, 577, 578, 579, 580, 581, 582, 583, 584, 585, 586, 587, 588, 589, 590, 591, 592, 593, 594, 595, 596, 597, 598, 599, 600, 601, 602, 603, 604, 605, 606, 607, 608, 609, 610, 611, 612, 613, 614, 615, 616, 617, 618, 619, 620, 621, 622, 623, 624, 625, 626, 627, 628, 629, 630, 631, 632, 633, 634, 635, 636, 637, 638, 639, 640, 641, 642, 643, 644, 645, 646, 647, 648, 649, 650, 651, 652, 653, 654, 655, 656, 657, 658, 659, 660, 661, 662, 663, 664, 665, 666, 667, 668, 669, 670, 671, 672, 673, 674, 675, 676, 677, 678, 679, 680, 681, 682, 683, 684, 685, 686, 687, 688, 689, 690, 691, 692, 693, 694, 695, 696, 697, 698, 699, 700, 701, 702, 703, 704, 705, 706, 707, 708, 709, 710, 711, 712, 713, 714, 715, 716, 717, 718, 719, 720, 721, 722, 723, 724, 725, 726, 727, 728, 729, 730, 731, 732, 733, 734, 735, 736, 737, 738, 739, 740, 741, 742, 743, 744, 745, 746, 747, 748, 749, 750, 751, 752, 753, 754, 755, 756, 757, 758, 759, 760, 761, 762, 763, 764, 765, 766, 767, 768, 769, 770, 771, 772, 773, 774, 775, 776, 777, 778, 779, 780, 781, 782, 783, 784, 785, 786, 787, 788, 789, 790, 791, 792, 793, 794, 795, 796, 797, 798, 799, 800, 801, 802, 803, 804, 805, 806, 807, 808, 809, 810, 811, 812, 813, 814, 815, 816, 817, 818, 819, 820, 821, 822, 823, 824, 825, 826, 827, 828, 829, 830, 831, 832, 833, 834, 835, 836, 837, 838, 839, 840, 841, 842, 843, 844, 845, 846, 847, 848, 849, 850, 851, 852, 853, 854, 855, 856, 857, 858, 859, 860, 861, 862, 863, 864, 865, 866, 867, 868, 869, 870, 871, 872],
      "AcquisitionTime": ["201433.927500", "201434.387500", "201434.847500", "201435.307500", "201435.767500", "201436.227500", "201436.687500", "201437.147500", "201437.607500", "201438.067500", "201438.527500", "201438.987500", "201439.447500", "201439.907500", "201440.367500", "201440.827500", "201441.287500", "201441.747500", "201442.207500", "201442.667500", "201443.127500", "201443.587500", "201444.047500", "201444.507500", "201444.967500", "201445.427500", "201445.887500", "201446.347500", "201446.807500", "201447.267500", "201447.727500", "201448.187500", "201448.647500", "201449.107500", "201449.567500", "201450.027500", "201450.487500", "201450.947500", "201451.407500", "201451.867500", "201452.327500", "201452.787500", "201453.247500", "201453.707500", "201454.167500", "201454.627500", "201455.087500", "201455.547500", "201456.007500", "201456.467500", "201456.927500", "201457.387500", "201457.847500", "201458.307500", "201458.767500", "201459.227500", "201459.687500", "201500.147500", "201500.607500", "201501.067500", "201501.527500", "201501.987500", "201502.447500", "201502.907500", "201503.367500", "201503.827500", "201504.287500", "201504.747500", "201505.207500", "201505.667500", "201506.127500", "201506.587500", "201507.047500", "201507.507500", "201507.967500", "201508.427500", "201508.887500", "201509.347500", "201509.807500", "201510.267500", "201510.727500", "201511.187500", "201511.647500", "201512.107500", "201512.567500", "201513.027500", "201513.487500", "201513.947500", "201514.407500", "201514.867500", "201515.327500", "201515.787500", "201516.247500", "201516.707500", "201517.167500", "201517.627500", "201518.087500", "201518.547500", "201519.007500", "201519.467500", "201519.927500", "201520.387500", "201520.847500", "201521.307500", "201521.767500", "201522.227500", "201522.687500", "201523.147500", "201523.607500", "201524.067500", "201524.527500", "201524.987500", "201525.447500", "201525.907500", "201526.367500", "201526.827500", "201527.287500", "201527.747500", "201528.207500", "201528.667500", "201529.127500", "201529.587500", "201530.047500", "201530.507500", "201530.967500", "201531.427500", "201531.887500", "201532.347500", "201532.807500", "201533.267500", "201533.727500", "201534.187500", "201534.647500", "201535.107500", "201535.567500", "201536.027500", "201536.487500", "201536.947500", "201537.407500", "201537.867500", "201538.327500", "201538.787500", "201539.247500", "201539.707500", "201540.167500", "201540.627500", "201541.087500", "201541.547500", "201542.007500", "201542.467500", "201542.927500", "201543.387500", "201543.847500", "201544.307500", "201544.767500", "201545.227500", "201545.687500", "201546.147500", "201546.607500", "201547.067500", "201547.527500", "201547.987500", "201548.447500", "201548.907500", "201549.367500", "201549.827500", "201550.287500", "201550.747500", "201551.207500", "201551.667500", "201552.127500", "201552.587500", "201553.047500", "201553.507500", "201553.967500", "201554.427500", "201554.887500", "201555.347500", "201555.807500", "201556.267500", "201556.727500", "201557.187500", "201557.647500", "201558.107500", "201558.567500", "201559.027500", "201559.487500", "201559.947500", "201600.407500", "201600.867500", "201601.327500", "201601.787500", "201602.247500", "201602.707500", "201603.167500", "201603.627500", "201604.087500", "201604.547500", "201605.007500", "201605.467500", "201605.927500", "201606.387500", "201606.847500", "201607.307500", "201607.767500", "201608.227500", "201608.687500", "201609.147500", "201609.607500", "201610.067500", "201610.527500", "201610.987500", "201611.447500", "201611.907500", "201612.367500", "201612.827500", "201613.287500", "201613.747500", "201614.207500", "201614.667500", "201615.127500", "201615.587500", "201616.047500", "201616.507500", "201616.967500", "201617.427500", "201617.887500", "201618.347500", "201618.807500", "201619.267500", "201619.727500", "201620.187500", "201620.647500", "201621.107500", "201621.567500", "201622.027500", "201622.487500", "201622.947500", "201623.407500", "201623.867500", "201624.327500", "201624.787500", "201625.247500", "201625.707500", "201626.167500", "201626.627500", "201627.087500", "201627.547500", "201628.007500", "201628.467500", "201628.927500", "201629.387500", "201629.847500", "201630.307500", "201630.767500", "201631.227500", "201631.687500", "201632.147500", "201632.607500", "201633.067500", "201633.527500", "201633.987500", "201634.447500", "201634.907500", "201635.367500", "201635.827500", "201636.287500", "201636.747500", "201637.207500", "201637.667500", "201638.127500", "201638.587500", "201639.047500", "201639.507500", "201639.967500", "201640.427500", "201640.887500", "201641.347500", "201641.807500", "201642.267500", "201642.727500", "201643.187500", "201643.647500", "201644.107500", "201644.567500", "201645.027500", "201645.487500", "201645.947500", "201646.407500", "201646.867500", "201647.327500", "201647.787500", "201648.247500", "201648.707500", "201649.167500", "201649.627500", "201650.087500", "201650.547500", "201651.007500", "201651.467500", "201651.927500", "201652.387500", "201652.847500", "201653.307500", "201653.767500", "201654.227500", "201654.687500", "201655.147500", "201655.607500", "201656.067500", "201656.527500", "201656.987500", "201657.447500", "201657.907500", "201658.367500", "201658.827500", "201659.287500", "201659.747500", "201700.207500", "201700.667500", "201701.127500", "201701.587500", "201702.047500", "201702.507500", "201702.967500", "201703.427500", "201703.887500", "201704.347500", "201704.807500", "201705.267500", "201705.727500", "201706.187500", "201706.647500", "201707.107500", "201707.567500", "201708.027500", "201708.487500", "201708.947500", "201709.407500", "201709.867500", "201710.327500", "201710.787500", "201711.247500", "201711.707500", "201712.167500", "201712.627500", "201713.087500", "201713.547500", "201714.007500", "201714.467500", "201714.927500", "201715.387500", "201715.847500", "201716.307500", "201716.767500", "201717.227500", "201717.687500", "201718.147500", "201718.607500", "201719.067500", "201719.527500", "201719.987500", "201720.447500", "201720.907500", "201721.367500", "201721.827500", "201722.287500", "201722.747500", "201723.207500", "201723.667500", "201724.127500", "201724.587500", "201725.047500", "201725.507500", "201725.967500", "201726.427500", "201726.887500", "201727.347500", "201727.807500", "201728.267500", "201728.727500", "201729.187500", "201729.647500", "201730.107500", "201730.567500", "201731.027500", "201731.487500", "201731.947500", "201732.407500", "201732.867500", "201733.327500", "201733.787500", "201734.247500", "201734.707500", "201735.167500", "201735.627500", "201736.087500", "201736.547500", "201737.007500", "201737.467500", "201737.927500", "201738.387500", "201738.847500", "201739.307500", "201739.767500", "201740.227500", "201740.687500", "201741.147500", "201741.607500", "201742.067500", "201742.527500", "201742.987500", "201743.447500", "201743.907500", "201744.367500", "201744.827500", "201745.287500", "201745.747500", "201746.207500", "201746.667500", "201747.127500", "201747.587500", "201748.047500", "201748.507500", "201748.967500", "201749.427500", "201749.887500", "201750.347500", "201750.807500", "201751.267500", "201751.727500", "201752.187500", "201752.647500", "201753.107500", "201753.567500", "201754.027500", "201754.487500", "201754.947500", "201755.407500", "201755.867500", "201756.327500", "201756.787500", "201757.247500", "201757.707500", "201758.167500", "201758.627500", "201759.087500", "201759.547500", "201800.007500", "201800.467500", "201800.927500", "201801.387500", "201801.847500", "201802.307500", "201802.767500", "201803.227500", "201803.687500", "201804.147500", "201804.607500", "201805.067500", "201805.527500", "201805.987500", "201806.447500", "201806.907500", "201807.367500", "201807.827500", "201808.287500", "201808.747500", "201809.207500", "201809.667500", "201810.127500", "201810.587500", "201811.047500", "201811.507500", "201811.967500", "201812.427500", "201812.887500", "201813.347500", "201813.807500", "201814.267500", "201814.727500", "201815.187500", "201815.647500", "201816.107500", "201816.567500", "201817.027500", "201817.487500", "201817.947500", "201818.407500", "201818.867500", "201819.327500", "201819.787500", "201820.247500", "201820.707500", "201821.167500", "201821.627500", "201822.087500", "201822.547500", "201823.007500", "201823.467500", "201823.927500", "201824.387500", "201824.847500", "201825.307500", "201825.767500", "201826.227500", "201826.687500", "201827.147500", "201827.607500", "201828.067500", "201828.527500", "201828.987500", "201829.447500", "201829.907500", "201830.367500", "201830.827500", "201831.287500", "201831.747500", "201832.207500", "201832.667500", "201833.127500", "201833.587500", "201834.047500", "201834.507500", "201834.967500", "201835.427500", "201835.887500", "201836.347500", "201836.807500", "201837.267500", "201837.727500", "201838.187500", "201838.647500", "201839.107500", "201839.567500", "201840.027500", "201840.487500", "201840.947500", "201841.407500", "201841.867500", "201842.327500", "201842.787500", "201843.247500", "201843.707500", "201844.167500", "201844.627500", "201845.087500", "201845.547500", "201846.007500", "201846.467500", "201846.927500", "201847.387500", "201847.847500", "201848.307500", "201848.767500", "201849.227500", "201849.687500", "201850.147500", "201850.607500", "201851.067500", "201851.527500", "201851.987500", "201852.447500", "201852.907500", "201853.367500", "201853.827500", "201854.287500", "201854.747500", "201855.207500", "201855.667500", "201856.127500", "201856.587500", "201857.047500", "201857.507500", "201857.967500", "201858.427500", "201858.887500", "201859.347500", "201859.807500", "201900.267500", "201900.727500", "201901.187500", "201901.647500", "201902.107500", "201902.567500", "201903.027500", "201903.487500", "201903.947500", "201904.407500", "201904.867500", "201905.327500", "201905.787500", "201906.247500", "201906.707500", "201907.167500", "201907.627500", "201908.087500", "201908.547500", "201909.007500", "201909.467500", "201909.927500", "201910.387500", "201910.847500", "201911.307500", "201911.767500", "201912.227500", "201912.687500", "201913.147500", "201913.607500", "201914.067500", "201914.527500", "201914.987500", "201915.447500", "201915.907500", "201916.367500", "201916.827500", "201917.287500", "201917.747500", "201918.207500", "201918.667500", "201919.127500", "201919.587500", "201920.047500", "201920.507500", "201920.967500", "201921.427500", "201921.887500", "201922.347500", "201922.807500", "201923.267500", "201923.727500", "201924.187500", "201924.647500", "201925.107500", "201925.567500", "201926.027500", "201926.487500", "201926.947500", "201927.407500", "201927.867500", "201928.327500", "201928.787500", "201929.247500", "201929.707500", "201930.167500", "201930.627500", "201931.087500", "201931.547500", "201932.007500", "201932.467500", "201932.927500", "201933.387500", "201933.847500", "201934.307500", "201934.767500", "201935.227500", "201935.687500", "201936.147500", "201936.607500", "201937.067500", "201937.527500", "201937.987500", "201938.447500", "201938.907500", "201939.367500", "201939.827500", "201940.287500", "201940.747500", "201941.207500", "201941.667500", "201942.127500", "201942.587500", "201943.047500", "201943.507500", "201943.967500", "201944.427500", "201944.887500", "201945.347500", "201945.807500", "201946.267500", "201946.727500", "201947.187500", "201947.647500", "201948.107500", "201948.567500", "201949.027500", "201949.487500", "201949.947500", "201950.407500", "201950.867500", "201951.327500", "201951.787500", "201952.247500", "201952.707500", "201953.167500", "201953.627500", "201954.087500", "201954.547500", "201955.007500", "201955.467500", "201955.927500", "201956.387500", "201956.847500", "201957.307500", "201957.767500", "201958.227500", "201958.687500", "201959.147500", "201959.607500", "202000.067500", "202000.527500", "202000.987500", "202001.447500", "202001.907500", "202002.367500", "202002.827500", "202003.287500", "202003.747500", "202004.207500", "202004.667500", "202005.127500", "202005.587500", "202006.047500", "202006.507500", "202006.967500", "202007.427500", "202007.887500", "202008.347500", "202008.807500", "202009.267500", "202009.727500", "202010.187500", "202010.647500", "202011.107500", "202011.567500", "202012.027500", "202012.487500", "202012.947500", "202013.407500", "202013.867500", "202014.327500", "202014.787500", "202015.247500", "202015.707500", "202016.167500", "202016.627500", "202017.087500", "202017.547500", "202018.007500", "202018.467500", "202018.927500", "202019.387500", "202019.847500", "202020.307500", "202020.767500", "202021.227500", "202021.687500", "202022.147500", "202022.607500", "202023.067500", "202023.527500", "202023.987500", "202024.447500", "202024.907500", "202025.367500", "202025.827500", "202026.287500", "202026.747500", "202027.207500", "202027.667500", "202028.127500", "202028.587500", "202029.047500", "202029.507500", "202029.967500", "202030.427500", "202030.887500", "202031.347500", "202031.807500", "202032.267500", "202032.727500", "202033.187500", "202033.647500", "202034.107500", "202034.567500", "202035.027500", "202035.487500", "202035.947500", "202036.407500", "202036.867500", "202037.327500", "202037.787500", "202038.247500", "202038.707500", "202039.167500", "202039.627500", "202040.087500", "202040.547500", "202041.007500", "202041.467500", "202041.927500", "202042.387500", "202042.847500", "202043.307500", "202043.767500", "202044.227500", "202044.687500", "202045.147500", "202045.607500", "202046.067500", "202046.527500", "202046.987500", "202047.447500", "202047.907500", "202048.367500", "202048.827500", "202049.287500", "202049.747500", "202050.207500", "202050.667500", "202051.127500", "202051.587500", "202052.047500", "202052.507500", "202052.967500", "202053.427500", "202053.887500", "202054.347500", "202054.807500", "202055.267500", "202055.727500", "202056.187500", "202056.647500", "202057.107500", "202057.567500", "202058.027500", "202058.487500", "202058.947500", "202059.407500", "202059.867500", "202100.327500", "202100.787500", "202101.247500", "202101.707500", "202102.167500", "202102.627500", "202103.087500", "202103.547500", "202104.007500", "202104.467500", "202104.927500", "202105.387500", "202105.847500", "202106.307500", "202106.767500", "202107.227500", "202107.687500", "202108.147500", "202108.607500", "202109.067500", "202109.527500", "202109.987500", "202110.447500", "202110.907500", "202111.367500", "202111.827500", "202112.287500", "202112.747500", "202113.207500", "202113.667500", "202114.127500", "202114.587500"],
