{
  "AcquisitionMatrixPE": 82,
  "AcquisitionNumber": 1,
  "AcquisitionTime": "20:52:43.862500",
  "BandwidthPerPixelPhaseEncode": 24.888,
  "BaseResolution": 82,
  "BodyPartExamined": "BRAIN",
  "ConsistencyInfo": "N4_VE11E_LATEST_20181129",
  "ConversionSoftware": "dcm2niix",
  "ConversionSoftwareVersion": "v1.0.20201102",
  "DerivedVendorReportedEchoSpacing": 0.00049,
  "DeviceSerialNumber": "66112",
  "DwellTime": 2e-06,
  "EchoTime": 0.0272,
  "EchoTrainLength": 82,
  "EffectiveEchoSpacing": 0.00049,
  "FlipAngle": 44,
  "ImageComments": "Unaliased MB8/PE3",
  "ImageOrientationPatientDICOM": [0.999979, 0.00336712, -0.00550021, -0.00296704, 0.997458, 0.0711948],
  "ImageType": [
    "ORIGINAL",
    "PRIMARY",
    "M",
    "MB",
    "ND",
    "NORM",
    "MOSAIC"
],
  "ImagingFrequency": 123.259,
  "InPlanePhaseEncodingDirectionDICOM": "COL",
  "InstitutionAddress": "Maynard 3,Hanover,NH,US,03755",
  "InstitutionName": "Dartmouth College - PBS",
  "InstitutionalDepartmentName": "Department",
  "MRAcquisitionType": "2D",
  "MagneticFieldStrength": 3,
  "Manufacturer": "Siemens",
  "ManufacturersModelName": "Prisma",
  "Modality": "MR",
  "MultibandAccelerationFactor": 8,
  "PartialFourier": 1,
  "PatientPosition": "HFS",
  "PercentPhaseFOV": 100,
  "PercentSampling": 100,
  "PhaseEncodingDirection": "j-",
  "PhaseEncodingSteps": 82,
  "PhaseResolution": 1,
  "PixelBandwidth": 3050,
  "ProcedureStepDescription": "Wager_Wager^1076_spacetop",
  "ProtocolName": "func_run-01_task-alignvideo_acq-ap-mb8",
  "PulseSequenceDetails": "%CustomerSeq%\\cmrr_mbep2d_bold",
  "ReceiveCoilActiveElements": "HEA;HEP",
  "ReceiveCoilName": "Head_32",
  "ReconMatrixPE": 82,
  "RepetitionTime": 0.46,
  "SAR": 0.108219,
  "ScanOptions": "FS",
  "ScanningSequence": "EP",
  "SequenceName": "epfid2d1_82",
  "SequenceVariant": "SK\\SS",
  "SeriesDescription": "func_run-01_task-alignvideo_acq-ap-mb8",
  "SeriesNumber": 30,
  "ShimSetting": [4217, -7753, -7226, 384, -158, 8, 16, 73],
  "SliceThickness": 2.7,
  "SliceTiming": [0, 0.25, 0.0625, 0.3125, 0.125, 0.375, 0.1875, 0, 0.25, 0.0625, 0.3125, 0.125, 0.375, 0.1875, 0, 0.25, 0.0625, 0.3125, 0.125, 0.375, 0.1875, 0, 0.25, 0.0625, 0.3125, 0.125, 0.375, 0.1875, 0, 0.25, 0.0625, 0.3125, 0.125, 0.375, 0.1875, 0, 0.25, 0.0625, 0.3125, 0.125, 0.375, 0.1875, 0, 0.25, 0.0625, 0.3125, 0.125, 0.375, 0.1875, 0, 0.25, 0.0625, 0.3125, 0.125, 0.375, 0.1875],
  "SoftwareVersions": "syngo MR E11",
  "SpacingBetweenSlices": 2.7,
  "StationName": "AWP66112",
  "TaskName": "alignvideo",
  "TotalReadoutTime": 0.03969,
  "TxRefAmp": 273.567,
  "WipMemBlock": "b1c9cb24-57a6-49b1-ab16-aa570bb2153f||Sequence: R016 ve11e/master r/434b28f1; Aug  7 2019 18:53:46 by eja",
  "dcmmeta_affine": [
    [-2.682871103286743, -0.007960342802107334, -0.015460073947906494, 113.79866790771484],
    [-0.009033738635480404, 2.6761069297790527, 0.19217784702777863, -102.64974212646484],
    [-0.014756670221686363, -0.19101040065288544, 2.6931076049804688, -48.62512969970703],
    [0.0, 0.0, 0.0, 1.0]
],
  "dcmmeta_reorient_transform": [
    [0.0, -1.0, 0.0, 81.0],
    [1.0, 0.0, 0.0, 0.0],
    [0.0, 0.0, 1.0, 0.0],
    [0.0, 0.0, 0.0, 1.0]
],
  "dcmmeta_shape": [82, 82, 56, 1073],
  "dcmmeta_slice_dim": 2,
  "dcmmeta_version": 0.6,
  "global": {
    "const": {
      "AccessionNumber": "A004539",
      "AcquisitionMatrix": [82, 0, 0, 82],
      "AngioFlag": "N",
      "BitsAllocated": 16,
      "BitsStored": 16,
      "BodyPartExamined": "BRAIN",
      "Columns": 656,
      "EchoNumbers": 1,
      "EchoTime": 27.2,
      "EchoTrainLength": 82,
      "FlipAngle": 44.0,
      "HighBit": 15,
      "ImageOrientationPatient": [0.99997920485936, 0.00336712070127, -0.0055002133612, -0.0029670367356, 0.99745801880134, 0.07119478507535],
      "ImagePositionPatient": [-880.85326637508, -884.75029460884, -114.6817956233],
      "ImageType": [
        "ORIGINAL",
        "PRIMARY",
        "M",
        "MB",
        "ND",
        "NORM",
        "MOSAIC"
],
      "ImagedNucleus": "1H",
      "ImagingFrequency": 123.259063,
      "InPlanePhaseEncodingDirection": "COL",
      "MRAcquisitionType": "2D",
      "MagneticFieldStrength": 3.0,
      "Manufacturer": "SIEMENS",
      "ManufacturerModelName": "Prisma",
      "Modality": "MR",
      "NumberOfAverages": 1.0,
      "NumberOfPhaseEncodingSteps": 82,
      "PercentPhaseFieldOfView": 100.0,
      "PercentSampling": 100.0,
      "PerformedProcedureStepStartTime": "192545.640000",
      "PhotometricInterpretation": "MONOCHROME2",
      "PixelBandwidth": 3050.0,
      "PixelRepresentation": 0,
      "PixelSpacing": [2.6829268932343, 2.6829268932343],
      "ProtocolName": "func_run-01_task-alignvideo_acq-ap-mb8",
      "RepetitionTime": 460.0,
      "Rows": 656,
      "SAR": 0.10821942064046,
      "SamplesPerPixel": 1,
      "ScanOptions": "FS",
      "ScanningSequence": "EP",
      "SequenceName": "epfid2d1_82",
      "SequenceVariant": [
        "SK",
        "SS"
],
      "SeriesDescription": "func_run-01_task-alignvideo_acq-ap-mb8",
      "SeriesNumber": 30,
      "SeriesTime": "205302.821000",
      "SliceLocation": -56.458909668501,
      "SliceThickness": 2.7000000476837,
      "SmallestImagePixelValue": 0,
      "SoftwareVersions": "syngo MR E11",
      "SpacingBetweenSlices": 2.6999999151456,
      "SpecificCharacterSet": "ISO_IR 100",
      "StudyID": "1",
      "StudyTime": "192545.585000",
      "TransmitCoilName": "Body",
      "VariableFlipAngleFlag": "N",
      "WindowCenterWidthExplanation": "Algo1"
    },
    "slices": {}
  },
  "time": {
    "samples": {
      "AcquisitionNumber": [1, 2, 3, 4, 5, 6, 7, 8, 9, 10, 11, 12, 13, 14, 15, 16, 17, 18, 19, 20, 21, 22, 23, 24, 25, 26, 27, 28, 29, 30, 31, 32, 33, 34, 35, 36, 37, 38, 39, 40, 41, 42, 43, 44, 45, 46, 47, 48, 49, 50, 51, 52, 53, 54, 55, 56, 57, 58, 59, 60, 61, 62, 63, 64, 65, 66, 67, 68, 69, 70, 71, 72, 73, 74, 75, 76, 77, 78, 79, 80, 81, 82, 83, 84, 85, 86, 87, 88, 89, 90, 91, 92, 93, 94, 95, 96, 97, 98, 99, 100, 101, 102, 103, 104, 105, 106, 107, 108, 109, 110, 111, 112, 113, 114, 115, 116, 117, 118, 119, 120, 121, 122, 123, 124, 125, 126, 127, 128, 129, 130, 131, 132, 133, 134, 135, 136, 137, 138, 139, 140, 141, 142, 143, 144, 145, 146, 147, 148, 149, 150, 151, 152, 153, 154, 155, 156, 157, 158, 159, 160, 161, 162, 163, 164, 165, 166, 167, 168, 169, 170, 171, 172, 173, 174, 175, 176, 177, 178, 179, 180, 181, 182, 183, 184, 185, 186, 187, 188, 189, 190, 191, 192, 193, 194, 195, 196, 197, 198, 199, 200, 201, 202, 203, 204, 205, 206, 207, 208, 209, 210, 211, 212, 213, 214, 215, 216, 217, 218, 219, 220, 221, 222, 223, 224, 225, 226, 227, 228, 229, 230, 231, 232, 233, 234, 235, 236, 237, 238, 239, 240, 241, 242, 243, 244, 245, 246, 247, 248, 249, 250, 251, 252, 253, 254, 255, 256, 257, 258, 259, 260, 261, 262, 263, 264, 265, 266, 267, 268, 269, 270, 271, 272, 273, 274, 275, 276, 277, 278, 279, 280, 281, 282, 283, 284, 285, 286, 287, 288, 289, 290, 291, 292, 293, 294, 295, 296, 297, 298, 299, 300, 301, 302, 303, 304, 305, 306, 307, 308, 309, 310, 311, 312, 313, 314, 315, 316, 317, 318, 319, 320, 321, 322, 323, 324, 325, 326, 327, 328, 329, 330, 331, 332, 333, 334, 335, 336, 337, 338, 339, 340, 341, 342, 343, 344, 345, 346, 347, 348, 349, 350, 351, 352, 353, 354, 355, 356, 357, 358, 359, 360, 361, 362, 363, 364, 365, 366, 367, 368, 369, 370, 371, 372, 373, 374, 375, 376, 377, 378, 379, 380, 381, 382, 383, 384, 385, 386, 387, 388, 389, 390, 391, 392, 393, 394, 395, 396, 397, 398, 399, 400, 401, 402, 403, 404, 405, 406, 407, 408, 409, 410, 411, 412, 413, 414, 415, 416, 417, 418, 419, 420, 421, 422, 423, 424, 425, 426, 427, 428, 429, 430, 431, 432, 433, 434, 435, 436, 437, 438, 439, 440, 441, 442, 443, 444, 445, 446, 447, 448, 449, 450, 451, 452, 453, 454, 455, 456, 457, 458, 459, 460, 461, 462, 463, 464, 465, 466, 467, 468, 469, 470, 471, 472, 473, 474, 475, 476, 477, 478, 479, 480, 481, 482, 483, 484, 485, 486, 487, 488, 489, 490, 491, 492, 493, 494, 495, 496, 497, 498, 499, 500, 501, 502, 503, 504, 505, 506, 507, 508, 509, 510, 511, 512, 513, 514, 515, 516, 517, 518, 519, 520, 521, 522, 523, 524, 525, 526, 527, 528, 529, 530, 531, 532, 533, 534, 535, 536, 537, 538, 539, 540, 541, 542, 543, 544, 545, 546, 547, 548, 549, 550, 551, 552, 553, 554, 555, 556, 557, 558, 559, 560, 561, 562, 563, 564, 565, 566, 567, 568, 569, 570, 571, 572, 573, 574, 575, 576, 577, 578, 579, 580, 581, 582, 583, 584, 585, 586, 587, 588, 589, 590, 591, 592, 593, 594, 595, 596, 597, 598, 599, 600, 601, 602, 603, 604, 605, 606, 607, 608, 609, 610, 611, 612, 613, 614, 615, 616, 617, 618, 619, 620, 621, 622, 623, 624, 625, 626, 627, 628, 629, 630, 631, 632, 633, 634, 635, 636, 637, 638, 639, 640, 641, 642, 643, 644, 645, 646, 647, 648, 649, 650, 651, 652, 653, 654, 655, 656, 657, 658, 659, 660, 661, 662, 663, 664, 665, 666, 667, 668, 669, 670, 671, 672, 673, 674, 675, 676, 677, 678, 679, 680, 681, 682, 683, 684, 685, 686, 687, 688, 689, 690, 691, 692, 693, 694, 695, 696, 697, 698, 699, 700, 701, 702, 703, 704, 705, 706, 707, 708, 709, 710, 711, 712, 713, 714, 715, 716, 717, 718, 719, 720, 721, 722, 723, 724, 725, 726, 727, 728, 729, 730, 731, 732, 733, 734, 735, 736, 737, 738, 739, 740, 741, 742, 743, 744, 745, 746, 747, 748, 749, 750, 751, 752, 753, 754, 755, 756, 757, 758, 759, 760, 761, 762, 763, 764, 765, 766, 767, 768, 769, 770, 771, 772, 773, 774, 775, 776, 777, 778, 779, 780, 781, 782, 783, 784, 785, 786, 787, 788, 789, 790, 791, 792, 793, 794, 795, 796, 797, 798, 799, 800, 801, 802, 803, 804, 805, 806, 807, 808, 809, 810, 811, 812, 813, 814, 815, 816, 817, 818, 819, 820, 821, 822, 823, 824, 825, 826, 827, 828, 829, 830, 831, 832, 833, 834, 835, 836, 837, 838, 839, 840, 841, 842, 843, 844, 845, 846, 847, 848, 849, 850, 851, 852, 853, 854, 855, 856, 857, 858, 859, 860, 861, 862, 863, 864, 865, 866, 867, 868, 869, 870, 871, 872, 873, 874, 875, 876, 877, 878, 879, 880, 881, 882, 883, 884, 885, 886, 887, 888, 889, 890, 891, 892, 893, 894, 895, 896, 897, 898, 899, 900, 901, 902, 903, 904, 905, 906, 907, 908, 909, 910, 911, 912, 913, 914, 915, 916, 917, 918, 919, 920, 921, 922, 923, 924, 925, 926, 927, 928, 929, 930, 931, 932, 933, 934, 935, 936, 937, 938, 939, 940, 941, 942, 943, 944, 945, 946, 947, 948, 949, 950, 951, 952, 953, 954, 955, 956, 957, 958, 959, 960, 961, 962, 963, 964, 965, 966, 967, 968, 969, 970, 971, 972, 973, 974, 975, 976, 977, 978, 979, 980, 981, 982, 983, 984, 985, 986, 987, 988, 989, 990, 991, 992, 993, 994, 995, 996, 997, 998, 999, 1000, 1001, 1002, 1003, 1004, 1005, 1006, 1007, 1008, 1009, 1010, 1011, 1012, 1013, 1014, 1015, 1016, 1017, 1018, 1019, 1020, 1021, 1022, 1023, 1024, 1025, 1026, 1027, 1028, 1029, 1030, 1031, 1032, 1033, 1034, 1035, 1036, 1037, 1038, 1039, 1040, 1041, 1042, 1043, 1044, 1045, 1046, 1047, 1048, 1049, 1050, 1051, 1052, 1053, 1054, 1055, 1056, 1057, 1058, 1059, 1060, 1061, 1062, 1063, 1064, 1065, 1066, 1067, 1068, 1069, 1070, 1071, 1072, 1073],
      "AcquisitionTime": ["205243.862500", "205244.322500", "205244.782500", "205245.242500", "205245.702500", "205246.162500", "205246.622500", "205247.082500", "205247.542500", "205248.002500", "205248.462500", "205248.922500", "205249.382500", "205249.842500", "205250.302500", "205250.762500", "205251.222500", "205251.682500", "205252.142500", "205252.602500", "205253.062500", "205253.522500", "205253.982500", "205254.442500", "205254.902500", "205255.362500", "205255.822500", "205256.282500", "205256.742500", "205257.202500", "205257.662500", "205258.122500", "205258.582500", "205259.042500", "205259.502500", "205259.962500", "205300.422500", "205300.882500", "205301.342500", "205301.802500", "205302.262500", "205302.722500", "205303.182500", "205303.642500", "205304.102500", "205304.562500", "205305.022500", "205305.482500", "205305.942500", "205306.402500", "205306.862500", "205307.322500", "205307.782500", "205308.242500", "205308.702500", "205309.162500", "205309.622500", "205310.082500", "205310.542500", "205311.002500", "205311.462500", "205311.922500", "205312.382500", "205312.842500", "205313.302500", "205313.762500", "205314.222500", "205314.682500", "205315.142500", "205315.602500", "205316.062500", "205316.522500", "205316.982500", "205317.442500", "205317.902500", "205318.362500", "205318.822500", "205319.282500", "205319.742500", "205320.202500", "205320.662500", "205321.122500", "205321.582500", "205322.042500", "205322.502500", "205322.962500", "205323.422500", "205323.882500", "205324.342500", "205324.802500", "205325.262500", "205325.722500", "205326.182500", "205326.642500", "205327.102500", "205327.562500", "205328.022500", "205328.482500", "205328.942500", "205329.402500", "205329.862500", "205330.322500", "205330.782500", "205331.242500", "205331.702500", "205332.162500", "205332.622500", "205333.082500", "205333.542500", "205334.002500", "205334.462500", "205334.922500", "205335.382500", "205335.842500", "205336.302500", "205336.762500", "205337.222500", "205337.682500", "205338.142500", "205338.602500", "205339.062500", "205339.522500", "205339.982500", "205340.442500", "205340.902500", "205341.362500", "205341.822500", "205342.282500", "205342.742500", "205343.202500", "205343.662500", "205344.122500", "205344.582500", "205345.042500", "205345.502500", "205345.962500", "205346.422500", "205346.882500", "205347.342500", "205347.802500", "205348.262500", "205348.722500", "205349.182500", "205349.642500", "205350.102500", "205350.562500", "205351.022500", "205351.482500", "205351.942500", "205352.402500", "205352.862500", "205353.322500", "205353.782500", "205354.242500", "205354.702500", "205355.162500", "205355.622500", "205356.082500", "205356.542500", "205357.002500", "205357.462500", "205357.922500", "205358.382500", "205358.842500", "205359.302500", "205359.762500", "205400.222500", "205400.682500", "205401.142500", "205401.602500", "205402.062500", "205402.522500", "205402.982500", "205403.442500", "205403.902500", "205404.362500", "205404.822500", "205405.282500", "205405.742500", "205406.202500", "205406.662500", "205407.122500", "205407.582500", "205408.042500", "205408.502500", "205408.962500", "205409.422500", "205409.882500", "205410.342500", "205410.802500", "205411.262500", "205411.722500", "205412.182500", "205412.642500", "205413.102500", "205413.562500", "205414.022500", "205414.482500", "205414.942500", "205415.402500", "205415.862500", "205416.322500", "205416.782500", "205417.242500", "205417.702500", "205418.162500", "205418.622500", "205419.082500", "205419.542500", "205420.002500", "205420.462500", "205420.922500", "205421.382500", "205421.842500", "205422.302500", "205422.762500", "205423.222500", "205423.682500", "205424.142500", "205424.602500", "205425.062500", "205425.522500", "205425.982500", "205426.442500", "205426.902500", "205427.362500", "205427.822500", "205428.282500", "205428.742500", "205429.202500", "205429.662500", "205430.122500", "205430.582500", "205431.042500", "205431.502500", "205431.962500", "205432.422500", "205432.882500", "205433.342500", "205433.802500", "205434.262500", "205434.722500", "205435.182500", "205435.642500", "205436.102500", "205436.562500", "205437.022500", "205437.482500", "205437.942500", "205438.402500", "205438.862500", "205439.322500", "205439.782500", "205440.242500", "205440.702500", "205441.162500", "205441.622500", "205442.082500", "205442.542500", "205443.002500", "205443.462500", "205443.922500", "205444.382500", "205444.842500", "205445.302500", "205445.762500", "205446.222500", "205446.682500", "205447.142500", "205447.602500", "205448.062500", "205448.522500", "205448.982500", "205449.442500", "205449.902500", "205450.362500", "205450.822500", "205451.282500", "205451.742500", "205452.202500", "205452.662500", "205453.122500", "205453.582500", "205454.042500", "205454.502500", "205454.962500", "205455.422500", "205455.882500", "205456.342500", "205456.802500", "205457.262500", "205457.722500", "205458.182500", "205458.642500", "205459.102500", "205459.562500", "205500.022500", "205500.482500", "205500.942500", "205501.402500", "205501.862500", "205502.322500", "205502.782500", "205503.242500", "205503.702500", "205504.162500", "205504.622500", "205505.082500", "205505.542500", "205506.002500", "205506.462500", "205506.922500", "205507.382500", "205507.842500", "205508.302500", "205508.762500", "205509.222500", "205509.682500", "205510.142500", "205510.602500", "205511.062500", "205511.522500", "205511.982500", "205512.442500", "205512.902500", "205513.362500", "205513.822500", "205514.282500", "205514.742500", "205515.202500", "205515.662500", "205516.122500", "205516.582500", "205517.042500", "205517.502500", "205517.962500", "205518.422500", "205518.882500", "205519.342500", "205519.802500", "205520.262500", "205520.722500", "205521.182500", "205521.642500", "205522.102500", "205522.562500", "205523.022500", "205523.482500", "205523.942500", "205524.402500", "205524.862500", "205525.322500", "205525.782500", "205526.242500", "205526.702500", "205527.162500", "205527.622500", "205528.082500", "205528.542500", "205529.002500", "205529.462500", "205529.922500", "205530.382500", "205530.842500", "205531.302500", "205531.762500", "205532.222500", "205532.682500", "205533.142500", "205533.602500", "205534.062500", "205534.522500", "205534.982500", "205535.442500", "205535.902500", "205536.362500", "205536.822500", "205537.282500", "205537.742500", "205538.202500", "205538.662500", "205539.122500", "205539.582500", "205540.042500", "205540.502500", "205540.962500", "205541.422500", "205541.882500", "205542.342500", "205542.802500", "205543.262500", "205543.722500", "205544.182500", "205544.642500", "205545.102500", "205545.562500", "205546.022500", "205546.482500", "205546.942500", "205547.402500", "205547.862500", "205548.322500", "205548.782500", "205549.242500", "205549.702500", "205550.162500", "205550.622500", "205551.082500", "205551.542500", "205552.002500", "205552.462500", "205552.922500", "205553.382500", "205553.842500", "205554.302500", "205554.762500", "205555.222500", "205555.682500", "205556.142500", "205556.602500", "205557.062500", "205557.522500", "205557.982500", "205558.442500", "205558.902500", "205559.362500", "205559.822500", "205600.282500", "205600.742500", "205601.202500", "205601.662500", "205602.122500", "205602.582500", "205603.042500", "205603.502500", "205603.962500", "205604.422500", "205604.882500", "205605.342500", "205605.802500", "205606.262500", "205606.722500", "205607.182500", "205607.642500", "205608.102500", "205608.562500", "205609.022500", "205609.482500", "205609.942500", "205610.402500", "205610.862500", "205611.322500", "205611.782500", "205612.242500", "205612.702500", "205613.162500", "205613.622500", "205614.082500", "205614.542500", "205615.002500", "205615.462500", "205615.922500", "205616.382500", "205616.842500", "205617.302500", "205617.762500", "205618.222500", "205618.682500", "205619.142500", "205619.602500", "205620.062500", "205620.522500", "205620.982500", "205621.442500", "205621.902500", "205622.362500", "205622.822500", "205623.282500", "205623.742500", "205624.202500", "205624.662500", "205625.122500", "205625.582500", "205626.042500", "205626.502500", "205626.962500", "205627.422500", "205627.882500", "205628.342500", "205628.802500", "205629.262500", "205629.722500", "205630.182500", "205630.642500", "205631.102500", "205631.562500", "205632.022500", "205632.482500", "205632.942500", "205633.402500", "205633.862500", "205634.322500", "205634.782500", "205635.242500", "205635.702500", "205636.162500", "205636.622500", "205637.082500", "205637.542500", "205638.002500", "205638.462500", "205638.922500", "205639.382500", "205639.842500", "205640.302500", "205640.762500", "205641.222500", "205641.682500", "205642.142500", "205642.602500", "205643.062500", "205643.522500", "205643.982500", "205644.442500", "205644.902500", "205645.362500", "205645.822500", "205646.282500", "205646.742500", "205647.202500", "205647.662500", "205648.122500", "205648.582500", "205649.042500", "205649.502500", "205649.962500", "205650.422500", "205650.882500", "205651.342500", "205651.802500", "205652.262500", "205652.722500", "205653.182500", "205653.642500", "205654.102500", "205654.562500", "205655.022500", "205655.482500", "205655.942500", "205656.402500", "205656.862500", "205657.322500", "205657.782500", "205658.242500", "205658.702500", "205659.162500", "205659.622500", "205700.082500", "205700.542500", "205701.002500", "205701.462500", "205701.922500", "205702.382500", "205702.842500", "205703.302500", "205703.762500", "205704.222500", "205704.682500", "205705.142500", "205705.602500", "205706.062500", "205706.522500", "205706.982500", "205707.442500", "205707.902500", "205708.362500", "205708.822500", "205709.282500", "205709.742500", "205710.202500", "205710.662500", "205711.122500", "205711.582500", "205712.042500", "205712.502500", "205712.962500", "205713.422500", "205713.882500", "205714.342500", "205714.802500", "205715.262500", "205715.722500", "205716.182500", "205716.642500", "205717.102500", "205717.562500", "205718.022500", "205718.482500", "205718.942500", "205719.402500", "205719.862500", "205720.322500", "205720.782500", "205721.242500", "205721.702500", "205722.162500", "205722.622500", "205723.082500", "205723.542500", "205724.002500", "205724.462500", "205724.922500", "205725.382500", "205725.842500", "205726.302500", "205726.762500", "205727.222500", "205727.682500", "205728.142500", "205728.602500", "205729.062500", "205729.522500", "205729.982500", "205730.442500", "205730.902500", "205731.362500", "205731.822500", "205732.282500", "205732.742500", "205733.202500", "205733.662500", "205734.122500", "205734.582500", "205735.042500", "205735.502500", "205735.962500", "205736.422500", "205736.882500", "205737.342500", "205737.802500", "205738.262500", "205738.722500", "205739.182500", "205739.642500", "205740.102500", "205740.562500", "205741.022500", "205741.482500", "205741.942500", "205742.402500", "205742.862500", "205743.322500", "205743.782500", "205744.242500", "205744.702500", "205745.162500", "205745.622500", "205746.082500", "205746.542500", "205747.002500", "205747.462500", "205747.922500", "205748.382500", "205748.842500", "205749.302500", "205749.762500", "205750.222500", "205750.682500", "205751.142500", "205751.602500", "205752.062500", "205752.522500", "205752.982500", "205753.442500", "205753.902500", "205754.362500", "205754.822500", "205755.282500", "205755.742500", "205756.202500", "205756.662500", "205757.122500", "205757.582500", "205758.042500", "205758.502500", "205758.962500", "205759.422500", "205759.882500", "205800.342500", "205800.802500", "205801.262500", "205801.722500", "205802.182500", "205802.642500", "205803.102500", "205803.562500", "205804.022500", "205804.482500", "205804.942500", "205805.402500", "205805.862500", "205806.322500", "205806.782500", "205807.242500", "205807.702500", "205808.162500", "205808.622500", "205809.082500", "205809.542500", "205810.002500", "205810.462500", "205810.922500", "205811.382500", "205811.842500", "205812.302500", "205812.762500", "205813.222500", "205813.682500", "205814.142500", "205814.602500", "205815.062500", "205815.522500", "205815.982500", "205816.442500", "205816.902500", "205817.362500", "205817.822500", "205818.282500", "205818.742500", "205819.202500", "205819.662500", "205820.122500", "205820.582500", "205821.042500", "205821.502500", "205821.962500", "205822.422500", "205822.882500", "205823.342500", "205823.802500", "205824.262500", "205824.722500", "205825.182500", "205825.642500", "205826.102500", "205826.562500", "205827.022500", "205827.482500", "205827.942500", "205828.402500", "205828.862500", "205829.322500", "205829.782500", "205830.242500", "205830.702500", "205831.162500", "205831.622500", "205832.082500", "205832.542500", "205833.002500", "205833.462500", "205833.922500", "205834.382500", "205834.842500", "205835.302500", "205835.762500", "205836.222500", "205836.682500", "205837.142500", "205837.602500", "205838.062500", "205838.522500", "205838.982500", "205839.442500", "205839.902500", "205840.362500", "205840.822500", "205841.282500", "205841.742500", "205842.202500", "205842.662500", "205843.122500", "205843.582500", "205844.042500", "205844.502500", "205844.962500", "205845.422500", "205845.882500", "205846.342500", "205846.802500", "205847.262500", "205847.722500", "205848.182500", "205848.642500", "205849.102500", "205849.562500", "205850.022500", "205850.482500", "205850.942500", "205851.402500", "205851.862500", "205852.322500", "205852.782500", "205853.242500", "205853.702500", "205854.162500", "205854.622500", "205855.082500", "205855.542500", "205856.002500", "205856.462500", "205856.922500", "205857.382500", "205857.842500", "205858.302500", "205858.762500", "205859.222500", "205859.682500", "205900.142500", "205900.602500", "205901.062500", "205901.522500", "205901.982500", "205902.442500", "205902.902500", "205903.362500", "205903.822500", "205904.282500", "205904.742500", "205905.202500", "205905.662500", "205906.122500", "205906.582500", "205907.042500", "205907.502500", "205907.962500", "205908.422500", "205908.882500", "205909.342500", "205909.802500", "205910.262500", "205910.722500", "205911.182500", "205911.642500", "205912.102500", "205912.562500", "205913.022500", "205913.482500", "205913.942500", "205914.402500", "205914.862500", "205915.322500", "205915.782500", "205916.242500", "205916.702500", "205917.162500", "205917.622500", "205918.082500", "205918.542500", "205919.002500", "205919.462500", "205919.922500", "205920.382500", "205920.842500", "205921.302500", "205921.762500", "205922.222500", "205922.682500", "205923.142500", "205923.602500", "205924.062500", "205924.522500", "205924.982500", "205925.442500", "205925.902500", "205926.362500", "205926.822500", "205927.282500", "205927.742500", "205928.202500", "205928.662500", "205929.122500", "205929.582500", "205930.042500", "205930.502500", "205930.962500", "205931.422500", "205931.882500", "205932.342500", "205932.802500", "205933.262500", "205933.722500", "205934.182500", "205934.642500", "205935.102500", "205935.562500", "205936.022500", "205936.482500", "205936.942500", "205937.402500", "205937.862500", "205938.322500", "205938.782500", "205939.242500", "205939.702500", "205940.162500", "205940.622500", "205941.082500", "205941.542500", "205942.002500", "205942.462500", "205942.922500", "205943.382500", "205943.842500", "205944.302500", "205944.762500", "205945.222500", "205945.682500", "205946.142500", "205946.602500", "205947.062500", "205947.522500", "205947.982500", "205948.442500", "205948.902500", "205949.362500", "205949.822500", "205950.282500", "205950.742500", "205951.202500", "205951.662500", "205952.122500", "205952.582500", "205953.042500", "205953.502500", "205953.962500", "205954.422500", "205954.882500", "205955.342500", "205955.802500", "205956.262500", "205956.722500", "205957.182500", "205957.642500", "205958.102500", "205958.562500", "205959.022500", "205959.482500", "205959.942500", "210000.402500", "210000.862500", "210001.322500", "210001.782500", "210002.242500", "210002.702500", "210003.162500", "210003.622500", "210004.082500", "210004.542500", "210005.002500", "210005.462500", "210005.922500", "210006.382500", "210006.842500", "210007.302500", "210007.762500", "210008.222500", "210008.682500", "210009.142500", "210009.602500", "210010.062500", "210010.522500", "210010.982500", "210011.442500", "210011.902500", "210012.362500", "210012.822500", "210013.282500", "210013.742500", "210014.202500", "210014.662500", "210015.122500", "210015.582500", "210016.042500", "210016.502500", "210016.962500", "210017.422500", "210017.882500", "210018.342500", "210018.802500", "210019.262500", "210019.722500", "210020.182500", "210020.642500", "210021.102500", "210021.562500", "210022.022500", "210022.482500", "210022.942500", "210023.402500", "210023.862500", "210024.322500", "210024.782500", "210025.242500", "210025.702500", "210026.162500", "210026.622500", "210027.082500", "210027.542500", "210028.002500", "210028.462500", "210028.922500", "210029.382500", "210029.842500", "210030.302500", "210030.762500", "210031.222500", "210031.682500", "210032.142500", "210032.602500", "210033.062500", "210033.522500", "210033.982500", "210034.442500", "210034.902500", "210035.362500", "210035.822500", "210036.282500", "210036.742500", "210037.202500", "210037.662500", "210038.122500", "210038.582500", "210039.042500", "210039.502500", "210039.962500", "210040.422500", "210040.882500", "210041.342500", "210041.802500", "210042.262500", "210042.722500", "210043.182500", "210043.642500", "210044.102500", "210044.562500", "210045.022500", "210045.482500", "210045.942500", "210046.402500", "210046.862500", "210047.322500", "210047.782500", "210048.242500", "210048.702500", "210049.162500", "210049.622500", "210050.082500", "210050.542500", "210051.002500", "210051.462500", "210051.922500", "210052.382500", "210052.842500", "210053.302500", "210053.762500", "210054.222500", "210054.682500", "210055.142500", "210055.602500", "210056.062500", "210056.522500", "210056.982500"],
