{
  "AcquisitionMatrixPE": 82,
  "AcquisitionNumber": 1,
  "AcquisitionTime": "09:02:8.367500",
  "BandwidthPerPixelPhaseEncode": 24.888,
  "BaseResolution": 82,
  "BodyPartExamined": "BRAIN",
  "ConsistencyInfo": "N4_VE11E_LATEST_20181129",
  "ConversionSoftware": "dcm2niix",
  "ConversionSoftwareVersion": "v1.0.20201102",
  "DerivedVendorReportedEchoSpacing": 0.00049,
  "DeviceSerialNumber": "66112",
  "DwellTime": 2e-06,
  "EchoTime": 0.0272,
  "EchoTrainLength": 82,
  "EffectiveEchoSpacing": 0.00049,
  "FlipAngle": 44,
  "ImageComments": "Unaliased MB8/PE3",
  "ImageOrientationPatientDICOM": [0.999863, -0.0149052, -0.00716229, 0.0153579, 0.997568, 0.0679843],
  "ImageType": [
    "ORIGINAL",
    "PRIMARY",
    "M",
    "MB",
    "ND",
    "NORM",
    "MOSAIC"
],
  "ImagingFrequency": 123.252,
  "InPlanePhaseEncodingDirectionDICOM": "COL",
  "InstitutionAddress": "Maynard 3,Hanover,NH,US,03755",
  "InstitutionName": "Dartmouth College - PBS",
  "InstitutionalDepartmentName": "Department",
  "MRAcquisitionType": "2D",
  "MagneticFieldStrength": 3,
  "Manufacturer": "Siemens",
  "ManufacturersModelName": "Prisma",
  "Modality": "MR",
  "MultibandAccelerationFactor": 8,
  "PartialFourier": 1,
  "PatientPosition": "HFS",
  "PercentPhaseFOV": 100,
  "PercentSampling": 100,
  "PhaseEncodingDirection": "j-",
  "PhaseEncodingSteps": 82,
  "PhaseResolution": 1,
  "PixelBandwidth": 3050,
  "ProcedureStepDescription": "Wager_Wager^1076_spacetop",
  "ProtocolName": "func_run-01_task-social_acq-ap-mb8",
  "PulseSequenceDetails": "%CustomerSeq%\\cmrr_mbep2d_bold",
  "ReceiveCoilActiveElements": "HEA;HEP",
  "ReceiveCoilName": "Head_32",
  "ReconMatrixPE": 82,
  "RepetitionTime": 0.46,
  "SAR": 0.0952045,
  "ScanOptions": "FS",
  "ScanningSequence": "EP",
  "SequenceName": "epfid2d1_82",
  "SequenceVariant": "SK\\SS",
  "SeriesDescription": "func_run-01_task-social_acq-ap-mb8",
  "SeriesNumber": 8,
  "ShimSetting": [4147, -7754, -7279, 646, -41, -142, 94, 72],
  "SliceThickness": 2.7,
  "SliceTiming": [0, 0.2525, 0.065, 0.315, 0.1275, 0.3775, 0.19, 0, 0.2525, 0.065, 0.315, 0.1275, 0.3775, 0.19, 0, 0.2525, 0.065, 0.315, 0.1275, 0.3775, 0.19, 0, 0.2525, 0.065, 0.315, 0.1275, 0.3775, 0.19, 0, 0.2525, 0.065, 0.315, 0.1275, 0.3775, 0.19, 0, 0.2525, 0.065, 0.315, 0.1275, 0.3775, 0.19, 0, 0.2525, 0.065, 0.315, 0.1275, 0.3775, 0.19, 0, 0.2525, 0.065, 0.315, 0.1275, 0.3775, 0.19],
  "SoftwareVersions": "syngo MR E11",
  "SpacingBetweenSlices": 2.7,
  "StationName": "AWP66112",
  "TaskName": "social",
  "TotalReadoutTime": 0.03969,
  "TxRefAmp": 236.686,
  "WipMemBlock": "eeee476f-9a5c-4edf-98b0-d8bf6a4e8a3c||Sequence: R016 ve11e/master r/434b28f1; Aug  7 2019 18:53:46 by eja",
  "dcmmeta_affine": [
    [-2.6825599670410156, 0.04120420292019844, -0.016555195674300194, 111.66639709472656],
    [0.03998943790793419, 2.6764025688171387, 0.1838293969631195, -102.57610321044922],
    [-0.019215893000364304, -0.182396799325943, 2.6936838626861572, -65.18501281738281],
    [0.0, 0.0, 0.0, 1.0]
],
  "dcmmeta_reorient_transform": [
    [0.0, -1.0, 0.0, 81.0],
    [1.0, 0.0, 0.0, 0.0],
    [0.0, 0.0, 1.0, 0.0],
    [0.0, 0.0, 0.0, 1.0]
],
  "dcmmeta_shape": [82, 82, 56, 872],
  "dcmmeta_slice_dim": 2,
  "dcmmeta_version": 0.6,
  "global": {
    "const": {
      "AccessionNumber": "A004210",
      "AcquisitionMatrix": [82, 0, 0, 82],
      "AngioFlag": "N",
      "BitsAllocated": 16,
      "BitsStored": 16,
      "BodyPartExamined": "BRAIN",
      "Columns": 656,
      "EchoNumbers": 1,
      "EchoTime": 27.2,
      "EchoTrainLength": 82,
      "FlipAngle": 44.0,
      "HighBit": 15,
      "ImageOrientationPatient": [0.99986325966141, -0.0149051542881, -0.0071622869888, 0.01535793047331, 0.99756818027, 0.06798426056366],
      "ImagePositionPatient": [-896.72427086026, -870.86304467654, -126.79207581495],
      "ImageType": [
        "ORIGINAL",
        "PRIMARY",
        "M",
        "MB",
        "ND",
        "NORM",
        "MOSAIC"
],
      "ImagedNucleus": "1H",
      "ImagingFrequency": 123.252191,
      "InPlanePhaseEncodingDirection": "COL",
      "MRAcquisitionType": "2D",
      "MagneticFieldStrength": 3.0,
      "Manufacturer": "SIEMENS",
      "ManufacturerModelName": "Prisma",
      "Modality": "MR",
      "NumberOfAverages": 1.0,
      "NumberOfPhaseEncodingSteps": 82,
      "PercentPhaseFieldOfView": 100.0,
      "PercentSampling": 100.0,
      "PerformedProcedureStepStartTime": "084337.198000",
      "PhotometricInterpretation": "MONOCHROME2",
      "PixelBandwidth": 3050.0,
      "PixelRepresentation": 0,
      "PixelSpacing": [2.6829268932343, 2.6829268932343],
      "ProtocolName": "func_run-01_task-social_acq-ap-mb8",
      "RepetitionTime": 460.0,
      "Rows": 656,
      "SAR": 0.09520451097417,
      "SamplesPerPixel": 1,
      "ScanOptions": "FS",
      "ScanningSequence": "EP",
      "SequenceName": "epfid2d1_82",
      "SequenceVariant": [
        "SK",
        "SS"
],
      "SeriesDescription": "func_run-01_task-social_acq-ap-mb8",
      "SeriesNumber": 8,
      "SeriesTime": "090234.640000",
      "SliceLocation": -72.701104661496,
      "SliceThickness": 2.7000000476837,
      "SmallestImagePixelValue": 0,
      "SoftwareVersions": "syngo MR E11",
      "SpacingBetweenSlices": 2.6999999843131,
      "SpecificCharacterSet": "ISO_IR 100",
      "StudyID": "1",
      "StudyTime": "084337.059000",
      "TransmitCoilName": "Body",
      "VariableFlipAngleFlag": "N",
      "WindowCenterWidthExplanation": "Algo1"
    },
    "slices": {}
  },
  "time": {
    "samples": {
      "AcquisitionNumber": [1, 2, 3, 4, 5, 6, 7, 8, 9, 10, 11, 12, 13, 14, 15, 16, 17, 18, 19, 20, 21, 22, 23, 24, 25, 26, 27, 28, 29, 30, 31, 32, 33, 34, 35, 36, 37, 38, 39, 40, 41, 42, 43, 44, 45, 46, 47, 48, 49, 50, 51, 52, 53, 54, 55, 56, 57, 58, 59, 60, 61, 62, 63, 64, 65, 66, 67, 68, 69, 70, 71, 72, 73, 74, 75, 76, 77, 78, 79, 80, 81, 82, 83, 84, 85, 86, 87, 88, 89, 90, 91, 92, 93, 94, 95, 96, 97, 98, 99, 100, 101, 102, 103, 104, 105, 106, 107, 108, 109, 110, 111, 112, 113, 114, 115, 116, 117, 118, 119, 120, 121, 122, 123, 124, 125, 126, 127, 128, 129, 130, 131, 132, 133, 134, 135, 136, 137, 138, 139, 140, 141, 142, 143, 144, 145, 146, 147, 148, 149, 150, 151, 152, 153, 154, 155, 156, 157, 158, 159, 160, 161, 162, 163, 164, 165, 166, 167, 168, 169, 170, 171, 172, 173, 174, 175, 176, 177, 178, 179, 180, 181, 182, 183, 184, 185, 186, 187, 188, 189, 190, 191, 192, 193, 194, 195, 196, 197, 198, 199, 200, 201, 202, 203, 204, 205, 206, 207, 208, 209, 210, 211, 212, 213, 214, 215, 216, 217, 218, 219, 220, 221, 222, 223, 224, 225, 226, 227, 228, 229, 230, 231, 232, 233, 234, 235, 236, 237, 238, 239, 240, 241, 242, 243, 244, 245, 246, 247, 248, 249, 250, 251, 252, 253, 254, 255, 256, 257, 258, 259, 260, 261, 262, 263, 264, 265, 266, 267, 268, 269, 270, 271, 272, 273, 274, 275, 276, 277, 278, 279, 280, 281, 282, 283, 284, 285, 286, 287, 288, 289, 290, 291, 292, 293, 294, 295, 296, 297, 298, 299, 300, 301, 302, 303, 304, 305, 306, 307, 308, 309, 310, 311, 312, 313, 314, 315, 316, 317, 318, 319, 320, 321, 322, 323, 324, 325, 326, 327, 328, 329, 330, 331, 332, 333, 334, 335, 336, 337, 338, 339, 340, 341, 342, 343, 344, 345, 346, 347, 348, 349, 350, 351, 352, 353, 354, 355, 356, 357, 358, 359, 360, 361, 362, 363, 364, 365, 366, 367, 368, 369, 370, 371, 372, 373, 374, 375, 376, 377, 378, 379, 380, 381, 382, 383, 384, 385, 386, 387, 388, 389, 390, 391, 392, 393, 394, 395, 396, 397, 398, 399, 400, 401, 402, 403, 404, 405, 406, 407, 408, 409, 410, 411, 412, 413, 414, 415, 416, 417, 418, 419, 420, 421, 422, 423, 424, 425, 426, 427, 428, 429, 430, 431, 432, 433, 434, 435, 436, 437, 438, 439, 440, 441, 442, 443, 444, 445, 446, 447, 448, 449, 450, 451, 452, 453, 454, 455, 456, 457, 458, 459, 460, 461, 462, 463, 464, 465, 466, 467, 468, 469, 470, 471, 472, 473, 474, 475, 476, 477, 478, 479, 480, 481, 482, 483, 484, 485, 486, 487, 488, 489, 490, 491, 492, 493, 494, 495, 496, 497, 498, 499, 500, 501, 502, 503, 504, 505, 506, 507, 508, 509, 510, 511, 512, 513, 514, 515, 516, 517, 518, 519, 520, 521, 522, 523, 524, 525, 526, 527, 528, 529, 530, 531, 532, 533, 534, 535, 536, 537, 538, 539, 540, 541, 542, 543, 544, 545, 546, 547, 548, 549, 550, 551, 552, 553, 554, 555, 556, 557, 558, 559, 560, 561, 562, 563, 564, 565, 566, 567, 568, 569, 570, 571, 572, 573, 574, 575, 576, 577, 578, 579, 580, 581, 582, 583, 584, 585, 586, 587, 588, 589, 590, 591, 592, 593, 594, 595, 596, 597, 598, 599, 600, 601, 602, 603, 604, 605, 606, 607, 608, 609, 610, 611, 612, 613, 614, 615, 616, 617, 618, 619, 620, 621, 622, 623, 624, 625, 626, 627, 628, 629, 630, 631, 632, 633, 634, 635, 636, 637, 638, 639, 640, 641, 642, 643, 644, 645, 646, 647, 648, 649, 650, 651, 652, 653, 654, 655, 656, 657, 658, 659, 660, 661, 662, 663, 664, 665, 666, 667, 668, 669, 670, 671, 672, 673, 674, 675, 676, 677, 678, 679, 680, 681, 682, 683, 684, 685, 686, 687, 688, 689, 690, 691, 692, 693, 694, 695, 696, 697, 698, 699, 700, 701, 702, 703, 704, 705, 706, 707, 708, 709, 710, 711, 712, 713, 714, 715, 716, 717, 718, 719, 720, 721, 722, 723, 724, 725, 726, 727, 728, 729, 730, 731, 732, 733, 734, 735, 736, 737, 738, 739, 740, 741, 742, 743, 744, 745, 746, 747, 748, 749, 750, 751, 752, 753, 754, 755, 756, 757, 758, 759, 760, 761, 762, 763, 764, 765, 766, 767, 768, 769, 770, 771, 772, 773, 774, 775, 776, 777, 778, 779, 780, 781, 782, 783, 784, 785, 786, 787, 788, 789, 790, 791, 792, 793, 794, 795, 796, 797, 798, 799, 800, 801, 802, 803, 804, 805, 806, 807, 808, 809, 810, 811, 812, 813, 814, 815, 816, 817, 818, 819, 820, 821, 822, 823, 824, 825, 826, 827, 828, 829, 830, 831, 832, 833, 834, 835, 836, 837, 838, 839, 840, 841, 842, 843, 844, 845, 846, 847, 848, 849, 850, 851, 852, 853, 854, 855, 856, 857, 858, 859, 860, 861, 862, 863, 864, 865, 866, 867, 868, 869, 870, 871, 872],
      "AcquisitionTime": ["090208.367500", "090208.827500", "090209.287500", "090209.747500", "090210.207500", "090210.667500", "090211.127500", "090211.587500", "090212.047500", "090212.507500", "090212.967500", "090213.427500", "090213.887500", "090214.347500", "090214.807500", "090215.267500", "090215.727500", "090216.187500", "090216.647500", "090217.107500", "090217.567500", "090218.027500", "090218.487500", "090218.947500", "090219.407500", "090219.867500", "090220.327500", "090220.787500", "090221.247500", "090221.707500", "090222.167500", "090222.627500", "090223.087500", "090223.547500", "090224.007500", "090224.467500", "090224.927500", "090225.387500", "090225.847500", "090226.307500", "090226.767500", "090227.227500", "090227.687500", "090228.147500", "090228.607500", "090229.067500", "090229.527500", "090229.987500", "090230.447500", "090230.907500", "090231.367500", "090231.827500", "090232.287500", "090232.747500", "090233.207500", "090233.667500", "090234.127500", "090234.587500", "090235.047500", "090235.507500", "090235.967500", "090236.427500", "090236.887500", "090237.347500", "090237.807500", "090238.267500", "090238.727500", "090239.187500", "090239.647500", "090240.107500", "090240.567500", "090241.027500", "090241.487500", "090241.947500", "090242.407500", "090242.867500", "090243.327500", "090243.787500", "090244.247500", "090244.707500", "090245.167500", "090245.627500", "090246.087500", "090246.547500", "090247.007500", "090247.467500", "090247.927500", "090248.387500", "090248.847500", "090249.307500", "090249.767500", "090250.227500", "090250.687500", "090251.147500", "090251.607500", "090252.067500", "090252.527500", "090252.987500", "090253.447500", "090253.907500", "090254.367500", "090254.827500", "090255.287500", "090255.747500", "090256.207500", "090256.667500", "090257.127500", "090257.587500", "090258.047500", "090258.507500", "090258.967500", "090259.427500", "090259.887500", "090300.347500", "090300.807500", "090301.267500", "090301.727500", "090302.187500", "090302.647500", "090303.107500", "090303.567500", "090304.027500", "090304.487500", "090304.947500", "090305.407500", "090305.867500", "090306.327500", "090306.787500", "090307.247500", "090307.707500", "090308.167500", "090308.627500", "090309.087500", "090309.547500", "090310.007500", "090310.467500", "090310.927500", "090311.387500", "090311.847500", "090312.307500", "090312.767500", "090313.227500", "090313.687500", "090314.147500", "090314.607500", "090315.067500", "090315.527500", "090315.987500", "090316.447500", "090316.907500", "090317.367500", "090317.827500", "090318.287500", "090318.747500", "090319.207500", "090319.667500", "090320.127500", "090320.587500", "090321.047500", "090321.507500", "090321.967500", "090322.427500", "090322.887500", "090323.347500", "090323.807500", "090324.267500", "090324.727500", "090325.187500", "090325.647500", "090326.107500", "090326.567500", "090327.027500", "090327.487500", "090327.947500", "090328.407500", "090328.867500", "090329.327500", "090329.787500", "090330.247500", "090330.707500", "090331.167500", "090331.627500", "090332.087500", "090332.547500", "090333.007500", "090333.467500", "090333.927500", "090334.387500", "090334.847500", "090335.307500", "090335.767500", "090336.227500", "090336.687500", "090337.147500", "090337.607500", "090338.067500", "090338.527500", "090338.987500", "090339.447500", "090339.907500", "090340.367500", "090340.827500", "090341.287500", "090341.747500", "090342.207500", "090342.667500", "090343.127500", "090343.587500", "090344.047500", "090344.507500", "090344.967500", "090345.427500", "090345.887500", "090346.347500", "090346.807500", "090347.267500", "090347.727500", "090348.187500", "090348.647500", "090349.107500", "090349.567500", "090350.027500", "090350.487500", "090350.947500", "090351.407500", "090351.867500", "090352.327500", "090352.787500", "090353.247500", "090353.707500", "090354.167500", "090354.627500", "090355.087500", "090355.547500", "090356.007500", "090356.467500", "090356.927500", "090357.387500", "090357.847500", "090358.307500", "090358.767500", "090359.227500", "090359.687500", "090400.147500", "090400.607500", "090401.067500", "090401.527500", "090401.987500", "090402.447500", "090402.907500", "090403.367500", "090403.827500", "090404.287500", "090404.747500", "090405.207500", "090405.667500", "090406.127500", "090406.587500", "090407.047500", "090407.507500", "090407.967500", "090408.427500", "090408.887500", "090409.347500", "090409.807500", "090410.267500", "090410.727500", "090411.187500", "090411.647500", "090412.107500", "090412.567500", "090413.027500", "090413.487500", "090413.947500", "090414.407500", "090414.867500", "090415.327500", "090415.787500", "090416.247500", "090416.707500", "090417.167500", "090417.627500", "090418.087500", "090418.547500", "090419.007500", "090419.467500", "090419.927500", "090420.387500", "090420.847500", "090421.307500", "090421.767500", "090422.227500", "090422.687500", "090423.147500", "090423.607500", "090424.067500", "090424.527500", "090424.987500", "090425.447500", "090425.907500", "090426.367500", "090426.827500", "090427.287500", "090427.747500", "090428.207500", "090428.667500", "090429.127500", "090429.587500", "090430.047500", "090430.507500", "090430.967500", "090431.427500", "090431.887500", "090432.347500", "090432.807500", "090433.267500", "090433.727500", "090434.187500", "090434.647500", "090435.107500", "090435.567500", "090436.027500", "090436.487500", "090436.947500", "090437.407500", "090437.867500", "090438.327500", "090438.787500", "090439.247500", "090439.707500", "090440.167500", "090440.627500", "090441.087500", "090441.547500", "090442.007500", "090442.467500", "090442.927500", "090443.387500", "090443.847500", "090444.307500", "090444.767500", "090445.227500", "090445.687500", "090446.147500", "090446.607500", "090447.067500", "090447.527500", "090447.987500", "090448.447500", "090448.907500", "090449.367500", "090449.827500", "090450.287500", "090450.747500", "090451.207500", "090451.667500", "090452.127500", "090452.587500", "090453.047500", "090453.507500", "090453.967500", "090454.427500", "090454.887500", "090455.347500", "090455.807500", "090456.267500", "090456.727500", "090457.187500", "090457.647500", "090458.107500", "090458.567500", "090459.027500", "090459.487500", "090459.947500", "090500.407500", "090500.867500", "090501.327500", "090501.787500", "090502.247500", "090502.707500", "090503.167500", "090503.627500", "090504.087500", "090504.547500", "090505.007500", "090505.467500", "090505.927500", "090506.387500", "090506.847500", "090507.307500", "090507.767500", "090508.227500", "090508.687500", "090509.147500", "090509.607500", "090510.067500", "090510.527500", "090510.987500", "090511.447500", "090511.907500", "090512.367500", "090512.827500", "090513.287500", "090513.747500", "090514.207500", "090514.667500", "090515.127500", "090515.587500", "090516.047500", "090516.507500", "090516.967500", "090517.427500", "090517.887500", "090518.347500", "090518.807500", "090519.267500", "090519.727500", "090520.187500", "090520.647500", "090521.107500", "090521.567500", "090522.027500", "090522.487500", "090522.947500", "090523.407500", "090523.867500", "090524.327500", "090524.787500", "090525.247500", "090525.707500", "090526.167500", "090526.627500", "090527.087500", "090527.547500", "090528.007500", "090528.467500", "090528.927500", "090529.387500", "090529.847500", "090530.307500", "090530.767500", "090531.227500", "090531.687500", "090532.147500", "090532.607500", "090533.067500", "090533.527500", "090533.987500", "090534.447500", "090534.907500", "090535.367500", "090535.827500", "090536.287500", "090536.747500", "090537.207500", "090537.667500", "090538.127500", "090538.587500", "090539.047500", "090539.507500", "090539.967500", "090540.427500", "090540.887500", "090541.347500", "090541.807500", "090542.267500", "090542.727500", "090543.187500", "090543.647500", "090544.107500", "090544.567500", "090545.027500", "090545.487500", "090545.947500", "090546.407500", "090546.867500", "090547.327500", "090547.787500", "090548.247500", "090548.707500", "090549.167500", "090549.627500", "090550.087500", "090550.547500", "090551.007500", "090551.467500", "090551.927500", "090552.387500", "090552.847500", "090553.307500", "090553.767500", "090554.227500", "090554.687500", "090555.147500", "090555.607500", "090556.067500", "090556.527500", "090556.987500", "090557.447500", "090557.907500", "090558.367500", "090558.827500", "090559.287500", "090559.747500", "090600.207500", "090600.667500", "090601.127500", "090601.587500", "090602.047500", "090602.507500", "090602.967500", "090603.427500", "090603.887500", "090604.347500", "090604.807500", "090605.267500", "090605.727500", "090606.187500", "090606.647500", "090607.107500", "090607.567500", "090608.027500", "090608.487500", "090608.947500", "090609.407500", "090609.867500", "090610.327500", "090610.787500", "090611.247500", "090611.707500", "090612.167500", "090612.627500", "090613.087500", "090613.547500", "090614.007500", "090614.467500", "090614.927500", "090615.387500", "090615.847500", "090616.307500", "090616.767500", "090617.227500", "090617.687500", "090618.147500", "090618.607500", "090619.067500", "090619.527500", "090619.987500", "090620.447500", "090620.907500", "090621.367500", "090621.827500", "090622.287500", "090622.747500", "090623.207500", "090623.667500", "090624.127500", "090624.587500", "090625.047500", "090625.507500", "090625.967500", "090626.427500", "090626.887500", "090627.347500", "090627.807500", "090628.267500", "090628.727500", "090629.187500", "090629.647500", "090630.107500", "090630.567500", "090631.027500", "090631.487500", "090631.947500", "090632.407500", "090632.867500", "090633.327500", "090633.787500", "090634.247500", "090634.707500", "090635.167500", "090635.627500", "090636.087500", "090636.547500", "090637.007500", "090637.467500", "090637.927500", "090638.387500", "090638.847500", "090639.307500", "090639.767500", "090640.227500", "090640.687500", "090641.147500", "090641.607500", "090642.067500", "090642.527500", "090642.987500", "090643.447500", "090643.907500", "090644.367500", "090644.827500", "090645.287500", "090645.747500", "090646.207500", "090646.667500", "090647.127500", "090647.587500", "090648.047500", "090648.507500", "090648.967500", "090649.427500", "090649.887500", "090650.347500", "090650.807500", "090651.267500", "090651.727500", "090652.187500", "090652.647500", "090653.107500", "090653.567500", "090654.027500", "090654.487500", "090654.947500", "090655.407500", "090655.867500", "090656.327500", "090656.787500", "090657.247500", "090657.707500", "090658.167500", "090658.627500", "090659.087500", "090659.547500", "090700.007500", "090700.467500", "090700.927500", "090701.387500", "090701.847500", "090702.307500", "090702.767500", "090703.227500", "090703.687500", "090704.147500", "090704.607500", "090705.067500", "090705.527500", "090705.987500", "090706.447500", "090706.907500", "090707.367500", "090707.827500", "090708.287500", "090708.747500", "090709.207500", "090709.667500", "090710.127500", "090710.587500", "090711.047500", "090711.507500", "090711.967500", "090712.427500", "090712.887500", "090713.347500", "090713.807500", "090714.267500", "090714.727500", "090715.187500", "090715.647500", "090716.107500", "090716.567500", "090717.027500", "090717.487500", "090717.947500", "090718.407500", "090718.867500", "090719.327500", "090719.787500", "090720.247500", "090720.707500", "090721.167500", "090721.627500", "090722.087500", "090722.547500", "090723.007500", "090723.467500", "090723.927500", "090724.387500", "090724.847500", "090725.307500", "090725.767500", "090726.227500", "090726.687500", "090727.147500", "090727.607500", "090728.067500", "090728.527500", "090728.987500", "090729.447500", "090729.907500", "090730.367500", "090730.827500", "090731.287500", "090731.747500", "090732.207500", "090732.667500", "090733.127500", "090733.587500", "090734.047500", "090734.507500", "090734.967500", "090735.427500", "090735.887500", "090736.347500", "090736.807500", "090737.267500", "090737.727500", "090738.187500", "090738.647500", "090739.107500", "090739.567500", "090740.027500", "090740.487500", "090740.947500", "090741.407500", "090741.867500", "090742.327500", "090742.787500", "090743.247500", "090743.707500", "090744.167500", "090744.627500", "090745.087500", "090745.547500", "090746.007500", "090746.467500", "090746.927500", "090747.387500", "090747.847500", "090748.307500", "090748.767500", "090749.227500", "090749.687500", "090750.147500", "090750.607500", "090751.067500", "090751.527500", "090751.987500", "090752.447500", "090752.907500", "090753.367500", "090753.827500", "090754.287500", "090754.747500", "090755.207500", "090755.667500", "090756.127500", "090756.587500", "090757.047500", "090757.507500", "090757.967500", "090758.427500", "090758.887500", "090759.347500", "090759.807500", "090800.267500", "090800.727500", "090801.187500", "090801.647500", "090802.107500", "090802.567500", "090803.027500", "090803.487500", "090803.947500", "090804.407500", "090804.867500", "090805.327500", "090805.787500", "090806.247500", "090806.707500", "090807.167500", "090807.627500", "090808.087500", "090808.547500", "090809.007500", "090809.467500", "090809.927500", "090810.387500", "090810.847500", "090811.307500", "090811.767500", "090812.227500", "090812.687500", "090813.147500", "090813.607500", "090814.067500", "090814.527500", "090814.987500", "090815.447500", "090815.907500", "090816.367500", "090816.827500", "090817.287500", "090817.747500", "090818.207500", "090818.667500", "090819.127500", "090819.587500", "090820.047500", "090820.507500", "090820.967500", "090821.427500", "090821.887500", "090822.347500", "090822.807500", "090823.267500", "090823.727500", "090824.187500", "090824.647500", "090825.107500", "090825.567500", "090826.027500", "090826.487500", "090826.947500", "090827.407500", "090827.867500", "090828.327500", "090828.787500", "090829.247500", "090829.707500", "090830.167500", "090830.627500", "090831.087500", "090831.547500", "090832.007500", "090832.467500", "090832.927500", "090833.387500", "090833.847500", "090834.307500", "090834.767500", "090835.227500", "090835.687500", "090836.147500", "090836.607500", "090837.067500", "090837.527500", "090837.987500", "090838.447500", "090838.907500", "090839.367500", "090839.827500", "090840.287500", "090840.747500", "090841.207500", "090841.667500", "090842.127500", "090842.587500", "090843.047500", "090843.507500", "090843.967500", "090844.427500", "090844.887500", "090845.347500", "090845.807500", "090846.267500", "090846.727500", "090847.187500", "090847.647500", "090848.107500", "090848.567500", "090849.027500"],
