{
  "AcquisitionMatrixPE": 82,
  "AcquisitionNumber": 1,
  "AcquisitionTime": "09:34:8.200000",
  "BandwidthPerPixelPhaseEncode": 24.888,
  "BaseResolution": 82,
  "BodyPartExamined": "BRAIN",
  "ConsistencyInfo": "N4_VE11E_LATEST_20181129",
  "ConversionSoftware": "dcm2niix",
  "ConversionSoftwareVersion": "v1.0.20201102",
  "DerivedVendorReportedEchoSpacing": 0.00049,
  "DeviceSerialNumber": "66112",
  "DwellTime": 2e-06,
  "EchoTime": 0.0272,
  "EchoTrainLength": 82,
  "EffectiveEchoSpacing": 0.00049,
  "FlipAngle": 44,
  "ImageComments": "Unaliased MB8/PE3",
  "ImageOrientationPatientDICOM": [0.99867, -0.0515458, 0.000873232, 0.0493672, 0.961068, 0.271867],
  "ImageType": [
    "ORIGINAL",
    "PRIMARY",
    "M",
    "MB",
    "ND",
    "NORM",
    "MOSAIC"
],
  "ImagingFrequency": 123.252,
  "InPlanePhaseEncodingDirectionDICOM": "COL",
  "InstitutionAddress": "Maynard 3,Hanover,NH,US,03755",
  "InstitutionName": "Dartmouth College - PBS",
  "InstitutionalDepartmentName": "Department",
  "MRAcquisitionType": "2D",
  "MagneticFieldStrength": 3,
  "Manufacturer": "Siemens",
  "ManufacturersModelName": "Prisma",
  "Modality": "MR",
  "MultibandAccelerationFactor": 8,
  "PartialFourier": 1,
  "PatientPosition": "HFS",
  "PercentPhaseFOV": 100,
  "PercentSampling": 100,
  "PhaseEncodingDirection": "j-",
  "PhaseEncodingSteps": 82,
  "PhaseResolution": 1,
  "PixelBandwidth": 3050,
  "ProcedureStepDescription": "Wager_Wager^1076_spacetop",
  "ProtocolName": "func_run-02_task-faces_acq-ap-mb8",
  "PulseSequenceDetails": "%CustomerSeq%\\cmrr_mbep2d_bold",
  "ReceiveCoilActiveElements": "HEA;HEP",
  "ReceiveCoilName": "Head_32",
  "ReconMatrixPE": 82,
  "RepetitionTime": 0.46,
  "SAR": 0.102837,
  "ScanOptions": "FS",
  "ScanningSequence": "EP",
  "SequenceName": "epfid2d1_82",
  "SequenceVariant": "SK\\SS",
  "SeriesDescription": "func_run-02_task-faces_acq-ap-mb8",
  "SeriesNumber": 18,
  "ShimSetting": [4137, -7790, -7247, 576, -43, -43, 34, 128],
  "SliceThickness": 2.7,
  "SliceTiming": [0, 0.2525, 0.0625, 0.315, 0.125, 0.3775, 0.19, 0, 0.2525, 0.0625, 0.315, 0.125, 0.3775, 0.19, 0, 0.2525, 0.0625, 0.315, 0.125, 0.3775, 0.19, 0, 0.2525, 0.0625, 0.315, 0.125, 0.3775, 0.19, 0, 0.2525, 0.0625, 0.315, 0.125, 0.3775, 0.19, 0, 0.2525, 0.0625, 0.315, 0.125, 0.3775, 0.19, 0, 0.2525, 0.0625, 0.315, 0.125, 0.3775, 0.19, 0, 0.2525, 0.0625, 0.315, 0.125, 0.3775, 0.19],
  "SoftwareVersions": "syngo MR E11",
  "SpacingBetweenSlices": 2.7,
  "StationName": "AWP66112",
  "TaskName": "faces",
  "TotalReadoutTime": 0.03969,
  "TxRefAmp": 255.414,
  "WipMemBlock": "17f2bd21-e0fa-45f6-8081-fd45a76b566d||Sequence: R016 ve11e/master r/434b28f1; Aug  7 2019 18:53:46 by eja",
  "dcmmeta_affine": [
    [-2.679359197616577, 0.13244864344596863, 0.040102582424879074, 104.74362182617188],
    [0.13829351961612701, 2.578474760055542, 0.7329473495483398, -112.6554183959961],
    [0.0023428178392350674, -0.729398250579834, 2.5983033180236816, -14.150423049926758],
    [0.0, 0.0, 0.0, 1.0]
],
  "dcmmeta_reorient_transform": [
    [0.0, -1.0, 0.0, 81.0],
    [1.0, 0.0, 0.0, 0.0],
    [0.0, 0.0, 1.0, 0.0],
    [0.0, 0.0, 0.0, 1.0]
],
  "dcmmeta_shape": [82, 82, 56, 914],
  "dcmmeta_slice_dim": 2,
  "dcmmeta_version": 0.6,
  "global": {
    "const": {
      "AccessionNumber": "A003912",
      "AcquisitionMatrix": [82, 0, 0, 82],
      "AngioFlag": "N",
      "BitsAllocated": 16,
      "BitsStored": 16,
      "BodyPartExamined": "BRAIN",
      "Columns": 656,
      "EchoNumbers": 1,
      "EchoTime": 27.2,
      "EchoTrainLength": 82,
      "FlipAngle": 44.0,
      "HighBit": 15,
      "ImageOrientationPatient": [0.9986702515911, -0.051545766584, 0.00087323206565, 0.04936722268034, 0.96106785524971, 0.27186661238659],
      "ImagePositionPatient": [-922.46083730591, -796.53306352319, -283.24136592891],
      "ImageType": [
        "ORIGINAL",
        "PRIMARY",
        "M",
        "MB",
        "ND",
        "NORM",
        "MOSAIC"
],
      "ImagedNucleus": "1H",
      "ImagingFrequency": 123.25216,
      "InPlanePhaseEncodingDirection": "COL",
      "MRAcquisitionType": "2D",
      "MagneticFieldStrength": 3.0,
      "Manufacturer": "SIEMENS",
      "ManufacturerModelName": "Prisma",
      "Modality": "MR",
      "NumberOfAverages": 1.0,
      "NumberOfPhaseEncodingSteps": 82,
      "PercentPhaseFieldOfView": 100.0,
      "PercentSampling": 100.0,
      "PerformedProcedureStepStartTime": "082838.260000",
      "PhotometricInterpretation": "MONOCHROME2",
      "PixelBandwidth": 3050.0,
      "PixelRepresentation": 0,
      "PixelSpacing": [2.6829268932343, 2.6829268932343],
      "ProtocolName": "func_run-02_task-faces_acq-ap-mb8",
      "RepetitionTime": 460.0,
      "Rows": 656,
      "SAR": 0.10283701551888,
      "SamplesPerPixel": 1,
      "ScanOptions": "FS",
      "ScanningSequence": "EP",
      "SequenceName": "epfid2d1_82",
      "SequenceVariant": [
        "SK",
        "SS"
],
      "SeriesDescription": "func_run-02_task-faces_acq-ap-mb8",
      "SeriesNumber": 18,
      "SeriesTime": "093433.579000",
      "SliceLocation": -42.643368147066,
      "SliceThickness": 2.7000000476837,
      "SmallestImagePixelValue": 0,
      "SoftwareVersions": "syngo MR E11",
      "SpacingBetweenSlices": 2.7000000014895,
      "SpecificCharacterSet": "ISO_IR 100",
      "StudyID": "1",
      "StudyTime": "082838.159000",
      "TransmitCoilName": "Body",
      "VariableFlipAngleFlag": "N",
      "WindowCenterWidthExplanation": "Algo1"
    },
    "slices": {}
  },
  "time": {
    "samples": {
      "AcquisitionNumber": [1, 2, 3, 4, 5, 6, 7, 8, 9, 10, 11, 12, 13, 14, 15, 16, 17, 18, 19, 20, 21, 22, 23, 24, 25, 26, 27, 28, 29, 30, 31, 32, 33, 34, 35, 36, 37, 38, 39, 40, 41, 42, 43, 44, 45, 46, 47, 48, 49, 50, 51, 52, 53, 54, 55, 56, 57, 58, 59, 60, 61, 62, 63, 64, 65, 66, 67, 68, 69, 70, 71, 72, 73, 74, 75, 76, 77, 78, 79, 80, 81, 82, 83, 84, 85, 86, 87, 88, 89, 90, 91, 92, 93, 94, 95, 96, 97, 98, 99, 100, 101, 102, 103, 104, 105, 106, 107, 108, 109, 110, 111, 112, 113, 114, 115, 116, 117, 118, 119, 120, 121, 122, 123, 124, 125, 126, 127, 128, 129, 130, 131, 132, 133, 134, 135, 136, 137, 138, 139, 140, 141, 142, 143, 144, 145, 146, 147, 148, 149, 150, 151, 152, 153, 154, 155, 156, 157, 158, 159, 160, 161, 162, 163, 164, 165, 166, 167, 168, 169, 170, 171, 172, 173, 174, 175, 176, 177, 178, 179, 180, 181, 182, 183, 184, 185, 186, 187, 188, 189, 190, 191, 192, 193, 194, 195, 196, 197, 198, 199, 200, 201, 202, 203, 204, 205, 206, 207, 208, 209, 210, 211, 212, 213, 214, 215, 216, 217, 218, 219, 220, 221, 222, 223, 224, 225, 226, 227, 228, 229, 230, 231, 232, 233, 234, 235, 236, 237, 238, 239, 240, 241, 242, 243, 244, 245, 246, 247, 248, 249, 250, 251, 252, 253, 254, 255, 256, 257, 258, 259, 260, 261, 262, 263, 264, 265, 266, 267, 268, 269, 270, 271, 272, 273, 274, 275, 276, 277, 278, 279, 280, 281, 282, 283, 284, 285, 286, 287, 288, 289, 290, 291, 292, 293, 294, 295, 296, 297, 298, 299, 300, 301, 302, 303, 304, 305, 306, 307, 308, 309, 310, 311, 312, 313, 314, 315, 316, 317, 318, 319, 320, 321, 322, 323, 324, 325, 326, 327, 328, 329, 330, 331, 332, 333, 334, 335, 336, 337, 338, 339, 340, 341, 342, 343, 344, 345, 346, 347, 348, 349, 350, 351, 352, 353, 354, 355, 356, 357, 358, 359, 360, 361, 362, 363, 364, 365, 366, 367, 368, 369, 370, 371, 372, 373, 374, 375, 376, 377, 378, 379, 380, 381, 382, 383, 384, 385, 386, 387, 388, 389, 390, 391, 392, 393, 394, 395, 396, 397, 398, 399, 400, 401, 402, 403, 404, 405, 406, 407, 408, 409, 410, 411, 412, 413, 414, 415, 416, 417, 418, 419, 420, 421, 422, 423, 424, 425, 426, 427, 428, 429, 430, 431, 432, 433, 434, 435, 436, 437, 438, 439, 440, 441, 442, 443, 444, 445, 446, 447, 448, 449, 450, 451, 452, 453, 454, 455, 456, 457, 458, 459, 460, 461, 462, 463, 464, 465, 466, 467, 468, 469, 470, 471, 472, 473, 474, 475, 476, 477, 478, 479, 480, 481, 482, 483, 484, 485, 486, 487, 488, 489, 490, 491, 492, 493, 494, 495, 496, 497, 498, 499, 500, 501, 502, 503, 504, 505, 506, 507, 508, 509, 510, 511, 512, 513, 514, 515, 516, 517, 518, 519, 520, 521, 522, 523, 524, 525, 526, 527, 528, 529, 530, 531, 532, 533, 534, 535, 536, 537, 538, 539, 540, 541, 542, 543, 544, 545, 546, 547, 548, 549, 550, 551, 552, 553, 554, 555, 556, 557, 558, 559, 560, 561, 562, 563, 564, 565, 566, 567, 568, 569, 570, 571, 572, 573, 574, 575, 576, 577, 578, 579, 580, 581, 582, 583, 584, 585, 586, 587, 588, 589, 590, 591, 592, 593, 594, 595, 596, 597, 598, 599, 600, 601, 602, 603, 604, 605, 606, 607, 608, 609, 610, 611, 612, 613, 614, 615, 616, 617, 618, 619, 620, 621, 622, 623, 624, 625, 626, 627, 628, 629, 630, 631, 632, 633, 634, 635, 636, 637, 638, 639, 640, 641, 642, 643, 644, 645, 646, 647, 648, 649, 650, 651, 652, 653, 654, 655, 656, 657, 658, 659, 660, 661, 662, 663, 664, 665, 666, 667, 668, 669, 670, 671, 672, 673, 674, 675, 676, 677, 678, 679, 680, 681, 682, 683, 684, 685, 686, 687, 688, 689, 690, 691, 692, 693, 694, 695, 696, 697, 698, 699, 700, 701, 702, 703, 704, 705, 706, 707, 708, 709, 710, 711, 712, 713, 714, 715, 716, 717, 718, 719, 720, 721, 722, 723, 724, 725, 726, 727, 728, 729, 730, 731, 732, 733, 734, 735, 736, 737, 738, 739, 740, 741, 742, 743, 744, 745, 746, 747, 748, 749, 750, 751, 752, 753, 754, 755, 756, 757, 758, 759, 760, 761, 762, 763, 764, 765, 766, 767, 768, 769, 770, 771, 772, 773, 774, 775, 776, 777, 778, 779, 780, 781, 782, 783, 784, 785, 786, 787, 788, 789, 790, 791, 792, 793, 794, 795, 796, 797, 798, 799, 800, 801, 802, 803, 804, 805, 806, 807, 808, 809, 810, 811, 812, 813, 814, 815, 816, 817, 818, 819, 820, 821, 822, 823, 824, 825, 826, 827, 828, 829, 830, 831, 832, 833, 834, 835, 836, 837, 838, 839, 840, 841, 842, 843, 844, 845, 846, 847, 848, 849, 850, 851, 852, 853, 854, 855, 856, 857, 858, 859, 860, 861, 862, 863, 864, 865, 866, 867, 868, 869, 870, 871, 872, 873, 874, 875, 876, 877, 878, 879, 880, 881, 882, 883, 884, 885, 886, 887, 888, 889, 890, 891, 892, 893, 894, 895, 896, 897, 898, 899, 900, 901, 902, 903, 904, 905, 906, 907, 908, 909, 910, 911, 912, 913, 914],
      "AcquisitionTime": ["093408.200000", "093408.660000", "093409.120000", "093409.580000", "093410.040000", "093410.500000", "093410.960000", "093411.420000", "093411.880000", "093412.340000", "093412.800000", "093413.260000", "093413.720000", "093414.180000", "093414.640000", "093415.100000", "093415.560000", "093416.020000", "093416.480000", "093416.940000", "093417.400000", "093417.860000", "093418.320000", "093418.780000", "093419.240000", "093419.700000", "093420.160000", "093420.620000", "093421.080000", "093421.540000", "093422.000000", "093422.460000", "093422.920000", "093423.380000", "093423.840000", "093424.300000", "093424.760000", "093425.220000", "093425.680000", "093426.140000", "093426.600000", "093427.060000", "093427.520000", "093427.980000", "093428.440000", "093428.900000", "093429.360000", "093429.820000", "093430.280000", "093430.740000", "093431.200000", "093431.660000", "093432.120000", "093432.580000", "093433.040000", "093433.500000", "093433.960000", "093434.420000", "093434.880000", "093435.340000", "093435.800000", "093436.260000", "093436.720000", "093437.180000", "093437.640000", "093438.100000", "093438.560000", "093439.020000", "093439.480000", "093439.940000", "093440.400000", "093440.860000", "093441.320000", "093441.780000", "093442.240000", "093442.700000", "093443.160000", "093443.620000", "093444.080000", "093444.540000", "093445.000000", "093445.460000", "093445.920000", "093446.380000", "093446.840000", "093447.300000", "093447.760000", "093448.220000", "093448.680000", "093449.140000", "093449.600000", "093450.060000", "093450.520000", "093450.980000", "093451.440000", "093451.900000", "093452.360000", "093452.820000", "093453.280000", "093453.740000", "093454.200000", "093454.660000", "093455.120000", "093455.580000", "093456.040000", "093456.500000", "093456.960000", "093457.420000", "093457.880000", "093458.340000", "093458.800000", "093459.260000", "093459.720000", "093500.180000", "093500.640000", "093501.100000", "093501.560000", "093502.020000", "093502.480000", "093502.940000", "093503.400000", "093503.860000", "093504.320000", "093504.780000", "093505.240000", "093505.700000", "093506.160000", "093506.620000", "093507.080000", "093507.540000", "093508.000000", "093508.460000", "093508.920000", "093509.380000", "093509.840000", "093510.300000", "093510.760000", "093511.220000", "093511.680000", "093512.140000", "093512.600000", "093513.060000", "093513.520000", "093513.980000", "093514.440000", "093514.900000", "093515.360000", "093515.820000", "093516.280000", "093516.740000", "093517.200000", "093517.660000", "093518.120000", "093518.580000", "093519.040000", "093519.500000", "093519.960000", "093520.420000", "093520.880000", "093521.340000", "093521.800000", "093522.260000", "093522.720000", "093523.180000", "093523.640000", "093524.100000", "093524.560000", "093525.020000", "093525.480000", "093525.940000", "093526.400000", "093526.860000", "093527.320000", "093527.780000", "093528.240000", "093528.700000", "093529.160000", "093529.620000", "093530.080000", "093530.540000", "093531.000000", "093531.460000", "093531.920000", "093532.380000", "093532.840000", "093533.300000", "093533.760000", "093534.220000", "093534.680000", "093535.140000", "093535.600000", "093536.060000", "093536.520000", "093536.980000", "093537.440000", "093537.900000", "093538.360000", "093538.820000", "093539.280000", "093539.740000", "093540.200000", "093540.660000", "093541.120000", "093541.580000", "093542.040000", "093542.500000", "093542.960000", "093543.420000", "093543.880000", "093544.340000", "093544.800000", "093545.260000", "093545.720000", "093546.180000", "093546.640000", "093547.100000", "093547.560000", "093548.020000", "093548.480000", "093548.940000", "093549.400000", "093549.860000", "093550.320000", "093550.780000", "093551.240000", "093551.700000", "093552.160000", "093552.620000", "093553.080000", "093553.540000", "093554.000000", "093554.460000", "093554.920000", "093555.380000", "093555.840000", "093556.300000", "093556.760000", "093557.220000", "093557.680000", "093558.140000", "093558.600000", "093559.060000", "093559.520000", "093559.980000", "093600.440000", "093600.900000", "093601.360000", "093601.820000", "093602.280000", "093602.740000", "093603.200000", "093603.660000", "093604.120000", "093604.580000", "093605.040000", "093605.500000", "093605.960000", "093606.420000", "093606.880000", "093607.340000", "093607.800000", "093608.260000", "093608.720000", "093609.180000", "093609.640000", "093610.100000", "093610.560000", "093611.020000", "093611.480000", "093611.940000", "093612.400000", "093612.860000", "093613.320000", "093613.780000", "093614.240000", "093614.700000", "093615.160000", "093615.620000", "093616.080000", "093616.540000", "093617.000000", "093617.460000", "093617.920000", "093618.380000", "093618.840000", "093619.300000", "093619.760000", "093620.220000", "093620.680000", "093621.140000", "093621.600000", "093622.060000", "093622.520000", "093622.980000", "093623.440000", "093623.900000", "093624.360000", "093624.820000", "093625.280000", "093625.740000", "093626.200000", "093626.660000", "093627.120000", "093627.580000", "093628.040000", "093628.500000", "093628.960000", "093629.420000", "093629.880000", "093630.340000", "093630.800000", "093631.260000", "093631.720000", "093632.180000", "093632.640000", "093633.100000", "093633.560000", "093634.020000", "093634.480000", "093634.940000", "093635.400000", "093635.860000", "093636.320000", "093636.780000", "093637.240000", "093637.700000", "093638.160000", "093638.620000", "093639.080000", "093639.540000", "093640.000000", "093640.460000", "093640.920000", "093641.380000", "093641.840000", "093642.300000", "093642.760000", "093643.220000", "093643.680000", "093644.140000", "093644.600000", "093645.060000", "093645.520000", "093645.980000", "093646.440000", "093646.900000", "093647.360000", "093647.820000", "093648.280000", "093648.740000", "093649.200000", "093649.660000", "093650.120000", "093650.580000", "093651.040000", "093651.500000", "093651.960000", "093652.420000", "093652.880000", "093653.340000", "093653.800000", "093654.260000", "093654.720000", "093655.180000", "093655.640000", "093656.100000", "093656.560000", "093657.020000", "093657.480000", "093657.940000", "093658.400000", "093658.860000", "093659.320000", "093659.780000", "093700.240000", "093700.700000", "093701.160000", "093701.620000", "093702.080000", "093702.540000", "093703.000000", "093703.460000", "093703.920000", "093704.380000", "093704.840000", "093705.300000", "093705.760000", "093706.220000", "093706.680000", "093707.140000", "093707.600000", "093708.060000", "093708.520000", "093708.980000", "093709.440000", "093709.900000", "093710.360000", "093710.820000", "093711.280000", "093711.740000", "093712.200000", "093712.660000", "093713.120000", "093713.580000", "093714.040000", "093714.500000", "093714.960000", "093715.420000", "093715.880000", "093716.340000", "093716.800000", "093717.260000", "093717.720000", "093718.180000", "093718.640000", "093719.100000", "093719.560000", "093720.020000", "093720.480000", "093720.940000", "093721.400000", "093721.860000", "093722.320000", "093722.780000", "093723.240000", "093723.700000", "093724.160000", "093724.620000", "093725.080000", "093725.540000", "093726.000000", "093726.460000", "093726.920000", "093727.380000", "093727.840000", "093728.300000", "093728.760000", "093729.220000", "093729.680000", "093730.140000", "093730.600000", "093731.060000", "093731.520000", "093731.980000", "093732.440000", "093732.900000", "093733.360000", "093733.820000", "093734.280000", "093734.740000", "093735.200000", "093735.660000", "093736.120000", "093736.580000", "093737.040000", "093737.500000", "093737.960000", "093738.420000", "093738.880000", "093739.340000", "093739.800000", "093740.260000", "093740.720000", "093741.180000", "093741.640000", "093742.100000", "093742.560000", "093743.020000", "093743.480000", "093743.940000", "093744.400000", "093744.860000", "093745.320000", "093745.780000", "093746.240000", "093746.700000", "093747.160000", "093747.620000", "093748.080000", "093748.540000", "093749.000000", "093749.460000", "093749.920000", "093750.380000", "093750.840000", "093751.300000", "093751.760000", "093752.220000", "093752.680000", "093753.140000", "093753.600000", "093754.060000", "093754.520000", "093754.980000", "093755.440000", "093755.900000", "093756.360000", "093756.820000", "093757.280000", "093757.740000", "093758.200000", "093758.660000", "093759.120000", "093759.580000", "093800.040000", "093800.500000", "093800.960000", "093801.420000", "093801.880000", "093802.340000", "093802.800000", "093803.260000", "093803.720000", "093804.180000", "093804.640000", "093805.100000", "093805.560000", "093806.020000", "093806.480000", "093806.940000", "093807.400000", "093807.860000", "093808.320000", "093808.780000", "093809.240000", "093809.700000", "093810.160000", "093810.620000", "093811.080000", "093811.540000", "093812.000000", "093812.460000", "093812.920000", "093813.380000", "093813.840000", "093814.300000", "093814.760000", "093815.220000", "093815.680000", "093816.140000", "093816.600000", "093817.060000", "093817.520000", "093817.980000", "093818.440000", "093818.900000", "093819.360000", "093819.820000", "093820.280000", "093820.740000", "093821.200000", "093821.660000", "093822.120000", "093822.580000", "093823.040000", "093823.500000", "093823.960000", "093824.420000", "093824.880000", "093825.340000", "093825.800000", "093826.260000", "093826.720000", "093827.180000", "093827.640000", "093828.100000", "093828.560000", "093829.020000", "093829.480000", "093829.940000", "093830.400000", "093830.860000", "093831.320000", "093831.780000", "093832.240000", "093832.700000", "093833.160000", "093833.620000", "093834.080000", "093834.540000", "093835.000000", "093835.460000", "093835.920000", "093836.380000", "093836.840000", "093837.300000", "093837.760000", "093838.220000", "093838.680000", "093839.140000", "093839.600000", "093840.060000", "093840.520000", "093840.980000", "093841.440000", "093841.900000", "093842.360000", "093842.820000", "093843.280000", "093843.740000", "093844.200000", "093844.660000", "093845.120000", "093845.580000", "093846.040000", "093846.500000", "093846.960000", "093847.420000", "093847.880000", "093848.340000", "093848.800000", "093849.260000", "093849.720000", "093850.180000", "093850.640000", "093851.100000", "093851.560000", "093852.020000", "093852.480000", "093852.940000", "093853.400000", "093853.860000", "093854.320000", "093854.780000", "093855.240000", "093855.700000", "093856.160000", "093856.620000", "093857.080000", "093857.540000", "093858.000000", "093858.460000", "093858.920000", "093859.380000", "093859.840000", "093900.300000", "093900.760000", "093901.220000", "093901.680000", "093902.140000", "093902.600000", "093903.060000", "093903.520000", "093903.980000", "093904.440000", "093904.900000", "093905.360000", "093905.820000", "093906.280000", "093906.740000", "093907.200000", "093907.660000", "093908.120000", "093908.580000", "093909.040000", "093909.500000", "093909.960000", "093910.420000", "093910.880000", "093911.340000", "093911.800000", "093912.260000", "093912.720000", "093913.180000", "093913.640000", "093914.100000", "093914.560000", "093915.020000", "093915.480000", "093915.940000", "093916.400000", "093916.860000", "093917.320000", "093917.780000", "093918.240000", "093918.700000", "093919.160000", "093919.620000", "093920.080000", "093920.540000", "093921.000000", "093921.460000", "093921.920000", "093922.380000", "093922.840000", "093923.300000", "093923.760000", "093924.220000", "093924.680000", "093925.140000", "093925.600000", "093926.060000", "093926.520000", "093926.980000", "093927.440000", "093927.900000", "093928.360000", "093928.820000", "093929.280000", "093929.740000", "093930.200000", "093930.660000", "093931.120000", "093931.580000", "093932.040000", "093932.500000", "093932.960000", "093933.420000", "093933.880000", "093934.340000", "093934.800000", "093935.260000", "093935.720000", "093936.180000", "093936.640000", "093937.100000", "093937.560000", "093938.020000", "093938.480000", "093938.940000", "093939.400000", "093939.860000", "093940.320000", "093940.780000", "093941.240000", "093941.700000", "093942.160000", "093942.620000", "093943.080000", "093943.540000", "093944.000000", "093944.460000", "093944.920000", "093945.380000", "093945.840000", "093946.300000", "093946.760000", "093947.220000", "093947.680000", "093948.140000", "093948.600000", "093949.060000", "093949.520000", "093949.980000", "093950.440000", "093950.900000", "093951.360000", "093951.820000", "093952.280000", "093952.740000", "093953.200000", "093953.660000", "093954.120000", "093954.580000", "093955.040000", "093955.500000", "093955.960000", "093956.420000", "093956.880000", "093957.340000", "093957.800000", "093958.260000", "093958.720000", "093959.180000", "093959.640000", "094000.100000", "094000.560000", "094001.020000", "094001.480000", "094001.940000", "094002.400000", "094002.860000", "094003.320000", "094003.780000", "094004.240000", "094004.700000", "094005.160000", "094005.620000", "094006.080000", "094006.540000", "094007.000000", "094007.460000", "094007.920000", "094008.380000", "094008.840000", "094009.300000", "094009.760000", "094010.220000", "094010.680000", "094011.140000", "094011.600000", "094012.060000", "094012.520000", "094012.980000", "094013.440000", "094013.900000", "094014.360000", "094014.820000", "094015.280000", "094015.740000", "094016.200000", "094016.660000", "094017.120000", "094017.580000", "094018.040000", "094018.500000", "094018.960000", "094019.420000", "094019.880000", "094020.340000", "094020.800000", "094021.260000", "094021.720000", "094022.180000", "094022.640000", "094023.100000", "094023.560000", "094024.020000", "094024.480000", "094024.940000", "094025.400000", "094025.860000", "094026.320000", "094026.780000", "094027.240000", "094027.700000", "094028.160000", "094028.620000", "094029.080000", "094029.540000", "094030.000000", "094030.460000", "094030.920000", "094031.380000", "094031.840000", "094032.300000", "094032.760000", "094033.220000", "094033.680000", "094034.140000", "094034.600000", "094035.060000", "094035.520000", "094035.980000", "094036.440000", "094036.900000", "094037.360000", "094037.820000", "094038.280000", "094038.740000", "094039.200000", "094039.660000", "094040.120000", "094040.580000", "094041.040000", "094041.500000", "094041.960000", "094042.420000", "094042.880000", "094043.340000", "094043.800000", "094044.260000", "094044.720000", "094045.180000", "094045.640000", "094046.100000", "094046.560000", "094047.020000", "094047.480000", "094047.940000", "094048.400000", "094048.860000", "094049.320000", "094049.780000", "094050.240000", "094050.700000", "094051.160000", "094051.620000", "094052.080000", "094052.540000", "094053.000000", "094053.460000", "094053.920000", "094054.380000", "094054.840000", "094055.300000", "094055.760000", "094056.220000", "094056.680000", "094057.140000", "094057.600000", "094058.060000", "094058.520000", "094058.980000", "094059.440000", "094059.900000", "094100.360000", "094100.820000", "094101.280000", "094101.740000", "094102.200000", "094102.660000", "094103.120000", "094103.580000", "094104.040000", "094104.500000", "094104.960000", "094105.420000", "094105.880000", "094106.340000", "094106.800000", "094107.260000", "094107.720000", "094108.180000"],
