{
  "AcquisitionMatrixPE": 82,
  "AcquisitionNumber": 1,
  "AcquisitionTime": "08:56:36.690000",
  "BandwidthPerPixelPhaseEncode": 24.888,
  "BaseResolution": 82,
  "BodyPartExamined": "BRAIN",
  "ConsistencyInfo": "N4_VE11E_LATEST_20181129",
  "ConversionSoftware": "dcm2niix",
  "ConversionSoftwareVersion": "v1.0.20201102",
  "DerivedVendorReportedEchoSpacing": 0.00049,
  "DeviceSerialNumber": "66112",
  "DwellTime": 2e-06,
  "EchoTime": 0.0272,
  "EchoTrainLength": 82,
  "EffectiveEchoSpacing": 0.00049,
  "FlipAngle": 44,
  "ImageComments": "Unaliased MB8/PE3",
  "ImageOrientationPatientDICOM": [0.99867, -0.0515458, 0.000873232, 0.0493672, 0.961068, 0.271867],
  "ImageType": [
    "ORIGINAL",
    "PRIMARY",
    "M",
    "MB",
    "ND",
    "NORM",
    "MOSAIC"
],
  "ImagingFrequency": 123.252,
  "InPlanePhaseEncodingDirectionDICOM": "COL",
  "InstitutionAddress": "Maynard 3,Hanover,NH,US,03755",
  "InstitutionName": "Dartmouth College - PBS",
  "InstitutionalDepartmentName": "Department",
  "MRAcquisitionType": "2D",
  "MagneticFieldStrength": 3,
  "Manufacturer": "Siemens",
  "ManufacturersModelName": "Prisma",
  "Modality": "MR",
  "MultibandAccelerationFactor": 8,
  "PartialFourier": 1,
  "PatientPosition": "HFS",
  "PercentPhaseFOV": 100,
  "PercentSampling": 100,
  "PhaseEncodingDirection": "j-",
  "PhaseEncodingSteps": 82,
  "PhaseResolution": 1,
  "PixelBandwidth": 3050,
  "ProcedureStepDescription": "Wager_Wager^1076_spacetop",
  "ProtocolName": "func_run-02_task-narratives_acq-ap-mb8",
  "PulseSequenceDetails": "%CustomerSeq%\\cmrr_mbep2d_bold",
  "ReceiveCoilActiveElements": "HEA;HEP",
  "ReceiveCoilName": "Head_32",
  "ReconMatrixPE": 82,
  "RepetitionTime": 0.46,
  "SAR": 0.102939,
  "ScanOptions": "FS",
  "ScanningSequence": "EP",
  "SequenceName": "epfid2d1_82",
  "SequenceVariant": "SK\\SS",
  "SeriesDescription": "func_run-02_task-narratives_acq-ap-mb8",
  "SeriesNumber": 10,
  "ShimSetting": [4137, -7790, -7247, 576, -43, -43, 34, 128],
  "SliceThickness": 2.7,
  "SliceTiming": [0, 0.2525, 0.065, 0.315, 0.1275, 0.3775, 0.19, 0, 0.2525, 0.065, 0.315, 0.1275, 0.3775, 0.19, 0, 0.2525, 0.065, 0.315, 0.1275, 0.3775, 0.19, 0, 0.2525, 0.065, 0.315, 0.1275, 0.3775, 0.19, 0, 0.2525, 0.065, 0.315, 0.1275, 0.3775, 0.19, 0, 0.2525, 0.065, 0.315, 0.1275, 0.3775, 0.19, 0, 0.2525, 0.065, 0.315, 0.1275, 0.3775, 0.19, 0, 0.2525, 0.065, 0.315, 0.1275, 0.3775, 0.19],
  "SoftwareVersions": "syngo MR E11",
  "SpacingBetweenSlices": 2.7,
  "StationName": "AWP66112",
  "TaskName": "narratives",
  "TotalReadoutTime": 0.03969,
  "TxRefAmp": 255.414,
  "WipMemBlock": "1c592ee4-481d-433f-bb26-5440c7dd4809||Sequence: R016 ve11e/master r/434b28f1; Aug  7 2019 18:53:46 by eja",
  "dcmmeta_affine": [
    [-2.679359197616577, 0.13244864344596863, 0.040102582424879074, 104.74362182617188],
    [0.13829351961612701, 2.578474760055542, 0.7329473495483398, -112.6554183959961],
    [0.0023428178392350674, -0.729398250579834, 2.5983033180236816, -14.150423049926758],
    [0.0, 0.0, 0.0, 1.0]
],
  "dcmmeta_reorient_transform": [
    [0.0, -1.0, 0.0, 81.0],
    [1.0, 0.0, 0.0, 0.0],
    [0.0, 0.0, 1.0, 0.0],
    [0.0, 0.0, 0.0, 1.0]
],
  "dcmmeta_shape": [82, 82, 56, 1098],
  "dcmmeta_slice_dim": 2,
  "dcmmeta_version": 0.6,
  "global": {
    "const": {
      "AccessionNumber": "A003912",
      "AcquisitionMatrix": [82, 0, 0, 82],
      "AngioFlag": "N",
      "BitsAllocated": 16,
      "BitsStored": 16,
      "BodyPartExamined": "BRAIN",
      "Columns": 656,
      "EchoNumbers": 1,
      "EchoTime": 27.2,
      "EchoTrainLength": 82,
      "FlipAngle": 44.0,
      "HighBit": 15,
      "ImageOrientationPatient": [0.9986702515911, -0.051545766584, 0.00087323206565, 0.04936722268034, 0.96106785524971, 0.27186661238659],
      "ImagePositionPatient": [-922.46083730591, -796.53306352319, -283.24136592891],
      "ImageType": [
        "ORIGINAL",
        "PRIMARY",
        "M",
        "MB",
        "ND",
        "NORM",
        "MOSAIC"
],
      "ImagedNucleus": "1H",
      "ImagingFrequency": 123.252137,
      "InPlanePhaseEncodingDirection": "COL",
      "MRAcquisitionType": "2D",
      "MagneticFieldStrength": 3.0,
      "Manufacturer": "SIEMENS",
      "ManufacturerModelName": "Prisma",
      "Modality": "MR",
      "NumberOfAverages": 1.0,
      "NumberOfPhaseEncodingSteps": 82,
      "PercentPhaseFieldOfView": 100.0,
      "PercentSampling": 100.0,
      "PerformedProcedureStepStartTime": "082838.260000",
      "PhotometricInterpretation": "MONOCHROME2",
      "PixelBandwidth": 3050.0,
      "PixelRepresentation": 0,
      "PixelSpacing": [2.6829268932343, 2.6829268932343],
      "ProtocolName": "func_run-02_task-narratives_acq-ap-mb8",
      "RepetitionTime": 460.0,
      "Rows": 656,
      "SAR": 0.10293944772951,
      "SamplesPerPixel": 1,
      "ScanOptions": "FS",
      "ScanningSequence": "EP",
      "SequenceName": "epfid2d1_82",
      "SequenceVariant": [
        "SK",
        "SS"
],
      "SeriesDescription": "func_run-02_task-narratives_acq-ap-mb8",
      "SeriesNumber": 10,
      "SeriesTime": "085653.749000",
      "SliceLocation": -42.643368147066,
      "SliceThickness": 2.7000000476837,
      "SmallestImagePixelValue": 0,
      "SoftwareVersions": "syngo MR E11",
      "SpacingBetweenSlices": 2.7000000014895,
      "SpecificCharacterSet": "ISO_IR 100",
      "StudyID": "1",
      "StudyTime": "082838.159000",
      "TransmitCoilName": "Body",
      "VariableFlipAngleFlag": "N",
      "WindowCenterWidthExplanation": "Algo1"
    },
    "slices": {}
  },
  "time": {
    "samples": {
      "AcquisitionNumber": [1, 2, 3, 4, 5, 6, 7, 8, 9, 10, 11, 12, 13, 14, 15, 16, 17, 18, 19, 20, 21, 22, 23, 24, 25, 26, 27, 28, 29, 30, 31, 32, 33, 34, 35, 36, 37, 38, 39, 40, 41, 42, 43, 44, 45, 46, 47, 48, 49, 50, 51, 52, 53, 54, 55, 56, 57, 58, 59, 60, 61, 62, 63, 64, 65, 66, 67, 68, 69, 70, 71, 72, 73, 74, 75, 76, 77, 78, 79, 80, 81, 82, 83, 84, 85, 86, 87, 88, 89, 90, 91, 92, 93, 94, 95, 96, 97, 98, 99, 100, 101, 102, 103, 104, 105, 106, 107, 108, 109, 110, 111, 112, 113, 114, 115, 116, 117, 118, 119, 120, 121, 122, 123, 124, 125, 126, 127, 128, 129, 130, 131, 132, 133, 134, 135, 136, 137, 138, 139, 140, 141, 142, 143, 144, 145, 146, 147, 148, 149, 150, 151, 152, 153, 154, 155, 156, 157, 158, 159, 160, 161, 162, 163, 164, 165, 166, 167, 168, 169, 170, 171, 172, 173, 174, 175, 176, 177, 178, 179, 180, 181, 182, 183, 184, 185, 186, 187, 188, 189, 190, 191, 192, 193, 194, 195, 196, 197, 198, 199, 200, 201, 202, 203, 204, 205, 206, 207, 208, 209, 210, 211, 212, 213, 214, 215, 216, 217, 218, 219, 220, 221, 222, 223, 224, 225, 226, 227, 228, 229, 230, 231, 232, 233, 234, 235, 236, 237, 238, 239, 240, 241, 242, 243, 244, 245, 246, 247, 248, 249, 250, 251, 252, 253, 254, 255, 256, 257, 258, 259, 260, 261, 262, 263, 264, 265, 266, 267, 268, 269, 270, 271, 272, 273, 274, 275, 276, 277, 278, 279, 280, 281, 282, 283, 284, 285, 286, 287, 288, 289, 290, 291, 292, 293, 294, 295, 296, 297, 298, 299, 300, 301, 302, 303, 304, 305, 306, 307, 308, 309, 310, 311, 312, 313, 314, 315, 316, 317, 318, 319, 320, 321, 322, 323, 324, 325, 326, 327, 328, 329, 330, 331, 332, 333, 334, 335, 336, 337, 338, 339, 340, 341, 342, 343, 344, 345, 346, 347, 348, 349, 350, 351, 352, 353, 354, 355, 356, 357, 358, 359, 360, 361, 362, 363, 364, 365, 366, 367, 368, 369, 370, 371, 372, 373, 374, 375, 376, 377, 378, 379, 380, 381, 382, 383, 384, 385, 386, 387, 388, 389, 390, 391, 392, 393, 394, 395, 396, 397, 398, 399, 400, 401, 402, 403, 404, 405, 406, 407, 408, 409, 410, 411, 412, 413, 414, 415, 416, 417, 418, 419, 420, 421, 422, 423, 424, 425, 426, 427, 428, 429, 430, 431, 432, 433, 434, 435, 436, 437, 438, 439, 440, 441, 442, 443, 444, 445, 446, 447, 448, 449, 450, 451, 452, 453, 454, 455, 456, 457, 458, 459, 460, 461, 462, 463, 464, 465, 466, 467, 468, 469, 470, 471, 472, 473, 474, 475, 476, 477, 478, 479, 480, 481, 482, 483, 484, 485, 486, 487, 488, 489, 490, 491, 492, 493, 494, 495, 496, 497, 498, 499, 500, 501, 502, 503, 504, 505, 506, 507, 508, 509, 510, 511, 512, 513, 514, 515, 516, 517, 518, 519, 520, 521, 522, 523, 524, 525, 526, 527, 528, 529, 530, 531, 532, 533, 534, 535, 536, 537, 538, 539, 540, 541, 542, 543, 544, 545, 546, 547, 548, 549, 550, 551, 552, 553, 554, 555, 556, 557, 558, 559, 560, 561, 562, 563, 564, 565, 566, 567, 568, 569, 570, 571, 572, 573, 574, 575, 576, 577, 578, 579, 580, 581, 582, 583, 584, 585, 586, 587, 588, 589, 590, 591, 592, 593, 594, 595, 596, 597, 598, 599, 600, 601, 602, 603, 604, 605, 606, 607, 608, 609, 610, 611, 612, 613, 614, 615, 616, 617, 618, 619, 620, 621, 622, 623, 624, 625, 626, 627, 628, 629, 630, 631, 632, 633, 634, 635, 636, 637, 638, 639, 640, 641, 642, 643, 644, 645, 646, 647, 648, 649, 650, 651, 652, 653, 654, 655, 656, 657, 658, 659, 660, 661, 662, 663, 664, 665, 666, 667, 668, 669, 670, 671, 672, 673, 674, 675, 676, 677, 678, 679, 680, 681, 682, 683, 684, 685, 686, 687, 688, 689, 690, 691, 692, 693, 694, 695, 696, 697, 698, 699, 700, 701, 702, 703, 704, 705, 706, 707, 708, 709, 710, 711, 712, 713, 714, 715, 716, 717, 718, 719, 720, 721, 722, 723, 724, 725, 726, 727, 728, 729, 730, 731, 732, 733, 734, 735, 736, 737, 738, 739, 740, 741, 742, 743, 744, 745, 746, 747, 748, 749, 750, 751, 752, 753, 754, 755, 756, 757, 758, 759, 760, 761, 762, 763, 764, 765, 766, 767, 768, 769, 770, 771, 772, 773, 774, 775, 776, 777, 778, 779, 780, 781, 782, 783, 784, 785, 786, 787, 788, 789, 790, 791, 792, 793, 794, 795, 796, 797, 798, 799, 800, 801, 802, 803, 804, 805, 806, 807, 808, 809, 810, 811, 812, 813, 814, 815, 816, 817, 818, 819, 820, 821, 822, 823, 824, 825, 826, 827, 828, 829, 830, 831, 832, 833, 834, 835, 836, 837, 838, 839, 840, 841, 842, 843, 844, 845, 846, 847, 848, 849, 850, 851, 852, 853, 854, 855, 856, 857, 858, 859, 860, 861, 862, 863, 864, 865, 866, 867, 868, 869, 870, 871, 872, 873, 874, 875, 876, 877, 878, 879, 880, 881, 882, 883, 884, 885, 886, 887, 888, 889, 890, 891, 892, 893, 894, 895, 896, 897, 898, 899, 900, 901, 902, 903, 904, 905, 906, 907, 908, 909, 910, 911, 912, 913, 914, 915, 916, 917, 918, 919, 920, 921, 922, 923, 924, 925, 926, 927, 928, 929, 930, 931, 932, 933, 934, 935, 936, 937, 938, 939, 940, 941, 942, 943, 944, 945, 946, 947, 948, 949, 950, 951, 952, 953, 954, 955, 956, 957, 958, 959, 960, 961, 962, 963, 964, 965, 966, 967, 968, 969, 970, 971, 972, 973, 974, 975, 976, 977, 978, 979, 980, 981, 982, 983, 984, 985, 986, 987, 988, 989, 990, 991, 992, 993, 994, 995, 996, 997, 998, 999, 1000, 1001, 1002, 1003, 1004, 1005, 1006, 1007, 1008, 1009, 1010, 1011, 1012, 1013, 1014, 1015, 1016, 1017, 1018, 1019, 1020, 1021, 1022, 1023, 1024, 1025, 1026, 1027, 1028, 1029, 1030, 1031, 1032, 1033, 1034, 1035, 1036, 1037, 1038, 1039, 1040, 1041, 1042, 1043, 1044, 1045, 1046, 1047, 1048, 1049, 1050, 1051, 1052, 1053, 1054, 1055, 1056, 1057, 1058, 1059, 1060, 1061, 1062, 1063, 1064, 1065, 1066, 1067, 1068, 1069, 1070, 1071, 1072, 1073, 1074, 1075, 1076, 1077, 1078, 1079, 1080, 1081, 1082, 1083, 1084, 1085, 1086, 1087, 1088, 1089, 1090, 1091, 1092, 1093, 1094, 1095, 1096, 1097, 1098],
      "AcquisitionTime": ["085636.690000", "085637.150000", "085637.610000", "085638.070000", "085638.530000", "085638.990000", "085639.450000", "085639.910000", "085640.370000", "085640.830000", "085641.290000", "085641.750000", "085642.210000", "085642.670000", "085643.130000", "085643.590000", "085644.050000", "085644.510000", "085644.970000", "085645.430000", "085645.890000", "085646.350000", "085646.810000", "085647.270000", "085647.730000", "085648.190000", "085648.650000", "085649.110000", "085649.570000", "085650.030000", "085650.490000", "085650.950000", "085651.410000", "085651.870000", "085652.330000", "085652.790000", "085653.250000", "085653.710000", "085654.170000", "085654.630000", "085655.090000", "085655.550000", "085656.010000", "085656.470000", "085656.930000", "085657.390000", "085657.850000", "085658.310000", "085658.770000", "085659.230000", "085659.690000", "085700.150000", "085700.610000", "085701.070000", "085701.530000", "085701.990000", "085702.450000", "085702.910000", "085703.370000", "085703.830000", "085704.290000", "085704.750000", "085705.210000", "085705.670000", "085706.130000", "085706.590000", "085707.050000", "085707.510000", "085707.970000", "085708.430000", "085708.890000", "085709.350000", "085709.810000", "085710.270000", "085710.730000", "085711.190000", "085711.650000", "085712.110000", "085712.570000", "085713.030000", "085713.490000", "085713.950000", "085714.410000", "085714.870000", "085715.330000", "085715.790000", "085716.250000", "085716.710000", "085717.170000", "085717.630000", "085718.090000", "085718.550000", "085719.010000", "085719.470000", "085719.930000", "085720.390000", "085720.850000", "085721.310000", "085721.770000", "085722.230000", "085722.690000", "085723.150000", "085723.610000", "085724.070000", "085724.530000", "085724.990000", "085725.450000", "085725.910000", "085726.370000", "085726.830000", "085727.290000", "085727.750000", "085728.210000", "085728.670000", "085729.130000", "085729.590000", "085730.050000", "085730.510000", "085730.970000", "085731.430000", "085731.890000", "085732.350000", "085732.810000", "085733.270000", "085733.730000", "085734.190000", "085734.650000", "085735.110000", "085735.570000", "085736.030000", "085736.490000", "085736.950000", "085737.410000", "085737.870000", "085738.330000", "085738.790000", "085739.250000", "085739.710000", "085740.170000", "085740.630000", "085741.090000", "085741.550000", "085742.010000", "085742.470000", "085742.930000", "085743.390000", "085743.850000", "085744.310000", "085744.770000", "085745.230000", "085745.690000", "085746.150000", "085746.610000", "085747.070000", "085747.530000", "085747.990000", "085748.450000", "085748.910000", "085749.370000", "085749.830000", "085750.290000", "085750.750000", "085751.210000", "085751.670000", "085752.130000", "085752.590000", "085753.050000", "085753.510000", "085753.970000", "085754.430000", "085754.890000", "085755.350000", "085755.810000", "085756.270000", "085756.730000", "085757.190000", "085757.650000", "085758.110000", "085758.570000", "085759.030000", "085759.490000", "085759.950000", "085800.410000", "085800.870000", "085801.330000", "085801.790000", "085802.250000", "085802.710000", "085803.170000", "085803.630000", "085804.090000", "085804.550000", "085805.010000", "085805.470000", "085805.930000", "085806.390000", "085806.850000", "085807.310000", "085807.770000", "085808.230000", "085808.690000", "085809.150000", "085809.610000", "085810.070000", "085810.530000", "085810.990000", "085811.450000", "085811.910000", "085812.370000", "085812.830000", "085813.290000", "085813.750000", "085814.210000", "085814.670000", "085815.130000", "085815.590000", "085816.050000", "085816.510000", "085816.970000", "085817.430000", "085817.890000", "085818.350000", "085818.810000", "085819.270000", "085819.730000", "085820.190000", "085820.650000", "085821.110000", "085821.570000", "085822.030000", "085822.490000", "085822.950000", "085823.410000", "085823.870000", "085824.330000", "085824.790000", "085825.250000", "085825.710000", "085826.170000", "085826.630000", "085827.090000", "085827.550000", "085828.010000", "085828.470000", "085828.930000", "085829.390000", "085829.850000", "085830.310000", "085830.770000", "085831.230000", "085831.690000", "085832.150000", "085832.610000", "085833.070000", "085833.530000", "085833.990000", "085834.450000", "085834.910000", "085835.370000", "085835.830000", "085836.290000", "085836.750000", "085837.210000", "085837.670000", "085838.130000", "085838.590000", "085839.050000", "085839.510000", "085839.970000", "085840.430000", "085840.890000", "085841.350000", "085841.810000", "085842.270000", "085842.730000", "085843.190000", "085843.650000", "085844.110000", "085844.570000", "085845.030000", "085845.490000", "085845.950000", "085846.410000", "085846.870000", "085847.330000", "085847.790000", "085848.250000", "085848.710000", "085849.170000", "085849.630000", "085850.090000", "085850.550000", "085851.010000", "085851.470000", "085851.930000", "085852.390000", "085852.850000", "085853.310000", "085853.770000", "085854.230000", "085854.690000", "085855.150000", "085855.610000", "085856.070000", "085856.530000", "085856.990000", "085857.450000", "085857.910000", "085858.370000", "085858.830000", "085859.290000", "085859.750000", "085900.210000", "085900.670000", "085901.130000", "085901.590000", "085902.050000", "085902.510000", "085902.970000", "085903.430000", "085903.890000", "085904.350000", "085904.810000", "085905.270000", "085905.730000", "085906.190000", "085906.650000", "085907.110000", "085907.570000", "085908.030000", "085908.490000", "085908.950000", "085909.410000", "085909.870000", "085910.330000", "085910.790000", "085911.250000", "085911.710000", "085912.170000", "085912.630000", "085913.090000", "085913.550000", "085914.010000", "085914.470000", "085914.930000", "085915.390000", "085915.850000", "085916.310000", "085916.770000", "085917.230000", "085917.690000", "085918.150000", "085918.610000", "085919.070000", "085919.530000", "085919.990000", "085920.450000", "085920.910000", "085921.370000", "085921.830000", "085922.290000", "085922.750000", "085923.210000", "085923.670000", "085924.130000", "085924.590000", "085925.050000", "085925.510000", "085925.970000", "085926.430000", "085926.890000", "085927.350000", "085927.810000", "085928.270000", "085928.730000", "085929.190000", "085929.650000", "085930.110000", "085930.570000", "085931.030000", "085931.490000", "085931.950000", "085932.410000", "085932.870000", "085933.330000", "085933.790000", "085934.250000", "085934.710000", "085935.170000", "085935.630000", "085936.090000", "085936.550000", "085937.010000", "085937.470000", "085937.930000", "085938.390000", "085938.850000", "085939.310000", "085939.770000", "085940.230000", "085940.690000", "085941.150000", "085941.610000", "085942.070000", "085942.530000", "085942.990000", "085943.450000", "085943.910000", "085944.370000", "085944.830000", "085945.290000", "085945.750000", "085946.210000", "085946.670000", "085947.130000", "085947.590000", "085948.050000", "085948.510000", "085948.970000", "085949.430000", "085949.890000", "085950.350000", "085950.810000", "085951.270000", "085951.730000", "085952.190000", "085952.650000", "085953.110000", "085953.570000", "085954.030000", "085954.490000", "085954.950000", "085955.410000", "085955.870000", "085956.330000", "085956.790000", "085957.250000", "085957.710000", "085958.170000", "085958.630000", "085959.090000", "085959.550000", "090000.010000", "090000.470000", "090000.930000", "090001.390000", "090001.850000", "090002.310000", "090002.770000", "090003.230000", "090003.690000", "090004.150000", "090004.610000", "090005.070000", "090005.530000", "090005.990000", "090006.450000", "090006.910000", "090007.370000", "090007.830000", "090008.290000", "090008.750000", "090009.210000", "090009.670000", "090010.130000", "090010.590000", "090011.050000", "090011.510000", "090011.970000", "090012.430000", "090012.890000", "090013.350000", "090013.810000", "090014.270000", "090014.730000", "090015.190000", "090015.650000", "090016.110000", "090016.570000", "090017.030000", "090017.490000", "090017.950000", "090018.410000", "090018.870000", "090019.330000", "090019.790000", "090020.250000", "090020.710000", "090021.170000", "090021.630000", "090022.090000", "090022.550000", "090023.010000", "090023.470000", "090023.930000", "090024.390000", "090024.850000", "090025.310000", "090025.770000", "090026.230000", "090026.690000", "090027.150000", "090027.610000", "090028.070000", "090028.530000", "090028.990000", "090029.450000", "090029.910000", "090030.370000", "090030.830000", "090031.290000", "090031.750000", "090032.210000", "090032.670000", "090033.130000", "090033.590000", "090034.050000", "090034.510000", "090034.970000", "090035.430000", "090035.890000", "090036.350000", "090036.810000", "090037.270000", "090037.730000", "090038.190000", "090038.650000", "090039.110000", "090039.570000", "090040.030000", "090040.490000", "090040.950000", "090041.410000", "090041.870000", "090042.330000", "090042.790000", "090043.250000", "090043.710000", "090044.170000", "090044.630000", "090045.090000", "090045.550000", "090046.010000", "090046.470000", "090046.930000", "090047.390000", "090047.850000", "090048.310000", "090048.770000", "090049.230000", "090049.690000", "090050.150000", "090050.610000", "090051.070000", "090051.530000", "090051.990000", "090052.450000", "090052.910000", "090053.370000", "090053.830000", "090054.290000", "090054.750000", "090055.210000", "090055.670000", "090056.130000", "090056.590000", "090057.050000", "090057.510000", "090057.970000", "090058.430000", "090058.890000", "090059.350000", "090059.810000", "090100.270000", "090100.730000", "090101.190000", "090101.650000", "090102.110000", "090102.570000", "090103.030000", "090103.490000", "090103.950000", "090104.410000", "090104.870000", "090105.330000", "090105.790000", "090106.250000", "090106.710000", "090107.170000", "090107.630000", "090108.090000", "090108.550000", "090109.010000", "090109.470000", "090109.930000", "090110.390000", "090110.850000", "090111.310000", "090111.770000", "090112.230000", "090112.690000", "090113.150000", "090113.610000", "090114.070000", "090114.530000", "090114.990000", "090115.450000", "090115.910000", "090116.370000", "090116.830000", "090117.290000", "090117.750000", "090118.210000", "090118.670000", "090119.130000", "090119.590000", "090120.050000", "090120.510000", "090120.970000", "090121.430000", "090121.890000", "090122.350000", "090122.810000", "090123.270000", "090123.730000", "090124.190000", "090124.650000", "090125.110000", "090125.570000", "090126.030000", "090126.490000", "090126.950000", "090127.410000", "090127.870000", "090128.330000", "090128.790000", "090129.250000", "090129.710000", "090130.170000", "090130.630000", "090131.090000", "090131.550000", "090132.010000", "090132.470000", "090132.930000", "090133.390000", "090133.850000", "090134.310000", "090134.770000", "090135.230000", "090135.690000", "090136.150000", "090136.610000", "090137.070000", "090137.530000", "090137.990000", "090138.450000", "090138.910000", "090139.370000", "090139.830000", "090140.290000", "090140.750000", "090141.210000", "090141.670000", "090142.130000", "090142.590000", "090143.050000", "090143.510000", "090143.970000", "090144.430000", "090144.890000", "090145.350000", "090145.810000", "090146.270000", "090146.730000", "090147.190000", "090147.650000", "090148.110000", "090148.570000", "090149.030000", "090149.490000", "090149.950000", "090150.410000", "090150.870000", "090151.330000", "090151.790000", "090152.250000", "090152.710000", "090153.170000", "090153.630000", "090154.090000", "090154.550000", "090155.010000", "090155.470000", "090155.930000", "090156.390000", "090156.850000", "090157.310000", "090157.770000", "090158.230000", "090158.690000", "090159.150000", "090159.610000", "090200.070000", "090200.530000", "090200.990000", "090201.450000", "090201.910000", "090202.370000", "090202.830000", "090203.290000", "090203.750000", "090204.210000", "090204.670000", "090205.130000", "090205.590000", "090206.050000", "090206.510000", "090206.970000", "090207.430000", "090207.890000", "090208.350000", "090208.810000", "090209.270000", "090209.730000", "090210.190000", "090210.650000", "090211.110000", "090211.570000", "090212.030000", "090212.490000", "090212.950000", "090213.410000", "090213.870000", "090214.330000", "090214.790000", "090215.250000", "090215.710000", "090216.170000", "090216.630000", "090217.090000", "090217.550000", "090218.010000", "090218.470000", "090218.930000", "090219.390000", "090219.850000", "090220.310000", "090220.770000", "090221.230000", "090221.690000", "090222.150000", "090222.610000", "090223.070000", "090223.530000", "090223.990000", "090224.450000", "090224.910000", "090225.370000", "090225.830000", "090226.290000", "090226.750000", "090227.210000", "090227.670000", "090228.130000", "090228.590000", "090229.050000", "090229.510000", "090229.970000", "090230.430000", "090230.890000", "090231.350000", "090231.810000", "090232.270000", "090232.730000", "090233.190000", "090233.650000", "090234.110000", "090234.570000", "090235.030000", "090235.490000", "090235.950000", "090236.410000", "090236.870000", "090237.330000", "090237.790000", "090238.250000", "090238.710000", "090239.170000", "090239.630000", "090240.090000", "090240.550000", "090241.010000", "090241.470000", "090241.930000", "090242.390000", "090242.850000", "090243.310000", "090243.770000", "090244.230000", "090244.690000", "090245.150000", "090245.610000", "090246.070000", "090246.530000", "090246.990000", "090247.450000", "090247.910000", "090248.370000", "090248.830000", "090249.290000", "090249.750000", "090250.210000", "090250.670000", "090251.130000", "090251.590000", "090252.050000", "090252.510000", "090252.970000", "090253.430000", "090253.890000", "090254.350000", "090254.810000", "090255.270000", "090255.730000", "090256.190000", "090256.650000", "090257.110000", "090257.570000", "090258.030000", "090258.490000", "090258.950000", "090259.410000", "090259.870000", "090300.330000", "090300.790000", "090301.250000", "090301.710000", "090302.170000", "090302.630000", "090303.090000", "090303.550000", "090304.010000", "090304.470000", "090304.930000", "090305.390000", "090305.850000", "090306.310000", "090306.770000", "090307.230000", "090307.690000", "090308.150000", "090308.610000", "090309.070000", "090309.530000", "090309.990000", "090310.450000", "090310.910000", "090311.370000", "090311.830000", "090312.290000", "090312.750000", "090313.210000", "090313.670000", "090314.130000", "090314.590000", "090315.050000", "090315.510000", "090315.970000", "090316.430000", "090316.890000", "090317.350000", "090317.810000", "090318.270000", "090318.730000", "090319.190000", "090319.650000", "090320.110000", "090320.570000", "090321.030000", "090321.490000", "090321.950000", "090322.410000", "090322.870000", "090323.330000", "090323.790000", "090324.250000", "090324.710000", "090325.170000", "090325.630000", "090326.090000", "090326.550000", "090327.010000", "090327.470000", "090327.930000", "090328.390000", "090328.850000", "090329.310000", "090329.770000", "090330.230000", "090330.690000", "090331.150000", "090331.610000", "090332.070000", "090332.530000", "090332.990000", "090333.450000", "090333.910000", "090334.370000", "090334.830000", "090335.290000", "090335.750000", "090336.210000", "090336.670000", "090337.130000", "090337.590000", "090338.050000", "090338.510000", "090338.970000", "090339.430000", "090339.890000", "090340.350000", "090340.810000", "090341.270000", "090341.730000", "090342.190000", "090342.650000", "090343.110000", "090343.570000", "090344.030000", "090344.490000", "090344.950000", "090345.410000", "090345.870000", "090346.330000", "090346.790000", "090347.250000", "090347.710000", "090348.170000", "090348.630000", "090349.090000", "090349.550000", "090350.010000", "090350.470000", "090350.930000", "090351.390000", "090351.850000", "090352.310000", "090352.770000", "090353.230000", "090353.690000", "090354.150000", "090354.610000", "090355.070000", "090355.530000", "090355.990000", "090356.450000", "090356.910000", "090357.370000", "090357.830000", "090358.290000", "090358.750000", "090359.210000", "090359.670000", "090400.130000", "090400.590000", "090401.050000", "090401.510000", "090401.970000", "090402.430000", "090402.890000", "090403.350000", "090403.810000", "090404.270000", "090404.730000", "090405.190000", "090405.650000", "090406.110000", "090406.570000", "090407.030000", "090407.490000", "090407.950000", "090408.410000", "090408.870000", "090409.330000", "090409.790000", "090410.250000", "090410.710000", "090411.170000", "090411.630000", "090412.090000", "090412.550000", "090413.010000", "090413.470000", "090413.930000", "090414.390000", "090414.850000", "090415.310000", "090415.770000", "090416.230000", "090416.690000", "090417.150000", "090417.610000", "090418.070000", "090418.530000", "090418.990000", "090419.450000", "090419.910000", "090420.370000", "090420.830000", "090421.290000", "090421.750000", "090422.210000", "090422.670000", "090423.130000", "090423.590000", "090424.050000", "090424.510000", "090424.970000", "090425.430000", "090425.890000", "090426.350000", "090426.810000", "090427.270000", "090427.730000", "090428.190000", "090428.650000", "090429.110000", "090429.570000", "090430.030000", "090430.490000", "090430.950000", "090431.410000", "090431.870000", "090432.330000", "090432.790000", "090433.250000", "090433.710000", "090434.170000", "090434.630000", "090435.090000", "090435.550000", "090436.010000", "090436.470000", "090436.930000", "090437.390000", "090437.850000", "090438.310000", "090438.770000", "090439.230000", "090439.690000", "090440.150000", "090440.610000", "090441.070000", "090441.530000", "090441.990000", "090442.450000", "090442.910000", "090443.370000", "090443.830000", "090444.290000", "090444.750000", "090445.210000", "090445.670000", "090446.130000", "090446.590000", "090447.050000", "090447.510000", "090447.970000", "090448.430000", "090448.890000", "090449.350000", "090449.810000", "090450.270000", "090450.730000", "090451.190000", "090451.650000", "090452.110000", "090452.570000", "090453.030000", "090453.490000", "090453.950000", "090454.410000", "090454.870000", "090455.330000", "090455.790000", "090456.250000", "090456.710000", "090457.170000", "090457.630000", "090458.090000", "090458.550000", "090459.010000", "090459.470000", "090459.930000", "090500.390000", "090500.850000", "090501.310000"],
