{
  "AcquisitionMatrixPE": 82,
  "AcquisitionNumber": 1,
  "AcquisitionTime": "08:48:33.230000",
  "BandwidthPerPixelPhaseEncode": 24.888,
  "BaseResolution": 82,
  "BodyPartExamined": "BRAIN",
  "ConsistencyInfo": "N4_VE11E_LATEST_20181129",
  "ConversionSoftware": "dcm2niix",
  "ConversionSoftwareVersion": "v1.0.20201102",
  "DerivedVendorReportedEchoSpacing": 0.00049,
  "DeviceSerialNumber": "66112",
  "DwellTime": 2e-06,
  "EchoTime": 0.0272,
  "EchoTrainLength": 82,
  "EffectiveEchoSpacing": 0.00049,
  "FlipAngle": 44,
  "ImageComments": "Unaliased MB8/PE3",
  "ImageOrientationPatientDICOM": [0.99867, -0.0515458, 0.000873232, 0.0493672, 0.961068, 0.271867],
  "ImageType": [
    "ORIGINAL",
    "PRIMARY",
    "M",
    "MB",
    "ND",
    "NORM",
    "MOSAIC"
],
  "ImagingFrequency": 123.252,
  "InPlanePhaseEncodingDirectionDICOM": "COL",
  "InstitutionAddress": "Maynard 3,Hanover,NH,US,03755",
  "InstitutionName": "Dartmouth College - PBS",
  "InstitutionalDepartmentName": "Department",
  "MRAcquisitionType": "2D",
  "MagneticFieldStrength": 3,
  "Manufacturer": "Siemens",
  "ManufacturersModelName": "Prisma",
  "Modality": "MR",
  "MultibandAccelerationFactor": 8,
  "PartialFourier": 1,
  "PatientPosition": "HFS",
  "PercentPhaseFOV": 100,
  "PercentSampling": 100,
  "PhaseEncodingDirection": "j-",
  "PhaseEncodingSteps": 82,
  "PhaseResolution": 1,
  "PixelBandwidth": 3050,
  "ProcedureStepDescription": "Wager_Wager^1076_spacetop",
  "ProtocolName": "func_run-01_task-narratives_acq-ap-mb8",
  "PulseSequenceDetails": "%CustomerSeq%\\cmrr_mbep2d_bold",
  "ReceiveCoilActiveElements": "HEA;HEP",
  "ReceiveCoilName": "Head_32",
  "ReconMatrixPE": 82,
  "RepetitionTime": 0.46,
  "SAR": 0.10287,
  "ScanOptions": "FS",
  "ScanningSequence": "EP",
  "SequenceName": "epfid2d1_82",
  "SequenceVariant": "SK\\SS",
  "SeriesDescription": "func_run-01_task-narratives_acq-ap-mb8",
  "SeriesNumber": 8,
  "ShimSetting": [4137, -7790, -7247, 576, -43, -43, 34, 128],
  "SliceThickness": 2.7,
  "SliceTiming": [0, 0.25, 0.0625, 0.3125, 0.125, 0.3775, 0.1875, 0, 0.25, 0.0625, 0.3125, 0.125, 0.3775, 0.1875, 0, 0.25, 0.0625, 0.3125, 0.125, 0.3775, 0.1875, 0, 0.25, 0.0625, 0.3125, 0.125, 0.3775, 0.1875, 0, 0.25, 0.0625, 0.3125, 0.125, 0.3775, 0.1875, 0, 0.25, 0.0625, 0.3125, 0.125, 0.3775, 0.1875, 0, 0.25, 0.0625, 0.3125, 0.125, 0.3775, 0.1875, 0, 0.25, 0.0625, 0.3125, 0.125, 0.3775, 0.1875],
  "SoftwareVersions": "syngo MR E11",
  "SpacingBetweenSlices": 2.7,
  "StationName": "AWP66112",
  "TaskName": "narratives",
  "TotalReadoutTime": 0.03969,
  "TxRefAmp": 255.414,
  "WipMemBlock": "b4e05ca6-31ea-440c-89a0-cc2039bc7a45||Sequence: R016 ve11e/master r/434b28f1; Aug  7 2019 18:53:46 by eja",
  "dcmmeta_affine": [
    [-2.679359197616577, 0.13244864344596863, 0.040102582424879074, 104.74362182617188],
    [0.13829351961612701, 2.578474760055542, 0.7329473495483398, -112.6554183959961],
    [0.0023428178392350674, -0.729398250579834, 2.5983033180236816, -14.150423049926758],
    [0.0, 0.0, 0.0, 1.0]
],
  "dcmmeta_reorient_transform": [
    [0.0, -1.0, 0.0, 81.0],
    [1.0, 0.0, 0.0, 0.0],
    [0.0, 0.0, 1.0, 0.0],
    [0.0, 0.0, 0.0, 1.0]
],
  "dcmmeta_shape": [82, 82, 56, 967],
  "dcmmeta_slice_dim": 2,
  "dcmmeta_version": 0.6,
  "global": {
    "const": {
      "AccessionNumber": "A003912",
      "AcquisitionMatrix": [82, 0, 0, 82],
      "AngioFlag": "N",
      "BitsAllocated": 16,
      "BitsStored": 16,
      "BodyPartExamined": "BRAIN",
      "Columns": 656,
      "EchoNumbers": 1,
      "EchoTime": 27.2,
      "EchoTrainLength": 82,
      "FlipAngle": 44.0,
      "HighBit": 15,
      "ImageOrientationPatient": [0.9986702515911, -0.051545766584, 0.00087323206565, 0.04936722268034, 0.96106785524971, 0.27186661238659],
      "ImagePositionPatient": [-922.46083730591, -796.53306352319, -283.24136592891],
      "ImageType": [
        "ORIGINAL",
        "PRIMARY",
        "M",
        "MB",
        "ND",
        "NORM",
        "MOSAIC"
],
      "ImagedNucleus": "1H",
      "ImagingFrequency": 123.252121,
      "InPlanePhaseEncodingDirection": "COL",
      "MRAcquisitionType": "2D",
      "MagneticFieldStrength": 3.0,
      "Manufacturer": "SIEMENS",
      "ManufacturerModelName": "Prisma",
      "Modality": "MR",
      "NumberOfAverages": 1.0,
      "NumberOfPhaseEncodingSteps": 82,
      "PercentPhaseFieldOfView": 100.0,
      "PercentSampling": 100.0,
      "PerformedProcedureStepStartTime": "082838.260000",
      "PhotometricInterpretation": "MONOCHROME2",
      "PixelBandwidth": 3050.0,
      "PixelRepresentation": 0,
      "PixelSpacing": [2.6829268932343, 2.6829268932343],
      "ProtocolName": "func_run-01_task-narratives_acq-ap-mb8",
      "RepetitionTime": 460.0,
      "Rows": 656,
      "SAR": 0.10287045962175,
      "SamplesPerPixel": 1,
      "ScanOptions": "FS",
      "ScanningSequence": "EP",
      "SequenceName": "epfid2d1_82",
      "SequenceVariant": [
        "SK",
        "SS"
],
      "SeriesDescription": "func_run-01_task-narratives_acq-ap-mb8",
      "SeriesNumber": 8,
      "SeriesTime": "084853.667000",
      "SliceLocation": -42.643368147066,
      "SliceThickness": 2.7000000476837,
      "SmallestImagePixelValue": 0,
      "SoftwareVersions": "syngo MR E11",
      "SpacingBetweenSlices": 2.7000000014895,
      "SpecificCharacterSet": "ISO_IR 100",
      "StudyID": "1",
      "StudyTime": "082838.159000",
      "TransmitCoilName": "Body",
      "VariableFlipAngleFlag": "N",
      "WindowCenterWidthExplanation": "Algo1"
    },
    "slices": {}
  },
  "time": {
    "samples": {
      "AcquisitionNumber": [1, 2, 3, 4, 5, 6, 7, 8, 9, 10, 11, 12, 13, 14, 15, 16, 17, 18, 19, 20, 21, 22, 23, 24, 25, 26, 27, 28, 29, 30, 31, 32, 33, 34, 35, 36, 37, 38, 39, 40, 41, 42, 43, 44, 45, 46, 47, 48, 49, 50, 51, 52, 53, 54, 55, 56, 57, 58, 59, 60, 61, 62, 63, 64, 65, 66, 67, 68, 69, 70, 71, 72, 73, 74, 75, 76, 77, 78, 79, 80, 81, 82, 83, 84, 85, 86, 87, 88, 89, 90, 91, 92, 93, 94, 95, 96, 97, 98, 99, 100, 101, 102, 103, 104, 105, 106, 107, 108, 109, 110, 111, 112, 113, 114, 115, 116, 117, 118, 119, 120, 121, 122, 123, 124, 125, 126, 127, 128, 129, 130, 131, 132, 133, 134, 135, 136, 137, 138, 139, 140, 141, 142, 143, 144, 145, 146, 147, 148, 149, 150, 151, 152, 153, 154, 155, 156, 157, 158, 159, 160, 161, 162, 163, 164, 165, 166, 167, 168, 169, 170, 171, 172, 173, 174, 175, 176, 177, 178, 179, 180, 181, 182, 183, 184, 185, 186, 187, 188, 189, 190, 191, 192, 193, 194, 195, 196, 197, 198, 199, 200, 201, 202, 203, 204, 205, 206, 207, 208, 209, 210, 211, 212, 213, 214, 215, 216, 217, 218, 219, 220, 221, 222, 223, 224, 225, 226, 227, 228, 229, 230, 231, 232, 233, 234, 235, 236, 237, 238, 239, 240, 241, 242, 243, 244, 245, 246, 247, 248, 249, 250, 251, 252, 253, 254, 255, 256, 257, 258, 259, 260, 261, 262, 263, 264, 265, 266, 267, 268, 269, 270, 271, 272, 273, 274, 275, 276, 277, 278, 279, 280, 281, 282, 283, 284, 285, 286, 287, 288, 289, 290, 291, 292, 293, 294, 295, 296, 297, 298, 299, 300, 301, 302, 303, 304, 305, 306, 307, 308, 309, 310, 311, 312, 313, 314, 315, 316, 317, 318, 319, 320, 321, 322, 323, 324, 325, 326, 327, 328, 329, 330, 331, 332, 333, 334, 335, 336, 337, 338, 339, 340, 341, 342, 343, 344, 345, 346, 347, 348, 349, 350, 351, 352, 353, 354, 355, 356, 357, 358, 359, 360, 361, 362, 363, 364, 365, 366, 367, 368, 369, 370, 371, 372, 373, 374, 375, 376, 377, 378, 379, 380, 381, 382, 383, 384, 385, 386, 387, 388, 389, 390, 391, 392, 393, 394, 395, 396, 397, 398, 399, 400, 401, 402, 403, 404, 405, 406, 407, 408, 409, 410, 411, 412, 413, 414, 415, 416, 417, 418, 419, 420, 421, 422, 423, 424, 425, 426, 427, 428, 429, 430, 431, 432, 433, 434, 435, 436, 437, 438, 439, 440, 441, 442, 443, 444, 445, 446, 447, 448, 449, 450, 451, 452, 453, 454, 455, 456, 457, 458, 459, 460, 461, 462, 463, 464, 465, 466, 467, 468, 469, 470, 471, 472, 473, 474, 475, 476, 477, 478, 479, 480, 481, 482, 483, 484, 485, 486, 487, 488, 489, 490, 491, 492, 493, 494, 495, 496, 497, 498, 499, 500, 501, 502, 503, 504, 505, 506, 507, 508, 509, 510, 511, 512, 513, 514, 515, 516, 517, 518, 519, 520, 521, 522, 523, 524, 525, 526, 527, 528, 529, 530, 531, 532, 533, 534, 535, 536, 537, 538, 539, 540, 541, 542, 543, 544, 545, 546, 547, 548, 549, 550, 551, 552, 553, 554, 555, 556, 557, 558, 559, 560, 561, 562, 563, 564, 565, 566, 567, 568, 569, 570, 571, 572, 573, 574, 575, 576, 577, 578, 579, 580, 581, 582, 583, 584, 585, 586, 587, 588, 589, 590, 591, 592, 593, 594, 595, 596, 597, 598, 599, 600, 601, 602, 603, 604, 605, 606, 607, 608, 609, 610, 611, 612, 613, 614, 615, 616, 617, 618, 619, 620, 621, 622, 623, 624, 625, 626, 627, 628, 629, 630, 631, 632, 633, 634, 635, 636, 637, 638, 639, 640, 641, 642, 643, 644, 645, 646, 647, 648, 649, 650, 651, 652, 653, 654, 655, 656, 657, 658, 659, 660, 661, 662, 663, 664, 665, 666, 667, 668, 669, 670, 671, 672, 673, 674, 675, 676, 677, 678, 679, 680, 681, 682, 683, 684, 685, 686, 687, 688, 689, 690, 691, 692, 693, 694, 695, 696, 697, 698, 699, 700, 701, 702, 703, 704, 705, 706, 707, 708, 709, 710, 711, 712, 713, 714, 715, 716, 717, 718, 719, 720, 721, 722, 723, 724, 725, 726, 727, 728, 729, 730, 731, 732, 733, 734, 735, 736, 737, 738, 739, 740, 741, 742, 743, 744, 745, 746, 747, 748, 749, 750, 751, 752, 753, 754, 755, 756, 757, 758, 759, 760, 761, 762, 763, 764, 765, 766, 767, 768, 769, 770, 771, 772, 773, 774, 775, 776, 777, 778, 779, 780, 781, 782, 783, 784, 785, 786, 787, 788, 789, 790, 791, 792, 793, 794, 795, 796, 797, 798, 799, 800, 801, 802, 803, 804, 805, 806, 807, 808, 809, 810, 811, 812, 813, 814, 815, 816, 817, 818, 819, 820, 821, 822, 823, 824, 825, 826, 827, 828, 829, 830, 831, 832, 833, 834, 835, 836, 837, 838, 839, 840, 841, 842, 843, 844, 845, 846, 847, 848, 849, 850, 851, 852, 853, 854, 855, 856, 857, 858, 859, 860, 861, 862, 863, 864, 865, 866, 867, 868, 869, 870, 871, 872, 873, 874, 875, 876, 877, 878, 879, 880, 881, 882, 883, 884, 885, 886, 887, 888, 889, 890, 891, 892, 893, 894, 895, 896, 897, 898, 899, 900, 901, 902, 903, 904, 905, 906, 907, 908, 909, 910, 911, 912, 913, 914, 915, 916, 917, 918, 919, 920, 921, 922, 923, 924, 925, 926, 927, 928, 929, 930, 931, 932, 933, 934, 935, 936, 937, 938, 939, 940, 941, 942, 943, 944, 945, 946, 947, 948, 949, 950, 951, 952, 953, 954, 955, 956, 957, 958, 959, 960, 961, 962, 963, 964, 965, 966, 967],
      "AcquisitionTime": ["084833.230000", "084833.690000", "084834.150000", "084834.610000", "084835.070000", "084835.530000", "084835.990000", "084836.450000", "084836.910000", "084837.370000", "084837.830000", "084838.290000", "084838.750000", "084839.210000", "084839.670000", "084840.130000", "084840.590000", "084841.050000", "084841.510000", "084841.970000", "084842.430000", "084842.890000", "084843.350000", "084843.810000", "084844.270000", "084844.730000", "084845.190000", "084845.650000", "084846.110000", "084846.570000", "084847.030000", "084847.490000", "084847.950000", "084848.410000", "084848.870000", "084849.330000", "084849.790000", "084850.250000", "084850.710000", "084851.170000", "084851.630000", "084852.090000", "084852.550000", "084853.010000", "084853.470000", "084853.930000", "084854.390000", "084854.850000", "084855.310000", "084855.770000", "084856.230000", "084856.690000", "084857.150000", "084857.610000", "084858.070000", "084858.530000", "084858.990000", "084859.450000", "084859.910000", "084900.370000", "084900.830000", "084901.290000", "084901.750000", "084902.210000", "084902.670000", "084903.130000", "084903.590000", "084904.050000", "084904.510000", "084904.970000", "084905.430000", "084905.890000", "084906.350000", "084906.810000", "084907.270000", "084907.730000", "084908.190000", "084908.650000", "084909.110000", "084909.570000", "084910.030000", "084910.490000", "084910.950000", "084911.410000", "084911.870000", "084912.330000", "084912.790000", "084913.250000", "084913.710000", "084914.170000", "084914.630000", "084915.090000", "084915.550000", "084916.010000", "084916.470000", "084916.930000", "084917.390000", "084917.850000", "084918.310000", "084918.770000", "084919.230000", "084919.690000", "084920.150000", "084920.610000", "084921.070000", "084921.530000", "084921.990000", "084922.450000", "084922.910000", "084923.370000", "084923.830000", "084924.290000", "084924.750000", "084925.210000", "084925.670000", "084926.130000", "084926.590000", "084927.050000", "084927.510000", "084927.970000", "084928.430000", "084928.890000", "084929.350000", "084929.810000", "084930.270000", "084930.730000", "084931.190000", "084931.650000", "084932.110000", "084932.570000", "084933.030000", "084933.490000", "084933.950000", "084934.410000", "084934.870000", "084935.330000", "084935.790000", "084936.250000", "084936.710000", "084937.170000", "084937.630000", "084938.090000", "084938.550000", "084939.010000", "084939.470000", "084939.930000", "084940.390000", "084940.850000", "084941.310000", "084941.770000", "084942.230000", "084942.690000", "084943.150000", "084943.610000", "084944.070000", "084944.530000", "084944.990000", "084945.450000", "084945.910000", "084946.370000", "084946.830000", "084947.290000", "084947.750000", "084948.210000", "084948.670000", "084949.130000", "084949.590000", "084950.050000", "084950.510000", "084950.970000", "084951.430000", "084951.890000", "084952.350000", "084952.810000", "084953.270000", "084953.730000", "084954.190000", "084954.650000", "084955.110000", "084955.570000", "084956.030000", "084956.490000", "084956.950000", "084957.410000", "084957.870000", "084958.330000", "084958.790000", "084959.250000", "084959.710000", "085000.170000", "085000.630000", "085001.090000", "085001.550000", "085002.010000", "085002.470000", "085002.930000", "085003.390000", "085003.850000", "085004.310000", "085004.770000", "085005.230000", "085005.690000", "085006.150000", "085006.610000", "085007.070000", "085007.530000", "085007.990000", "085008.450000", "085008.910000", "085009.370000", "085009.830000", "085010.290000", "085010.750000", "085011.210000", "085011.670000", "085012.130000", "085012.590000", "085013.050000", "085013.510000", "085013.970000", "085014.430000", "085014.890000", "085015.350000", "085015.810000", "085016.270000", "085016.730000", "085017.190000", "085017.650000", "085018.110000", "085018.570000", "085019.030000", "085019.490000", "085019.950000", "085020.410000", "085020.870000", "085021.330000", "085021.790000", "085022.250000", "085022.710000", "085023.170000", "085023.630000", "085024.090000", "085024.550000", "085025.010000", "085025.470000", "085025.930000", "085026.390000", "085026.850000", "085027.310000", "085027.770000", "085028.230000", "085028.690000", "085029.150000", "085029.610000", "085030.070000", "085030.530000", "085030.990000", "085031.450000", "085031.910000", "085032.370000", "085032.830000", "085033.290000", "085033.750000", "085034.210000", "085034.670000", "085035.130000", "085035.590000", "085036.050000", "085036.510000", "085036.970000", "085037.430000", "085037.890000", "085038.350000", "085038.810000", "085039.270000", "085039.730000", "085040.190000", "085040.650000", "085041.110000", "085041.570000", "085042.030000", "085042.490000", "085042.950000", "085043.410000", "085043.870000", "085044.330000", "085044.790000", "085045.250000", "085045.710000", "085046.170000", "085046.630000", "085047.090000", "085047.550000", "085048.010000", "085048.470000", "085048.930000", "085049.390000", "085049.850000", "085050.310000", "085050.770000", "085051.230000", "085051.690000", "085052.150000", "085052.610000", "085053.070000", "085053.530000", "085053.990000", "085054.450000", "085054.910000", "085055.370000", "085055.830000", "085056.290000", "085056.750000", "085057.210000", "085057.670000", "085058.130000", "085058.590000", "085059.050000", "085059.510000", "085059.970000", "085100.430000", "085100.890000", "085101.350000", "085101.810000", "085102.270000", "085102.730000", "085103.190000", "085103.650000", "085104.110000", "085104.570000", "085105.030000", "085105.490000", "085105.950000", "085106.410000", "085106.870000", "085107.330000", "085107.790000", "085108.250000", "085108.710000", "085109.170000", "085109.630000", "085110.090000", "085110.550000", "085111.010000", "085111.470000", "085111.930000", "085112.390000", "085112.850000", "085113.310000", "085113.770000", "085114.230000", "085114.690000", "085115.150000", "085115.610000", "085116.070000", "085116.530000", "085116.990000", "085117.450000", "085117.910000", "085118.370000", "085118.830000", "085119.290000", "085119.750000", "085120.210000", "085120.670000", "085121.130000", "085121.590000", "085122.050000", "085122.510000", "085122.970000", "085123.430000", "085123.890000", "085124.350000", "085124.810000", "085125.270000", "085125.730000", "085126.190000", "085126.650000", "085127.110000", "085127.570000", "085128.030000", "085128.490000", "085128.950000", "085129.410000", "085129.870000", "085130.330000", "085130.790000", "085131.250000", "085131.710000", "085132.170000", "085132.630000", "085133.090000", "085133.550000", "085134.010000", "085134.470000", "085134.930000", "085135.390000", "085135.850000", "085136.310000", "085136.770000", "085137.230000", "085137.690000", "085138.150000", "085138.610000", "085139.070000", "085139.530000", "085139.990000", "085140.450000", "085140.910000", "085141.370000", "085141.830000", "085142.290000", "085142.750000", "085143.210000", "085143.670000", "085144.130000", "085144.590000", "085145.050000", "085145.510000", "085145.970000", "085146.430000", "085146.890000", "085147.350000", "085147.810000", "085148.270000", "085148.730000", "085149.190000", "085149.650000", "085150.110000", "085150.570000", "085151.030000", "085151.490000", "085151.950000", "085152.410000", "085152.870000", "085153.330000", "085153.790000", "085154.250000", "085154.710000", "085155.170000", "085155.630000", "085156.090000", "085156.550000", "085157.010000", "085157.470000", "085157.930000", "085158.390000", "085158.850000", "085159.310000", "085159.770000", "085200.230000", "085200.690000", "085201.150000", "085201.610000", "085202.070000", "085202.530000", "085202.990000", "085203.450000", "085203.910000", "085204.370000", "085204.830000", "085205.290000", "085205.750000", "085206.210000", "085206.670000", "085207.130000", "085207.590000", "085208.050000", "085208.510000", "085208.970000", "085209.430000", "085209.890000", "085210.350000", "085210.810000", "085211.270000", "085211.730000", "085212.190000", "085212.650000", "085213.110000", "085213.570000", "085214.030000", "085214.490000", "085214.950000", "085215.410000", "085215.870000", "085216.330000", "085216.790000", "085217.250000", "085217.710000", "085218.170000", "085218.630000", "085219.090000", "085219.550000", "085220.010000", "085220.470000", "085220.930000", "085221.390000", "085221.850000", "085222.310000", "085222.770000", "085223.230000", "085223.690000", "085224.150000", "085224.610000", "085225.070000", "085225.530000", "085225.990000", "085226.450000", "085226.910000", "085227.370000", "085227.830000", "085228.290000", "085228.750000", "085229.210000", "085229.670000", "085230.130000", "085230.590000", "085231.050000", "085231.510000", "085231.970000", "085232.430000", "085232.890000", "085233.350000", "085233.810000", "085234.270000", "085234.730000", "085235.190000", "085235.650000", "085236.110000", "085236.570000", "085237.030000", "085237.490000", "085237.950000", "085238.410000", "085238.870000", "085239.330000", "085239.790000", "085240.250000", "085240.710000", "085241.170000", "085241.630000", "085242.090000", "085242.550000", "085243.010000", "085243.470000", "085243.930000", "085244.390000", "085244.850000", "085245.310000", "085245.770000", "085246.230000", "085246.690000", "085247.150000", "085247.610000", "085248.070000", "085248.530000", "085248.990000", "085249.450000", "085249.910000", "085250.370000", "085250.830000", "085251.290000", "085251.750000", "085252.210000", "085252.670000", "085253.130000", "085253.590000", "085254.050000", "085254.510000", "085254.970000", "085255.430000", "085255.890000", "085256.350000", "085256.810000", "085257.270000", "085257.730000", "085258.190000", "085258.650000", "085259.110000", "085259.570000", "085300.030000", "085300.490000", "085300.950000", "085301.410000", "085301.870000", "085302.330000", "085302.790000", "085303.250000", "085303.710000", "085304.170000", "085304.630000", "085305.090000", "085305.550000", "085306.010000", "085306.470000", "085306.930000", "085307.390000", "085307.850000", "085308.310000", "085308.770000", "085309.230000", "085309.690000", "085310.150000", "085310.610000", "085311.070000", "085311.530000", "085311.990000", "085312.450000", "085312.910000", "085313.370000", "085313.830000", "085314.290000", "085314.750000", "085315.210000", "085315.670000", "085316.130000", "085316.590000", "085317.050000", "085317.510000", "085317.970000", "085318.430000", "085318.890000", "085319.350000", "085319.810000", "085320.270000", "085320.730000", "085321.190000", "085321.650000", "085322.110000", "085322.570000", "085323.030000", "085323.490000", "085323.950000", "085324.410000", "085324.870000", "085325.330000", "085325.790000", "085326.250000", "085326.710000", "085327.170000", "085327.630000", "085328.090000", "085328.550000", "085329.010000", "085329.470000", "085329.930000", "085330.390000", "085330.850000", "085331.310000", "085331.770000", "085332.230000", "085332.690000", "085333.150000", "085333.610000", "085334.070000", "085334.530000", "085334.990000", "085335.450000", "085335.910000", "085336.370000", "085336.830000", "085337.290000", "085337.750000", "085338.210000", "085338.670000", "085339.130000", "085339.590000", "085340.050000", "085340.510000", "085340.970000", "085341.430000", "085341.890000", "085342.350000", "085342.810000", "085343.270000", "085343.730000", "085344.190000", "085344.650000", "085345.110000", "085345.570000", "085346.030000", "085346.490000", "085346.950000", "085347.410000", "085347.870000", "085348.330000", "085348.790000", "085349.250000", "085349.710000", "085350.170000", "085350.630000", "085351.090000", "085351.550000", "085352.010000", "085352.470000", "085352.930000", "085353.390000", "085353.850000", "085354.310000", "085354.770000", "085355.230000", "085355.690000", "085356.150000", "085356.610000", "085357.070000", "085357.530000", "085357.990000", "085358.450000", "085358.910000", "085359.370000", "085359.830000", "085400.290000", "085400.750000", "085401.210000", "085401.670000", "085402.130000", "085402.590000", "085403.050000", "085403.510000", "085403.970000", "085404.430000", "085404.890000", "085405.350000", "085405.810000", "085406.270000", "085406.730000", "085407.190000", "085407.650000", "085408.110000", "085408.570000", "085409.030000", "085409.490000", "085409.950000", "085410.410000", "085410.870000", "085411.330000", "085411.790000", "085412.250000", "085412.710000", "085413.170000", "085413.630000", "085414.090000", "085414.550000", "085415.010000", "085415.470000", "085415.930000", "085416.390000", "085416.850000", "085417.310000", "085417.770000", "085418.230000", "085418.690000", "085419.150000", "085419.610000", "085420.070000", "085420.530000", "085420.990000", "085421.450000", "085421.910000", "085422.370000", "085422.830000", "085423.290000", "085423.750000", "085424.210000", "085424.670000", "085425.130000", "085425.590000", "085426.050000", "085426.510000", "085426.970000", "085427.430000", "085427.890000", "085428.350000", "085428.810000", "085429.270000", "085429.730000", "085430.190000", "085430.650000", "085431.110000", "085431.570000", "085432.030000", "085432.490000", "085432.950000", "085433.410000", "085433.870000", "085434.330000", "085434.790000", "085435.250000", "085435.710000", "085436.170000", "085436.630000", "085437.090000", "085437.550000", "085438.010000", "085438.470000", "085438.930000", "085439.390000", "085439.850000", "085440.310000", "085440.770000", "085441.230000", "085441.690000", "085442.150000", "085442.610000", "085443.070000", "085443.530000", "085443.990000", "085444.450000", "085444.910000", "085445.370000", "085445.830000", "085446.290000", "085446.750000", "085447.210000", "085447.670000", "085448.130000", "085448.590000", "085449.050000", "085449.510000", "085449.970000", "085450.430000", "085450.890000", "085451.350000", "085451.810000", "085452.270000", "085452.730000", "085453.190000", "085453.650000", "085454.110000", "085454.570000", "085455.030000", "085455.490000", "085455.950000", "085456.410000", "085456.870000", "085457.330000", "085457.790000", "085458.250000", "085458.710000", "085459.170000", "085459.630000", "085500.090000", "085500.550000", "085501.010000", "085501.470000", "085501.930000", "085502.390000", "085502.850000", "085503.310000", "085503.770000", "085504.230000", "085504.690000", "085505.150000", "085505.610000", "085506.070000", "085506.530000", "085506.990000", "085507.450000", "085507.910000", "085508.370000", "085508.830000", "085509.290000", "085509.750000", "085510.210000", "085510.670000", "085511.130000", "085511.590000", "085512.050000", "085512.510000", "085512.970000", "085513.430000", "085513.890000", "085514.350000", "085514.810000", "085515.270000", "085515.730000", "085516.190000", "085516.650000", "085517.110000", "085517.570000", "085518.030000", "085518.490000", "085518.950000", "085519.410000", "085519.870000", "085520.330000", "085520.790000", "085521.250000", "085521.710000", "085522.170000", "085522.630000", "085523.090000", "085523.550000", "085524.010000", "085524.470000", "085524.930000", "085525.390000", "085525.850000", "085526.310000", "085526.770000", "085527.230000", "085527.690000", "085528.150000", "085528.610000", "085529.070000", "085529.530000", "085529.990000", "085530.450000", "085530.910000", "085531.370000", "085531.830000", "085532.290000", "085532.750000", "085533.210000", "085533.670000", "085534.130000", "085534.590000", "085535.050000", "085535.510000", "085535.970000", "085536.430000", "085536.890000", "085537.350000", "085537.810000", "085538.270000", "085538.730000", "085539.190000", "085539.650000", "085540.110000", "085540.570000", "085541.030000", "085541.490000", "085541.950000", "085542.410000", "085542.870000", "085543.330000", "085543.790000", "085544.250000", "085544.710000", "085545.170000", "085545.630000", "085546.090000", "085546.550000", "085547.010000", "085547.470000", "085547.930000", "085548.390000", "085548.850000", "085549.310000", "085549.770000", "085550.230000", "085550.690000", "085551.150000", "085551.610000", "085552.070000", "085552.530000", "085552.990000", "085553.450000", "085553.910000", "085554.370000", "085554.830000", "085555.290000", "085555.750000", "085556.210000", "085556.670000", "085557.130000", "085557.590000"],
