{
  "AcquisitionMatrixPE": 82,
  "AcquisitionNumber": 1,
  "AcquisitionTime": "09:52:16.225000",
  "BandwidthPerPixelPhaseEncode": 24.888,
  "BaseResolution": 82,
  "BodyPartExamined": "BRAIN",
  "ConsistencyInfo": "N4_VE11E_LATEST_20181129",
  "ConversionSoftware": "dcm2niix",
  "ConversionSoftwareVersion": "v1.0.20201102",
  "DerivedVendorReportedEchoSpacing": 0.00049,
  "DeviceSerialNumber": "66112",
  "DwellTime": 2e-06,
  "EchoTime": 0.0272,
  "EchoTrainLength": 82,
  "EffectiveEchoSpacing": 0.00049,
  "FlipAngle": 44,
  "ImageComments": "Unaliased MB8/PE3",
  "ImageOrientationPatientDICOM": [0.999259, -0.0312791, 0.0224431, 0.0233744, 0.956165, 0.291892],
  "ImageType": [
    "ORIGINAL",
    "PRIMARY",
    "M",
    "MB",
    "ND",
    "NORM",
    "MOSAIC"
],
  "ImagingFrequency": 123.252,
  "InPlanePhaseEncodingDirectionDICOM": "COL",
  "InstitutionAddress": "Maynard 3,Hanover,NH,US,03755",
  "InstitutionName": "Dartmouth College - PBS",
  "InstitutionalDepartmentName": "Department",
  "MRAcquisitionType": "2D",
  "MagneticFieldStrength": 3,
  "Manufacturer": "Siemens",
  "ManufacturersModelName": "Prisma",
  "Modality": "MR",
  "MultibandAccelerationFactor": 8,
  "PartialFourier": 1,
  "PatientPosition": "HFS",
  "PercentPhaseFOV": 100,
  "PercentSampling": 100,
  "PhaseEncodingDirection": "j-",
  "PhaseEncodingSteps": 82,
  "PhaseResolution": 1,
  "PixelBandwidth": 3050,
  "ProcedureStepDescription": "Wager_Wager^1076_spacetop",
  "ProtocolName": "func_run-01_task-alignvideo_acq-ap-mb8",
  "PulseSequenceDetails": "%CustomerSeq%\\cmrr_mbep2d_bold",
  "ReceiveCoilActiveElements": "HEA;HEP",
  "ReceiveCoilName": "Head_32",
  "ReconMatrixPE": 82,
  "RepetitionTime": 0.46,
  "SAR": 0.102783,
  "ScanOptions": "FS",
  "ScanningSequence": "EP",
  "SequenceName": "epfid2d1_82",
  "SequenceVariant": "SK\\SS",
  "SeriesDescription": "func_run-01_task-alignvideo_acq-ap-mb8",
  "SeriesNumber": 28,
  "ShimSetting": [4136, -7789, -7247, 576, -45, -37, 38, 131],
  "SliceThickness": 2.7,
  "SliceTiming": [0, 0.2525, 0.0625, 0.315, 0.125, 0.3775, 0.19, 0, 0.2525, 0.0625, 0.315, 0.125, 0.3775, 0.19, 0, 0.2525, 0.0625, 0.315, 0.125, 0.3775, 0.19, 0, 0.2525, 0.0625, 0.315, 0.125, 0.3775, 0.19, 0, 0.2525, 0.0625, 0.315, 0.125, 0.3775, 0.19, 0, 0.2525, 0.0625, 0.315, 0.125, 0.3775, 0.19, 0, 0.2525, 0.0625, 0.315, 0.125, 0.3775, 0.19, 0, 0.2525, 0.0625, 0.315, 0.125, 0.3775, 0.19],
  "SoftwareVersions": "syngo MR E11",
  "SpacingBetweenSlices": 2.7,
  "StationName": "AWP66112",
  "TaskName": "alignvideo",
  "TotalReadoutTime": 0.03969,
  "TxRefAmp": 255.414,
  "WipMemBlock": "2228be61-1562-4ff5-80e7-bce746c5f2de||Sequence: R016 ve11e/master r/434b28f1; Aug  7 2019 18:53:46 by eja",
  "dcmmeta_affine": [
    [-2.6809380054473877, 0.0627116933465004, 0.08259151130914688, 108.12759399414062],
    [0.08391955494880676, 2.565322160720825, 0.7861089706420898, -100.77798461914062],
    [0.060213182121515274, -0.7831261157989502, 2.581707000732422, -13.848033905029297],
    [0.0, 0.0, 0.0, 1.0]
],
  "dcmmeta_reorient_transform": [
    [0.0, -1.0, 0.0, 81.0],
    [1.0, 0.0, 0.0, 0.0],
    [0.0, 0.0, 1.0, 0.0],
    [0.0, 0.0, 0.0, 1.0]
],
  "dcmmeta_shape": [82, 82, 56, 839],
  "dcmmeta_slice_dim": 2,
  "dcmmeta_version": 0.6,
  "global": {
    "const": {
      "AccessionNumber": "A003912",
      "AcquisitionMatrix": [82, 0, 0, 82],
      "AngioFlag": "N",
      "BitsAllocated": 16,
      "BitsStored": 16,
      "BodyPartExamined": "BRAIN",
      "Columns": 656,
      "EchoNumbers": 1,
      "EchoTime": 27.2,
      "EchoTrainLength": 82,
      "FlipAngle": 44.0,
      "HighBit": 15,
      "ImageOrientationPatient": [0.99925868772465, -0.0312791061274, 0.02244309530108, 0.02337435924883, 0.95616548527256, 0.29189245297402],
      "ImagePositionPatient": [-900.63470266113, -819.17563205551, -319.31962715084],
      "ImageType": [
        "ORIGINAL",
        "PRIMARY",
        "M",
        "MB",
        "ND",
        "NORM",
        "MOSAIC"
],
      "ImagedNucleus": "1H",
      "ImagingFrequency": 123.252159,
      "InPlanePhaseEncodingDirection": "COL",
      "MRAcquisitionType": "2D",
      "MagneticFieldStrength": 3.0,
      "Manufacturer": "SIEMENS",
      "ManufacturerModelName": "Prisma",
      "Modality": "MR",
      "NumberOfAverages": 1.0,
      "NumberOfPhaseEncodingSteps": 82,
      "PercentPhaseFieldOfView": 100.0,
      "PercentSampling": 100.0,
      "PerformedProcedureStepStartTime": "082838.260000",
      "PhotometricInterpretation": "MONOCHROME2",
      "PixelBandwidth": 3050.0,
      "PixelRepresentation": 0,
      "PixelSpacing": [2.6829268932343, 2.6829268932343],
      "ProtocolName": "func_run-01_task-alignvideo_acq-ap-mb8",
      "RepetitionTime": 460.0,
      "Rows": 656,
      "SAR": 0.10278259551929,
      "SamplesPerPixel": 1,
      "ScanOptions": "FS",
      "ScanningSequence": "EP",
      "SequenceName": "epfid2d1_82",
      "SequenceVariant": [
        "SK",
        "SS"
],
      "SeriesDescription": "func_run-01_task-alignvideo_acq-ap-mb8",
      "SeriesNumber": 28,
      "SeriesTime": "095233.775000",
      "SliceLocation": -39.275417527101,
      "SliceThickness": 2.7000000476837,
      "SmallestImagePixelValue": 0,
      "SoftwareVersions": "syngo MR E11",
      "SpacingBetweenSlices": 2.7000000145952,
      "SpecificCharacterSet": "ISO_IR 100",
      "StudyID": "1",
      "StudyTime": "082838.159000",
      "TransmitCoilName": "Body",
      "VariableFlipAngleFlag": "N",
      "WindowCenterWidthExplanation": "Algo1"
    },
    "slices": {}
  },
  "time": {
    "samples": {
      "AcquisitionNumber": [1, 2, 3, 4, 5, 6, 7, 8, 9, 10, 11, 12, 13, 14, 15, 16, 17, 18, 19, 20, 21, 22, 23, 24, 25, 26, 27, 28, 29, 30, 31, 32, 33, 34, 35, 36, 37, 38, 39, 40, 41, 42, 43, 44, 45, 46, 47, 48, 49, 50, 51, 52, 53, 54, 55, 56, 57, 58, 59, 60, 61, 62, 63, 64, 65, 66, 67, 68, 69, 70, 71, 72, 73, 74, 75, 76, 77, 78, 79, 80, 81, 82, 83, 84, 85, 86, 87, 88, 89, 90, 91, 92, 93, 94, 95, 96, 97, 98, 99, 100, 101, 102, 103, 104, 105, 106, 107, 108, 109, 110, 111, 112, 113, 114, 115, 116, 117, 118, 119, 120, 121, 122, 123, 124, 125, 126, 127, 128, 129, 130, 131, 132, 133, 134, 135, 136, 137, 138, 139, 140, 141, 142, 143, 144, 145, 146, 147, 148, 149, 150, 151, 152, 153, 154, 155, 156, 157, 158, 159, 160, 161, 162, 163, 164, 165, 166, 167, 168, 169, 170, 171, 172, 173, 174, 175, 176, 177, 178, 179, 180, 181, 182, 183, 184, 185, 186, 187, 188, 189, 190, 191, 192, 193, 194, 195, 196, 197, 198, 199, 200, 201, 202, 203, 204, 205, 206, 207, 208, 209, 210, 211, 212, 213, 214, 215, 216, 217, 218, 219, 220, 221, 222, 223, 224, 225, 226, 227, 228, 229, 230, 231, 232, 233, 234, 235, 236, 237, 238, 239, 240, 241, 242, 243, 244, 245, 246, 247, 248, 249, 250, 251, 252, 253, 254, 255, 256, 257, 258, 259, 260, 261, 262, 263, 264, 265, 266, 267, 268, 269, 270, 271, 272, 273, 274, 275, 276, 277, 278, 279, 280, 281, 282, 283, 284, 285, 286, 287, 288, 289, 290, 291, 292, 293, 294, 295, 296, 297, 298, 299, 300, 301, 302, 303, 304, 305, 306, 307, 308, 309, 310, 311, 312, 313, 314, 315, 316, 317, 318, 319, 320, 321, 322, 323, 324, 325, 326, 327, 328, 329, 330, 331, 332, 333, 334, 335, 336, 337, 338, 339, 340, 341, 342, 343, 344, 345, 346, 347, 348, 349, 350, 351, 352, 353, 354, 355, 356, 357, 358, 359, 360, 361, 362, 363, 364, 365, 366, 367, 368, 369, 370, 371, 372, 373, 374, 375, 376, 377, 378, 379, 380, 381, 382, 383, 384, 385, 386, 387, 388, 389, 390, 391, 392, 393, 394, 395, 396, 397, 398, 399, 400, 401, 402, 403, 404, 405, 406, 407, 408, 409, 410, 411, 412, 413, 414, 415, 416, 417, 418, 419, 420, 421, 422, 423, 424, 425, 426, 427, 428, 429, 430, 431, 432, 433, 434, 435, 436, 437, 438, 439, 440, 441, 442, 443, 444, 445, 446, 447, 448, 449, 450, 451, 452, 453, 454, 455, 456, 457, 458, 459, 460, 461, 462, 463, 464, 465, 466, 467, 468, 469, 470, 471, 472, 473, 474, 475, 476, 477, 478, 479, 480, 481, 482, 483, 484, 485, 486, 487, 488, 489, 490, 491, 492, 493, 494, 495, 496, 497, 498, 499, 500, 501, 502, 503, 504, 505, 506, 507, 508, 509, 510, 511, 512, 513, 514, 515, 516, 517, 518, 519, 520, 521, 522, 523, 524, 525, 526, 527, 528, 529, 530, 531, 532, 533, 534, 535, 536, 537, 538, 539, 540, 541, 542, 543, 544, 545, 546, 547, 548, 549, 550, 551, 552, 553, 554, 555, 556, 557, 558, 559, 560, 561, 562, 563, 564, 565, 566, 567, 568, 569, 570, 571, 572, 573, 574, 575, 576, 577, 578, 579, 580, 581, 582, 583, 584, 585, 586, 587, 588, 589, 590, 591, 592, 593, 594, 595, 596, 597, 598, 599, 600, 601, 602, 603, 604, 605, 606, 607, 608, 609, 610, 611, 612, 613, 614, 615, 616, 617, 618, 619, 620, 621, 622, 623, 624, 625, 626, 627, 628, 629, 630, 631, 632, 633, 634, 635, 636, 637, 638, 639, 640, 641, 642, 643, 644, 645, 646, 647, 648, 649, 650, 651, 652, 653, 654, 655, 656, 657, 658, 659, 660, 661, 662, 663, 664, 665, 666, 667, 668, 669, 670, 671, 672, 673, 674, 675, 676, 677, 678, 679, 680, 681, 682, 683, 684, 685, 686, 687, 688, 689, 690, 691, 692, 693, 694, 695, 696, 697, 698, 699, 700, 701, 702, 703, 704, 705, 706, 707, 708, 709, 710, 711, 712, 713, 714, 715, 716, 717, 718, 719, 720, 721, 722, 723, 724, 725, 726, 727, 728, 729, 730, 731, 732, 733, 734, 735, 736, 737, 738, 739, 740, 741, 742, 743, 744, 745, 746, 747, 748, 749, 750, 751, 752, 753, 754, 755, 756, 757, 758, 759, 760, 761, 762, 763, 764, 765, 766, 767, 768, 769, 770, 771, 772, 773, 774, 775, 776, 777, 778, 779, 780, 781, 782, 783, 784, 785, 786, 787, 788, 789, 790, 791, 792, 793, 794, 795, 796, 797, 798, 799, 800, 801, 802, 803, 804, 805, 806, 807, 808, 809, 810, 811, 812, 813, 814, 815, 816, 817, 818, 819, 820, 821, 822, 823, 824, 825, 826, 827, 828, 829, 830, 831, 832, 833, 834, 835, 836, 837, 838, 839],
      "AcquisitionTime": ["095216.225000", "095216.685000", "095217.145000", "095217.605000", "095218.065000", "095218.525000", "095218.985000", "095219.445000", "095219.905000", "095220.365000", "095220.825000", "095221.285000", "095221.745000", "095222.205000", "095222.665000", "095223.125000", "095223.585000", "095224.045000", "095224.505000", "095224.965000", "095225.425000", "095225.885000", "095226.345000", "095226.805000", "095227.265000", "095227.725000", "095228.185000", "095228.645000", "095229.105000", "095229.565000", "095230.025000", "095230.485000", "095230.945000", "095231.405000", "095231.865000", "095232.325000", "095232.785000", "095233.245000", "095233.705000", "095234.165000", "095234.625000", "095235.085000", "095235.545000", "095236.005000", "095236.465000", "095236.925000", "095237.385000", "095237.845000", "095238.305000", "095238.765000", "095239.225000", "095239.685000", "095240.145000", "095240.605000", "095241.065000", "095241.525000", "095241.985000", "095242.445000", "095242.905000", "095243.365000", "095243.825000", "095244.285000", "095244.745000", "095245.205000", "095245.665000", "095246.125000", "095246.585000", "095247.045000", "095247.505000", "095247.965000", "095248.425000", "095248.885000", "095249.345000", "095249.805000", "095250.265000", "095250.725000", "095251.185000", "095251.645000", "095252.105000", "095252.565000", "095253.025000", "095253.485000", "095253.945000", "095254.405000", "095254.865000", "095255.325000", "095255.785000", "095256.245000", "095256.705000", "095257.165000", "095257.625000", "095258.085000", "095258.545000", "095259.005000", "095259.465000", "095259.925000", "095300.385000", "095300.845000", "095301.305000", "095301.765000", "095302.225000", "095302.685000", "095303.145000", "095303.605000", "095304.065000", "095304.525000", "095304.985000", "095305.445000", "095305.905000", "095306.365000", "095306.825000", "095307.285000", "095307.745000", "095308.205000", "095308.665000", "095309.125000", "095309.585000", "095310.045000", "095310.505000", "095310.965000", "095311.425000", "095311.885000", "095312.345000", "095312.805000", "095313.265000", "095313.725000", "095314.185000", "095314.645000", "095315.105000", "095315.565000", "095316.025000", "095316.485000", "095316.945000", "095317.405000", "095317.865000", "095318.325000", "095318.785000", "095319.245000", "095319.705000", "095320.165000", "095320.625000", "095321.085000", "095321.545000", "095322.005000", "095322.465000", "095322.925000", "095323.385000", "095323.845000", "095324.305000", "095324.765000", "095325.225000", "095325.685000", "095326.145000", "095326.605000", "095327.065000", "095327.525000", "095327.985000", "095328.445000", "095328.905000", "095329.365000", "095329.825000", "095330.285000", "095330.745000", "095331.205000", "095331.665000", "095332.125000", "095332.585000", "095333.045000", "095333.505000", "095333.965000", "095334.425000", "095334.885000", "095335.345000", "095335.805000", "095336.265000", "095336.725000", "095337.185000", "095337.645000", "095338.105000", "095338.565000", "095339.025000", "095339.485000", "095339.945000", "095340.405000", "095340.865000", "095341.325000", "095341.785000", "095342.245000", "095342.705000", "095343.165000", "095343.625000", "095344.085000", "095344.545000", "095345.005000", "095345.465000", "095345.925000", "095346.385000", "095346.845000", "095347.305000", "095347.765000", "095348.225000", "095348.685000", "095349.145000", "095349.605000", "095350.065000", "095350.525000", "095350.985000", "095351.445000", "095351.905000", "095352.365000", "095352.825000", "095353.285000", "095353.745000", "095354.205000", "095354.665000", "095355.125000", "095355.585000", "095356.045000", "095356.505000", "095356.965000", "095357.425000", "095357.885000", "095358.345000", "095358.805000", "095359.265000", "095359.725000", "095400.185000", "095400.645000", "095401.105000", "095401.565000", "095402.025000", "095402.485000", "095402.945000", "095403.405000", "095403.865000", "095404.325000", "095404.785000", "095405.245000", "095405.705000", "095406.165000", "095406.625000", "095407.085000", "095407.545000", "095408.005000", "095408.465000", "095408.925000", "095409.385000", "095409.845000", "095410.305000", "095410.765000", "095411.225000", "095411.685000", "095412.145000", "095412.605000", "095413.065000", "095413.525000", "095413.985000", "095414.445000", "095414.905000", "095415.365000", "095415.825000", "095416.285000", "095416.745000", "095417.205000", "095417.665000", "095418.125000", "095418.585000", "095419.045000", "095419.505000", "095419.965000", "095420.425000", "095420.885000", "095421.345000", "095421.805000", "095422.265000", "095422.725000", "095423.185000", "095423.645000", "095424.105000", "095424.565000", "095425.025000", "095425.485000", "095425.945000", "095426.405000", "095426.865000", "095427.325000", "095427.785000", "095428.245000", "095428.705000", "095429.165000", "095429.625000", "095430.085000", "095430.545000", "095431.005000", "095431.465000", "095431.925000", "095432.385000", "095432.845000", "095433.305000", "095433.765000", "095434.225000", "095434.685000", "095435.145000", "095435.605000", "095436.065000", "095436.525000", "095436.985000", "095437.445000", "095437.905000", "095438.365000", "095438.825000", "095439.285000", "095439.745000", "095440.205000", "095440.665000", "095441.125000", "095441.585000", "095442.045000", "095442.505000", "095442.965000", "095443.425000", "095443.885000", "095444.345000", "095444.805000", "095445.265000", "095445.725000", "095446.185000", "095446.645000", "095447.105000", "095447.565000", "095448.025000", "095448.485000", "095448.945000", "095449.405000", "095449.865000", "095450.325000", "095450.785000", "095451.245000", "095451.705000", "095452.165000", "095452.625000", "095453.085000", "095453.545000", "095454.005000", "095454.465000", "095454.925000", "095455.385000", "095455.845000", "095456.305000", "095456.765000", "095457.225000", "095457.685000", "095458.145000", "095458.605000", "095459.065000", "095459.525000", "095459.985000", "095500.445000", "095500.905000", "095501.365000", "095501.825000", "095502.285000", "095502.745000", "095503.205000", "095503.665000", "095504.125000", "095504.585000", "095505.045000", "095505.505000", "095505.965000", "095506.425000", "095506.885000", "095507.345000", "095507.805000", "095508.265000", "095508.725000", "095509.185000", "095509.645000", "095510.105000", "095510.565000", "095511.025000", "095511.485000", "095511.945000", "095512.405000", "095512.865000", "095513.325000", "095513.785000", "095514.245000", "095514.705000", "095515.165000", "095515.625000", "095516.085000", "095516.545000", "095517.005000", "095517.465000", "095517.925000", "095518.385000", "095518.845000", "095519.305000", "095519.765000", "095520.225000", "095520.685000", "095521.145000", "095521.605000", "095522.065000", "095522.525000", "095522.985000", "095523.445000", "095523.905000", "095524.365000", "095524.825000", "095525.285000", "095525.745000", "095526.205000", "095526.665000", "095527.125000", "095527.585000", "095528.045000", "095528.505000", "095528.965000", "095529.425000", "095529.885000", "095530.345000", "095530.805000", "095531.265000", "095531.725000", "095532.185000", "095532.645000", "095533.105000", "095533.565000", "095534.025000", "095534.485000", "095534.945000", "095535.405000", "095535.865000", "095536.325000", "095536.785000", "095537.245000", "095537.705000", "095538.165000", "095538.625000", "095539.085000", "095539.545000", "095540.005000", "095540.465000", "095540.925000", "095541.385000", "095541.845000", "095542.305000", "095542.765000", "095543.225000", "095543.685000", "095544.145000", "095544.605000", "095545.065000", "095545.525000", "095545.985000", "095546.445000", "095546.905000", "095547.365000", "095547.825000", "095548.285000", "095548.745000", "095549.205000", "095549.665000", "095550.125000", "095550.585000", "095551.045000", "095551.505000", "095551.965000", "095552.425000", "095552.885000", "095553.345000", "095553.805000", "095554.265000", "095554.725000", "095555.185000", "095555.645000", "095556.105000", "095556.565000", "095557.025000", "095557.485000", "095557.945000", "095558.405000", "095558.865000", "095559.325000", "095559.785000", "095600.245000", "095600.705000", "095601.165000", "095601.625000", "095602.085000", "095602.545000", "095603.005000", "095603.465000", "095603.925000", "095604.385000", "095604.845000", "095605.305000", "095605.765000", "095606.225000", "095606.685000", "095607.145000", "095607.605000", "095608.065000", "095608.525000", "095608.985000", "095609.445000", "095609.905000", "095610.365000", "095610.825000", "095611.285000", "095611.745000", "095612.205000", "095612.665000", "095613.125000", "095613.585000", "095614.045000", "095614.505000", "095614.965000", "095615.425000", "095615.885000", "095616.345000", "095616.805000", "095617.265000", "095617.725000", "095618.185000", "095618.645000", "095619.105000", "095619.565000", "095620.025000", "095620.485000", "095620.945000", "095621.405000", "095621.865000", "095622.325000", "095622.785000", "095623.245000", "095623.705000", "095624.165000", "095624.625000", "095625.085000", "095625.545000", "095626.005000", "095626.465000", "095626.925000", "095627.385000", "095627.845000", "095628.305000", "095628.765000", "095629.225000", "095629.685000", "095630.145000", "095630.605000", "095631.065000", "095631.525000", "095631.985000", "095632.445000", "095632.905000", "095633.365000", "095633.825000", "095634.285000", "095634.745000", "095635.205000", "095635.665000", "095636.125000", "095636.585000", "095637.045000", "095637.505000", "095637.965000", "095638.425000", "095638.885000", "095639.345000", "095639.805000", "095640.265000", "095640.725000", "095641.185000", "095641.645000", "095642.105000", "095642.565000", "095643.025000", "095643.485000", "095643.945000", "095644.405000", "095644.865000", "095645.325000", "095645.785000", "095646.245000", "095646.705000", "095647.165000", "095647.625000", "095648.085000", "095648.545000", "095649.005000", "095649.465000", "095649.925000", "095650.385000", "095650.845000", "095651.305000", "095651.765000", "095652.225000", "095652.685000", "095653.145000", "095653.605000", "095654.065000", "095654.525000", "095654.985000", "095655.445000", "095655.905000", "095656.365000", "095656.825000", "095657.285000", "095657.745000", "095658.205000", "095658.665000", "095659.125000", "095659.585000", "095700.045000", "095700.505000", "095700.965000", "095701.425000", "095701.885000", "095702.345000", "095702.805000", "095703.265000", "095703.725000", "095704.185000", "095704.645000", "095705.105000", "095705.565000", "095706.025000", "095706.485000", "095706.945000", "095707.405000", "095707.865000", "095708.325000", "095708.785000", "095709.245000", "095709.705000", "095710.165000", "095710.625000", "095711.085000", "095711.545000", "095712.005000", "095712.465000", "095712.925000", "095713.385000", "095713.845000", "095714.305000", "095714.765000", "095715.225000", "095715.685000", "095716.145000", "095716.605000", "095717.065000", "095717.525000", "095717.985000", "095718.445000", "095718.905000", "095719.365000", "095719.825000", "095720.285000", "095720.745000", "095721.205000", "095721.665000", "095722.125000", "095722.585000", "095723.045000", "095723.505000", "095723.965000", "095724.425000", "095724.885000", "095725.345000", "095725.805000", "095726.265000", "095726.725000", "095727.185000", "095727.645000", "095728.105000", "095728.565000", "095729.025000", "095729.485000", "095729.945000", "095730.405000", "095730.865000", "095731.325000", "095731.785000", "095732.245000", "095732.705000", "095733.165000", "095733.625000", "095734.085000", "095734.545000", "095735.005000", "095735.465000", "095735.925000", "095736.385000", "095736.845000", "095737.305000", "095737.765000", "095738.225000", "095738.685000", "095739.145000", "095739.605000", "095740.065000", "095740.525000", "095740.985000", "095741.445000", "095741.905000", "095742.365000", "095742.825000", "095743.285000", "095743.745000", "095744.205000", "095744.665000", "095745.125000", "095745.585000", "095746.045000", "095746.505000", "095746.965000", "095747.425000", "095747.885000", "095748.345000", "095748.805000", "095749.265000", "095749.725000", "095750.185000", "095750.645000", "095751.105000", "095751.565000", "095752.025000", "095752.485000", "095752.945000", "095753.405000", "095753.865000", "095754.325000", "095754.785000", "095755.245000", "095755.705000", "095756.165000", "095756.625000", "095757.085000", "095757.545000", "095758.005000", "095758.465000", "095758.925000", "095759.385000", "095759.845000", "095800.305000", "095800.765000", "095801.225000", "095801.685000", "095802.145000", "095802.605000", "095803.065000", "095803.525000", "095803.985000", "095804.445000", "095804.905000", "095805.365000", "095805.825000", "095806.285000", "095806.745000", "095807.205000", "095807.665000", "095808.125000", "095808.585000", "095809.045000", "095809.505000", "095809.965000", "095810.425000", "095810.885000", "095811.345000", "095811.805000", "095812.265000", "095812.725000", "095813.185000", "095813.645000", "095814.105000", "095814.565000", "095815.025000", "095815.485000", "095815.945000", "095816.405000", "095816.865000", "095817.325000", "095817.785000", "095818.245000", "095818.705000", "095819.165000", "095819.625000", "095820.085000", "095820.545000", "095821.005000", "095821.465000", "095821.925000", "095822.385000", "095822.845000", "095823.305000", "095823.765000", "095824.225000", "095824.685000", "095825.145000", "095825.605000", "095826.065000", "095826.525000", "095826.985000", "095827.445000", "095827.905000", "095828.365000", "095828.825000", "095829.285000", "095829.745000", "095830.205000", "095830.665000", "095831.125000", "095831.585000", "095832.045000", "095832.505000", "095832.965000", "095833.425000", "095833.885000", "095834.345000", "095834.805000", "095835.265000", "095835.725000", "095836.185000", "095836.645000", "095837.105000", "095837.565000", "095838.025000", "095838.485000", "095838.945000", "095839.405000", "095839.865000", "095840.325000", "095840.785000", "095841.245000", "095841.705000"],
