{
  "AcquisitionMatrixPE": 82,
  "AcquisitionNumber": 1,
  "AcquisitionTime": "09:26:32.612500",
  "BandwidthPerPixelPhaseEncode": 24.888,
  "BaseResolution": 82,
  "BodyPartExamined": "BRAIN",
  "ConsistencyInfo": "N4_VE11E_LATEST_20181129",
  "ConversionSoftware": "dcm2niix",
  "ConversionSoftwareVersion": "v1.0.20201102",
  "DerivedVendorReportedEchoSpacing": 0.00049,
  "DeviceSerialNumber": "66112",
  "DwellTime": 2e-06,
  "EchoTime": 0.0272,
  "EchoTrainLength": 82,
  "EffectiveEchoSpacing": 0.00049,
  "FlipAngle": 44,
  "ImageComments": "Unaliased MB8/PE3",
  "ImageOrientationPatientDICOM": [0.99867, -0.0515458, 0.000873232, 0.0493672, 0.961068, 0.271867],
  "ImageType": [
    "ORIGINAL",
    "PRIMARY",
    "M",
    "MB",
    "ND",
    "NORM",
    "MOSAIC"
],
  "ImagingFrequency": 123.252,
  "InPlanePhaseEncodingDirectionDICOM": "COL",
  "InstitutionAddress": "Maynard 3,Hanover,NH,US,03755",
  "InstitutionName": "Dartmouth College - PBS",
  "InstitutionalDepartmentName": "Department",
  "MRAcquisitionType": "2D",
  "MagneticFieldStrength": 3,
  "Manufacturer": "Siemens",
  "ManufacturersModelName": "Prisma",
  "Modality": "MR",
  "MultibandAccelerationFactor": 8,
  "PartialFourier": 1,
  "PatientPosition": "HFS",
  "PercentPhaseFOV": 100,
  "PercentSampling": 100,
  "PhaseEncodingDirection": "j-",
  "PhaseEncodingSteps": 82,
  "PhaseResolution": 1,
  "PixelBandwidth": 3050,
  "ProcedureStepDescription": "Wager_Wager^1076_spacetop",
  "ProtocolName": "func_run-01_task-faces_acq-ap-mb8",
  "PulseSequenceDetails": "%CustomerSeq%\\cmrr_mbep2d_bold",
  "ReceiveCoilActiveElements": "HEA;HEP",
  "ReceiveCoilName": "Head_32",
  "ReconMatrixPE": 82,
  "RepetitionTime": 0.46,
  "SAR": 0.102837,
  "ScanOptions": "FS",
  "ScanningSequence": "EP",
  "SequenceName": "epfid2d1_82",
  "SequenceVariant": "SK\\SS",
  "SeriesDescription": "func_run-01_task-faces_acq-ap-mb8",
  "SeriesNumber": 16,
  "ShimSetting": [4137, -7790, -7247, 576, -43, -43, 34, 128],
  "SliceThickness": 2.7,
  "SliceTiming": [0, 0.25, 0.0625, 0.3125, 0.125, 0.375, 0.1875, 0, 0.25, 0.0625, 0.3125, 0.125, 0.375, 0.1875, 0, 0.25, 0.0625, 0.3125, 0.125, 0.375, 0.1875, 0, 0.25, 0.0625, 0.3125, 0.125, 0.375, 0.1875, 0, 0.25, 0.0625, 0.3125, 0.125, 0.375, 0.1875, 0, 0.25, 0.0625, 0.3125, 0.125, 0.375, 0.1875, 0, 0.25, 0.0625, 0.3125, 0.125, 0.375, 0.1875, 0, 0.25, 0.0625, 0.3125, 0.125, 0.375, 0.1875],
  "SoftwareVersions": "syngo MR E11",
  "SpacingBetweenSlices": 2.7,
  "StationName": "AWP66112",
  "TaskName": "faces",
  "TotalReadoutTime": 0.03969,
  "TxRefAmp": 255.414,
  "WipMemBlock": "fb6d846e-8cc6-402a-a0ac-b48b764d8a7d||Sequence: R016 ve11e/master r/434b28f1; Aug  7 2019 18:53:46 by eja",
  "dcmmeta_affine": [
    [-2.679359197616577, 0.13244864344596863, 0.040102582424879074, 104.74362182617188],
    [0.13829351961612701, 2.578474760055542, 0.7329473495483398, -112.6554183959961],
    [0.0023428178392350674, -0.729398250579834, 2.5983033180236816, -14.150423049926758],
    [0.0, 0.0, 0.0, 1.0]
],
  "dcmmeta_reorient_transform": [
    [0.0, -1.0, 0.0, 81.0],
    [1.0, 0.0, 0.0, 0.0],
    [0.0, 0.0, 1.0, 0.0],
    [0.0, 0.0, 0.0, 1.0]
],
  "dcmmeta_shape": [82, 82, 56, 914],
  "dcmmeta_slice_dim": 2,
  "dcmmeta_version": 0.6,
  "global": {
    "const": {
      "AccessionNumber": "A003912",
      "AcquisitionMatrix": [82, 0, 0, 82],
      "AngioFlag": "N",
      "BitsAllocated": 16,
      "BitsStored": 16,
      "BodyPartExamined": "BRAIN",
      "Columns": 656,
      "EchoNumbers": 1,
      "EchoTime": 27.2,
      "EchoTrainLength": 82,
      "FlipAngle": 44.0,
      "HighBit": 15,
      "ImageOrientationPatient": [0.9986702515911, -0.051545766584, 0.00087323206565, 0.04936722268034, 0.96106785524971, 0.27186661238659],
      "ImagePositionPatient": [-922.46083730591, -796.53306352319, -283.24136592891],
      "ImageType": [
        "ORIGINAL",
        "PRIMARY",
        "M",
        "MB",
        "ND",
        "NORM",
        "MOSAIC"
],
      "ImagedNucleus": "1H",
      "ImagingFrequency": 123.252149,
      "InPlanePhaseEncodingDirection": "COL",
      "MRAcquisitionType": "2D",
      "MagneticFieldStrength": 3.0,
      "Manufacturer": "SIEMENS",
      "ManufacturerModelName": "Prisma",
      "Modality": "MR",
      "NumberOfAverages": 1.0,
      "NumberOfPhaseEncodingSteps": 82,
      "PercentPhaseFieldOfView": 100.0,
      "PercentSampling": 100.0,
      "PerformedProcedureStepStartTime": "082838.260000",
      "PhotometricInterpretation": "MONOCHROME2",
      "PixelBandwidth": 3050.0,
      "PixelRepresentation": 0,
      "PixelSpacing": [2.6829268932343, 2.6829268932343],
      "ProtocolName": "func_run-01_task-faces_acq-ap-mb8",
      "RepetitionTime": 460.0,
      "Rows": 656,
      "SAR": 0.10283701551888,
      "SamplesPerPixel": 1,
      "ScanOptions": "FS",
      "ScanningSequence": "EP",
      "SequenceName": "epfid2d1_82",
      "SequenceVariant": [
        "SK",
        "SS"
],
      "SeriesDescription": "func_run-01_task-faces_acq-ap-mb8",
      "SeriesNumber": 16,
      "SeriesTime": "092653.750000",
      "SliceLocation": -42.643368147066,
      "SliceThickness": 2.7000000476837,
      "SmallestImagePixelValue": 0,
      "SoftwareVersions": "syngo MR E11",
      "SpacingBetweenSlices": 2.7000000014895,
      "SpecificCharacterSet": "ISO_IR 100",
      "StudyID": "1",
      "StudyTime": "082838.159000",
      "TransmitCoilName": "Body",
      "VariableFlipAngleFlag": "N",
      "WindowCenterWidthExplanation": "Algo1"
    },
    "slices": {}
  },
  "time": {
    "samples": {
      "AcquisitionNumber": [1, 2, 3, 4, 5, 6, 7, 8, 9, 10, 11, 12, 13, 14, 15, 16, 17, 18, 19, 20, 21, 22, 23, 24, 25, 26, 27, 28, 29, 30, 31, 32, 33, 34, 35, 36, 37, 38, 39, 40, 41, 42, 43, 44, 45, 46, 47, 48, 49, 50, 51, 52, 53, 54, 55, 56, 57, 58, 59, 60, 61, 62, 63, 64, 65, 66, 67, 68, 69, 70, 71, 72, 73, 74, 75, 76, 77, 78, 79, 80, 81, 82, 83, 84, 85, 86, 87, 88, 89, 90, 91, 92, 93, 94, 95, 96, 97, 98, 99, 100, 101, 102, 103, 104, 105, 106, 107, 108, 109, 110, 111, 112, 113, 114, 115, 116, 117, 118, 119, 120, 121, 122, 123, 124, 125, 126, 127, 128, 129, 130, 131, 132, 133, 134, 135, 136, 137, 138, 139, 140, 141, 142, 143, 144, 145, 146, 147, 148, 149, 150, 151, 152, 153, 154, 155, 156, 157, 158, 159, 160, 161, 162, 163, 164, 165, 166, 167, 168, 169, 170, 171, 172, 173, 174, 175, 176, 177, 178, 179, 180, 181, 182, 183, 184, 185, 186, 187, 188, 189, 190, 191, 192, 193, 194, 195, 196, 197, 198, 199, 200, 201, 202, 203, 204, 205, 206, 207, 208, 209, 210, 211, 212, 213, 214, 215, 216, 217, 218, 219, 220, 221, 222, 223, 224, 225, 226, 227, 228, 229, 230, 231, 232, 233, 234, 235, 236, 237, 238, 239, 240, 241, 242, 243, 244, 245, 246, 247, 248, 249, 250, 251, 252, 253, 254, 255, 256, 257, 258, 259, 260, 261, 262, 263, 264, 265, 266, 267, 268, 269, 270, 271, 272, 273, 274, 275, 276, 277, 278, 279, 280, 281, 282, 283, 284, 285, 286, 287, 288, 289, 290, 291, 292, 293, 294, 295, 296, 297, 298, 299, 300, 301, 302, 303, 304, 305, 306, 307, 308, 309, 310, 311, 312, 313, 314, 315, 316, 317, 318, 319, 320, 321, 322, 323, 324, 325, 326, 327, 328, 329, 330, 331, 332, 333, 334, 335, 336, 337, 338, 339, 340, 341, 342, 343, 344, 345, 346, 347, 348, 349, 350, 351, 352, 353, 354, 355, 356, 357, 358, 359, 360, 361, 362, 363, 364, 365, 366, 367, 368, 369, 370, 371, 372, 373, 374, 375, 376, 377, 378, 379, 380, 381, 382, 383, 384, 385, 386, 387, 388, 389, 390, 391, 392, 393, 394, 395, 396, 397, 398, 399, 400, 401, 402, 403, 404, 405, 406, 407, 408, 409, 410, 411, 412, 413, 414, 415, 416, 417, 418, 419, 420, 421, 422, 423, 424, 425, 426, 427, 428, 429, 430, 431, 432, 433, 434, 435, 436, 437, 438, 439, 440, 441, 442, 443, 444, 445, 446, 447, 448, 449, 450, 451, 452, 453, 454, 455, 456, 457, 458, 459, 460, 461, 462, 463, 464, 465, 466, 467, 468, 469, 470, 471, 472, 473, 474, 475, 476, 477, 478, 479, 480, 481, 482, 483, 484, 485, 486, 487, 488, 489, 490, 491, 492, 493, 494, 495, 496, 497, 498, 499, 500, 501, 502, 503, 504, 505, 506, 507, 508, 509, 510, 511, 512, 513, 514, 515, 516, 517, 518, 519, 520, 521, 522, 523, 524, 525, 526, 527, 528, 529, 530, 531, 532, 533, 534, 535, 536, 537, 538, 539, 540, 541, 542, 543, 544, 545, 546, 547, 548, 549, 550, 551, 552, 553, 554, 555, 556, 557, 558, 559, 560, 561, 562, 563, 564, 565, 566, 567, 568, 569, 570, 571, 572, 573, 574, 575, 576, 577, 578, 579, 580, 581, 582, 583, 584, 585, 586, 587, 588, 589, 590, 591, 592, 593, 594, 595, 596, 597, 598, 599, 600, 601, 602, 603, 604, 605, 606, 607, 608, 609, 610, 611, 612, 613, 614, 615, 616, 617, 618, 619, 620, 621, 622, 623, 624, 625, 626, 627, 628, 629, 630, 631, 632, 633, 634, 635, 636, 637, 638, 639, 640, 641, 642, 643, 644, 645, 646, 647, 648, 649, 650, 651, 652, 653, 654, 655, 656, 657, 658, 659, 660, 661, 662, 663, 664, 665, 666, 667, 668, 669, 670, 671, 672, 673, 674, 675, 676, 677, 678, 679, 680, 681, 682, 683, 684, 685, 686, 687, 688, 689, 690, 691, 692, 693, 694, 695, 696, 697, 698, 699, 700, 701, 702, 703, 704, 705, 706, 707, 708, 709, 710, 711, 712, 713, 714, 715, 716, 717, 718, 719, 720, 721, 722, 723, 724, 725, 726, 727, 728, 729, 730, 731, 732, 733, 734, 735, 736, 737, 738, 739, 740, 741, 742, 743, 744, 745, 746, 747, 748, 749, 750, 751, 752, 753, 754, 755, 756, 757, 758, 759, 760, 761, 762, 763, 764, 765, 766, 767, 768, 769, 770, 771, 772, 773, 774, 775, 776, 777, 778, 779, 780, 781, 782, 783, 784, 785, 786, 787, 788, 789, 790, 791, 792, 793, 794, 795, 796, 797, 798, 799, 800, 801, 802, 803, 804, 805, 806, 807, 808, 809, 810, 811, 812, 813, 814, 815, 816, 817, 818, 819, 820, 821, 822, 823, 824, 825, 826, 827, 828, 829, 830, 831, 832, 833, 834, 835, 836, 837, 838, 839, 840, 841, 842, 843, 844, 845, 846, 847, 848, 849, 850, 851, 852, 853, 854, 855, 856, 857, 858, 859, 860, 861, 862, 863, 864, 865, 866, 867, 868, 869, 870, 871, 872, 873, 874, 875, 876, 877, 878, 879, 880, 881, 882, 883, 884, 885, 886, 887, 888, 889, 890, 891, 892, 893, 894, 895, 896, 897, 898, 899, 900, 901, 902, 903, 904, 905, 906, 907, 908, 909, 910, 911, 912, 913, 914],
      "AcquisitionTime": ["092632.612500", "092633.072500", "092633.532500", "092633.992500", "092634.452500", "092634.912500", "092635.372500", "092635.832500", "092636.292500", "092636.752500", "092637.212500", "092637.672500", "092638.132500", "092638.592500", "092639.052500", "092639.512500", "092639.972500", "092640.432500", "092640.892500", "092641.352500", "092641.812500", "092642.272500", "092642.732500", "092643.192500", "092643.652500", "092644.112500", "092644.572500", "092645.032500", "092645.492500", "092645.952500", "092646.412500", "092646.872500", "092647.332500", "092647.792500", "092648.252500", "092648.712500", "092649.172500", "092649.632500", "092650.092500", "092650.552500", "092651.012500", "092651.472500", "092651.932500", "092652.392500", "092652.852500", "092653.312500", "092653.772500", "092654.232500", "092654.692500", "092655.152500", "092655.612500", "092656.072500", "092656.532500", "092656.992500", "092657.452500", "092657.912500", "092658.372500", "092658.832500", "092659.292500", "092659.752500", "092700.212500", "092700.672500", "092701.132500", "092701.592500", "092702.052500", "092702.512500", "092702.972500", "092703.432500", "092703.892500", "092704.352500", "092704.812500", "092705.272500", "092705.732500", "092706.192500", "092706.652500", "092707.112500", "092707.572500", "092708.032500", "092708.492500", "092708.952500", "092709.412500", "092709.872500", "092710.332500", "092710.792500", "092711.252500", "092711.712500", "092712.172500", "092712.632500", "092713.092500", "092713.552500", "092714.012500", "092714.472500", "092714.932500", "092715.392500", "092715.852500", "092716.312500", "092716.772500", "092717.232500", "092717.692500", "092718.152500", "092718.612500", "092719.072500", "092719.532500", "092719.992500", "092720.452500", "092720.912500", "092721.372500", "092721.832500", "092722.292500", "092722.752500", "092723.212500", "092723.672500", "092724.132500", "092724.592500", "092725.052500", "092725.512500", "092725.972500", "092726.432500", "092726.892500", "092727.352500", "092727.812500", "092728.272500", "092728.732500", "092729.192500", "092729.652500", "092730.112500", "092730.572500", "092731.032500", "092731.492500", "092731.952500", "092732.412500", "092732.872500", "092733.332500", "092733.792500", "092734.252500", "092734.712500", "092735.172500", "092735.632500", "092736.092500", "092736.552500", "092737.012500", "092737.472500", "092737.932500", "092738.392500", "092738.852500", "092739.312500", "092739.772500", "092740.232500", "092740.692500", "092741.152500", "092741.612500", "092742.072500", "092742.532500", "092742.992500", "092743.452500", "092743.912500", "092744.372500", "092744.832500", "092745.292500", "092745.752500", "092746.212500", "092746.672500", "092747.132500", "092747.592500", "092748.052500", "092748.512500", "092748.972500", "092749.432500", "092749.892500", "092750.352500", "092750.812500", "092751.272500", "092751.732500", "092752.192500", "092752.652500", "092753.112500", "092753.572500", "092754.032500", "092754.492500", "092754.952500", "092755.412500", "092755.872500", "092756.332500", "092756.792500", "092757.252500", "092757.712500", "092758.172500", "092758.632500", "092759.092500", "092759.552500", "092800.012500", "092800.472500", "092800.932500", "092801.392500", "092801.852500", "092802.312500", "092802.772500", "092803.232500", "092803.692500", "092804.152500", "092804.612500", "092805.072500", "092805.532500", "092805.992500", "092806.452500", "092806.912500", "092807.372500", "092807.832500", "092808.292500", "092808.752500", "092809.212500", "092809.672500", "092810.132500", "092810.592500", "092811.052500", "092811.512500", "092811.972500", "092812.432500", "092812.892500", "092813.352500", "092813.812500", "092814.272500", "092814.732500", "092815.192500", "092815.652500", "092816.112500", "092816.572500", "092817.032500", "092817.492500", "092817.952500", "092818.412500", "092818.872500", "092819.332500", "092819.792500", "092820.252500", "092820.712500", "092821.172500", "092821.632500", "092822.092500", "092822.552500", "092823.012500", "092823.472500", "092823.932500", "092824.392500", "092824.852500", "092825.312500", "092825.772500", "092826.232500", "092826.692500", "092827.152500", "092827.612500", "092828.072500", "092828.532500", "092828.992500", "092829.452500", "092829.912500", "092830.372500", "092830.832500", "092831.292500", "092831.752500", "092832.212500", "092832.672500", "092833.132500", "092833.592500", "092834.052500", "092834.512500", "092834.972500", "092835.432500", "092835.892500", "092836.352500", "092836.812500", "092837.272500", "092837.732500", "092838.192500", "092838.652500", "092839.112500", "092839.572500", "092840.032500", "092840.492500", "092840.952500", "092841.412500", "092841.872500", "092842.332500", "092842.792500", "092843.252500", "092843.712500", "092844.172500", "092844.632500", "092845.092500", "092845.552500", "092846.012500", "092846.472500", "092846.932500", "092847.392500", "092847.852500", "092848.312500", "092848.772500", "092849.232500", "092849.692500", "092850.152500", "092850.612500", "092851.072500", "092851.532500", "092851.992500", "092852.452500", "092852.912500", "092853.372500", "092853.832500", "092854.292500", "092854.752500", "092855.212500", "092855.672500", "092856.132500", "092856.592500", "092857.052500", "092857.512500", "092857.972500", "092858.432500", "092858.892500", "092859.352500", "092859.812500", "092900.272500", "092900.732500", "092901.192500", "092901.652500", "092902.112500", "092902.572500", "092903.032500", "092903.492500", "092903.952500", "092904.412500", "092904.872500", "092905.332500", "092905.792500", "092906.252500", "092906.712500", "092907.172500", "092907.632500", "092908.092500", "092908.552500", "092909.012500", "092909.472500", "092909.932500", "092910.392500", "092910.852500", "092911.312500", "092911.772500", "092912.232500", "092912.692500", "092913.152500", "092913.612500", "092914.072500", "092914.532500", "092914.992500", "092915.452500", "092915.912500", "092916.372500", "092916.832500", "092917.292500", "092917.752500", "092918.212500", "092918.672500", "092919.132500", "092919.592500", "092920.052500", "092920.512500", "092920.972500", "092921.432500", "092921.892500", "092922.352500", "092922.812500", "092923.272500", "092923.732500", "092924.192500", "092924.652500", "092925.112500", "092925.572500", "092926.032500", "092926.492500", "092926.952500", "092927.412500", "092927.872500", "092928.332500", "092928.792500", "092929.252500", "092929.712500", "092930.172500", "092930.632500", "092931.092500", "092931.552500", "092932.012500", "092932.472500", "092932.932500", "092933.392500", "092933.852500", "092934.312500", "092934.772500", "092935.232500", "092935.692500", "092936.152500", "092936.612500", "092937.072500", "092937.532500", "092937.992500", "092938.452500", "092938.912500", "092939.372500", "092939.832500", "092940.292500", "092940.752500", "092941.212500", "092941.672500", "092942.132500", "092942.592500", "092943.052500", "092943.512500", "092943.972500", "092944.432500", "092944.892500", "092945.352500", "092945.812500", "092946.272500", "092946.732500", "092947.192500", "092947.652500", "092948.112500", "092948.572500", "092949.032500", "092949.492500", "092949.952500", "092950.412500", "092950.872500", "092951.332500", "092951.792500", "092952.252500", "092952.712500", "092953.172500", "092953.632500", "092954.092500", "092954.552500", "092955.012500", "092955.472500", "092955.932500", "092956.392500", "092956.852500", "092957.312500", "092957.772500", "092958.232500", "092958.692500", "092959.152500", "092959.612500", "093000.072500", "093000.532500", "093000.992500", "093001.452500", "093001.912500", "093002.372500", "093002.832500", "093003.292500", "093003.752500", "093004.212500", "093004.672500", "093005.132500", "093005.592500", "093006.052500", "093006.512500", "093006.972500", "093007.432500", "093007.892500", "093008.352500", "093008.812500", "093009.272500", "093009.732500", "093010.192500", "093010.652500", "093011.112500", "093011.572500", "093012.032500", "093012.492500", "093012.952500", "093013.412500", "093013.872500", "093014.332500", "093014.792500", "093015.252500", "093015.712500", "093016.172500", "093016.632500", "093017.092500", "093017.552500", "093018.012500", "093018.472500", "093018.932500", "093019.392500", "093019.852500", "093020.312500", "093020.772500", "093021.232500", "093021.692500", "093022.152500", "093022.612500", "093023.072500", "093023.532500", "093023.992500", "093024.452500", "093024.912500", "093025.372500", "093025.832500", "093026.292500", "093026.752500", "093027.212500", "093027.672500", "093028.132500", "093028.592500", "093029.052500", "093029.512500", "093029.972500", "093030.432500", "093030.892500", "093031.352500", "093031.812500", "093032.272500", "093032.732500", "093033.192500", "093033.652500", "093034.112500", "093034.572500", "093035.032500", "093035.492500", "093035.952500", "093036.412500", "093036.872500", "093037.332500", "093037.792500", "093038.252500", "093038.712500", "093039.172500", "093039.632500", "093040.092500", "093040.552500", "093041.012500", "093041.472500", "093041.932500", "093042.392500", "093042.852500", "093043.312500", "093043.772500", "093044.232500", "093044.692500", "093045.152500", "093045.612500", "093046.072500", "093046.532500", "093046.992500", "093047.452500", "093047.912500", "093048.372500", "093048.832500", "093049.292500", "093049.752500", "093050.212500", "093050.672500", "093051.132500", "093051.592500", "093052.052500", "093052.512500", "093052.972500", "093053.432500", "093053.892500", "093054.352500", "093054.812500", "093055.272500", "093055.732500", "093056.192500", "093056.652500", "093057.112500", "093057.572500", "093058.032500", "093058.492500", "093058.952500", "093059.412500", "093059.872500", "093100.332500", "093100.792500", "093101.252500", "093101.712500", "093102.172500", "093102.632500", "093103.092500", "093103.552500", "093104.012500", "093104.472500", "093104.932500", "093105.392500", "093105.852500", "093106.312500", "093106.772500", "093107.232500", "093107.692500", "093108.152500", "093108.612500", "093109.072500", "093109.532500", "093109.992500", "093110.452500", "093110.912500", "093111.372500", "093111.832500", "093112.292500", "093112.752500", "093113.212500", "093113.672500", "093114.132500", "093114.592500", "093115.052500", "093115.512500", "093115.972500", "093116.432500", "093116.892500", "093117.352500", "093117.812500", "093118.272500", "093118.732500", "093119.192500", "093119.652500", "093120.112500", "093120.572500", "093121.032500", "093121.492500", "093121.952500", "093122.412500", "093122.872500", "093123.332500", "093123.792500", "093124.252500", "093124.712500", "093125.172500", "093125.632500", "093126.092500", "093126.552500", "093127.012500", "093127.472500", "093127.932500", "093128.392500", "093128.852500", "093129.312500", "093129.772500", "093130.232500", "093130.692500", "093131.152500", "093131.612500", "093132.072500", "093132.532500", "093132.992500", "093133.452500", "093133.912500", "093134.372500", "093134.832500", "093135.292500", "093135.752500", "093136.212500", "093136.672500", "093137.132500", "093137.592500", "093138.052500", "093138.512500", "093138.972500", "093139.432500", "093139.892500", "093140.352500", "093140.812500", "093141.272500", "093141.732500", "093142.192500", "093142.652500", "093143.112500", "093143.572500", "093144.032500", "093144.492500", "093144.952500", "093145.412500", "093145.872500", "093146.332500", "093146.792500", "093147.252500", "093147.712500", "093148.172500", "093148.632500", "093149.092500", "093149.552500", "093150.012500", "093150.472500", "093150.932500", "093151.392500", "093151.852500", "093152.312500", "093152.772500", "093153.232500", "093153.692500", "093154.152500", "093154.612500", "093155.072500", "093155.532500", "093155.992500", "093156.452500", "093156.912500", "093157.372500", "093157.832500", "093158.292500", "093158.752500", "093159.212500", "093159.672500", "093200.132500", "093200.592500", "093201.052500", "093201.512500", "093201.972500", "093202.432500", "093202.892500", "093203.352500", "093203.812500", "093204.272500", "093204.732500", "093205.192500", "093205.652500", "093206.112500", "093206.572500", "093207.032500", "093207.492500", "093207.952500", "093208.412500", "093208.872500", "093209.332500", "093209.792500", "093210.252500", "093210.712500", "093211.172500", "093211.632500", "093212.092500", "093212.552500", "093213.012500", "093213.472500", "093213.932500", "093214.392500", "093214.852500", "093215.312500", "093215.772500", "093216.232500", "093216.692500", "093217.152500", "093217.612500", "093218.072500", "093218.532500", "093218.992500", "093219.452500", "093219.912500", "093220.372500", "093220.832500", "093221.292500", "093221.752500", "093222.212500", "093222.672500", "093223.132500", "093223.592500", "093224.052500", "093224.512500", "093224.972500", "093225.432500", "093225.892500", "093226.352500", "093226.812500", "093227.272500", "093227.732500", "093228.192500", "093228.652500", "093229.112500", "093229.572500", "093230.032500", "093230.492500", "093230.952500", "093231.412500", "093231.872500", "093232.332500", "093232.792500", "093233.252500", "093233.712500", "093234.172500", "093234.632500", "093235.092500", "093235.552500", "093236.012500", "093236.472500", "093236.932500", "093237.392500", "093237.852500", "093238.312500", "093238.772500", "093239.232500", "093239.692500", "093240.152500", "093240.612500", "093241.072500", "093241.532500", "093241.992500", "093242.452500", "093242.912500", "093243.372500", "093243.832500", "093244.292500", "093244.752500", "093245.212500", "093245.672500", "093246.132500", "093246.592500", "093247.052500", "093247.512500", "093247.972500", "093248.432500", "093248.892500", "093249.352500", "093249.812500", "093250.272500", "093250.732500", "093251.192500", "093251.652500", "093252.112500", "093252.572500", "093253.032500", "093253.492500", "093253.952500", "093254.412500", "093254.872500", "093255.332500", "093255.792500", "093256.252500", "093256.712500", "093257.172500", "093257.632500", "093258.092500", "093258.552500", "093259.012500", "093259.472500", "093259.932500", "093300.392500", "093300.852500", "093301.312500", "093301.772500", "093302.232500", "093302.692500", "093303.152500", "093303.612500", "093304.072500", "093304.532500", "093304.992500", "093305.452500", "093305.912500", "093306.372500", "093306.832500", "093307.292500", "093307.752500", "093308.212500", "093308.672500", "093309.132500", "093309.592500", "093310.052500", "093310.512500", "093310.972500", "093311.432500", "093311.892500", "093312.352500", "093312.812500", "093313.272500", "093313.732500", "093314.192500", "093314.652500", "093315.112500", "093315.572500", "093316.032500", "093316.492500", "093316.952500", "093317.412500", "093317.872500", "093318.332500", "093318.792500", "093319.252500", "093319.712500", "093320.172500", "093320.632500", "093321.092500", "093321.552500", "093322.012500", "093322.472500", "093322.932500", "093323.392500", "093323.852500", "093324.312500", "093324.772500", "093325.232500", "093325.692500", "093326.152500", "093326.612500", "093327.072500", "093327.532500", "093327.992500", "093328.452500", "093328.912500", "093329.372500", "093329.832500", "093330.292500", "093330.752500", "093331.212500", "093331.672500", "093332.132500", "093332.592500"],
