{
  "AcquisitionMatrixPE": 82,
  "AcquisitionNumber": 1,
  "AcquisitionTime": "20:53:42.090000",
  "BandwidthPerPixelPhaseEncode": 24.888,
  "BaseResolution": 82,
  "BodyPartExamined": "BRAIN",
  "ConsistencyInfo": "N4_VE11E_LATEST_20181129",
  "ConversionSoftware": "dcm2niix",
  "ConversionSoftwareVersion": "v1.0.20201102",
  "DerivedVendorReportedEchoSpacing": 0.00049,
  "DeviceSerialNumber": "66112",
  "DwellTime": 2e-06,
  "EchoTime": 0.0272,
  "EchoTrainLength": 82,
  "EffectiveEchoSpacing": 0.00049,
  "FlipAngle": 44,
  "ImageComments": "Unaliased MB8/PE3",
  "ImageOrientationPatientDICOM": [0.99972, 0.0121716, 0.0202886, -0.0129126, 0.999239, 0.0367998],
  "ImageType": [
    "ORIGINAL",
    "PRIMARY",
    "M",
    "MB",
    "ND",
    "NORM",
    "MOSAIC"
],
  "ImagingFrequency": 123.252,
  "InPlanePhaseEncodingDirectionDICOM": "COL",
  "InstitutionAddress": "Maynard 3,Hanover,NH,US,03755",
  "InstitutionName": "Dartmouth College - PBS",
  "InstitutionalDepartmentName": "Department",
  "MRAcquisitionType": "2D",
  "MagneticFieldStrength": 3,
  "Manufacturer": "Siemens",
  "ManufacturersModelName": "Prisma",
  "Modality": "MR",
  "MultibandAccelerationFactor": 8,
  "PartialFourier": 1,
  "PatientPosition": "HFS",
  "PercentPhaseFOV": 100,
  "PercentSampling": 100,
  "PhaseEncodingDirection": "j-",
  "PhaseEncodingSteps": 82,
  "PhaseResolution": 1,
  "PixelBandwidth": 3050,
  "ProcedureStepDescription": "Wager_Wager^1076_spacetop",
  "ProtocolName": "func_run-02_task-social_acq-ap-mb8",
  "PulseSequenceDetails": "%CustomerSeq%\\cmrr_mbep2d_bold",
  "ReceiveCoilActiveElements": "HEA;HEP",
  "ReceiveCoilName": "Head_32",
  "ReconMatrixPE": 82,
  "RepetitionTime": 0.46,
  "SAR": 0.104787,
  "ScanOptions": "FS",
  "ScanningSequence": "EP",
  "SequenceName": "epfid2d1_82",
  "SequenceVariant": "SK\\SS",
  "SeriesDescription": "func_run-02_task-social_acq-ap-mb8",
  "SeriesNumber": 14,
  "ShimSetting": [4177, -7732, -7232, 587, 43, -90, -95, -7],
  "SliceThickness": 2.7,
  "SliceTiming": [0, 0.25, 0.0625, 0.315, 0.125, 0.3775, 0.1875, 0, 0.25, 0.0625, 0.315, 0.125, 0.3775, 0.1875, 0, 0.25, 0.0625, 0.315, 0.125, 0.3775, 0.1875, 0, 0.25, 0.0625, 0.315, 0.125, 0.3775, 0.1875, 0, 0.25, 0.0625, 0.315, 0.125, 0.3775, 0.1875, 0, 0.25, 0.0625, 0.315, 0.125, 0.3775, 0.1875, 0, 0.25, 0.0625, 0.315, 0.125, 0.3775, 0.1875, 0, 0.25, 0.0625, 0.315, 0.125, 0.3775, 0.1875],
  "SoftwareVersions": "syngo MR E11",
  "SpacingBetweenSlices": 2.7,
  "StationName": "AWP66112",
  "TaskName": "social",
  "TotalReadoutTime": 0.03969,
  "TxRefAmp": 252.257,
  "WipMemBlock": "e4a9b48a-950f-45b6-af6d-2d6842358e1c||Sequence: R016 ve11e/master r/434b28f1; Aug  7 2019 18:53:46 by eja",
  "dcmmeta_affine": [
    [-2.682175874710083, -0.03464346006512642, 0.05352826789021492, 113.68807220458984],
    [-0.03265548497438431, 2.6808857917785645, 0.10003899782896042, -93.50882720947266],
    [0.05443291366100311, -0.09873118251562119, 2.697615146636963, -60.951210021972656],
    [0.0, 0.0, 0.0, 1.0]
],
  "dcmmeta_reorient_transform": [
    [0.0, -1.0, 0.0, 81.0],
    [1.0, 0.0, 0.0, 0.0],
    [0.0, 0.0, 1.0, 0.0],
    [0.0, 0.0, 0.0, 1.0]
],
  "dcmmeta_shape": [82, 82, 56, 872],
  "dcmmeta_slice_dim": 2,
  "dcmmeta_version": 0.6,
  "global": {
    "const": {
      "AccessionNumber": "A004215",
      "AcquisitionMatrix": [82, 0, 0, 82],
      "AngioFlag": "N",
      "BitsAllocated": 16,
      "BitsStored": 16,
      "BodyPartExamined": "BRAIN",
      "Columns": 656,
      "EchoNumbers": 1,
      "EchoTime": 27.2,
      "EchoTrainLength": 82,
      "FlipAngle": 44.0,
      "HighBit": 15,
      "ImageOrientationPatient": [0.99972007273621, 0.01217158974681, 0.0202886315789, -0.0129125622078, 0.99923923071668, 0.03679980345006],
      "ImagePositionPatient": [-870.72375126881, -902.42927001186, -112.90653282452],
      "ImageType": [
        "ORIGINAL",
        "PRIMARY",
        "M",
        "MB",
        "ND",
        "NORM",
        "MOSAIC"
],
      "ImagedNucleus": "1H",
      "ImagingFrequency": 123.25216,
      "InPlanePhaseEncodingDirection": "COL",
      "MRAcquisitionType": "2D",
      "MagneticFieldStrength": 3.0,
      "Manufacturer": "SIEMENS",
      "ManufacturerModelName": "Prisma",
      "Modality": "MR",
      "NumberOfAverages": 1.0,
      "NumberOfPhaseEncodingSteps": 82,
      "PercentPhaseFieldOfView": 100.0,
      "PercentSampling": 100.0,
      "PerformedProcedureStepStartTime": "201830.399000",
      "PhotometricInterpretation": "MONOCHROME2",
      "PixelBandwidth": 3050.0,
      "PixelRepresentation": 0,
      "PixelSpacing": [2.6829268932343, 2.6829268932343],
      "ProtocolName": "func_run-02_task-social_acq-ap-mb8",
      "RepetitionTime": 460.0,
      "Rows": 656,
      "SAR": 0.104786778663,
      "SamplesPerPixel": 1,
      "ScanOptions": "FS",
      "ScanningSequence": "EP",
      "SequenceName": "epfid2d1_82",
      "SequenceVariant": [
        "SK",
        "SS"
],
      "SeriesDescription": "func_run-02_task-social_acq-ap-mb8",
      "SeriesNumber": 14,
      "SeriesTime": "205354.543000",
      "SliceLocation": -62.108114044647,
      "SliceThickness": 2.7000000476837,
      "SmallestImagePixelValue": 0,
      "SoftwareVersions": "syngo MR E11",
      "SpacingBetweenSlices": 2.7000000077438,
      "SpecificCharacterSet": "ISO_IR 100",
      "StudyID": "1",
      "StudyTime": "201830.333000",
      "TransmitCoilName": "Body",
      "VariableFlipAngleFlag": "N",
      "WindowCenterWidthExplanation": "Algo1"
    },
    "slices": {}
  },
  "time": {
    "samples": {
      "AcquisitionNumber": [1, 2, 3, 4, 5, 6, 7, 8, 9, 10, 11, 12, 13, 14, 15, 16, 17, 18, 19, 20, 21, 22, 23, 24, 25, 26, 27, 28, 29, 30, 31, 32, 33, 34, 35, 36, 37, 38, 39, 40, 41, 42, 43, 44, 45, 46, 47, 48, 49, 50, 51, 52, 53, 54, 55, 56, 57, 58, 59, 60, 61, 62, 63, 64, 65, 66, 67, 68, 69, 70, 71, 72, 73, 74, 75, 76, 77, 78, 79, 80, 81, 82, 83, 84, 85, 86, 87, 88, 89, 90, 91, 92, 93, 94, 95, 96, 97, 98, 99, 100, 101, 102, 103, 104, 105, 106, 107, 108, 109, 110, 111, 112, 113, 114, 115, 116, 117, 118, 119, 120, 121, 122, 123, 124, 125, 126, 127, 128, 129, 130, 131, 132, 133, 134, 135, 136, 137, 138, 139, 140, 141, 142, 143, 144, 145, 146, 147, 148, 149, 150, 151, 152, 153, 154, 155, 156, 157, 158, 159, 160, 161, 162, 163, 164, 165, 166, 167, 168, 169, 170, 171, 172, 173, 174, 175, 176, 177, 178, 179, 180, 181, 182, 183, 184, 185, 186, 187, 188, 189, 190, 191, 192, 193, 194, 195, 196, 197, 198, 199, 200, 201, 202, 203, 204, 205, 206, 207, 208, 209, 210, 211, 212, 213, 214, 215, 216, 217, 218, 219, 220, 221, 222, 223, 224, 225, 226, 227, 228, 229, 230, 231, 232, 233, 234, 235, 236, 237, 238, 239, 240, 241, 242, 243, 244, 245, 246, 247, 248, 249, 250, 251, 252, 253, 254, 255, 256, 257, 258, 259, 260, 261, 262, 263, 264, 265, 266, 267, 268, 269, 270, 271, 272, 273, 274, 275, 276, 277, 278, 279, 280, 281, 282, 283, 284, 285, 286, 287, 288, 289, 290, 291, 292, 293, 294, 295, 296, 297, 298, 299, 300, 301, 302, 303, 304, 305, 306, 307, 308, 309, 310, 311, 312, 313, 314, 315, 316, 317, 318, 319, 320, 321, 322, 323, 324, 325, 326, 327, 328, 329, 330, 331, 332, 333, 334, 335, 336, 337, 338, 339, 340, 341, 342, 343, 344, 345, 346, 347, 348, 349, 350, 351, 352, 353, 354, 355, 356, 357, 358, 359, 360, 361, 362, 363, 364, 365, 366, 367, 368, 369, 370, 371, 372, 373, 374, 375, 376, 377, 378, 379, 380, 381, 382, 383, 384, 385, 386, 387, 388, 389, 390, 391, 392, 393, 394, 395, 396, 397, 398, 399, 400, 401, 402, 403, 404, 405, 406, 407, 408, 409, 410, 411, 412, 413, 414, 415, 416, 417, 418, 419, 420, 421, 422, 423, 424, 425, 426, 427, 428, 429, 430, 431, 432, 433, 434, 435, 436, 437, 438, 439, 440, 441, 442, 443, 444, 445, 446, 447, 448, 449, 450, 451, 452, 453, 454, 455, 456, 457, 458, 459, 460, 461, 462, 463, 464, 465, 466, 467, 468, 469, 470, 471, 472, 473, 474, 475, 476, 477, 478, 479, 480, 481, 482, 483, 484, 485, 486, 487, 488, 489, 490, 491, 492, 493, 494, 495, 496, 497, 498, 499, 500, 501, 502, 503, 504, 505, 506, 507, 508, 509, 510, 511, 512, 513, 514, 515, 516, 517, 518, 519, 520, 521, 522, 523, 524, 525, 526, 527, 528, 529, 530, 531, 532, 533, 534, 535, 536, 537, 538, 539, 540, 541, 542, 543, 544, 545, 546, 547, 548, 549, 550, 551, 552, 553, 554, 555, 556, 557, 558, 559, 560, 561, 562, 563, 564, 565, 566, 567, 568, 569, 570, 571, 572, 573, 574, 575, 576, 577, 578, 579, 580, 581, 582, 583, 584, 585, 586, 587, 588, 589, 590, 591, 592, 593, 594, 595, 596, 597, 598, 599, 600, 601, 602, 603, 604, 605, 606, 607, 608, 609, 610, 611, 612, 613, 614, 615, 616, 617, 618, 619, 620, 621, 622, 623, 624, 625, 626, 627, 628, 629, 630, 631, 632, 633, 634, 635, 636, 637, 638, 639, 640, 641, 642, 643, 644, 645, 646, 647, 648, 649, 650, 651, 652, 653, 654, 655, 656, 657, 658, 659, 660, 661, 662, 663, 664, 665, 666, 667, 668, 669, 670, 671, 672, 673, 674, 675, 676, 677, 678, 679, 680, 681, 682, 683, 684, 685, 686, 687, 688, 689, 690, 691, 692, 693, 694, 695, 696, 697, 698, 699, 700, 701, 702, 703, 704, 705, 706, 707, 708, 709, 710, 711, 712, 713, 714, 715, 716, 717, 718, 719, 720, 721, 722, 723, 724, 725, 726, 727, 728, 729, 730, 731, 732, 733, 734, 735, 736, 737, 738, 739, 740, 741, 742, 743, 744, 745, 746, 747, 748, 749, 750, 751, 752, 753, 754, 755, 756, 757, 758, 759, 760, 761, 762, 763, 764, 765, 766, 767, 768, 769, 770, 771, 772, 773, 774, 775, 776, 777, 778, 779, 780, 781, 782, 783, 784, 785, 786, 787, 788, 789, 790, 791, 792, 793, 794, 795, 796, 797, 798, 799, 800, 801, 802, 803, 804, 805, 806, 807, 808, 809, 810, 811, 812, 813, 814, 815, 816, 817, 818, 819, 820, 821, 822, 823, 824, 825, 826, 827, 828, 829, 830, 831, 832, 833, 834, 835, 836, 837, 838, 839, 840, 841, 842, 843, 844, 845, 846, 847, 848, 849, 850, 851, 852, 853, 854, 855, 856, 857, 858, 859, 860, 861, 862, 863, 864, 865, 866, 867, 868, 869, 870, 871, 872],
      "AcquisitionTime": ["205342.090000", "205342.550000", "205343.010000", "205343.470000", "205343.930000", "205344.390000", "205344.850000", "205345.310000", "205345.770000", "205346.230000", "205346.690000", "205347.150000", "205347.610000", "205348.070000", "205348.530000", "205348.990000", "205349.450000", "205349.910000", "205350.370000", "205350.830000", "205351.290000", "205351.750000", "205352.210000", "205352.670000", "205353.130000", "205353.590000", "205354.050000", "205354.510000", "205354.970000", "205355.430000", "205355.890000", "205356.350000", "205356.810000", "205357.270000", "205357.730000", "205358.190000", "205358.650000", "205359.110000", "205359.570000", "205400.030000", "205400.490000", "205400.950000", "205401.410000", "205401.870000", "205402.330000", "205402.790000", "205403.250000", "205403.710000", "205404.170000", "205404.630000", "205405.090000", "205405.550000", "205406.010000", "205406.470000", "205406.930000", "205407.390000", "205407.850000", "205408.310000", "205408.770000", "205409.230000", "205409.690000", "205410.150000", "205410.610000", "205411.070000", "205411.530000", "205411.990000", "205412.450000", "205412.910000", "205413.370000", "205413.830000", "205414.290000", "205414.750000", "205415.210000", "205415.670000", "205416.130000", "205416.590000", "205417.050000", "205417.510000", "205417.970000", "205418.430000", "205418.890000", "205419.350000", "205419.810000", "205420.270000", "205420.730000", "205421.190000", "205421.650000", "205422.110000", "205422.570000", "205423.030000", "205423.490000", "205423.950000", "205424.410000", "205424.870000", "205425.330000", "205425.790000", "205426.250000", "205426.710000", "205427.170000", "205427.630000", "205428.090000", "205428.550000", "205429.010000", "205429.470000", "205429.930000", "205430.390000", "205430.850000", "205431.310000", "205431.770000", "205432.230000", "205432.690000", "205433.150000", "205433.610000", "205434.070000", "205434.530000", "205434.990000", "205435.450000", "205435.910000", "205436.370000", "205436.830000", "205437.290000", "205437.750000", "205438.210000", "205438.670000", "205439.130000", "205439.590000", "205440.050000", "205440.510000", "205440.970000", "205441.430000", "205441.890000", "205442.350000", "205442.810000", "205443.270000", "205443.730000", "205444.190000", "205444.650000", "205445.110000", "205445.570000", "205446.030000", "205446.490000", "205446.950000", "205447.410000", "205447.870000", "205448.330000", "205448.790000", "205449.250000", "205449.710000", "205450.170000", "205450.630000", "205451.090000", "205451.550000", "205452.010000", "205452.470000", "205452.930000", "205453.390000", "205453.850000", "205454.310000", "205454.770000", "205455.230000", "205455.690000", "205456.150000", "205456.610000", "205457.070000", "205457.530000", "205457.990000", "205458.450000", "205458.910000", "205459.370000", "205459.830000", "205500.290000", "205500.750000", "205501.210000", "205501.670000", "205502.130000", "205502.590000", "205503.050000", "205503.510000", "205503.970000", "205504.430000", "205504.890000", "205505.350000", "205505.810000", "205506.270000", "205506.730000", "205507.190000", "205507.650000", "205508.110000", "205508.570000", "205509.030000", "205509.490000", "205509.950000", "205510.410000", "205510.870000", "205511.330000", "205511.790000", "205512.250000", "205512.710000", "205513.170000", "205513.630000", "205514.090000", "205514.550000", "205515.010000", "205515.470000", "205515.930000", "205516.390000", "205516.850000", "205517.310000", "205517.770000", "205518.230000", "205518.690000", "205519.150000", "205519.610000", "205520.070000", "205520.530000", "205520.990000", "205521.450000", "205521.910000", "205522.370000", "205522.830000", "205523.290000", "205523.750000", "205524.210000", "205524.670000", "205525.130000", "205525.590000", "205526.050000", "205526.510000", "205526.970000", "205527.430000", "205527.890000", "205528.350000", "205528.810000", "205529.270000", "205529.730000", "205530.190000", "205530.650000", "205531.110000", "205531.570000", "205532.030000", "205532.490000", "205532.950000", "205533.410000", "205533.870000", "205534.330000", "205534.790000", "205535.250000", "205535.710000", "205536.170000", "205536.630000", "205537.090000", "205537.550000", "205538.010000", "205538.470000", "205538.930000", "205539.390000", "205539.850000", "205540.310000", "205540.770000", "205541.230000", "205541.690000", "205542.150000", "205542.610000", "205543.070000", "205543.530000", "205543.990000", "205544.450000", "205544.910000", "205545.370000", "205545.830000", "205546.290000", "205546.750000", "205547.210000", "205547.670000", "205548.130000", "205548.590000", "205549.050000", "205549.510000", "205549.970000", "205550.430000", "205550.890000", "205551.350000", "205551.810000", "205552.270000", "205552.730000", "205553.190000", "205553.650000", "205554.110000", "205554.570000", "205555.030000", "205555.490000", "205555.950000", "205556.410000", "205556.870000", "205557.330000", "205557.790000", "205558.250000", "205558.710000", "205559.170000", "205559.630000", "205600.090000", "205600.550000", "205601.010000", "205601.470000", "205601.930000", "205602.390000", "205602.850000", "205603.310000", "205603.770000", "205604.230000", "205604.690000", "205605.150000", "205605.610000", "205606.070000", "205606.530000", "205606.990000", "205607.450000", "205607.910000", "205608.370000", "205608.830000", "205609.290000", "205609.750000", "205610.210000", "205610.670000", "205611.130000", "205611.590000", "205612.050000", "205612.510000", "205612.970000", "205613.430000", "205613.890000", "205614.350000", "205614.810000", "205615.270000", "205615.730000", "205616.190000", "205616.650000", "205617.110000", "205617.570000", "205618.030000", "205618.490000", "205618.950000", "205619.410000", "205619.870000", "205620.330000", "205620.790000", "205621.250000", "205621.710000", "205622.170000", "205622.630000", "205623.090000", "205623.550000", "205624.010000", "205624.470000", "205624.930000", "205625.390000", "205625.850000", "205626.310000", "205626.770000", "205627.230000", "205627.690000", "205628.150000", "205628.610000", "205629.070000", "205629.530000", "205629.990000", "205630.450000", "205630.910000", "205631.370000", "205631.830000", "205632.290000", "205632.750000", "205633.210000", "205633.670000", "205634.130000", "205634.590000", "205635.050000", "205635.510000", "205635.970000", "205636.430000", "205636.890000", "205637.350000", "205637.810000", "205638.270000", "205638.730000", "205639.190000", "205639.650000", "205640.110000", "205640.570000", "205641.030000", "205641.490000", "205641.950000", "205642.410000", "205642.870000", "205643.330000", "205643.790000", "205644.250000", "205644.710000", "205645.170000", "205645.630000", "205646.090000", "205646.550000", "205647.010000", "205647.470000", "205647.930000", "205648.390000", "205648.850000", "205649.310000", "205649.770000", "205650.230000", "205650.690000", "205651.150000", "205651.610000", "205652.070000", "205652.530000", "205652.990000", "205653.450000", "205653.910000", "205654.370000", "205654.830000", "205655.290000", "205655.750000", "205656.210000", "205656.670000", "205657.130000", "205657.590000", "205658.050000", "205658.510000", "205658.970000", "205659.430000", "205659.890000", "205700.350000", "205700.810000", "205701.270000", "205701.730000", "205702.190000", "205702.650000", "205703.110000", "205703.570000", "205704.030000", "205704.490000", "205704.950000", "205705.410000", "205705.870000", "205706.330000", "205706.790000", "205707.250000", "205707.710000", "205708.170000", "205708.630000", "205709.090000", "205709.550000", "205710.010000", "205710.470000", "205710.930000", "205711.390000", "205711.850000", "205712.310000", "205712.770000", "205713.230000", "205713.690000", "205714.150000", "205714.610000", "205715.070000", "205715.530000", "205715.990000", "205716.450000", "205716.910000", "205717.370000", "205717.830000", "205718.290000", "205718.750000", "205719.210000", "205719.670000", "205720.130000", "205720.590000", "205721.050000", "205721.510000", "205721.970000", "205722.430000", "205722.890000", "205723.350000", "205723.810000", "205724.270000", "205724.730000", "205725.190000", "205725.650000", "205726.110000", "205726.570000", "205727.030000", "205727.490000", "205727.950000", "205728.410000", "205728.870000", "205729.330000", "205729.790000", "205730.250000", "205730.710000", "205731.170000", "205731.630000", "205732.090000", "205732.550000", "205733.010000", "205733.470000", "205733.930000", "205734.390000", "205734.850000", "205735.310000", "205735.770000", "205736.230000", "205736.690000", "205737.150000", "205737.610000", "205738.070000", "205738.530000", "205738.990000", "205739.450000", "205739.910000", "205740.370000", "205740.830000", "205741.290000", "205741.750000", "205742.210000", "205742.670000", "205743.130000", "205743.590000", "205744.050000", "205744.510000", "205744.970000", "205745.430000", "205745.890000", "205746.350000", "205746.810000", "205747.270000", "205747.730000", "205748.190000", "205748.650000", "205749.110000", "205749.570000", "205750.030000", "205750.490000", "205750.950000", "205751.410000", "205751.870000", "205752.330000", "205752.790000", "205753.250000", "205753.710000", "205754.170000", "205754.630000", "205755.090000", "205755.550000", "205756.010000", "205756.470000", "205756.930000", "205757.390000", "205757.850000", "205758.310000", "205758.770000", "205759.230000", "205759.690000", "205800.150000", "205800.610000", "205801.070000", "205801.530000", "205801.990000", "205802.450000", "205802.910000", "205803.370000", "205803.830000", "205804.290000", "205804.750000", "205805.210000", "205805.670000", "205806.130000", "205806.590000", "205807.050000", "205807.510000", "205807.970000", "205808.430000", "205808.890000", "205809.350000", "205809.810000", "205810.270000", "205810.730000", "205811.190000", "205811.650000", "205812.110000", "205812.570000", "205813.030000", "205813.490000", "205813.950000", "205814.410000", "205814.870000", "205815.330000", "205815.790000", "205816.250000", "205816.710000", "205817.170000", "205817.630000", "205818.090000", "205818.550000", "205819.010000", "205819.470000", "205819.930000", "205820.390000", "205820.850000", "205821.310000", "205821.770000", "205822.230000", "205822.690000", "205823.150000", "205823.610000", "205824.070000", "205824.530000", "205824.990000", "205825.450000", "205825.910000", "205826.370000", "205826.830000", "205827.290000", "205827.750000", "205828.210000", "205828.670000", "205829.130000", "205829.590000", "205830.050000", "205830.510000", "205830.970000", "205831.430000", "205831.890000", "205832.350000", "205832.810000", "205833.270000", "205833.730000", "205834.190000", "205834.650000", "205835.110000", "205835.570000", "205836.030000", "205836.490000", "205836.950000", "205837.410000", "205837.870000", "205838.330000", "205838.790000", "205839.250000", "205839.710000", "205840.170000", "205840.630000", "205841.090000", "205841.550000", "205842.010000", "205842.470000", "205842.930000", "205843.390000", "205843.850000", "205844.310000", "205844.770000", "205845.230000", "205845.690000", "205846.150000", "205846.610000", "205847.070000", "205847.530000", "205847.990000", "205848.450000", "205848.910000", "205849.370000", "205849.830000", "205850.290000", "205850.750000", "205851.210000", "205851.670000", "205852.130000", "205852.590000", "205853.050000", "205853.510000", "205853.970000", "205854.430000", "205854.890000", "205855.350000", "205855.810000", "205856.270000", "205856.730000", "205857.190000", "205857.650000", "205858.110000", "205858.570000", "205859.030000", "205859.490000", "205859.950000", "205900.410000", "205900.870000", "205901.330000", "205901.790000", "205902.250000", "205902.710000", "205903.170000", "205903.630000", "205904.090000", "205904.550000", "205905.010000", "205905.470000", "205905.930000", "205906.390000", "205906.850000", "205907.310000", "205907.770000", "205908.230000", "205908.690000", "205909.150000", "205909.610000", "205910.070000", "205910.530000", "205910.990000", "205911.450000", "205911.910000", "205912.370000", "205912.830000", "205913.290000", "205913.750000", "205914.210000", "205914.670000", "205915.130000", "205915.590000", "205916.050000", "205916.510000", "205916.970000", "205917.430000", "205917.890000", "205918.350000", "205918.810000", "205919.270000", "205919.730000", "205920.190000", "205920.650000", "205921.110000", "205921.570000", "205922.030000", "205922.490000", "205922.950000", "205923.410000", "205923.870000", "205924.330000", "205924.790000", "205925.250000", "205925.710000", "205926.170000", "205926.630000", "205927.090000", "205927.550000", "205928.010000", "205928.470000", "205928.930000", "205929.390000", "205929.850000", "205930.310000", "205930.770000", "205931.230000", "205931.690000", "205932.150000", "205932.610000", "205933.070000", "205933.530000", "205933.990000", "205934.450000", "205934.910000", "205935.370000", "205935.830000", "205936.290000", "205936.750000", "205937.210000", "205937.670000", "205938.130000", "205938.590000", "205939.050000", "205939.510000", "205939.970000", "205940.430000", "205940.890000", "205941.350000", "205941.810000", "205942.270000", "205942.730000", "205943.190000", "205943.650000", "205944.110000", "205944.570000", "205945.030000", "205945.490000", "205945.950000", "205946.410000", "205946.870000", "205947.330000", "205947.790000", "205948.250000", "205948.710000", "205949.170000", "205949.630000", "205950.090000", "205950.550000", "205951.010000", "205951.470000", "205951.930000", "205952.390000", "205952.850000", "205953.310000", "205953.770000", "205954.230000", "205954.690000", "205955.150000", "205955.610000", "205956.070000", "205956.530000", "205956.990000", "205957.450000", "205957.910000", "205958.370000", "205958.830000", "205959.290000", "205959.750000", "210000.210000", "210000.670000", "210001.130000", "210001.590000", "210002.050000", "210002.510000", "210002.970000", "210003.430000", "210003.890000", "210004.350000", "210004.810000", "210005.270000", "210005.730000", "210006.190000", "210006.650000", "210007.110000", "210007.570000", "210008.030000", "210008.490000", "210008.950000", "210009.410000", "210009.870000", "210010.330000", "210010.790000", "210011.250000", "210011.710000", "210012.170000", "210012.630000", "210013.090000", "210013.550000", "210014.010000", "210014.470000", "210014.930000", "210015.390000", "210015.850000", "210016.310000", "210016.770000", "210017.230000", "210017.690000", "210018.150000", "210018.610000", "210019.070000", "210019.530000", "210019.990000", "210020.450000", "210020.910000", "210021.370000", "210021.830000", "210022.290000", "210022.750000"],
