{
  "AcquisitionMatrixPE": 82,
  "AcquisitionNumber": 1,
  "AcquisitionTime": "21:10:31.192500",
  "BandwidthPerPixelPhaseEncode": 24.888,
  "BaseResolution": 82,
  "BodyPartExamined": "BRAIN",
  "ConsistencyInfo": "N4_VE11E_LATEST_20181129",
  "ConversionSoftware": "dcm2niix",
  "ConversionSoftwareVersion": "v1.0.20201102",
  "DerivedVendorReportedEchoSpacing": 0.00049,
  "DeviceSerialNumber": "66112",
  "DwellTime": 2e-06,
  "EchoTime": 0.0272,
  "EchoTrainLength": 82,
  "EffectiveEchoSpacing": 0.00049,
  "FlipAngle": 44,
  "ImageComments": "Unaliased MB8/PE3",
  "ImageOrientationPatientDICOM": [0.99972, 0.0121716, 0.0202886, -0.0129126, 0.999239, 0.0367998],
  "ImageType": [
    "ORIGINAL",
    "PRIMARY",
    "M",
    "MB",
    "ND",
    "NORM",
    "MOSAIC"
],
  "ImagingFrequency": 123.252,
  "InPlanePhaseEncodingDirectionDICOM": "COL",
  "InstitutionAddress": "Maynard 3,Hanover,NH,US,03755",
  "InstitutionName": "Dartmouth College - PBS",
  "InstitutionalDepartmentName": "Department",
  "MRAcquisitionType": "2D",
  "MagneticFieldStrength": 3,
  "Manufacturer": "Siemens",
  "ManufacturersModelName": "Prisma",
  "Modality": "MR",
  "MultibandAccelerationFactor": 8,
  "PartialFourier": 1,
  "PatientPosition": "HFS",
  "PercentPhaseFOV": 100,
  "PercentSampling": 100,
  "PhaseEncodingDirection": "j-",
  "PhaseEncodingSteps": 82,
  "PhaseResolution": 1,
  "PixelBandwidth": 3050,
  "ProcedureStepDescription": "Wager_Wager^1076_spacetop",
  "ProtocolName": "func_run-04_task-social_acq-ap-mb8",
  "PulseSequenceDetails": "%CustomerSeq%\\cmrr_mbep2d_bold",
  "ReceiveCoilActiveElements": "HEA;HEP",
  "ReceiveCoilName": "Head_32",
  "ReconMatrixPE": 82,
  "RepetitionTime": 0.46,
  "SAR": 0.104787,
  "ScanOptions": "FS",
  "ScanningSequence": "EP",
  "SequenceName": "epfid2d1_82",
  "SequenceVariant": "SK\\SS",
  "SeriesDescription": "func_run-04_task-social_acq-ap-mb8",
  "SeriesNumber": 18,
  "ShimSetting": [4177, -7732, -7232, 587, 43, -90, -95, -7],
  "SliceThickness": 2.7,
  "SliceTiming": [0, 0.2525, 0.065, 0.315, 0.1275, 0.3775, 0.19, 0, 0.2525, 0.065, 0.315, 0.1275, 0.3775, 0.19, 0, 0.2525, 0.065, 0.315, 0.1275, 0.3775, 0.19, 0, 0.2525, 0.065, 0.315, 0.1275, 0.3775, 0.19, 0, 0.2525, 0.065, 0.315, 0.1275, 0.3775, 0.19, 0, 0.2525, 0.065, 0.315, 0.1275, 0.3775, 0.19, 0, 0.2525, 0.065, 0.315, 0.1275, 0.3775, 0.19, 0, 0.2525, 0.065, 0.315, 0.1275, 0.3775, 0.19],
  "SoftwareVersions": "syngo MR E11",
  "SpacingBetweenSlices": 2.7,
  "StationName": "AWP66112",
  "TaskName": "social",
  "TotalReadoutTime": 0.03969,
  "TxRefAmp": 252.257,
  "WipMemBlock": "df4cb831-e080-4c44-8740-4d99ff528147||Sequence: R016 ve11e/master r/434b28f1; Aug  7 2019 18:53:46 by eja",
  "dcmmeta_affine": [
    [-2.682175874710083, -0.03464346006512642, 0.05352826789021492, 113.68807220458984],
    [-0.03265548497438431, 2.6808857917785645, 0.10003899782896042, -93.50882720947266],
    [0.05443291366100311, -0.09873118251562119, 2.697615146636963, -60.951210021972656],
    [0.0, 0.0, 0.0, 1.0]
],
  "dcmmeta_reorient_transform": [
    [0.0, -1.0, 0.0, 81.0],
    [1.0, 0.0, 0.0, 0.0],
    [0.0, 0.0, 1.0, 0.0],
    [0.0, 0.0, 0.0, 1.0]
],
  "dcmmeta_shape": [82, 82, 56, 872],
  "dcmmeta_slice_dim": 2,
  "dcmmeta_version": 0.6,
  "global": {
    "const": {
      "AccessionNumber": "A004215",
      "AcquisitionMatrix": [82, 0, 0, 82],
      "AngioFlag": "N",
      "BitsAllocated": 16,
      "BitsStored": 16,
      "BodyPartExamined": "BRAIN",
      "Columns": 656,
      "EchoNumbers": 1,
      "EchoTime": 27.2,
      "EchoTrainLength": 82,
      "FlipAngle": 44.0,
      "HighBit": 15,
      "ImageOrientationPatient": [0.99972007273621, 0.01217158974681, 0.0202886315789, -0.0129125622078, 0.99923923071668, 0.03679980345006],
      "ImagePositionPatient": [-870.72375126881, -902.42927001186, -112.90653282452],
      "ImageType": [
        "ORIGINAL",
        "PRIMARY",
        "M",
        "MB",
        "ND",
        "NORM",
        "MOSAIC"
],
      "ImagedNucleus": "1H",
      "ImagingFrequency": 123.252168,
      "InPlanePhaseEncodingDirection": "COL",
      "MRAcquisitionType": "2D",
      "MagneticFieldStrength": 3.0,
      "Manufacturer": "SIEMENS",
      "ManufacturerModelName": "Prisma",
      "Modality": "MR",
      "NumberOfAverages": 1.0,
      "NumberOfPhaseEncodingSteps": 82,
      "PercentPhaseFieldOfView": 100.0,
      "PercentSampling": 100.0,
      "PerformedProcedureStepStartTime": "201830.399000",
      "PhotometricInterpretation": "MONOCHROME2",
      "PixelBandwidth": 3050.0,
      "PixelRepresentation": 0,
      "PixelSpacing": [2.6829268932343, 2.6829268932343],
      "ProtocolName": "func_run-04_task-social_acq-ap-mb8",
      "RepetitionTime": 460.0,
      "Rows": 656,
      "SAR": 0.104786778663,
      "SamplesPerPixel": 1,
      "ScanOptions": "FS",
      "ScanningSequence": "EP",
      "SequenceName": "epfid2d1_82",
      "SequenceVariant": [
        "SK",
        "SS"
],
      "SeriesDescription": "func_run-04_task-social_acq-ap-mb8",
      "SeriesNumber": 18,
      "SeriesTime": "211054.742000",
      "SliceLocation": -62.108114044647,
      "SliceThickness": 2.7000000476837,
      "SmallestImagePixelValue": 0,
      "SoftwareVersions": "syngo MR E11",
      "SpacingBetweenSlices": 2.7000000077438,
      "SpecificCharacterSet": "ISO_IR 100",
      "StudyID": "1",
      "StudyTime": "201830.333000",
      "TransmitCoilName": "Body",
      "VariableFlipAngleFlag": "N",
      "WindowCenterWidthExplanation": "Algo1"
    },
    "slices": {}
  },
  "time": {
    "samples": {
      "AcquisitionNumber": [1, 2, 3, 4, 5, 6, 7, 8, 9, 10, 11, 12, 13, 14, 15, 16, 17, 18, 19, 20, 21, 22, 23, 24, 25, 26, 27, 28, 29, 30, 31, 32, 33, 34, 35, 36, 37, 38, 39, 40, 41, 42, 43, 44, 45, 46, 47, 48, 49, 50, 51, 52, 53, 54, 55, 56, 57, 58, 59, 60, 61, 62, 63, 64, 65, 66, 67, 68, 69, 70, 71, 72, 73, 74, 75, 76, 77, 78, 79, 80, 81, 82, 83, 84, 85, 86, 87, 88, 89, 90, 91, 92, 93, 94, 95, 96, 97, 98, 99, 100, 101, 102, 103, 104, 105, 106, 107, 108, 109, 110, 111, 112, 113, 114, 115, 116, 117, 118, 119, 120, 121, 122, 123, 124, 125, 126, 127, 128, 129, 130, 131, 132, 133, 134, 135, 136, 137, 138, 139, 140, 141, 142, 143, 144, 145, 146, 147, 148, 149, 150, 151, 152, 153, 154, 155, 156, 157, 158, 159, 160, 161, 162, 163, 164, 165, 166, 167, 168, 169, 170, 171, 172, 173, 174, 175, 176, 177, 178, 179, 180, 181, 182, 183, 184, 185, 186, 187, 188, 189, 190, 191, 192, 193, 194, 195, 196, 197, 198, 199, 200, 201, 202, 203, 204, 205, 206, 207, 208, 209, 210, 211, 212, 213, 214, 215, 216, 217, 218, 219, 220, 221, 222, 223, 224, 225, 226, 227, 228, 229, 230, 231, 232, 233, 234, 235, 236, 237, 238, 239, 240, 241, 242, 243, 244, 245, 246, 247, 248, 249, 250, 251, 252, 253, 254, 255, 256, 257, 258, 259, 260, 261, 262, 263, 264, 265, 266, 267, 268, 269, 270, 271, 272, 273, 274, 275, 276, 277, 278, 279, 280, 281, 282, 283, 284, 285, 286, 287, 288, 289, 290, 291, 292, 293, 294, 295, 296, 297, 298, 299, 300, 301, 302, 303, 304, 305, 306, 307, 308, 309, 310, 311, 312, 313, 314, 315, 316, 317, 318, 319, 320, 321, 322, 323, 324, 325, 326, 327, 328, 329, 330, 331, 332, 333, 334, 335, 336, 337, 338, 339, 340, 341, 342, 343, 344, 345, 346, 347, 348, 349, 350, 351, 352, 353, 354, 355, 356, 357, 358, 359, 360, 361, 362, 363, 364, 365, 366, 367, 368, 369, 370, 371, 372, 373, 374, 375, 376, 377, 378, 379, 380, 381, 382, 383, 384, 385, 386, 387, 388, 389, 390, 391, 392, 393, 394, 395, 396, 397, 398, 399, 400, 401, 402, 403, 404, 405, 406, 407, 408, 409, 410, 411, 412, 413, 414, 415, 416, 417, 418, 419, 420, 421, 422, 423, 424, 425, 426, 427, 428, 429, 430, 431, 432, 433, 434, 435, 436, 437, 438, 439, 440, 441, 442, 443, 444, 445, 446, 447, 448, 449, 450, 451, 452, 453, 454, 455, 456, 457, 458, 459, 460, 461, 462, 463, 464, 465, 466, 467, 468, 469, 470, 471, 472, 473, 474, 475, 476, 477, 478, 479, 480, 481, 482, 483, 484, 485, 486, 487, 488, 489, 490, 491, 492, 493, 494, 495, 496, 497, 498, 499, 500, 501, 502, 503, 504, 505, 506, 507, 508, 509, 510, 511, 512, 513, 514, 515, 516, 517, 518, 519, 520, 521, 522, 523, 524, 525, 526, 527, 528, 529, 530, 531, 532, 533, 534, 535, 536, 537, 538, 539, 540, 541, 542, 543, 544, 545, 546, 547, 548, 549, 550, 551, 552, 553, 554, 555, 556, 557, 558, 559, 560, 561, 562, 563, 564, 565, 566, 567, 568, 569, 570, 571, 572, 573, 574, 575, 576, 577, 578, 579, 580, 581, 582, 583, 584, 585, 586, 587, 588, 589, 590, 591, 592, 593, 594, 595, 596, 597, 598, 599, 600, 601, 602, 603, 604, 605, 606, 607, 608, 609, 610, 611, 612, 613, 614, 615, 616, 617, 618, 619, 620, 621, 622, 623, 624, 625, 626, 627, 628, 629, 630, 631, 632, 633, 634, 635, 636, 637, 638, 639, 640, 641, 642, 643, 644, 645, 646, 647, 648, 649, 650, 651, 652, 653, 654, 655, 656, 657, 658, 659, 660, 661, 662, 663, 664, 665, 666, 667, 668, 669, 670, 671, 672, 673, 674, 675, 676, 677, 678, 679, 680, 681, 682, 683, 684, 685, 686, 687, 688, 689, 690, 691, 692, 693, 694, 695, 696, 697, 698, 699, 700, 701, 702, 703, 704, 705, 706, 707, 708, 709, 710, 711, 712, 713, 714, 715, 716, 717, 718, 719, 720, 721, 722, 723, 724, 725, 726, 727, 728, 729, 730, 731, 732, 733, 734, 735, 736, 737, 738, 739, 740, 741, 742, 743, 744, 745, 746, 747, 748, 749, 750, 751, 752, 753, 754, 755, 756, 757, 758, 759, 760, 761, 762, 763, 764, 765, 766, 767, 768, 769, 770, 771, 772, 773, 774, 775, 776, 777, 778, 779, 780, 781, 782, 783, 784, 785, 786, 787, 788, 789, 790, 791, 792, 793, 794, 795, 796, 797, 798, 799, 800, 801, 802, 803, 804, 805, 806, 807, 808, 809, 810, 811, 812, 813, 814, 815, 816, 817, 818, 819, 820, 821, 822, 823, 824, 825, 826, 827, 828, 829, 830, 831, 832, 833, 834, 835, 836, 837, 838, 839, 840, 841, 842, 843, 844, 845, 846, 847, 848, 849, 850, 851, 852, 853, 854, 855, 856, 857, 858, 859, 860, 861, 862, 863, 864, 865, 866, 867, 868, 869, 870, 871, 872],
      "AcquisitionTime": ["211031.192500", "211031.652500", "211032.112500", "211032.572500", "211033.032500", "211033.492500", "211033.952500", "211034.412500", "211034.872500", "211035.332500", "211035.792500", "211036.252500", "211036.712500", "211037.172500", "211037.632500", "211038.092500", "211038.552500", "211039.012500", "211039.472500", "211039.932500", "211040.392500", "211040.852500", "211041.312500", "211041.772500", "211042.232500", "211042.692500", "211043.152500", "211043.612500", "211044.072500", "211044.532500", "211044.992500", "211045.452500", "211045.912500", "211046.372500", "211046.832500", "211047.292500", "211047.752500", "211048.212500", "211048.672500", "211049.132500", "211049.592500", "211050.052500", "211050.512500", "211050.972500", "211051.432500", "211051.892500", "211052.352500", "211052.812500", "211053.272500", "211053.732500", "211054.192500", "211054.652500", "211055.112500", "211055.572500", "211056.032500", "211056.492500", "211056.952500", "211057.412500", "211057.872500", "211058.332500", "211058.792500", "211059.252500", "211059.712500", "211100.172500", "211100.632500", "211101.092500", "211101.552500", "211102.012500", "211102.472500", "211102.932500", "211103.392500", "211103.852500", "211104.312500", "211104.772500", "211105.232500", "211105.692500", "211106.152500", "211106.612500", "211107.072500", "211107.532500", "211107.992500", "211108.452500", "211108.912500", "211109.372500", "211109.832500", "211110.292500", "211110.752500", "211111.212500", "211111.672500", "211112.132500", "211112.592500", "211113.052500", "211113.512500", "211113.972500", "211114.432500", "211114.892500", "211115.352500", "211115.812500", "211116.272500", "211116.732500", "211117.192500", "211117.652500", "211118.112500", "211118.572500", "211119.032500", "211119.492500", "211119.952500", "211120.412500", "211120.872500", "211121.332500", "211121.792500", "211122.252500", "211122.712500", "211123.172500", "211123.632500", "211124.092500", "211124.552500", "211125.012500", "211125.472500", "211125.932500", "211126.392500", "211126.852500", "211127.312500", "211127.772500", "211128.232500", "211128.692500", "211129.152500", "211129.612500", "211130.072500", "211130.532500", "211130.992500", "211131.452500", "211131.912500", "211132.372500", "211132.832500", "211133.292500", "211133.752500", "211134.212500", "211134.672500", "211135.132500", "211135.592500", "211136.052500", "211136.512500", "211136.972500", "211137.432500", "211137.892500", "211138.352500", "211138.812500", "211139.272500", "211139.732500", "211140.192500", "211140.652500", "211141.112500", "211141.572500", "211142.032500", "211142.492500", "211142.952500", "211143.412500", "211143.872500", "211144.332500", "211144.792500", "211145.252500", "211145.712500", "211146.172500", "211146.632500", "211147.092500", "211147.552500", "211148.012500", "211148.472500", "211148.932500", "211149.392500", "211149.852500", "211150.312500", "211150.772500", "211151.232500", "211151.692500", "211152.152500", "211152.612500", "211153.072500", "211153.532500", "211153.992500", "211154.452500", "211154.912500", "211155.372500", "211155.832500", "211156.292500", "211156.752500", "211157.212500", "211157.672500", "211158.132500", "211158.592500", "211159.052500", "211159.512500", "211159.972500", "211200.432500", "211200.892500", "211201.352500", "211201.812500", "211202.272500", "211202.732500", "211203.192500", "211203.652500", "211204.112500", "211204.572500", "211205.032500", "211205.492500", "211205.952500", "211206.412500", "211206.872500", "211207.332500", "211207.792500", "211208.252500", "211208.712500", "211209.172500", "211209.632500", "211210.092500", "211210.552500", "211211.012500", "211211.472500", "211211.932500", "211212.392500", "211212.852500", "211213.312500", "211213.772500", "211214.232500", "211214.692500", "211215.152500", "211215.612500", "211216.072500", "211216.532500", "211216.992500", "211217.452500", "211217.912500", "211218.372500", "211218.832500", "211219.292500", "211219.752500", "211220.212500", "211220.672500", "211221.132500", "211221.592500", "211222.052500", "211222.512500", "211222.972500", "211223.432500", "211223.892500", "211224.352500", "211224.812500", "211225.272500", "211225.732500", "211226.192500", "211226.652500", "211227.112500", "211227.572500", "211228.032500", "211228.492500", "211228.952500", "211229.412500", "211229.872500", "211230.332500", "211230.792500", "211231.252500", "211231.712500", "211232.172500", "211232.632500", "211233.092500", "211233.552500", "211234.012500", "211234.472500", "211234.932500", "211235.392500", "211235.852500", "211236.312500", "211236.772500", "211237.232500", "211237.692500", "211238.152500", "211238.612500", "211239.072500", "211239.532500", "211239.992500", "211240.452500", "211240.912500", "211241.372500", "211241.832500", "211242.292500", "211242.752500", "211243.212500", "211243.672500", "211244.132500", "211244.592500", "211245.052500", "211245.512500", "211245.972500", "211246.432500", "211246.892500", "211247.352500", "211247.812500", "211248.272500", "211248.732500", "211249.192500", "211249.652500", "211250.112500", "211250.572500", "211251.032500", "211251.492500", "211251.952500", "211252.412500", "211252.872500", "211253.332500", "211253.792500", "211254.252500", "211254.712500", "211255.172500", "211255.632500", "211256.092500", "211256.552500", "211257.012500", "211257.472500", "211257.932500", "211258.392500", "211258.852500", "211259.312500", "211259.772500", "211300.232500", "211300.692500", "211301.152500", "211301.612500", "211302.072500", "211302.532500", "211302.992500", "211303.452500", "211303.912500", "211304.372500", "211304.832500", "211305.292500", "211305.752500", "211306.212500", "211306.672500", "211307.132500", "211307.592500", "211308.052500", "211308.512500", "211308.972500", "211309.432500", "211309.892500", "211310.352500", "211310.812500", "211311.272500", "211311.732500", "211312.192500", "211312.652500", "211313.112500", "211313.572500", "211314.032500", "211314.492500", "211314.952500", "211315.412500", "211315.872500", "211316.332500", "211316.792500", "211317.252500", "211317.712500", "211318.172500", "211318.632500", "211319.092500", "211319.552500", "211320.012500", "211320.472500", "211320.932500", "211321.392500", "211321.852500", "211322.312500", "211322.772500", "211323.232500", "211323.692500", "211324.152500", "211324.612500", "211325.072500", "211325.532500", "211325.992500", "211326.452500", "211326.912500", "211327.372500", "211327.832500", "211328.292500", "211328.752500", "211329.212500", "211329.672500", "211330.132500", "211330.592500", "211331.052500", "211331.512500", "211331.972500", "211332.432500", "211332.892500", "211333.352500", "211333.812500", "211334.272500", "211334.732500", "211335.192500", "211335.652500", "211336.112500", "211336.572500", "211337.032500", "211337.492500", "211337.952500", "211338.412500", "211338.872500", "211339.332500", "211339.792500", "211340.252500", "211340.712500", "211341.172500", "211341.632500", "211342.092500", "211342.552500", "211343.012500", "211343.472500", "211343.932500", "211344.392500", "211344.852500", "211345.312500", "211345.772500", "211346.232500", "211346.692500", "211347.152500", "211347.612500", "211348.072500", "211348.532500", "211348.992500", "211349.452500", "211349.912500", "211350.372500", "211350.832500", "211351.292500", "211351.752500", "211352.212500", "211352.672500", "211353.132500", "211353.592500", "211354.052500", "211354.512500", "211354.972500", "211355.432500", "211355.892500", "211356.352500", "211356.812500", "211357.272500", "211357.732500", "211358.192500", "211358.652500", "211359.112500", "211359.572500", "211400.032500", "211400.492500", "211400.952500", "211401.412500", "211401.872500", "211402.332500", "211402.792500", "211403.252500", "211403.712500", "211404.172500", "211404.632500", "211405.092500", "211405.552500", "211406.012500", "211406.472500", "211406.932500", "211407.392500", "211407.852500", "211408.312500", "211408.772500", "211409.232500", "211409.692500", "211410.152500", "211410.612500", "211411.072500", "211411.532500", "211411.992500", "211412.452500", "211412.912500", "211413.372500", "211413.832500", "211414.292500", "211414.752500", "211415.212500", "211415.672500", "211416.132500", "211416.592500", "211417.052500", "211417.512500", "211417.972500", "211418.432500", "211418.892500", "211419.352500", "211419.812500", "211420.272500", "211420.732500", "211421.192500", "211421.652500", "211422.112500", "211422.572500", "211423.032500", "211423.492500", "211423.952500", "211424.412500", "211424.872500", "211425.332500", "211425.792500", "211426.252500", "211426.712500", "211427.172500", "211427.632500", "211428.092500", "211428.552500", "211429.012500", "211429.472500", "211429.932500", "211430.392500", "211430.852500", "211431.312500", "211431.772500", "211432.232500", "211432.692500", "211433.152500", "211433.612500", "211434.072500", "211434.532500", "211434.992500", "211435.452500", "211435.912500", "211436.372500", "211436.832500", "211437.292500", "211437.752500", "211438.212500", "211438.672500", "211439.132500", "211439.592500", "211440.052500", "211440.512500", "211440.972500", "211441.432500", "211441.892500", "211442.352500", "211442.812500", "211443.272500", "211443.732500", "211444.192500", "211444.652500", "211445.112500", "211445.572500", "211446.032500", "211446.492500", "211446.952500", "211447.412500", "211447.872500", "211448.332500", "211448.792500", "211449.252500", "211449.712500", "211450.172500", "211450.632500", "211451.092500", "211451.552500", "211452.012500", "211452.472500", "211452.932500", "211453.392500", "211453.852500", "211454.312500", "211454.772500", "211455.232500", "211455.692500", "211456.152500", "211456.612500", "211457.072500", "211457.532500", "211457.992500", "211458.452500", "211458.912500", "211459.372500", "211459.832500", "211500.292500", "211500.752500", "211501.212500", "211501.672500", "211502.132500", "211502.592500", "211503.052500", "211503.512500", "211503.972500", "211504.432500", "211504.892500", "211505.352500", "211505.812500", "211506.272500", "211506.732500", "211507.192500", "211507.652500", "211508.112500", "211508.572500", "211509.032500", "211509.492500", "211509.952500", "211510.412500", "211510.872500", "211511.332500", "211511.792500", "211512.252500", "211512.712500", "211513.172500", "211513.632500", "211514.092500", "211514.552500", "211515.012500", "211515.472500", "211515.932500", "211516.392500", "211516.852500", "211517.312500", "211517.772500", "211518.232500", "211518.692500", "211519.152500", "211519.612500", "211520.072500", "211520.532500", "211520.992500", "211521.452500", "211521.912500", "211522.372500", "211522.832500", "211523.292500", "211523.752500", "211524.212500", "211524.672500", "211525.132500", "211525.592500", "211526.052500", "211526.512500", "211526.972500", "211527.432500", "211527.892500", "211528.352500", "211528.812500", "211529.272500", "211529.732500", "211530.192500", "211530.652500", "211531.112500", "211531.572500", "211532.032500", "211532.492500", "211532.952500", "211533.412500", "211533.872500", "211534.332500", "211534.792500", "211535.252500", "211535.712500", "211536.172500", "211536.632500", "211537.092500", "211537.552500", "211538.012500", "211538.472500", "211538.932500", "211539.392500", "211539.852500", "211540.312500", "211540.772500", "211541.232500", "211541.692500", "211542.152500", "211542.612500", "211543.072500", "211543.532500", "211543.992500", "211544.452500", "211544.912500", "211545.372500", "211545.832500", "211546.292500", "211546.752500", "211547.212500", "211547.672500", "211548.132500", "211548.592500", "211549.052500", "211549.512500", "211549.972500", "211550.432500", "211550.892500", "211551.352500", "211551.812500", "211552.272500", "211552.732500", "211553.192500", "211553.652500", "211554.112500", "211554.572500", "211555.032500", "211555.492500", "211555.952500", "211556.412500", "211556.872500", "211557.332500", "211557.792500", "211558.252500", "211558.712500", "211559.172500", "211559.632500", "211600.092500", "211600.552500", "211601.012500", "211601.472500", "211601.932500", "211602.392500", "211602.852500", "211603.312500", "211603.772500", "211604.232500", "211604.692500", "211605.152500", "211605.612500", "211606.072500", "211606.532500", "211606.992500", "211607.452500", "211607.912500", "211608.372500", "211608.832500", "211609.292500", "211609.752500", "211610.212500", "211610.672500", "211611.132500", "211611.592500", "211612.052500", "211612.512500", "211612.972500", "211613.432500", "211613.892500", "211614.352500", "211614.812500", "211615.272500", "211615.732500", "211616.192500", "211616.652500", "211617.112500", "211617.572500", "211618.032500", "211618.492500", "211618.952500", "211619.412500", "211619.872500", "211620.332500", "211620.792500", "211621.252500", "211621.712500", "211622.172500", "211622.632500", "211623.092500", "211623.552500", "211624.012500", "211624.472500", "211624.932500", "211625.392500", "211625.852500", "211626.312500", "211626.772500", "211627.232500", "211627.692500", "211628.152500", "211628.612500", "211629.072500", "211629.532500", "211629.992500", "211630.452500", "211630.912500", "211631.372500", "211631.832500", "211632.292500", "211632.752500", "211633.212500", "211633.672500", "211634.132500", "211634.592500", "211635.052500", "211635.512500", "211635.972500", "211636.432500", "211636.892500", "211637.352500", "211637.812500", "211638.272500", "211638.732500", "211639.192500", "211639.652500", "211640.112500", "211640.572500", "211641.032500", "211641.492500", "211641.952500", "211642.412500", "211642.872500", "211643.332500", "211643.792500", "211644.252500", "211644.712500", "211645.172500", "211645.632500", "211646.092500", "211646.552500", "211647.012500", "211647.472500", "211647.932500", "211648.392500", "211648.852500", "211649.312500", "211649.772500", "211650.232500", "211650.692500", "211651.152500", "211651.612500", "211652.072500", "211652.532500", "211652.992500", "211653.452500", "211653.912500", "211654.372500", "211654.832500", "211655.292500", "211655.752500", "211656.212500", "211656.672500", "211657.132500", "211657.592500", "211658.052500", "211658.512500", "211658.972500", "211659.432500", "211659.892500", "211700.352500", "211700.812500", "211701.272500", "211701.732500", "211702.192500", "211702.652500", "211703.112500", "211703.572500", "211704.032500", "211704.492500", "211704.952500", "211705.412500", "211705.872500", "211706.332500", "211706.792500", "211707.252500", "211707.712500", "211708.172500", "211708.632500", "211709.092500", "211709.552500", "211710.012500", "211710.472500", "211710.932500", "211711.392500", "211711.852500"],
