{
  "AcquisitionMatrixPE": 82,
  "AcquisitionNumber": 1,
  "AcquisitionTime": "21:56:10.647500",
  "BandwidthPerPixelPhaseEncode": 24.888,
  "BaseResolution": 82,
  "BodyPartExamined": "BRAIN",
  "ConsistencyInfo": "N4_VE11E_LATEST_20181129",
  "ConversionSoftware": "dcm2niix",
  "ConversionSoftwareVersion": "v1.0.20201102",
  "DerivedVendorReportedEchoSpacing": 0.00049,
  "DeviceSerialNumber": "66112",
  "DwellTime": 2e-06,
  "EchoTime": 0.0272,
  "EchoTrainLength": 82,
  "EffectiveEchoSpacing": 0.00049,
  "FlipAngle": 44,
  "ImageComments": "Unaliased MB8/PE3",
  "ImageOrientationPatientDICOM": [0.998938, 0.0187708, 0.0420755, -0.0214481, 0.997712, 0.0641081],
  "ImageType": [
    "ORIGINAL",
    "PRIMARY",
    "M",
    "MB",
    "ND",
    "NORM",
    "MOSAIC"
],
  "ImagingFrequency": 123.252,
  "InPlanePhaseEncodingDirectionDICOM": "COL",
  "InstitutionAddress": "Maynard 3,Hanover,NH,US,03755",
  "InstitutionName": "Dartmouth College - PBS",
  "InstitutionalDepartmentName": "Department",
  "MRAcquisitionType": "2D",
  "MagneticFieldStrength": 3,
  "Manufacturer": "Siemens",
  "ManufacturersModelName": "Prisma",
  "Modality": "MR",
  "MultibandAccelerationFactor": 8,
  "PartialFourier": 1,
  "PatientPosition": "HFS",
  "PercentPhaseFOV": 100,
  "PercentSampling": 100,
  "PhaseEncodingDirection": "j-",
  "PhaseEncodingSteps": 82,
  "PhaseResolution": 1,
  "PixelBandwidth": 3050,
  "ProcedureStepDescription": "Wager_Wager^1076_spacetop",
  "ProtocolName": "func_run-03_task-alignvideo_acq-ap-mb8",
  "PulseSequenceDetails": "%CustomerSeq%\\cmrr_mbep2d_bold",
  "ReceiveCoilActiveElements": "HEA;HEP",
  "ReceiveCoilName": "Head_32",
  "ReconMatrixPE": 82,
  "RepetitionTime": 0.46,
  "SAR": 0.104879,
  "ScanOptions": "FS",
  "ScanningSequence": "EP",
  "SequenceName": "epfid2d1_82",
  "SequenceVariant": "SK\\SS",
  "SeriesDescription": "func_run-03_task-alignvideo_acq-ap-mb8",
  "SeriesNumber": 34,
  "ShimSetting": [4177, -7729, -7233, 587, 41, -81, -94, -5],
  "SliceThickness": 2.7,
  "SliceTiming": [0, 0.2525, 0.0625, 0.315, 0.125, 0.3775, 0.19, 0, 0.2525, 0.0625, 0.315, 0.125, 0.3775, 0.19, 0, 0.2525, 0.0625, 0.315, 0.125, 0.3775, 0.19, 0, 0.2525, 0.0625, 0.315, 0.125, 0.3775, 0.19, 0, 0.2525, 0.0625, 0.315, 0.125, 0.3775, 0.19, 0, 0.2525, 0.0625, 0.315, 0.125, 0.3775, 0.19, 0, 0.2525, 0.0625, 0.315, 0.125, 0.3775, 0.19, 0, 0.2525, 0.0625, 0.315, 0.125, 0.3775, 0.19],
  "SoftwareVersions": "syngo MR E11",
  "SpacingBetweenSlices": 2.7,
  "StationName": "AWP66112",
  "TaskName": "alignvideo",
  "TotalReadoutTime": 0.03969,
  "TxRefAmp": 252.257,
  "WipMemBlock": "dca95f43-85d8-4d8f-bc5c-d3755341d145||Sequence: R016 ve11e/master r/434b28f1; Aug  7 2019 18:53:46 by eja",
  "dcmmeta_affine": [
    [-2.6800777912139893, -0.057543572038412094, 0.11009500175714493, 112.96612548828125],
    [-0.0503607913851738, 2.6767895221710205, 0.1753445565700531, -94.906494140625],
    [0.11288559436798096, -0.17199724912643433, 2.692049980163574, -59.23274230957031],
    [0.0, 0.0, 0.0, 1.0]
],
  "dcmmeta_reorient_transform": [
    [0.0, -1.0, 0.0, 81.0],
    [1.0, 0.0, 0.0, 0.0],
    [0.0, 0.0, 1.0, 0.0],
    [0.0, 0.0, 0.0, 1.0]
],
  "dcmmeta_shape": [82, 82, 56, 1016],
  "dcmmeta_slice_dim": 2,
  "dcmmeta_version": 0.6,
  "global": {
    "const": {
      "AccessionNumber": "A004215",
      "AcquisitionMatrix": [82, 0, 0, 82],
      "AngioFlag": "N",
      "BitsAllocated": 16,
      "BitsStored": 16,
      "BodyPartExamined": "BRAIN",
      "Columns": 656,
      "EchoNumbers": 1,
      "EchoTime": 27.2,
      "EchoTrainLength": 82,
      "FlipAngle": 44.0,
      "HighBit": 15,
      "ImageOrientationPatient": [0.99893808841594, 0.01877084052988, 0.0420755398981, -0.0214480587577, 0.99771245188992, 0.064108065946],
      "ImagePositionPatient": [-860.97243622835, -904.6056184913, -154.92589696487],
      "ImageType": [
        "ORIGINAL",
        "PRIMARY",
        "M",
        "MB",
        "ND",
        "NORM",
        "MOSAIC"
],
      "ImagedNucleus": "1H",
      "ImagingFrequency": 123.252175,
      "InPlanePhaseEncodingDirection": "COL",
      "MRAcquisitionType": "2D",
      "MagneticFieldStrength": 3.0,
      "Manufacturer": "SIEMENS",
      "ManufacturerModelName": "Prisma",
      "Modality": "MR",
      "NumberOfAverages": 1.0,
      "NumberOfPhaseEncodingSteps": 82,
      "PercentPhaseFieldOfView": 100.0,
      "PercentSampling": 100.0,
      "PerformedProcedureStepStartTime": "201830.399000",
      "PhotometricInterpretation": "MONOCHROME2",
      "PixelBandwidth": 3050.0,
      "PixelRepresentation": 0,
      "PixelSpacing": [2.6829268932343, 2.6829268932343],
      "ProtocolName": "func_run-03_task-alignvideo_acq-ap-mb8",
      "RepetitionTime": 460.0,
      "Rows": 656,
      "SAR": 0.1048791672148,
      "SamplesPerPixel": 1,
      "ScanOptions": "FS",
      "ScanningSequence": "EP",
      "SequenceName": "epfid2d1_82",
      "SequenceVariant": [
        "SK",
        "SS"
],
      "SeriesDescription": "func_run-03_task-alignvideo_acq-ap-mb8",
      "SeriesNumber": 34,
      "SeriesTime": "215634.638000",
      "SliceLocation": -60.615493442483,
      "SliceThickness": 2.7000000476837,
      "SmallestImagePixelValue": 0,
      "SoftwareVersions": "syngo MR E11",
      "SpacingBetweenSlices": 2.6999999988831,
      "SpecificCharacterSet": "ISO_IR 100",
      "StudyID": "1",
      "StudyTime": "201830.333000",
      "TransmitCoilName": "Body",
      "VariableFlipAngleFlag": "N",
      "WindowCenterWidthExplanation": "Algo1"
    },
    "slices": {}
  },
  "time": {
    "samples": {
      "AcquisitionNumber": [1, 2, 3, 4, 5, 6, 7, 8, 9, 10, 11, 12, 13, 14, 15, 16, 17, 18, 19, 20, 21, 22, 23, 24, 25, 26, 27, 28, 29, 30, 31, 32, 33, 34, 35, 36, 37, 38, 39, 40, 41, 42, 43, 44, 45, 46, 47, 48, 49, 50, 51, 52, 53, 54, 55, 56, 57, 58, 59, 60, 61, 62, 63, 64, 65, 66, 67, 68, 69, 70, 71, 72, 73, 74, 75, 76, 77, 78, 79, 80, 81, 82, 83, 84, 85, 86, 87, 88, 89, 90, 91, 92, 93, 94, 95, 96, 97, 98, 99, 100, 101, 102, 103, 104, 105, 106, 107, 108, 109, 110, 111, 112, 113, 114, 115, 116, 117, 118, 119, 120, 121, 122, 123, 124, 125, 126, 127, 128, 129, 130, 131, 132, 133, 134, 135, 136, 137, 138, 139, 140, 141, 142, 143, 144, 145, 146, 147, 148, 149, 150, 151, 152, 153, 154, 155, 156, 157, 158, 159, 160, 161, 162, 163, 164, 165, 166, 167, 168, 169, 170, 171, 172, 173, 174, 175, 176, 177, 178, 179, 180, 181, 182, 183, 184, 185, 186, 187, 188, 189, 190, 191, 192, 193, 194, 195, 196, 197, 198, 199, 200, 201, 202, 203, 204, 205, 206, 207, 208, 209, 210, 211, 212, 213, 214, 215, 216, 217, 218, 219, 220, 221, 222, 223, 224, 225, 226, 227, 228, 229, 230, 231, 232, 233, 234, 235, 236, 237, 238, 239, 240, 241, 242, 243, 244, 245, 246, 247, 248, 249, 250, 251, 252, 253, 254, 255, 256, 257, 258, 259, 260, 261, 262, 263, 264, 265, 266, 267, 268, 269, 270, 271, 272, 273, 274, 275, 276, 277, 278, 279, 280, 281, 282, 283, 284, 285, 286, 287, 288, 289, 290, 291, 292, 293, 294, 295, 296, 297, 298, 299, 300, 301, 302, 303, 304, 305, 306, 307, 308, 309, 310, 311, 312, 313, 314, 315, 316, 317, 318, 319, 320, 321, 322, 323, 324, 325, 326, 327, 328, 329, 330, 331, 332, 333, 334, 335, 336, 337, 338, 339, 340, 341, 342, 343, 344, 345, 346, 347, 348, 349, 350, 351, 352, 353, 354, 355, 356, 357, 358, 359, 360, 361, 362, 363, 364, 365, 366, 367, 368, 369, 370, 371, 372, 373, 374, 375, 376, 377, 378, 379, 380, 381, 382, 383, 384, 385, 386, 387, 388, 389, 390, 391, 392, 393, 394, 395, 396, 397, 398, 399, 400, 401, 402, 403, 404, 405, 406, 407, 408, 409, 410, 411, 412, 413, 414, 415, 416, 417, 418, 419, 420, 421, 422, 423, 424, 425, 426, 427, 428, 429, 430, 431, 432, 433, 434, 435, 436, 437, 438, 439, 440, 441, 442, 443, 444, 445, 446, 447, 448, 449, 450, 451, 452, 453, 454, 455, 456, 457, 458, 459, 460, 461, 462, 463, 464, 465, 466, 467, 468, 469, 470, 471, 472, 473, 474, 475, 476, 477, 478, 479, 480, 481, 482, 483, 484, 485, 486, 487, 488, 489, 490, 491, 492, 493, 494, 495, 496, 497, 498, 499, 500, 501, 502, 503, 504, 505, 506, 507, 508, 509, 510, 511, 512, 513, 514, 515, 516, 517, 518, 519, 520, 521, 522, 523, 524, 525, 526, 527, 528, 529, 530, 531, 532, 533, 534, 535, 536, 537, 538, 539, 540, 541, 542, 543, 544, 545, 546, 547, 548, 549, 550, 551, 552, 553, 554, 555, 556, 557, 558, 559, 560, 561, 562, 563, 564, 565, 566, 567, 568, 569, 570, 571, 572, 573, 574, 575, 576, 577, 578, 579, 580, 581, 582, 583, 584, 585, 586, 587, 588, 589, 590, 591, 592, 593, 594, 595, 596, 597, 598, 599, 600, 601, 602, 603, 604, 605, 606, 607, 608, 609, 610, 611, 612, 613, 614, 615, 616, 617, 618, 619, 620, 621, 622, 623, 624, 625, 626, 627, 628, 629, 630, 631, 632, 633, 634, 635, 636, 637, 638, 639, 640, 641, 642, 643, 644, 645, 646, 647, 648, 649, 650, 651, 652, 653, 654, 655, 656, 657, 658, 659, 660, 661, 662, 663, 664, 665, 666, 667, 668, 669, 670, 671, 672, 673, 674, 675, 676, 677, 678, 679, 680, 681, 682, 683, 684, 685, 686, 687, 688, 689, 690, 691, 692, 693, 694, 695, 696, 697, 698, 699, 700, 701, 702, 703, 704, 705, 706, 707, 708, 709, 710, 711, 712, 713, 714, 715, 716, 717, 718, 719, 720, 721, 722, 723, 724, 725, 726, 727, 728, 729, 730, 731, 732, 733, 734, 735, 736, 737, 738, 739, 740, 741, 742, 743, 744, 745, 746, 747, 748, 749, 750, 751, 752, 753, 754, 755, 756, 757, 758, 759, 760, 761, 762, 763, 764, 765, 766, 767, 768, 769, 770, 771, 772, 773, 774, 775, 776, 777, 778, 779, 780, 781, 782, 783, 784, 785, 786, 787, 788, 789, 790, 791, 792, 793, 794, 795, 796, 797, 798, 799, 800, 801, 802, 803, 804, 805, 806, 807, 808, 809, 810, 811, 812, 813, 814, 815, 816, 817, 818, 819, 820, 821, 822, 823, 824, 825, 826, 827, 828, 829, 830, 831, 832, 833, 834, 835, 836, 837, 838, 839, 840, 841, 842, 843, 844, 845, 846, 847, 848, 849, 850, 851, 852, 853, 854, 855, 856, 857, 858, 859, 860, 861, 862, 863, 864, 865, 866, 867, 868, 869, 870, 871, 872, 873, 874, 875, 876, 877, 878, 879, 880, 881, 882, 883, 884, 885, 886, 887, 888, 889, 890, 891, 892, 893, 894, 895, 896, 897, 898, 899, 900, 901, 902, 903, 904, 905, 906, 907, 908, 909, 910, 911, 912, 913, 914, 915, 916, 917, 918, 919, 920, 921, 922, 923, 924, 925, 926, 927, 928, 929, 930, 931, 932, 933, 934, 935, 936, 937, 938, 939, 940, 941, 942, 943, 944, 945, 946, 947, 948, 949, 950, 951, 952, 953, 954, 955, 956, 957, 958, 959, 960, 961, 962, 963, 964, 965, 966, 967, 968, 969, 970, 971, 972, 973, 974, 975, 976, 977, 978, 979, 980, 981, 982, 983, 984, 985, 986, 987, 988, 989, 990, 991, 992, 993, 994, 995, 996, 997, 998, 999, 1000, 1001, 1002, 1003, 1004, 1005, 1006, 1007, 1008, 1009, 1010, 1011, 1012, 1013, 1014, 1015, 1016],
      "AcquisitionTime": ["215610.647500", "215611.107500", "215611.567500", "215612.027500", "215612.487500", "215612.947500", "215613.407500", "215613.867500", "215614.327500", "215614.787500", "215615.247500", "215615.707500", "215616.167500", "215616.627500", "215617.087500", "215617.547500", "215618.007500", "215618.467500", "215618.927500", "215619.387500", "215619.847500", "215620.307500", "215620.767500", "215621.227500", "215621.687500", "215622.147500", "215622.607500", "215623.067500", "215623.527500", "215623.987500", "215624.447500", "215624.907500", "215625.367500", "215625.827500", "215626.287500", "215626.747500", "215627.207500", "215627.667500", "215628.127500", "215628.587500", "215629.047500", "215629.507500", "215629.967500", "215630.427500", "215630.887500", "215631.347500", "215631.807500", "215632.267500", "215632.727500", "215633.187500", "215633.647500", "215634.107500", "215634.567500", "215635.027500", "215635.487500", "215635.947500", "215636.407500", "215636.867500", "215637.327500", "215637.787500", "215638.247500", "215638.707500", "215639.167500", "215639.627500", "215640.087500", "215640.547500", "215641.007500", "215641.467500", "215641.927500", "215642.387500", "215642.847500", "215643.307500", "215643.767500", "215644.227500", "215644.687500", "215645.147500", "215645.607500", "215646.067500", "215646.527500", "215646.987500", "215647.447500", "215647.907500", "215648.367500", "215648.827500", "215649.287500", "215649.747500", "215650.207500", "215650.667500", "215651.127500", "215651.587500", "215652.047500", "215652.507500", "215652.967500", "215653.427500", "215653.887500", "215654.347500", "215654.807500", "215655.267500", "215655.727500", "215656.187500", "215656.647500", "215657.107500", "215657.567500", "215658.027500", "215658.487500", "215658.947500", "215659.407500", "215659.867500", "215700.327500", "215700.787500", "215701.247500", "215701.707500", "215702.167500", "215702.627500", "215703.087500", "215703.547500", "215704.007500", "215704.467500", "215704.927500", "215705.387500", "215705.847500", "215706.307500", "215706.767500", "215707.227500", "215707.687500", "215708.147500", "215708.607500", "215709.067500", "215709.527500", "215709.987500", "215710.447500", "215710.907500", "215711.367500", "215711.827500", "215712.287500", "215712.747500", "215713.207500", "215713.667500", "215714.127500", "215714.587500", "215715.047500", "215715.507500", "215715.967500", "215716.427500", "215716.887500", "215717.347500", "215717.807500", "215718.267500", "215718.727500", "215719.187500", "215719.647500", "215720.107500", "215720.567500", "215721.027500", "215721.487500", "215721.947500", "215722.407500", "215722.867500", "215723.327500", "215723.787500", "215724.247500", "215724.707500", "215725.167500", "215725.627500", "215726.087500", "215726.547500", "215727.007500", "215727.467500", "215727.927500", "215728.387500", "215728.847500", "215729.307500", "215729.767500", "215730.227500", "215730.687500", "215731.147500", "215731.607500", "215732.067500", "215732.527500", "215732.987500", "215733.447500", "215733.907500", "215734.367500", "215734.827500", "215735.287500", "215735.747500", "215736.207500", "215736.667500", "215737.127500", "215737.587500", "215738.047500", "215738.507500", "215738.967500", "215739.427500", "215739.887500", "215740.347500", "215740.807500", "215741.267500", "215741.727500", "215742.187500", "215742.647500", "215743.107500", "215743.567500", "215744.027500", "215744.487500", "215744.947500", "215745.407500", "215745.867500", "215746.327500", "215746.787500", "215747.247500", "215747.707500", "215748.167500", "215748.627500", "215749.087500", "215749.547500", "215750.007500", "215750.467500", "215750.927500", "215751.387500", "215751.847500", "215752.307500", "215752.767500", "215753.227500", "215753.687500", "215754.147500", "215754.607500", "215755.067500", "215755.527500", "215755.987500", "215756.447500", "215756.907500", "215757.367500", "215757.827500", "215758.287500", "215758.747500", "215759.207500", "215759.667500", "215800.127500", "215800.587500", "215801.047500", "215801.507500", "215801.967500", "215802.427500", "215802.887500", "215803.347500", "215803.807500", "215804.267500", "215804.727500", "215805.187500", "215805.647500", "215806.107500", "215806.567500", "215807.027500", "215807.487500", "215807.947500", "215808.407500", "215808.867500", "215809.327500", "215809.787500", "215810.247500", "215810.707500", "215811.167500", "215811.627500", "215812.087500", "215812.547500", "215813.007500", "215813.467500", "215813.927500", "215814.387500", "215814.847500", "215815.307500", "215815.767500", "215816.227500", "215816.687500", "215817.147500", "215817.607500", "215818.067500", "215818.527500", "215818.987500", "215819.447500", "215819.907500", "215820.367500", "215820.827500", "215821.287500", "215821.747500", "215822.207500", "215822.667500", "215823.127500", "215823.587500", "215824.047500", "215824.507500", "215824.967500", "215825.427500", "215825.887500", "215826.347500", "215826.807500", "215827.267500", "215827.727500", "215828.187500", "215828.647500", "215829.107500", "215829.567500", "215830.027500", "215830.487500", "215830.947500", "215831.407500", "215831.867500", "215832.327500", "215832.787500", "215833.247500", "215833.707500", "215834.167500", "215834.627500", "215835.087500", "215835.547500", "215836.007500", "215836.467500", "215836.927500", "215837.387500", "215837.847500", "215838.307500", "215838.767500", "215839.227500", "215839.687500", "215840.147500", "215840.607500", "215841.067500", "215841.527500", "215841.987500", "215842.447500", "215842.907500", "215843.367500", "215843.827500", "215844.287500", "215844.747500", "215845.207500", "215845.667500", "215846.127500", "215846.587500", "215847.047500", "215847.507500", "215847.967500", "215848.427500", "215848.887500", "215849.347500", "215849.807500", "215850.267500", "215850.727500", "215851.187500", "215851.647500", "215852.107500", "215852.567500", "215853.027500", "215853.487500", "215853.947500", "215854.407500", "215854.867500", "215855.327500", "215855.787500", "215856.247500", "215856.707500", "215857.167500", "215857.627500", "215858.087500", "215858.547500", "215859.007500", "215859.467500", "215859.927500", "215900.387500", "215900.847500", "215901.307500", "215901.767500", "215902.227500", "215902.687500", "215903.147500", "215903.607500", "215904.067500", "215904.527500", "215904.987500", "215905.447500", "215905.907500", "215906.367500", "215906.827500", "215907.287500", "215907.747500", "215908.207500", "215908.667500", "215909.127500", "215909.587500", "215910.047500", "215910.507500", "215910.967500", "215911.427500", "215911.887500", "215912.347500", "215912.807500", "215913.267500", "215913.727500", "215914.187500", "215914.647500", "215915.107500", "215915.567500", "215916.027500", "215916.487500", "215916.947500", "215917.407500", "215917.867500", "215918.327500", "215918.787500", "215919.247500", "215919.707500", "215920.167500", "215920.627500", "215921.087500", "215921.547500", "215922.007500", "215922.467500", "215922.927500", "215923.387500", "215923.847500", "215924.307500", "215924.767500", "215925.227500", "215925.687500", "215926.147500", "215926.607500", "215927.067500", "215927.527500", "215927.987500", "215928.447500", "215928.907500", "215929.367500", "215929.827500", "215930.287500", "215930.747500", "215931.207500", "215931.667500", "215932.127500", "215932.587500", "215933.047500", "215933.507500", "215933.967500", "215934.427500", "215934.887500", "215935.347500", "215935.807500", "215936.267500", "215936.727500", "215937.187500", "215937.647500", "215938.107500", "215938.567500", "215939.027500", "215939.487500", "215939.947500", "215940.407500", "215940.867500", "215941.327500", "215941.787500", "215942.247500", "215942.707500", "215943.167500", "215943.627500", "215944.087500", "215944.547500", "215945.007500", "215945.467500", "215945.927500", "215946.387500", "215946.847500", "215947.307500", "215947.767500", "215948.227500", "215948.687500", "215949.147500", "215949.607500", "215950.067500", "215950.527500", "215950.987500", "215951.447500", "215951.907500", "215952.367500", "215952.827500", "215953.287500", "215953.747500", "215954.207500", "215954.667500", "215955.127500", "215955.587500", "215956.047500", "215956.507500", "215956.967500", "215957.427500", "215957.887500", "215958.347500", "215958.807500", "215959.267500", "215959.727500", "220000.187500", "220000.647500", "220001.107500", "220001.567500", "220002.027500", "220002.487500", "220002.947500", "220003.407500", "220003.867500", "220004.327500", "220004.787500", "220005.247500", "220005.707500", "220006.167500", "220006.627500", "220007.087500", "220007.547500", "220008.007500", "220008.467500", "220008.927500", "220009.387500", "220009.847500", "220010.307500", "220010.767500", "220011.227500", "220011.687500", "220012.147500", "220012.607500", "220013.067500", "220013.527500", "220013.987500", "220014.447500", "220014.907500", "220015.367500", "220015.827500", "220016.287500", "220016.747500", "220017.207500", "220017.667500", "220018.127500", "220018.587500", "220019.047500", "220019.507500", "220019.967500", "220020.427500", "220020.887500", "220021.347500", "220021.807500", "220022.267500", "220022.727500", "220023.187500", "220023.647500", "220024.107500", "220024.567500", "220025.027500", "220025.487500", "220025.947500", "220026.407500", "220026.867500", "220027.327500", "220027.787500", "220028.247500", "220028.707500", "220029.167500", "220029.627500", "220030.087500", "220030.547500", "220031.007500", "220031.467500", "220031.927500", "220032.387500", "220032.847500", "220033.307500", "220033.767500", "220034.227500", "220034.687500", "220035.147500", "220035.607500", "220036.067500", "220036.527500", "220036.987500", "220037.447500", "220037.907500", "220038.367500", "220038.827500", "220039.287500", "220039.747500", "220040.207500", "220040.667500", "220041.127500", "220041.587500", "220042.047500", "220042.507500", "220042.967500", "220043.427500", "220043.887500", "220044.347500", "220044.807500", "220045.267500", "220045.727500", "220046.187500", "220046.647500", "220047.107500", "220047.567500", "220048.027500", "220048.487500", "220048.947500", "220049.407500", "220049.867500", "220050.327500", "220050.787500", "220051.247500", "220051.707500", "220052.167500", "220052.627500", "220053.087500", "220053.547500", "220054.007500", "220054.467500", "220054.927500", "220055.387500", "220055.847500", "220056.307500", "220056.767500", "220057.227500", "220057.687500", "220058.147500", "220058.607500", "220059.067500", "220059.527500", "220059.987500", "220100.447500", "220100.907500", "220101.367500", "220101.827500", "220102.287500", "220102.747500", "220103.207500", "220103.667500", "220104.127500", "220104.587500", "220105.047500", "220105.507500", "220105.967500", "220106.427500", "220106.887500", "220107.347500", "220107.807500", "220108.267500", "220108.727500", "220109.187500", "220109.647500", "220110.107500", "220110.567500", "220111.027500", "220111.487500", "220111.947500", "220112.407500", "220112.867500", "220113.327500", "220113.787500", "220114.247500", "220114.707500", "220115.167500", "220115.627500", "220116.087500", "220116.547500", "220117.007500", "220117.467500", "220117.927500", "220118.387500", "220118.847500", "220119.307500", "220119.767500", "220120.227500", "220120.687500", "220121.147500", "220121.607500", "220122.067500", "220122.527500", "220122.987500", "220123.447500", "220123.907500", "220124.367500", "220124.827500", "220125.287500", "220125.747500", "220126.207500", "220126.667500", "220127.127500", "220127.587500", "220128.047500", "220128.507500", "220128.967500", "220129.427500", "220129.887500", "220130.347500", "220130.807500", "220131.267500", "220131.727500", "220132.187500", "220132.647500", "220133.107500", "220133.567500", "220134.027500", "220134.487500", "220134.947500", "220135.407500", "220135.867500", "220136.327500", "220136.787500", "220137.247500", "220137.707500", "220138.167500", "220138.627500", "220139.087500", "220139.547500", "220140.007500", "220140.467500", "220140.927500", "220141.387500", "220141.847500", "220142.307500", "220142.767500", "220143.227500", "220143.687500", "220144.147500", "220144.607500", "220145.067500", "220145.527500", "220145.987500", "220146.447500", "220146.907500", "220147.367500", "220147.827500", "220148.287500", "220148.747500", "220149.207500", "220149.667500", "220150.127500", "220150.587500", "220151.047500", "220151.507500", "220151.967500", "220152.427500", "220152.887500", "220153.347500", "220153.807500", "220154.267500", "220154.727500", "220155.187500", "220155.647500", "220156.107500", "220156.567500", "220157.027500", "220157.487500", "220157.947500", "220158.407500", "220158.867500", "220159.327500", "220159.787500", "220200.247500", "220200.707500", "220201.167500", "220201.627500", "220202.087500", "220202.547500", "220203.007500", "220203.467500", "220203.927500", "220204.387500", "220204.847500", "220205.307500", "220205.767500", "220206.227500", "220206.687500", "220207.147500", "220207.607500", "220208.067500", "220208.527500", "220208.987500", "220209.447500", "220209.907500", "220210.367500", "220210.827500", "220211.287500", "220211.747500", "220212.207500", "220212.667500", "220213.127500", "220213.587500", "220214.047500", "220214.507500", "220214.967500", "220215.427500", "220215.887500", "220216.347500", "220216.807500", "220217.267500", "220217.727500", "220218.187500", "220218.647500", "220219.107500", "220219.567500", "220220.027500", "220220.487500", "220220.947500", "220221.407500", "220221.867500", "220222.327500", "220222.787500", "220223.247500", "220223.707500", "220224.167500", "220224.627500", "220225.087500", "220225.547500", "220226.007500", "220226.467500", "220226.927500", "220227.387500", "220227.847500", "220228.307500", "220228.767500", "220229.227500", "220229.687500", "220230.147500", "220230.607500", "220231.067500", "220231.527500", "220231.987500", "220232.447500", "220232.907500", "220233.367500", "220233.827500", "220234.287500", "220234.747500", "220235.207500", "220235.667500", "220236.127500", "220236.587500", "220237.047500", "220237.507500", "220237.967500", "220238.427500", "220238.887500", "220239.347500", "220239.807500", "220240.267500", "220240.727500", "220241.187500", "220241.647500", "220242.107500", "220242.567500", "220243.027500", "220243.487500", "220243.947500", "220244.407500", "220244.867500", "220245.327500", "220245.787500", "220246.247500", "220246.707500", "220247.167500", "220247.627500", "220248.087500", "220248.547500", "220249.007500", "220249.467500", "220249.927500", "220250.387500", "220250.847500", "220251.307500", "220251.767500", "220252.227500", "220252.687500", "220253.147500", "220253.607500", "220254.067500", "220254.527500", "220254.987500", "220255.447500", "220255.907500", "220256.367500", "220256.827500", "220257.287500", "220257.747500", "220258.207500", "220258.667500", "220259.127500", "220259.587500", "220300.047500", "220300.507500", "220300.967500", "220301.427500", "220301.887500", "220302.347500", "220302.807500", "220303.267500", "220303.727500", "220304.187500", "220304.647500", "220305.107500", "220305.567500", "220306.027500", "220306.487500", "220306.947500", "220307.407500", "220307.867500", "220308.327500", "220308.787500", "220309.247500", "220309.707500", "220310.167500", "220310.627500", "220311.087500", "220311.547500", "220312.007500", "220312.467500", "220312.927500", "220313.387500", "220313.847500", "220314.307500", "220314.767500", "220315.227500", "220315.687500", "220316.147500", "220316.607500", "220317.067500", "220317.527500", "220317.987500", "220318.447500", "220318.907500", "220319.367500", "220319.827500", "220320.287500", "220320.747500", "220321.207500", "220321.667500", "220322.127500", "220322.587500", "220323.047500", "220323.507500", "220323.967500", "220324.427500", "220324.887500", "220325.347500", "220325.807500", "220326.267500", "220326.727500", "220327.187500", "220327.647500", "220328.107500", "220328.567500", "220329.027500", "220329.487500", "220329.947500", "220330.407500", "220330.867500", "220331.327500", "220331.787500", "220332.247500", "220332.707500", "220333.167500", "220333.627500", "220334.087500", "220334.547500", "220335.007500", "220335.467500", "220335.927500", "220336.387500", "220336.847500", "220337.307500", "220337.767500", "220338.227500", "220338.687500", "220339.147500", "220339.607500", "220340.067500", "220340.527500", "220340.987500", "220341.447500", "220341.907500", "220342.367500", "220342.827500", "220343.287500", "220343.747500", "220344.207500", "220344.667500", "220345.127500", "220345.587500", "220346.047500", "220346.507500", "220346.967500", "220347.427500", "220347.887500", "220348.347500", "220348.807500", "220349.267500", "220349.727500", "220350.187500", "220350.647500", "220351.107500", "220351.567500", "220352.027500", "220352.487500", "220352.947500", "220353.407500", "220353.867500", "220354.327500", "220354.787500", "220355.247500", "220355.707500", "220356.167500", "220356.627500", "220357.087500", "220357.547500"],
