{
  "AcquisitionMatrixPE": 82,
  "AcquisitionNumber": 1,
  "AcquisitionTime": "20:46:22.832500",
  "BandwidthPerPixelPhaseEncode": 24.888,
  "BaseResolution": 82,
  "BodyPartExamined": "BRAIN",
  "ConsistencyInfo": "N4_VE11E_LATEST_20181129",
  "ConversionSoftware": "dcm2niix",
  "ConversionSoftwareVersion": "v1.0.20201102",
  "DerivedVendorReportedEchoSpacing": 0.00049,
  "DeviceSerialNumber": "66112",
  "DwellTime": 2e-06,
  "EchoTime": 0.0272,
  "EchoTrainLength": 82,
  "EffectiveEchoSpacing": 0.00049,
  "FlipAngle": 44,
  "ImageComments": "Unaliased MB8/PE3",
  "ImageOrientationPatientDICOM": [0.99972, 0.0121716, 0.0202886, -0.0129126, 0.999239, 0.0367998],
  "ImageType": [
    "ORIGINAL",
    "PRIMARY",
    "M",
    "MB",
    "ND",
    "NORM",
    "MOSAIC"
],
  "ImagingFrequency": 123.252,
  "InPlanePhaseEncodingDirectionDICOM": "COL",
  "InstitutionAddress": "Maynard 3,Hanover,NH,US,03755",
  "InstitutionName": "Dartmouth College - PBS",
  "InstitutionalDepartmentName": "Department",
  "MRAcquisitionType": "2D",
  "MagneticFieldStrength": 3,
  "Manufacturer": "Siemens",
  "ManufacturersModelName": "Prisma",
  "Modality": "MR",
  "MultibandAccelerationFactor": 8,
  "PartialFourier": 1,
  "PatientPosition": "HFS",
  "PercentPhaseFOV": 100,
  "PercentSampling": 100,
  "PhaseEncodingDirection": "j-",
  "PhaseEncodingSteps": 82,
  "PhaseResolution": 1,
  "PixelBandwidth": 3050,
  "ProcedureStepDescription": "Wager_Wager^1076_spacetop",
  "ProtocolName": "func_run-01_task-social_acq-ap-mb8",
  "PulseSequenceDetails": "%CustomerSeq%\\cmrr_mbep2d_bold",
  "ReceiveCoilActiveElements": "HEA;HEP",
  "ReceiveCoilName": "Head_32",
  "ReconMatrixPE": 82,
  "RepetitionTime": 0.46,
  "SAR": 0.104787,
  "ScanOptions": "FS",
  "ScanningSequence": "EP",
  "SequenceName": "epfid2d1_82",
  "SequenceVariant": "SK\\SS",
  "SeriesDescription": "func_run-01_task-social_acq-ap-mb8",
  "SeriesNumber": 12,
  "ShimSetting": [4177, -7732, -7232, 587, 43, -90, -95, -7],
  "SliceThickness": 2.7,
  "SliceTiming": [0, 0.2525, 0.0625, 0.315, 0.125, 0.3775, 0.19, 0, 0.2525, 0.0625, 0.315, 0.125, 0.3775, 0.19, 0, 0.2525, 0.0625, 0.315, 0.125, 0.3775, 0.19, 0, 0.2525, 0.0625, 0.315, 0.125, 0.3775, 0.19, 0, 0.2525, 0.0625, 0.315, 0.125, 0.3775, 0.19, 0, 0.2525, 0.0625, 0.315, 0.125, 0.3775, 0.19, 0, 0.2525, 0.0625, 0.315, 0.125, 0.3775, 0.19, 0, 0.2525, 0.0625, 0.315, 0.125, 0.3775, 0.19],
  "SoftwareVersions": "syngo MR E11",
  "SpacingBetweenSlices": 2.7,
  "StationName": "AWP66112",
  "TaskName": "social",
  "TotalReadoutTime": 0.03969,
  "TxRefAmp": 252.257,
  "WipMemBlock": "d5249e95-9a63-418f-ad6b-8bc1c6215703||Sequence: R016 ve11e/master r/434b28f1; Aug  7 2019 18:53:46 by eja",
  "dcmmeta_affine": [
    [-2.682175874710083, -0.03464346006512642, 0.05352826789021492, 113.68807220458984],
    [-0.03265548497438431, 2.6808857917785645, 0.10003899782896042, -93.50882720947266],
    [0.05443291366100311, -0.09873118251562119, 2.697615146636963, -60.951210021972656],
    [0.0, 0.0, 0.0, 1.0]
],
  "dcmmeta_reorient_transform": [
    [0.0, -1.0, 0.0, 81.0],
    [1.0, 0.0, 0.0, 0.0],
    [0.0, 0.0, 1.0, 0.0],
    [0.0, 0.0, 0.0, 1.0]
],
  "dcmmeta_shape": [82, 82, 56, 872],
  "dcmmeta_slice_dim": 2,
  "dcmmeta_version": 0.6,
  "global": {
    "const": {
      "AccessionNumber": "A004215",
      "AcquisitionMatrix": [82, 0, 0, 82],
      "AngioFlag": "N",
      "BitsAllocated": 16,
      "BitsStored": 16,
      "BodyPartExamined": "BRAIN",
      "Columns": 656,
      "EchoNumbers": 1,
      "EchoTime": 27.2,
      "EchoTrainLength": 82,
      "FlipAngle": 44.0,
      "HighBit": 15,
      "ImageOrientationPatient": [0.99972007273621, 0.01217158974681, 0.0202886315789, -0.0129125622078, 0.99923923071668, 0.03679980345006],
      "ImagePositionPatient": [-870.72375126881, -902.42927001186, -112.90653282452],
      "ImageType": [
        "ORIGINAL",
        "PRIMARY",
        "M",
        "MB",
        "ND",
        "NORM",
        "MOSAIC"
],
      "ImagedNucleus": "1H",
      "ImagingFrequency": 123.252152,
      "InPlanePhaseEncodingDirection": "COL",
      "MRAcquisitionType": "2D",
      "MagneticFieldStrength": 3.0,
      "Manufacturer": "SIEMENS",
      "ManufacturerModelName": "Prisma",
      "Modality": "MR",
      "NumberOfAverages": 1.0,
      "NumberOfPhaseEncodingSteps": 82,
      "PercentPhaseFieldOfView": 100.0,
      "PercentSampling": 100.0,
      "PerformedProcedureStepStartTime": "201830.399000",
      "PhotometricInterpretation": "MONOCHROME2",
      "PixelBandwidth": 3050.0,
      "PixelRepresentation": 0,
      "PixelSpacing": [2.6829268932343, 2.6829268932343],
      "ProtocolName": "func_run-01_task-social_acq-ap-mb8",
      "RepetitionTime": 460.0,
      "Rows": 656,
      "SAR": 0.104786778663,
      "SamplesPerPixel": 1,
      "ScanOptions": "FS",
      "ScanningSequence": "EP",
      "SequenceName": "epfid2d1_82",
      "SequenceVariant": [
        "SK",
        "SS"
],
      "SeriesDescription": "func_run-01_task-social_acq-ap-mb8",
      "SeriesNumber": 12,
      "SeriesTime": "204634.737000",
      "SliceLocation": -62.108114044647,
      "SliceThickness": 2.7000000476837,
      "SmallestImagePixelValue": 0,
      "SoftwareVersions": "syngo MR E11",
      "SpacingBetweenSlices": 2.7000000077438,
      "SpecificCharacterSet": "ISO_IR 100",
      "StudyID": "1",
      "StudyTime": "201830.333000",
      "TransmitCoilName": "Body",
      "VariableFlipAngleFlag": "N",
      "WindowCenterWidthExplanation": "Algo1"
    },
    "slices": {}
  },
  "time": {
    "samples": {
      "AcquisitionNumber": [1, 2, 3, 4, 5, 6, 7, 8, 9, 10, 11, 12, 13, 14, 15, 16, 17, 18, 19, 20, 21, 22, 23, 24, 25, 26, 27, 28, 29, 30, 31, 32, 33, 34, 35, 36, 37, 38, 39, 40, 41, 42, 43, 44, 45, 46, 47, 48, 49, 50, 51, 52, 53, 54, 55, 56, 57, 58, 59, 60, 61, 62, 63, 64, 65, 66, 67, 68, 69, 70, 71, 72, 73, 74, 75, 76, 77, 78, 79, 80, 81, 82, 83, 84, 85, 86, 87, 88, 89, 90, 91, 92, 93, 94, 95, 96, 97, 98, 99, 100, 101, 102, 103, 104, 105, 106, 107, 108, 109, 110, 111, 112, 113, 114, 115, 116, 117, 118, 119, 120, 121, 122, 123, 124, 125, 126, 127, 128, 129, 130, 131, 132, 133, 134, 135, 136, 137, 138, 139, 140, 141, 142, 143, 144, 145, 146, 147, 148, 149, 150, 151, 152, 153, 154, 155, 156, 157, 158, 159, 160, 161, 162, 163, 164, 165, 166, 167, 168, 169, 170, 171, 172, 173, 174, 175, 176, 177, 178, 179, 180, 181, 182, 183, 184, 185, 186, 187, 188, 189, 190, 191, 192, 193, 194, 195, 196, 197, 198, 199, 200, 201, 202, 203, 204, 205, 206, 207, 208, 209, 210, 211, 212, 213, 214, 215, 216, 217, 218, 219, 220, 221, 222, 223, 224, 225, 226, 227, 228, 229, 230, 231, 232, 233, 234, 235, 236, 237, 238, 239, 240, 241, 242, 243, 244, 245, 246, 247, 248, 249, 250, 251, 252, 253, 254, 255, 256, 257, 258, 259, 260, 261, 262, 263, 264, 265, 266, 267, 268, 269, 270, 271, 272, 273, 274, 275, 276, 277, 278, 279, 280, 281, 282, 283, 284, 285, 286, 287, 288, 289, 290, 291, 292, 293, 294, 295, 296, 297, 298, 299, 300, 301, 302, 303, 304, 305, 306, 307, 308, 309, 310, 311, 312, 313, 314, 315, 316, 317, 318, 319, 320, 321, 322, 323, 324, 325, 326, 327, 328, 329, 330, 331, 332, 333, 334, 335, 336, 337, 338, 339, 340, 341, 342, 343, 344, 345, 346, 347, 348, 349, 350, 351, 352, 353, 354, 355, 356, 357, 358, 359, 360, 361, 362, 363, 364, 365, 366, 367, 368, 369, 370, 371, 372, 373, 374, 375, 376, 377, 378, 379, 380, 381, 382, 383, 384, 385, 386, 387, 388, 389, 390, 391, 392, 393, 394, 395, 396, 397, 398, 399, 400, 401, 402, 403, 404, 405, 406, 407, 408, 409, 410, 411, 412, 413, 414, 415, 416, 417, 418, 419, 420, 421, 422, 423, 424, 425, 426, 427, 428, 429, 430, 431, 432, 433, 434, 435, 436, 437, 438, 439, 440, 441, 442, 443, 444, 445, 446, 447, 448, 449, 450, 451, 452, 453, 454, 455, 456, 457, 458, 459, 460, 461, 462, 463, 464, 465, 466, 467, 468, 469, 470, 471, 472, 473, 474, 475, 476, 477, 478, 479, 480, 481, 482, 483, 484, 485, 486, 487, 488, 489, 490, 491, 492, 493, 494, 495, 496, 497, 498, 499, 500, 501, 502, 503, 504, 505, 506, 507, 508, 509, 510, 511, 512, 513, 514, 515, 516, 517, 518, 519, 520, 521, 522, 523, 524, 525, 526, 527, 528, 529, 530, 531, 532, 533, 534, 535, 536, 537, 538, 539, 540, 541, 542, 543, 544, 545, 546, 547, 548, 549, 550, 551, 552, 553, 554, 555, 556, 557, 558, 559, 560, 561, 562, 563, 564, 565, 566, 567, 568, 569, 570, 571, 572, 573, 574, 575, 576, 577, 578, 579, 580, 581, 582, 583, 584, 585, 586, 587, 588, 589, 590, 591, 592, 593, 594, 595, 596, 597, 598, 599, 600, 601, 602, 603, 604, 605, 606, 607, 608, 609, 610, 611, 612, 613, 614, 615, 616, 617, 618, 619, 620, 621, 622, 623, 624, 625, 626, 627, 628, 629, 630, 631, 632, 633, 634, 635, 636, 637, 638, 639, 640, 641, 642, 643, 644, 645, 646, 647, 648, 649, 650, 651, 652, 653, 654, 655, 656, 657, 658, 659, 660, 661, 662, 663, 664, 665, 666, 667, 668, 669, 670, 671, 672, 673, 674, 675, 676, 677, 678, 679, 680, 681, 682, 683, 684, 685, 686, 687, 688, 689, 690, 691, 692, 693, 694, 695, 696, 697, 698, 699, 700, 701, 702, 703, 704, 705, 706, 707, 708, 709, 710, 711, 712, 713, 714, 715, 716, 717, 718, 719, 720, 721, 722, 723, 724, 725, 726, 727, 728, 729, 730, 731, 732, 733, 734, 735, 736, 737, 738, 739, 740, 741, 742, 743, 744, 745, 746, 747, 748, 749, 750, 751, 752, 753, 754, 755, 756, 757, 758, 759, 760, 761, 762, 763, 764, 765, 766, 767, 768, 769, 770, 771, 772, 773, 774, 775, 776, 777, 778, 779, 780, 781, 782, 783, 784, 785, 786, 787, 788, 789, 790, 791, 792, 793, 794, 795, 796, 797, 798, 799, 800, 801, 802, 803, 804, 805, 806, 807, 808, 809, 810, 811, 812, 813, 814, 815, 816, 817, 818, 819, 820, 821, 822, 823, 824, 825, 826, 827, 828, 829, 830, 831, 832, 833, 834, 835, 836, 837, 838, 839, 840, 841, 842, 843, 844, 845, 846, 847, 848, 849, 850, 851, 852, 853, 854, 855, 856, 857, 858, 859, 860, 861, 862, 863, 864, 865, 866, 867, 868, 869, 870, 871, 872],
      "AcquisitionTime": ["204622.832500", "204623.292500", "204623.752500", "204624.212500", "204624.672500", "204625.132500", "204625.592500", "204626.052500", "204626.512500", "204626.972500", "204627.432500", "204627.892500", "204628.352500", "204628.812500", "204629.272500", "204629.732500", "204630.192500", "204630.652500", "204631.112500", "204631.572500", "204632.032500", "204632.492500", "204632.952500", "204633.412500", "204633.872500", "204634.332500", "204634.792500", "204635.252500", "204635.712500", "204636.172500", "204636.632500", "204637.092500", "204637.552500", "204638.012500", "204638.472500", "204638.932500", "204639.392500", "204639.852500", "204640.312500", "204640.772500", "204641.232500", "204641.692500", "204642.152500", "204642.612500", "204643.072500", "204643.532500", "204643.992500", "204644.452500", "204644.912500", "204645.372500", "204645.832500", "204646.292500", "204646.752500", "204647.212500", "204647.672500", "204648.132500", "204648.592500", "204649.052500", "204649.512500", "204649.972500", "204650.432500", "204650.892500", "204651.352500", "204651.812500", "204652.272500", "204652.732500", "204653.192500", "204653.652500", "204654.112500", "204654.572500", "204655.032500", "204655.492500", "204655.952500", "204656.412500", "204656.872500", "204657.332500", "204657.792500", "204658.252500", "204658.712500", "204659.172500", "204659.632500", "204700.092500", "204700.552500", "204701.012500", "204701.472500", "204701.932500", "204702.392500", "204702.852500", "204703.312500", "204703.772500", "204704.232500", "204704.692500", "204705.152500", "204705.612500", "204706.072500", "204706.532500", "204706.992500", "204707.452500", "204707.912500", "204708.372500", "204708.832500", "204709.292500", "204709.752500", "204710.212500", "204710.672500", "204711.132500", "204711.592500", "204712.052500", "204712.512500", "204712.972500", "204713.432500", "204713.892500", "204714.352500", "204714.812500", "204715.272500", "204715.732500", "204716.192500", "204716.652500", "204717.112500", "204717.572500", "204718.032500", "204718.492500", "204718.952500", "204719.412500", "204719.872500", "204720.332500", "204720.792500", "204721.252500", "204721.712500", "204722.172500", "204722.632500", "204723.092500", "204723.552500", "204724.012500", "204724.472500", "204724.932500", "204725.392500", "204725.852500", "204726.312500", "204726.772500", "204727.232500", "204727.692500", "204728.152500", "204728.612500", "204729.072500", "204729.532500", "204729.992500", "204730.452500", "204730.912500", "204731.372500", "204731.832500", "204732.292500", "204732.752500", "204733.212500", "204733.672500", "204734.132500", "204734.592500", "204735.052500", "204735.512500", "204735.972500", "204736.432500", "204736.892500", "204737.352500", "204737.812500", "204738.272500", "204738.732500", "204739.192500", "204739.652500", "204740.112500", "204740.572500", "204741.032500", "204741.492500", "204741.952500", "204742.412500", "204742.872500", "204743.332500", "204743.792500", "204744.252500", "204744.712500", "204745.172500", "204745.632500", "204746.092500", "204746.552500", "204747.012500", "204747.472500", "204747.932500", "204748.392500", "204748.852500", "204749.312500", "204749.772500", "204750.232500", "204750.692500", "204751.152500", "204751.612500", "204752.072500", "204752.532500", "204752.992500", "204753.452500", "204753.912500", "204754.372500", "204754.832500", "204755.292500", "204755.752500", "204756.212500", "204756.672500", "204757.132500", "204757.592500", "204758.052500", "204758.512500", "204758.972500", "204759.432500", "204759.892500", "204800.352500", "204800.812500", "204801.272500", "204801.732500", "204802.192500", "204802.652500", "204803.112500", "204803.572500", "204804.032500", "204804.492500", "204804.952500", "204805.412500", "204805.872500", "204806.332500", "204806.792500", "204807.252500", "204807.712500", "204808.172500", "204808.632500", "204809.092500", "204809.552500", "204810.012500", "204810.472500", "204810.932500", "204811.392500", "204811.852500", "204812.312500", "204812.772500", "204813.232500", "204813.692500", "204814.152500", "204814.612500", "204815.072500", "204815.532500", "204815.992500", "204816.452500", "204816.912500", "204817.372500", "204817.832500", "204818.292500", "204818.752500", "204819.212500", "204819.672500", "204820.132500", "204820.592500", "204821.052500", "204821.512500", "204821.972500", "204822.432500", "204822.892500", "204823.352500", "204823.812500", "204824.272500", "204824.732500", "204825.192500", "204825.652500", "204826.112500", "204826.572500", "204827.032500", "204827.492500", "204827.952500", "204828.412500", "204828.872500", "204829.332500", "204829.792500", "204830.252500", "204830.712500", "204831.172500", "204831.632500", "204832.092500", "204832.552500", "204833.012500", "204833.472500", "204833.932500", "204834.392500", "204834.852500", "204835.312500", "204835.772500", "204836.232500", "204836.692500", "204837.152500", "204837.612500", "204838.072500", "204838.532500", "204838.992500", "204839.452500", "204839.912500", "204840.372500", "204840.832500", "204841.292500", "204841.752500", "204842.212500", "204842.672500", "204843.132500", "204843.592500", "204844.052500", "204844.512500", "204844.972500", "204845.432500", "204845.892500", "204846.352500", "204846.812500", "204847.272500", "204847.732500", "204848.192500", "204848.652500", "204849.112500", "204849.572500", "204850.032500", "204850.492500", "204850.952500", "204851.412500", "204851.872500", "204852.332500", "204852.792500", "204853.252500", "204853.712500", "204854.172500", "204854.632500", "204855.092500", "204855.552500", "204856.012500", "204856.472500", "204856.932500", "204857.392500", "204857.852500", "204858.312500", "204858.772500", "204859.232500", "204859.692500", "204900.152500", "204900.612500", "204901.072500", "204901.532500", "204901.992500", "204902.452500", "204902.912500", "204903.372500", "204903.832500", "204904.292500", "204904.752500", "204905.212500", "204905.672500", "204906.132500", "204906.592500", "204907.052500", "204907.512500", "204907.972500", "204908.432500", "204908.892500", "204909.352500", "204909.812500", "204910.272500", "204910.732500", "204911.192500", "204911.652500", "204912.112500", "204912.572500", "204913.032500", "204913.492500", "204913.952500", "204914.412500", "204914.872500", "204915.332500", "204915.792500", "204916.252500", "204916.712500", "204917.172500", "204917.632500", "204918.092500", "204918.552500", "204919.012500", "204919.472500", "204919.932500", "204920.392500", "204920.852500", "204921.312500", "204921.772500", "204922.232500", "204922.692500", "204923.152500", "204923.612500", "204924.072500", "204924.532500", "204924.992500", "204925.452500", "204925.912500", "204926.372500", "204926.832500", "204927.292500", "204927.752500", "204928.212500", "204928.672500", "204929.132500", "204929.592500", "204930.052500", "204930.512500", "204930.972500", "204931.432500", "204931.892500", "204932.352500", "204932.812500", "204933.272500", "204933.732500", "204934.192500", "204934.652500", "204935.112500", "204935.572500", "204936.032500", "204936.492500", "204936.952500", "204937.412500", "204937.872500", "204938.332500", "204938.792500", "204939.252500", "204939.712500", "204940.172500", "204940.632500", "204941.092500", "204941.552500", "204942.012500", "204942.472500", "204942.932500", "204943.392500", "204943.852500", "204944.312500", "204944.772500", "204945.232500", "204945.692500", "204946.152500", "204946.612500", "204947.072500", "204947.532500", "204947.992500", "204948.452500", "204948.912500", "204949.372500", "204949.832500", "204950.292500", "204950.752500", "204951.212500", "204951.672500", "204952.132500", "204952.592500", "204953.052500", "204953.512500", "204953.972500", "204954.432500", "204954.892500", "204955.352500", "204955.812500", "204956.272500", "204956.732500", "204957.192500", "204957.652500", "204958.112500", "204958.572500", "204959.032500", "204959.492500", "204959.952500", "205000.412500", "205000.872500", "205001.332500", "205001.792500", "205002.252500", "205002.712500", "205003.172500", "205003.632500", "205004.092500", "205004.552500", "205005.012500", "205005.472500", "205005.932500", "205006.392500", "205006.852500", "205007.312500", "205007.772500", "205008.232500", "205008.692500", "205009.152500", "205009.612500", "205010.072500", "205010.532500", "205010.992500", "205011.452500", "205011.912500", "205012.372500", "205012.832500", "205013.292500", "205013.752500", "205014.212500", "205014.672500", "205015.132500", "205015.592500", "205016.052500", "205016.512500", "205016.972500", "205017.432500", "205017.892500", "205018.352500", "205018.812500", "205019.272500", "205019.732500", "205020.192500", "205020.652500", "205021.112500", "205021.572500", "205022.032500", "205022.492500", "205022.952500", "205023.412500", "205023.872500", "205024.332500", "205024.792500", "205025.252500", "205025.712500", "205026.172500", "205026.632500", "205027.092500", "205027.552500", "205028.012500", "205028.472500", "205028.932500", "205029.392500", "205029.852500", "205030.312500", "205030.772500", "205031.232500", "205031.692500", "205032.152500", "205032.612500", "205033.072500", "205033.532500", "205033.992500", "205034.452500", "205034.912500", "205035.372500", "205035.832500", "205036.292500", "205036.752500", "205037.212500", "205037.672500", "205038.132500", "205038.592500", "205039.052500", "205039.512500", "205039.972500", "205040.432500", "205040.892500", "205041.352500", "205041.812500", "205042.272500", "205042.732500", "205043.192500", "205043.652500", "205044.112500", "205044.572500", "205045.032500", "205045.492500", "205045.952500", "205046.412500", "205046.872500", "205047.332500", "205047.792500", "205048.252500", "205048.712500", "205049.172500", "205049.632500", "205050.092500", "205050.552500", "205051.012500", "205051.472500", "205051.932500", "205052.392500", "205052.852500", "205053.312500", "205053.772500", "205054.232500", "205054.692500", "205055.152500", "205055.612500", "205056.072500", "205056.532500", "205056.992500", "205057.452500", "205057.912500", "205058.372500", "205058.832500", "205059.292500", "205059.752500", "205100.212500", "205100.672500", "205101.132500", "205101.592500", "205102.052500", "205102.512500", "205102.972500", "205103.432500", "205103.892500", "205104.352500", "205104.812500", "205105.272500", "205105.732500", "205106.192500", "205106.652500", "205107.112500", "205107.572500", "205108.032500", "205108.492500", "205108.952500", "205109.412500", "205109.872500", "205110.332500", "205110.792500", "205111.252500", "205111.712500", "205112.172500", "205112.632500", "205113.092500", "205113.552500", "205114.012500", "205114.472500", "205114.932500", "205115.392500", "205115.852500", "205116.312500", "205116.772500", "205117.232500", "205117.692500", "205118.152500", "205118.612500", "205119.072500", "205119.532500", "205119.992500", "205120.452500", "205120.912500", "205121.372500", "205121.832500", "205122.292500", "205122.752500", "205123.212500", "205123.672500", "205124.132500", "205124.592500", "205125.052500", "205125.512500", "205125.972500", "205126.432500", "205126.892500", "205127.352500", "205127.812500", "205128.272500", "205128.732500", "205129.192500", "205129.652500", "205130.112500", "205130.572500", "205131.032500", "205131.492500", "205131.952500", "205132.412500", "205132.872500", "205133.332500", "205133.792500", "205134.252500", "205134.712500", "205135.172500", "205135.632500", "205136.092500", "205136.552500", "205137.012500", "205137.472500", "205137.932500", "205138.392500", "205138.852500", "205139.312500", "205139.772500", "205140.232500", "205140.692500", "205141.152500", "205141.612500", "205142.072500", "205142.532500", "205142.992500", "205143.452500", "205143.912500", "205144.372500", "205144.832500", "205145.292500", "205145.752500", "205146.212500", "205146.672500", "205147.132500", "205147.592500", "205148.052500", "205148.512500", "205148.972500", "205149.432500", "205149.892500", "205150.352500", "205150.812500", "205151.272500", "205151.732500", "205152.192500", "205152.652500", "205153.112500", "205153.572500", "205154.032500", "205154.492500", "205154.952500", "205155.412500", "205155.872500", "205156.332500", "205156.792500", "205157.252500", "205157.712500", "205158.172500", "205158.632500", "205159.092500", "205159.552500", "205200.012500", "205200.472500", "205200.932500", "205201.392500", "205201.852500", "205202.312500", "205202.772500", "205203.232500", "205203.692500", "205204.152500", "205204.612500", "205205.072500", "205205.532500", "205205.992500", "205206.452500", "205206.912500", "205207.372500", "205207.832500", "205208.292500", "205208.752500", "205209.212500", "205209.672500", "205210.132500", "205210.592500", "205211.052500", "205211.512500", "205211.972500", "205212.432500", "205212.892500", "205213.352500", "205213.812500", "205214.272500", "205214.732500", "205215.192500", "205215.652500", "205216.112500", "205216.572500", "205217.032500", "205217.492500", "205217.952500", "205218.412500", "205218.872500", "205219.332500", "205219.792500", "205220.252500", "205220.712500", "205221.172500", "205221.632500", "205222.092500", "205222.552500", "205223.012500", "205223.472500", "205223.932500", "205224.392500", "205224.852500", "205225.312500", "205225.772500", "205226.232500", "205226.692500", "205227.152500", "205227.612500", "205228.072500", "205228.532500", "205228.992500", "205229.452500", "205229.912500", "205230.372500", "205230.832500", "205231.292500", "205231.752500", "205232.212500", "205232.672500", "205233.132500", "205233.592500", "205234.052500", "205234.512500", "205234.972500", "205235.432500", "205235.892500", "205236.352500", "205236.812500", "205237.272500", "205237.732500", "205238.192500", "205238.652500", "205239.112500", "205239.572500", "205240.032500", "205240.492500", "205240.952500", "205241.412500", "205241.872500", "205242.332500", "205242.792500", "205243.252500", "205243.712500", "205244.172500", "205244.632500", "205245.092500", "205245.552500", "205246.012500", "205246.472500", "205246.932500", "205247.392500", "205247.852500", "205248.312500", "205248.772500", "205249.232500", "205249.692500", "205250.152500", "205250.612500", "205251.072500", "205251.532500", "205251.992500", "205252.452500", "205252.912500", "205253.372500", "205253.832500", "205254.292500", "205254.752500", "205255.212500", "205255.672500", "205256.132500", "205256.592500", "205257.052500", "205257.512500", "205257.972500", "205258.432500", "205258.892500", "205259.352500", "205259.812500", "205300.272500", "205300.732500", "205301.192500", "205301.652500", "205302.112500", "205302.572500", "205303.032500", "205303.492500"],
