{
  "AcquisitionMatrixPE": 82,
  "AcquisitionNumber": 1,
  "AcquisitionTime": "19:08:13.002500",
  "BandwidthPerPixelPhaseEncode": 24.888,
  "BaseResolution": 82,
  "BodyPartExamined": "BRAIN",
  "ConsistencyInfo": "N4_VE11E_LATEST_20181129",
  "ConversionSoftware": "dcm2niix",
  "ConversionSoftwareVersion": "v1.0.20201102",
  "DerivedVendorReportedEchoSpacing": 0.00049,
  "DeviceSerialNumber": "66112",
  "DwellTime": 2e-06,
  "EchoTime": 0.0272,
  "EchoTrainLength": 82,
  "EffectiveEchoSpacing": 0.00049,
  "FlipAngle": 44,
  "ImageComments": "Unaliased MB8/PE3",
  "ImageOrientationPatientDICOM": [0.999247, -0.00475115, 0.0385139, 0.00470886, 0.999988, 0.00118865],
  "ImageType": [
    "ORIGINAL",
    "PRIMARY",
    "M",
    "MB",
    "ND",
    "NORM",
    "MOSAIC"
],
  "ImagingFrequency": 123.259,
  "InPlanePhaseEncodingDirectionDICOM": "COL",
  "InstitutionAddress": "Maynard 3,Hanover,NH,US,03755",
  "InstitutionName": "Dartmouth College - PBS",
  "InstitutionalDepartmentName": "Department",
  "MRAcquisitionType": "2D",
  "MagneticFieldStrength": 3,
  "Manufacturer": "Siemens",
  "ManufacturersModelName": "Prisma",
  "Modality": "MR",
  "MultibandAccelerationFactor": 8,
  "PartialFourier": 1,
  "PatientPosition": "HFS",
  "PercentPhaseFOV": 100,
  "PercentSampling": 100,
  "PhaseEncodingDirection": "j-",
  "PhaseEncodingSteps": 82,
  "PhaseResolution": 1,
  "PixelBandwidth": 3050,
  "ProcedureStepDescription": "Wager_Wager^1076_spacetop",
  "ProtocolName": "func_run-03_task-social_acq-ap-mb8",
  "PulseSequenceDetails": "%CustomerSeq%\\cmrr_mbep2d_bold",
  "ReceiveCoilActiveElements": "HEA;HEP",
  "ReceiveCoilName": "Head_32",
  "ReconMatrixPE": 82,
  "RepetitionTime": 0.46,
  "SAR": 0.126362,
  "ScanOptions": "FS",
  "ScanningSequence": "EP",
  "SequenceName": "epfid2d1_82",
  "SequenceVariant": "SK\\SS",
  "SeriesDescription": "func_run-03_task-social_acq-ap-mb8",
  "SeriesNumber": 16,
  "ShimSetting": [4214, -7778, -7261, 213, -166, -118, -44, 54],
  "SliceThickness": 2.7,
  "SliceTiming": [0, 0.2525, 0.065, 0.315, 0.1275, 0.3775, 0.19, 0, 0.2525, 0.065, 0.315, 0.1275, 0.3775, 0.19, 0, 0.2525, 0.065, 0.315, 0.1275, 0.3775, 0.19, 0, 0.2525, 0.065, 0.315, 0.1275, 0.3775, 0.19, 0, 0.2525, 0.065, 0.315, 0.1275, 0.3775, 0.19, 0, 0.2525, 0.065, 0.315, 0.1275, 0.3775, 0.19, 0, 0.2525, 0.065, 0.315, 0.1275, 0.3775, 0.19, 0, 0.2525, 0.065, 0.315, 0.1275, 0.3775, 0.19],
  "SoftwareVersions": "syngo MR E11",
  "SpacingBetweenSlices": 2.7,
  "StationName": "AWP66112",
  "TaskName": "social",
  "TotalReadoutTime": 0.03969,
  "TxRefAmp": 283.487,
  "WipMemBlock": "87263791-85a2-4b91-a5d1-475ef652ee8a||Sequence: R016 ve11e/master r/434b28f1; Aug  7 2019 18:53:46 by eja",
  "dcmmeta_affine": [
    [-2.680906057357788, 0.01263353694230318, 0.10400142520666122, 109.97582244873047],
    [0.012746994383633137, 2.6828951835632324, 0.002717273775488138, -91.49797058105469],
    [0.1033298522233963, -0.0031890596728771925, 2.6979949474334717, -69.73649597167969],
    [0.0, 0.0, 0.0, 1.0]
],
  "dcmmeta_reorient_transform": [
    [0.0, -1.0, 0.0, 81.0],
    [1.0, 0.0, 0.0, 0.0],
    [0.0, 0.0, 1.0, 0.0],
    [0.0, 0.0, 0.0, 1.0]
],
  "dcmmeta_shape": [82, 82, 56, 872],
  "dcmmeta_slice_dim": 2,
  "dcmmeta_version": 0.6,
  "global": {
    "const": {
      "AccessionNumber": "A004368",
      "AcquisitionMatrix": [82, 0, 0, 82],
      "AngioFlag": "N",
      "BitsAllocated": 16,
      "BitsStored": 16,
      "BodyPartExamined": "BRAIN",
      "Columns": 656,
      "EchoNumbers": 1,
      "EchoTime": 27.2,
      "EchoTrainLength": 82,
      "FlipAngle": 44.0,
      "HighBit": 15,
      "ImageOrientationPatient": [0.999246771127, -0.004751152224, 0.03851385393345, 0.00470886357117, 0.99998820678857, 0.00118864950795],
      "ImagePositionPatient": [-884.04499671524, -892.149092536, -100.56573682041],
      "ImageType": [
        "ORIGINAL",
        "PRIMARY",
        "M",
        "MB",
        "ND",
        "NORM",
        "MOSAIC"
],
      "ImagedNucleus": "1H",
      "ImagingFrequency": 123.259098,
      "InPlanePhaseEncodingDirection": "COL",
      "MRAcquisitionType": "2D",
      "MagneticFieldStrength": 3.0,
      "Manufacturer": "SIEMENS",
      "ManufacturerModelName": "Prisma",
      "Modality": "MR",
      "NumberOfAverages": 1.0,
      "NumberOfPhaseEncodingSteps": 82,
      "PercentPhaseFieldOfView": 100.0,
      "PercentSampling": 100.0,
      "PerformedProcedureStepStartTime": "182153.808000",
      "PhotometricInterpretation": "MONOCHROME2",
      "PixelBandwidth": 3050.0,
      "PixelRepresentation": 0,
      "PixelSpacing": [2.6829268932343, 2.6829268932343],
      "ProtocolName": "func_run-03_task-social_acq-ap-mb8",
      "RepetitionTime": 460.0,
      "Rows": 656,
      "SAR": 0.1263623972816,
      "SamplesPerPixel": 1,
      "ScanOptions": "FS",
      "ScanningSequence": "EP",
      "SequenceName": "epfid2d1_82",
      "SequenceVariant": [
        "SK",
        "SS"
],
      "SeriesDescription": "func_run-03_task-social_acq-ap-mb8",
      "SeriesNumber": 16,
      "SeriesTime": "190833.077000",
      "SliceLocation": -65.540624876735,
      "SliceThickness": 2.7000000476837,
      "SmallestImagePixelValue": 0,
      "SoftwareVersions": "syngo MR E11",
      "SpacingBetweenSlices": 2.699999985999,
      "SpecificCharacterSet": "ISO_IR 100",
      "StudyID": "1",
      "StudyTime": "182153.680000",
      "TransmitCoilName": "Body",
      "VariableFlipAngleFlag": "N",
      "WindowCenterWidthExplanation": "Algo1"
    },
    "slices": {}
  },
  "time": {
    "samples": {
      "AcquisitionNumber": [1, 2, 3, 4, 5, 6, 7, 8, 9, 10, 11, 12, 13, 14, 15, 16, 17, 18, 19, 20, 21, 22, 23, 24, 25, 26, 27, 28, 29, 30, 31, 32, 33, 34, 35, 36, 37, 38, 39, 40, 41, 42, 43, 44, 45, 46, 47, 48, 49, 50, 51, 52, 53, 54, 55, 56, 57, 58, 59, 60, 61, 62, 63, 64, 65, 66, 67, 68, 69, 70, 71, 72, 73, 74, 75, 76, 77, 78, 79, 80, 81, 82, 83, 84, 85, 86, 87, 88, 89, 90, 91, 92, 93, 94, 95, 96, 97, 98, 99, 100, 101, 102, 103, 104, 105, 106, 107, 108, 109, 110, 111, 112, 113, 114, 115, 116, 117, 118, 119, 120, 121, 122, 123, 124, 125, 126, 127, 128, 129, 130, 131, 132, 133, 134, 135, 136, 137, 138, 139, 140, 141, 142, 143, 144, 145, 146, 147, 148, 149, 150, 151, 152, 153, 154, 155, 156, 157, 158, 159, 160, 161, 162, 163, 164, 165, 166, 167, 168, 169, 170, 171, 172, 173, 174, 175, 176, 177, 178, 179, 180, 181, 182, 183, 184, 185, 186, 187, 188, 189, 190, 191, 192, 193, 194, 195, 196, 197, 198, 199, 200, 201, 202, 203, 204, 205, 206, 207, 208, 209, 210, 211, 212, 213, 214, 215, 216, 217, 218, 219, 220, 221, 222, 223, 224, 225, 226, 227, 228, 229, 230, 231, 232, 233, 234, 235, 236, 237, 238, 239, 240, 241, 242, 243, 244, 245, 246, 247, 248, 249, 250, 251, 252, 253, 254, 255, 256, 257, 258, 259, 260, 261, 262, 263, 264, 265, 266, 267, 268, 269, 270, 271, 272, 273, 274, 275, 276, 277, 278, 279, 280, 281, 282, 283, 284, 285, 286, 287, 288, 289, 290, 291, 292, 293, 294, 295, 296, 297, 298, 299, 300, 301, 302, 303, 304, 305, 306, 307, 308, 309, 310, 311, 312, 313, 314, 315, 316, 317, 318, 319, 320, 321, 322, 323, 324, 325, 326, 327, 328, 329, 330, 331, 332, 333, 334, 335, 336, 337, 338, 339, 340, 341, 342, 343, 344, 345, 346, 347, 348, 349, 350, 351, 352, 353, 354, 355, 356, 357, 358, 359, 360, 361, 362, 363, 364, 365, 366, 367, 368, 369, 370, 371, 372, 373, 374, 375, 376, 377, 378, 379, 380, 381, 382, 383, 384, 385, 386, 387, 388, 389, 390, 391, 392, 393, 394, 395, 396, 397, 398, 399, 400, 401, 402, 403, 404, 405, 406, 407, 408, 409, 410, 411, 412, 413, 414, 415, 416, 417, 418, 419, 420, 421, 422, 423, 424, 425, 426, 427, 428, 429, 430, 431, 432, 433, 434, 435, 436, 437, 438, 439, 440, 441, 442, 443, 444, 445, 446, 447, 448, 449, 450, 451, 452, 453, 454, 455, 456, 457, 458, 459, 460, 461, 462, 463, 464, 465, 466, 467, 468, 469, 470, 471, 472, 473, 474, 475, 476, 477, 478, 479, 480, 481, 482, 483, 484, 485, 486, 487, 488, 489, 490, 491, 492, 493, 494, 495, 496, 497, 498, 499, 500, 501, 502, 503, 504, 505, 506, 507, 508, 509, 510, 511, 512, 513, 514, 515, 516, 517, 518, 519, 520, 521, 522, 523, 524, 525, 526, 527, 528, 529, 530, 531, 532, 533, 534, 535, 536, 537, 538, 539, 540, 541, 542, 543, 544, 545, 546, 547, 548, 549, 550, 551, 552, 553, 554, 555, 556, 557, 558, 559, 560, 561, 562, 563, 564, 565, 566, 567, 568, 569, 570, 571, 572, 573, 574, 575, 576, 577, 578, 579, 580, 581, 582, 583, 584, 585, 586, 587, 588, 589, 590, 591, 592, 593, 594, 595, 596, 597, 598, 599, 600, 601, 602, 603, 604, 605, 606, 607, 608, 609, 610, 611, 612, 613, 614, 615, 616, 617, 618, 619, 620, 621, 622, 623, 624, 625, 626, 627, 628, 629, 630, 631, 632, 633, 634, 635, 636, 637, 638, 639, 640, 641, 642, 643, 644, 645, 646, 647, 648, 649, 650, 651, 652, 653, 654, 655, 656, 657, 658, 659, 660, 661, 662, 663, 664, 665, 666, 667, 668, 669, 670, 671, 672, 673, 674, 675, 676, 677, 678, 679, 680, 681, 682, 683, 684, 685, 686, 687, 688, 689, 690, 691, 692, 693, 694, 695, 696, 697, 698, 699, 700, 701, 702, 703, 704, 705, 706, 707, 708, 709, 710, 711, 712, 713, 714, 715, 716, 717, 718, 719, 720, 721, 722, 723, 724, 725, 726, 727, 728, 729, 730, 731, 732, 733, 734, 735, 736, 737, 738, 739, 740, 741, 742, 743, 744, 745, 746, 747, 748, 749, 750, 751, 752, 753, 754, 755, 756, 757, 758, 759, 760, 761, 762, 763, 764, 765, 766, 767, 768, 769, 770, 771, 772, 773, 774, 775, 776, 777, 778, 779, 780, 781, 782, 783, 784, 785, 786, 787, 788, 789, 790, 791, 792, 793, 794, 795, 796, 797, 798, 799, 800, 801, 802, 803, 804, 805, 806, 807, 808, 809, 810, 811, 812, 813, 814, 815, 816, 817, 818, 819, 820, 821, 822, 823, 824, 825, 826, 827, 828, 829, 830, 831, 832, 833, 834, 835, 836, 837, 838, 839, 840, 841, 842, 843, 844, 845, 846, 847, 848, 849, 850, 851, 852, 853, 854, 855, 856, 857, 858, 859, 860, 861, 862, 863, 864, 865, 866, 867, 868, 869, 870, 871, 872],
      "AcquisitionTime": ["190813.002500", "190813.462500", "190813.922500", "190814.382500", "190814.842500", "190815.302500", "190815.762500", "190816.222500", "190816.682500", "190817.142500", "190817.602500", "190818.062500", "190818.522500", "190818.982500", "190819.442500", "190819.902500", "190820.362500", "190820.822500", "190821.282500", "190821.742500", "190822.202500", "190822.662500", "190823.122500", "190823.582500", "190824.042500", "190824.502500", "190824.962500", "190825.422500", "190825.882500", "190826.342500", "190826.802500", "190827.262500", "190827.722500", "190828.182500", "190828.642500", "190829.102500", "190829.562500", "190830.022500", "190830.482500", "190830.942500", "190831.402500", "190831.862500", "190832.322500", "190832.782500", "190833.242500", "190833.702500", "190834.162500", "190834.622500", "190835.082500", "190835.542500", "190836.002500", "190836.462500", "190836.922500", "190837.382500", "190837.842500", "190838.302500", "190838.762500", "190839.222500", "190839.682500", "190840.142500", "190840.602500", "190841.062500", "190841.522500", "190841.982500", "190842.442500", "190842.902500", "190843.362500", "190843.822500", "190844.282500", "190844.742500", "190845.202500", "190845.662500", "190846.122500", "190846.582500", "190847.042500", "190847.502500", "190847.962500", "190848.422500", "190848.882500", "190849.342500", "190849.802500", "190850.262500", "190850.722500", "190851.182500", "190851.642500", "190852.102500", "190852.562500", "190853.022500", "190853.482500", "190853.942500", "190854.402500", "190854.862500", "190855.322500", "190855.782500", "190856.242500", "190856.702500", "190857.162500", "190857.622500", "190858.082500", "190858.542500", "190859.002500", "190859.462500", "190859.922500", "190900.382500", "190900.842500", "190901.302500", "190901.762500", "190902.222500", "190902.682500", "190903.142500", "190903.602500", "190904.062500", "190904.522500", "190904.982500", "190905.442500", "190905.902500", "190906.362500", "190906.822500", "190907.282500", "190907.742500", "190908.202500", "190908.662500", "190909.122500", "190909.582500", "190910.042500", "190910.502500", "190910.962500", "190911.422500", "190911.882500", "190912.342500", "190912.802500", "190913.262500", "190913.722500", "190914.182500", "190914.642500", "190915.102500", "190915.562500", "190916.022500", "190916.482500", "190916.942500", "190917.402500", "190917.862500", "190918.322500", "190918.782500", "190919.242500", "190919.702500", "190920.162500", "190920.622500", "190921.082500", "190921.542500", "190922.002500", "190922.462500", "190922.922500", "190923.382500", "190923.842500", "190924.302500", "190924.762500", "190925.222500", "190925.682500", "190926.142500", "190926.602500", "190927.062500", "190927.522500", "190927.982500", "190928.442500", "190928.902500", "190929.362500", "190929.822500", "190930.282500", "190930.742500", "190931.202500", "190931.662500", "190932.122500", "190932.582500", "190933.042500", "190933.502500", "190933.962500", "190934.422500", "190934.882500", "190935.342500", "190935.802500", "190936.262500", "190936.722500", "190937.182500", "190937.642500", "190938.102500", "190938.562500", "190939.022500", "190939.482500", "190939.942500", "190940.402500", "190940.862500", "190941.322500", "190941.782500", "190942.242500", "190942.702500", "190943.162500", "190943.622500", "190944.082500", "190944.542500", "190945.002500", "190945.462500", "190945.922500", "190946.382500", "190946.842500", "190947.302500", "190947.762500", "190948.222500", "190948.682500", "190949.142500", "190949.602500", "190950.062500", "190950.522500", "190950.982500", "190951.442500", "190951.902500", "190952.362500", "190952.822500", "190953.282500", "190953.742500", "190954.202500", "190954.662500", "190955.122500", "190955.582500", "190956.042500", "190956.502500", "190956.962500", "190957.422500", "190957.882500", "190958.342500", "190958.802500", "190959.262500", "190959.722500", "191000.182500", "191000.642500", "191001.102500", "191001.562500", "191002.022500", "191002.482500", "191002.942500", "191003.402500", "191003.862500", "191004.322500", "191004.782500", "191005.242500", "191005.702500", "191006.162500", "191006.622500", "191007.082500", "191007.542500", "191008.002500", "191008.462500", "191008.922500", "191009.382500", "191009.842500", "191010.302500", "191010.762500", "191011.222500", "191011.682500", "191012.142500", "191012.602500", "191013.062500", "191013.522500", "191013.982500", "191014.442500", "191014.902500", "191015.362500", "191015.822500", "191016.282500", "191016.742500", "191017.202500", "191017.662500", "191018.122500", "191018.582500", "191019.042500", "191019.502500", "191019.962500", "191020.422500", "191020.882500", "191021.342500", "191021.802500", "191022.262500", "191022.722500", "191023.182500", "191023.642500", "191024.102500", "191024.562500", "191025.022500", "191025.482500", "191025.942500", "191026.402500", "191026.862500", "191027.322500", "191027.782500", "191028.242500", "191028.702500", "191029.162500", "191029.622500", "191030.082500", "191030.542500", "191031.002500", "191031.462500", "191031.922500", "191032.382500", "191032.842500", "191033.302500", "191033.762500", "191034.222500", "191034.682500", "191035.142500", "191035.602500", "191036.062500", "191036.522500", "191036.982500", "191037.442500", "191037.902500", "191038.362500", "191038.822500", "191039.282500", "191039.742500", "191040.202500", "191040.662500", "191041.122500", "191041.582500", "191042.042500", "191042.502500", "191042.962500", "191043.422500", "191043.882500", "191044.342500", "191044.802500", "191045.262500", "191045.722500", "191046.182500", "191046.642500", "191047.102500", "191047.562500", "191048.022500", "191048.482500", "191048.942500", "191049.402500", "191049.862500", "191050.322500", "191050.782500", "191051.242500", "191051.702500", "191052.162500", "191052.622500", "191053.082500", "191053.542500", "191054.002500", "191054.462500", "191054.922500", "191055.382500", "191055.842500", "191056.302500", "191056.762500", "191057.222500", "191057.682500", "191058.142500", "191058.602500", "191059.062500", "191059.522500", "191059.982500", "191100.442500", "191100.902500", "191101.362500", "191101.822500", "191102.282500", "191102.742500", "191103.202500", "191103.662500", "191104.122500", "191104.582500", "191105.042500", "191105.502500", "191105.962500", "191106.422500", "191106.882500", "191107.342500", "191107.802500", "191108.262500", "191108.722500", "191109.182500", "191109.642500", "191110.102500", "191110.562500", "191111.022500", "191111.482500", "191111.942500", "191112.402500", "191112.862500", "191113.322500", "191113.782500", "191114.242500", "191114.702500", "191115.162500", "191115.622500", "191116.082500", "191116.542500", "191117.002500", "191117.462500", "191117.922500", "191118.382500", "191118.842500", "191119.302500", "191119.762500", "191120.222500", "191120.682500", "191121.142500", "191121.602500", "191122.062500", "191122.522500", "191122.982500", "191123.442500", "191123.902500", "191124.362500", "191124.822500", "191125.282500", "191125.742500", "191126.202500", "191126.662500", "191127.122500", "191127.582500", "191128.042500", "191128.502500", "191128.962500", "191129.422500", "191129.882500", "191130.342500", "191130.802500", "191131.262500", "191131.722500", "191132.182500", "191132.642500", "191133.102500", "191133.562500", "191134.022500", "191134.482500", "191134.942500", "191135.402500", "191135.862500", "191136.322500", "191136.782500", "191137.242500", "191137.702500", "191138.162500", "191138.622500", "191139.082500", "191139.542500", "191140.002500", "191140.462500", "191140.922500", "191141.382500", "191141.842500", "191142.302500", "191142.762500", "191143.222500", "191143.682500", "191144.142500", "191144.602500", "191145.062500", "191145.522500", "191145.982500", "191146.442500", "191146.902500", "191147.362500", "191147.822500", "191148.282500", "191148.742500", "191149.202500", "191149.662500", "191150.122500", "191150.582500", "191151.042500", "191151.502500", "191151.962500", "191152.422500", "191152.882500", "191153.342500", "191153.802500", "191154.262500", "191154.722500", "191155.182500", "191155.642500", "191156.102500", "191156.562500", "191157.022500", "191157.482500", "191157.942500", "191158.402500", "191158.862500", "191159.322500", "191159.782500", "191200.242500", "191200.702500", "191201.162500", "191201.622500", "191202.082500", "191202.542500", "191203.002500", "191203.462500", "191203.922500", "191204.382500", "191204.842500", "191205.302500", "191205.762500", "191206.222500", "191206.682500", "191207.142500", "191207.602500", "191208.062500", "191208.522500", "191208.982500", "191209.442500", "191209.902500", "191210.362500", "191210.822500", "191211.282500", "191211.742500", "191212.202500", "191212.662500", "191213.122500", "191213.582500", "191214.042500", "191214.502500", "191214.962500", "191215.422500", "191215.882500", "191216.342500", "191216.802500", "191217.262500", "191217.722500", "191218.182500", "191218.642500", "191219.102500", "191219.562500", "191220.022500", "191220.482500", "191220.942500", "191221.402500", "191221.862500", "191222.322500", "191222.782500", "191223.242500", "191223.702500", "191224.162500", "191224.622500", "191225.082500", "191225.542500", "191226.002500", "191226.462500", "191226.922500", "191227.382500", "191227.842500", "191228.302500", "191228.762500", "191229.222500", "191229.682500", "191230.142500", "191230.602500", "191231.062500", "191231.522500", "191231.982500", "191232.442500", "191232.902500", "191233.362500", "191233.822500", "191234.282500", "191234.742500", "191235.202500", "191235.662500", "191236.122500", "191236.582500", "191237.042500", "191237.502500", "191237.962500", "191238.422500", "191238.882500", "191239.342500", "191239.802500", "191240.262500", "191240.722500", "191241.182500", "191241.642500", "191242.102500", "191242.562500", "191243.022500", "191243.482500", "191243.942500", "191244.402500", "191244.862500", "191245.322500", "191245.782500", "191246.242500", "191246.702500", "191247.162500", "191247.622500", "191248.082500", "191248.542500", "191249.002500", "191249.462500", "191249.922500", "191250.382500", "191250.842500", "191251.302500", "191251.762500", "191252.222500", "191252.682500", "191253.142500", "191253.602500", "191254.062500", "191254.522500", "191254.982500", "191255.442500", "191255.902500", "191256.362500", "191256.822500", "191257.282500", "191257.742500", "191258.202500", "191258.662500", "191259.122500", "191259.582500", "191300.042500", "191300.502500", "191300.962500", "191301.422500", "191301.882500", "191302.342500", "191302.802500", "191303.262500", "191303.722500", "191304.182500", "191304.642500", "191305.102500", "191305.562500", "191306.022500", "191306.482500", "191306.942500", "191307.402500", "191307.862500", "191308.322500", "191308.782500", "191309.242500", "191309.702500", "191310.162500", "191310.622500", "191311.082500", "191311.542500", "191312.002500", "191312.462500", "191312.922500", "191313.382500", "191313.842500", "191314.302500", "191314.762500", "191315.222500", "191315.682500", "191316.142500", "191316.602500", "191317.062500", "191317.522500", "191317.982500", "191318.442500", "191318.902500", "191319.362500", "191319.822500", "191320.282500", "191320.742500", "191321.202500", "191321.662500", "191322.122500", "191322.582500", "191323.042500", "191323.502500", "191323.962500", "191324.422500", "191324.882500", "191325.342500", "191325.802500", "191326.262500", "191326.722500", "191327.182500", "191327.642500", "191328.102500", "191328.562500", "191329.022500", "191329.482500", "191329.942500", "191330.402500", "191330.862500", "191331.322500", "191331.782500", "191332.242500", "191332.702500", "191333.162500", "191333.622500", "191334.082500", "191334.542500", "191335.002500", "191335.462500", "191335.922500", "191336.382500", "191336.842500", "191337.302500", "191337.762500", "191338.222500", "191338.682500", "191339.142500", "191339.602500", "191340.062500", "191340.522500", "191340.982500", "191341.442500", "191341.902500", "191342.362500", "191342.822500", "191343.282500", "191343.742500", "191344.202500", "191344.662500", "191345.122500", "191345.582500", "191346.042500", "191346.502500", "191346.962500", "191347.422500", "191347.882500", "191348.342500", "191348.802500", "191349.262500", "191349.722500", "191350.182500", "191350.642500", "191351.102500", "191351.562500", "191352.022500", "191352.482500", "191352.942500", "191353.402500", "191353.862500", "191354.322500", "191354.782500", "191355.242500", "191355.702500", "191356.162500", "191356.622500", "191357.082500", "191357.542500", "191358.002500", "191358.462500", "191358.922500", "191359.382500", "191359.842500", "191400.302500", "191400.762500", "191401.222500", "191401.682500", "191402.142500", "191402.602500", "191403.062500", "191403.522500", "191403.982500", "191404.442500", "191404.902500", "191405.362500", "191405.822500", "191406.282500", "191406.742500", "191407.202500", "191407.662500", "191408.122500", "191408.582500", "191409.042500", "191409.502500", "191409.962500", "191410.422500", "191410.882500", "191411.342500", "191411.802500", "191412.262500", "191412.722500", "191413.182500", "191413.642500", "191414.102500", "191414.562500", "191415.022500", "191415.482500", "191415.942500", "191416.402500", "191416.862500", "191417.322500", "191417.782500", "191418.242500", "191418.702500", "191419.162500", "191419.622500", "191420.082500", "191420.542500", "191421.002500", "191421.462500", "191421.922500", "191422.382500", "191422.842500", "191423.302500", "191423.762500", "191424.222500", "191424.682500", "191425.142500", "191425.602500", "191426.062500", "191426.522500", "191426.982500", "191427.442500", "191427.902500", "191428.362500", "191428.822500", "191429.282500", "191429.742500", "191430.202500", "191430.662500", "191431.122500", "191431.582500", "191432.042500", "191432.502500", "191432.962500", "191433.422500", "191433.882500", "191434.342500", "191434.802500", "191435.262500", "191435.722500", "191436.182500", "191436.642500", "191437.102500", "191437.562500", "191438.022500", "191438.482500", "191438.942500", "191439.402500", "191439.862500", "191440.322500", "191440.782500", "191441.242500", "191441.702500", "191442.162500", "191442.622500", "191443.082500", "191443.542500", "191444.002500", "191444.462500", "191444.922500", "191445.382500", "191445.842500", "191446.302500", "191446.762500", "191447.222500", "191447.682500", "191448.142500", "191448.602500", "191449.062500", "191449.522500", "191449.982500", "191450.442500", "191450.902500", "191451.362500", "191451.822500", "191452.282500", "191452.742500", "191453.202500", "191453.662500"],
