{
  "AcquisitionMatrixPE": 82,
  "AcquisitionNumber": 1,
  "AcquisitionTime": "19:23:17.697500",
  "BandwidthPerPixelPhaseEncode": 24.888,
  "BaseResolution": 82,
  "BodyPartExamined": "BRAIN",
  "ConsistencyInfo": "N4_VE11E_LATEST_20181129",
  "ConversionSoftware": "dcm2niix",
  "ConversionSoftwareVersion": "v1.0.20201102",
  "DerivedVendorReportedEchoSpacing": 0.00049,
  "DeviceSerialNumber": "66112",
  "DwellTime": 2e-06,
  "EchoTime": 0.0272,
  "EchoTrainLength": 82,
  "EffectiveEchoSpacing": 0.00049,
  "FlipAngle": 44,
  "ImageComments": "Unaliased MB8/PE3",
  "ImageOrientationPatientDICOM": [0.999247, -0.00475115, 0.0385139, 0.00470886, 0.999988, 0.00118865],
  "ImageType": [
    "ORIGINAL",
    "PRIMARY",
    "M",
    "MB",
    "ND",
    "NORM",
    "MOSAIC"
],
  "ImagingFrequency": 123.259,
  "InPlanePhaseEncodingDirectionDICOM": "COL",
  "InstitutionAddress": "Maynard 3,Hanover,NH,US,03755",
  "InstitutionName": "Dartmouth College - PBS",
  "InstitutionalDepartmentName": "Department",
  "MRAcquisitionType": "2D",
  "MagneticFieldStrength": 3,
  "Manufacturer": "Siemens",
  "ManufacturersModelName": "Prisma",
  "Modality": "MR",
  "MultibandAccelerationFactor": 8,
  "PartialFourier": 1,
  "PatientPosition": "HFS",
  "PercentPhaseFOV": 100,
  "PercentSampling": 100,
  "PhaseEncodingDirection": "j-",
  "PhaseEncodingSteps": 82,
  "PhaseResolution": 1,
  "PixelBandwidth": 3050,
  "ProcedureStepDescription": "Wager_Wager^1076_spacetop",
  "ProtocolName": "func_run-05_task-social_acq-ap-mb8",
  "PulseSequenceDetails": "%CustomerSeq%\\cmrr_mbep2d_bold",
  "ReceiveCoilActiveElements": "HEA;HEP",
  "ReceiveCoilName": "Head_32",
  "ReconMatrixPE": 82,
  "RepetitionTime": 0.46,
  "SAR": 0.126362,
  "ScanOptions": "FS",
  "ScanningSequence": "EP",
  "SequenceName": "epfid2d1_82",
  "SequenceVariant": "SK\\SS",
  "SeriesDescription": "func_run-05_task-social_acq-ap-mb8",
  "SeriesNumber": 20,
  "ShimSetting": [4214, -7778, -7261, 213, -166, -118, -44, 54],
  "SliceThickness": 2.7,
  "SliceTiming": [0, 0.25, 0.0625, 0.315, 0.125, 0.3775, 0.1875, 0, 0.25, 0.0625, 0.315, 0.125, 0.3775, 0.1875, 0, 0.25, 0.0625, 0.315, 0.125, 0.3775, 0.1875, 0, 0.25, 0.0625, 0.315, 0.125, 0.3775, 0.1875, 0, 0.25, 0.0625, 0.315, 0.125, 0.3775, 0.1875, 0, 0.25, 0.0625, 0.315, 0.125, 0.3775, 0.1875, 0, 0.25, 0.0625, 0.315, 0.125, 0.3775, 0.1875, 0, 0.25, 0.0625, 0.315, 0.125, 0.3775, 0.1875],
  "SoftwareVersions": "syngo MR E11",
  "SpacingBetweenSlices": 2.7,
  "StationName": "AWP66112",
  "TaskName": "social",
  "TotalReadoutTime": 0.03969,
  "TxRefAmp": 283.487,
  "WipMemBlock": "331e05e0-de0f-40db-81d8-633f7354111c||Sequence: R016 ve11e/master r/434b28f1; Aug  7 2019 18:53:46 by eja",
  "dcmmeta_affine": [
    [-2.680906057357788, 0.01263353694230318, 0.10400142520666122, 109.97582244873047],
    [0.012746994383633137, 2.6828951835632324, 0.002717273775488138, -91.49797058105469],
    [0.1033298522233963, -0.0031890596728771925, 2.6979949474334717, -69.73649597167969],
    [0.0, 0.0, 0.0, 1.0]
],
  "dcmmeta_reorient_transform": [
    [0.0, -1.0, 0.0, 81.0],
    [1.0, 0.0, 0.0, 0.0],
    [0.0, 0.0, 1.0, 0.0],
    [0.0, 0.0, 0.0, 1.0]
],
  "dcmmeta_shape": [82, 82, 56, 872],
  "dcmmeta_slice_dim": 2,
  "dcmmeta_version": 0.6,
  "global": {
    "const": {
      "AccessionNumber": "A004368",
      "AcquisitionMatrix": [82, 0, 0, 82],
      "AngioFlag": "N",
      "BitsAllocated": 16,
      "BitsStored": 16,
      "BodyPartExamined": "BRAIN",
      "Columns": 656,
      "EchoNumbers": 1,
      "EchoTime": 27.2,
      "EchoTrainLength": 82,
      "FlipAngle": 44.0,
      "HighBit": 15,
      "ImageOrientationPatient": [0.999246771127, -0.004751152224, 0.03851385393345, 0.00470886357117, 0.99998820678857, 0.00118864950795],
      "ImagePositionPatient": [-884.04499671524, -892.149092536, -100.56573682041],
      "ImageType": [
        "ORIGINAL",
        "PRIMARY",
        "M",
        "MB",
        "ND",
        "NORM",
        "MOSAIC"
],
      "ImagedNucleus": "1H",
      "ImagingFrequency": 123.259102,
      "InPlanePhaseEncodingDirection": "COL",
      "MRAcquisitionType": "2D",
      "MagneticFieldStrength": 3.0,
      "Manufacturer": "SIEMENS",
      "ManufacturerModelName": "Prisma",
      "Modality": "MR",
      "NumberOfAverages": 1.0,
      "NumberOfPhaseEncodingSteps": 82,
      "PercentPhaseFieldOfView": 100.0,
      "PercentSampling": 100.0,
      "PerformedProcedureStepStartTime": "182153.808000",
      "PhotometricInterpretation": "MONOCHROME2",
      "PixelBandwidth": 3050.0,
      "PixelRepresentation": 0,
      "PixelSpacing": [2.6829268932343, 2.6829268932343],
      "ProtocolName": "func_run-05_task-social_acq-ap-mb8",
      "RepetitionTime": 460.0,
      "Rows": 656,
      "SAR": 0.1263623972816,
      "SamplesPerPixel": 1,
      "ScanOptions": "FS",
      "ScanningSequence": "EP",
      "SequenceName": "epfid2d1_82",
      "SequenceVariant": [
        "SK",
        "SS"
],
      "SeriesDescription": "func_run-05_task-social_acq-ap-mb8",
      "SeriesNumber": 20,
      "SeriesTime": "192332.986000",
      "SliceLocation": -65.540624876735,
      "SliceThickness": 2.7000000476837,
      "SmallestImagePixelValue": 0,
      "SoftwareVersions": "syngo MR E11",
      "SpacingBetweenSlices": 2.699999985999,
      "SpecificCharacterSet": "ISO_IR 100",
      "StudyID": "1",
      "StudyTime": "182153.680000",
      "TransmitCoilName": "Body",
      "VariableFlipAngleFlag": "N",
      "WindowCenterWidthExplanation": "Algo1"
    },
    "slices": {}
  },
  "time": {
    "samples": {
      "AcquisitionNumber": [1, 2, 3, 4, 5, 6, 7, 8, 9, 10, 11, 12, 13, 14, 15, 16, 17, 18, 19, 20, 21, 22, 23, 24, 25, 26, 27, 28, 29, 30, 31, 32, 33, 34, 35, 36, 37, 38, 39, 40, 41, 42, 43, 44, 45, 46, 47, 48, 49, 50, 51, 52, 53, 54, 55, 56, 57, 58, 59, 60, 61, 62, 63, 64, 65, 66, 67, 68, 69, 70, 71, 72, 73, 74, 75, 76, 77, 78, 79, 80, 81, 82, 83, 84, 85, 86, 87, 88, 89, 90, 91, 92, 93, 94, 95, 96, 97, 98, 99, 100, 101, 102, 103, 104, 105, 106, 107, 108, 109, 110, 111, 112, 113, 114, 115, 116, 117, 118, 119, 120, 121, 122, 123, 124, 125, 126, 127, 128, 129, 130, 131, 132, 133, 134, 135, 136, 137, 138, 139, 140, 141, 142, 143, 144, 145, 146, 147, 148, 149, 150, 151, 152, 153, 154, 155, 156, 157, 158, 159, 160, 161, 162, 163, 164, 165, 166, 167, 168, 169, 170, 171, 172, 173, 174, 175, 176, 177, 178, 179, 180, 181, 182, 183, 184, 185, 186, 187, 188, 189, 190, 191, 192, 193, 194, 195, 196, 197, 198, 199, 200, 201, 202, 203, 204, 205, 206, 207, 208, 209, 210, 211, 212, 213, 214, 215, 216, 217, 218, 219, 220, 221, 222, 223, 224, 225, 226, 227, 228, 229, 230, 231, 232, 233, 234, 235, 236, 237, 238, 239, 240, 241, 242, 243, 244, 245, 246, 247, 248, 249, 250, 251, 252, 253, 254, 255, 256, 257, 258, 259, 260, 261, 262, 263, 264, 265, 266, 267, 268, 269, 270, 271, 272, 273, 274, 275, 276, 277, 278, 279, 280, 281, 282, 283, 284, 285, 286, 287, 288, 289, 290, 291, 292, 293, 294, 295, 296, 297, 298, 299, 300, 301, 302, 303, 304, 305, 306, 307, 308, 309, 310, 311, 312, 313, 314, 315, 316, 317, 318, 319, 320, 321, 322, 323, 324, 325, 326, 327, 328, 329, 330, 331, 332, 333, 334, 335, 336, 337, 338, 339, 340, 341, 342, 343, 344, 345, 346, 347, 348, 349, 350, 351, 352, 353, 354, 355, 356, 357, 358, 359, 360, 361, 362, 363, 364, 365, 366, 367, 368, 369, 370, 371, 372, 373, 374, 375, 376, 377, 378, 379, 380, 381, 382, 383, 384, 385, 386, 387, 388, 389, 390, 391, 392, 393, 394, 395, 396, 397, 398, 399, 400, 401, 402, 403, 404, 405, 406, 407, 408, 409, 410, 411, 412, 413, 414, 415, 416, 417, 418, 419, 420, 421, 422, 423, 424, 425, 426, 427, 428, 429, 430, 431, 432, 433, 434, 435, 436, 437, 438, 439, 440, 441, 442, 443, 444, 445, 446, 447, 448, 449, 450, 451, 452, 453, 454, 455, 456, 457, 458, 459, 460, 461, 462, 463, 464, 465, 466, 467, 468, 469, 470, 471, 472, 473, 474, 475, 476, 477, 478, 479, 480, 481, 482, 483, 484, 485, 486, 487, 488, 489, 490, 491, 492, 493, 494, 495, 496, 497, 498, 499, 500, 501, 502, 503, 504, 505, 506, 507, 508, 509, 510, 511, 512, 513, 514, 515, 516, 517, 518, 519, 520, 521, 522, 523, 524, 525, 526, 527, 528, 529, 530, 531, 532, 533, 534, 535, 536, 537, 538, 539, 540, 541, 542, 543, 544, 545, 546, 547, 548, 549, 550, 551, 552, 553, 554, 555, 556, 557, 558, 559, 560, 561, 562, 563, 564, 565, 566, 567, 568, 569, 570, 571, 572, 573, 574, 575, 576, 577, 578, 579, 580, 581, 582, 583, 584, 585, 586, 587, 588, 589, 590, 591, 592, 593, 594, 595, 596, 597, 598, 599, 600, 601, 602, 603, 604, 605, 606, 607, 608, 609, 610, 611, 612, 613, 614, 615, 616, 617, 618, 619, 620, 621, 622, 623, 624, 625, 626, 627, 628, 629, 630, 631, 632, 633, 634, 635, 636, 637, 638, 639, 640, 641, 642, 643, 644, 645, 646, 647, 648, 649, 650, 651, 652, 653, 654, 655, 656, 657, 658, 659, 660, 661, 662, 663, 664, 665, 666, 667, 668, 669, 670, 671, 672, 673, 674, 675, 676, 677, 678, 679, 680, 681, 682, 683, 684, 685, 686, 687, 688, 689, 690, 691, 692, 693, 694, 695, 696, 697, 698, 699, 700, 701, 702, 703, 704, 705, 706, 707, 708, 709, 710, 711, 712, 713, 714, 715, 716, 717, 718, 719, 720, 721, 722, 723, 724, 725, 726, 727, 728, 729, 730, 731, 732, 733, 734, 735, 736, 737, 738, 739, 740, 741, 742, 743, 744, 745, 746, 747, 748, 749, 750, 751, 752, 753, 754, 755, 756, 757, 758, 759, 760, 761, 762, 763, 764, 765, 766, 767, 768, 769, 770, 771, 772, 773, 774, 775, 776, 777, 778, 779, 780, 781, 782, 783, 784, 785, 786, 787, 788, 789, 790, 791, 792, 793, 794, 795, 796, 797, 798, 799, 800, 801, 802, 803, 804, 805, 806, 807, 808, 809, 810, 811, 812, 813, 814, 815, 816, 817, 818, 819, 820, 821, 822, 823, 824, 825, 826, 827, 828, 829, 830, 831, 832, 833, 834, 835, 836, 837, 838, 839, 840, 841, 842, 843, 844, 845, 846, 847, 848, 849, 850, 851, 852, 853, 854, 855, 856, 857, 858, 859, 860, 861, 862, 863, 864, 865, 866, 867, 868, 869, 870, 871, 872],
      "AcquisitionTime": ["192317.697500", "192318.157500", "192318.617500", "192319.077500", "192319.537500", "192319.997500", "192320.457500", "192320.917500", "192321.377500", "192321.837500", "192322.297500", "192322.757500", "192323.217500", "192323.677500", "192324.137500", "192324.597500", "192325.057500", "192325.517500", "192325.977500", "192326.437500", "192326.897500", "192327.357500", "192327.817500", "192328.277500", "192328.737500", "192329.197500", "192329.657500", "192330.117500", "192330.577500", "192331.037500", "192331.497500", "192331.957500", "192332.417500", "192332.877500", "192333.337500", "192333.797500", "192334.257500", "192334.717500", "192335.177500", "192335.637500", "192336.097500", "192336.557500", "192337.017500", "192337.477500", "192337.937500", "192338.397500", "192338.857500", "192339.317500", "192339.777500", "192340.237500", "192340.697500", "192341.157500", "192341.617500", "192342.077500", "192342.537500", "192342.997500", "192343.457500", "192343.917500", "192344.377500", "192344.837500", "192345.297500", "192345.757500", "192346.217500", "192346.677500", "192347.137500", "192347.597500", "192348.057500", "192348.517500", "192348.977500", "192349.437500", "192349.897500", "192350.357500", "192350.817500", "192351.277500", "192351.737500", "192352.197500", "192352.657500", "192353.117500", "192353.577500", "192354.037500", "192354.497500", "192354.957500", "192355.417500", "192355.877500", "192356.337500", "192356.797500", "192357.257500", "192357.717500", "192358.177500", "192358.637500", "192359.097500", "192359.557500", "192400.017500", "192400.477500", "192400.937500", "192401.397500", "192401.857500", "192402.317500", "192402.777500", "192403.237500", "192403.697500", "192404.157500", "192404.617500", "192405.077500", "192405.537500", "192405.997500", "192406.457500", "192406.917500", "192407.377500", "192407.837500", "192408.297500", "192408.757500", "192409.217500", "192409.677500", "192410.137500", "192410.597500", "192411.057500", "192411.517500", "192411.977500", "192412.437500", "192412.897500", "192413.357500", "192413.817500", "192414.277500", "192414.737500", "192415.197500", "192415.657500", "192416.117500", "192416.577500", "192417.037500", "192417.497500", "192417.957500", "192418.417500", "192418.877500", "192419.337500", "192419.797500", "192420.257500", "192420.717500", "192421.177500", "192421.637500", "192422.097500", "192422.557500", "192423.017500", "192423.477500", "192423.937500", "192424.397500", "192424.857500", "192425.317500", "192425.777500", "192426.237500", "192426.697500", "192427.157500", "192427.617500", "192428.077500", "192428.537500", "192428.997500", "192429.457500", "192429.917500", "192430.377500", "192430.837500", "192431.297500", "192431.757500", "192432.217500", "192432.677500", "192433.137500", "192433.597500", "192434.057500", "192434.517500", "192434.977500", "192435.437500", "192435.897500", "192436.357500", "192436.817500", "192437.277500", "192437.737500", "192438.197500", "192438.657500", "192439.117500", "192439.577500", "192440.037500", "192440.497500", "192440.957500", "192441.417500", "192441.877500", "192442.337500", "192442.797500", "192443.257500", "192443.717500", "192444.177500", "192444.637500", "192445.097500", "192445.557500", "192446.017500", "192446.477500", "192446.937500", "192447.397500", "192447.857500", "192448.317500", "192448.777500", "192449.237500", "192449.697500", "192450.157500", "192450.617500", "192451.077500", "192451.537500", "192451.997500", "192452.457500", "192452.917500", "192453.377500", "192453.837500", "192454.297500", "192454.757500", "192455.217500", "192455.677500", "192456.137500", "192456.597500", "192457.057500", "192457.517500", "192457.977500", "192458.437500", "192458.897500", "192459.357500", "192459.817500", "192500.277500", "192500.737500", "192501.197500", "192501.657500", "192502.117500", "192502.577500", "192503.037500", "192503.497500", "192503.957500", "192504.417500", "192504.877500", "192505.337500", "192505.797500", "192506.257500", "192506.717500", "192507.177500", "192507.637500", "192508.097500", "192508.557500", "192509.017500", "192509.477500", "192509.937500", "192510.397500", "192510.857500", "192511.317500", "192511.777500", "192512.237500", "192512.697500", "192513.157500", "192513.617500", "192514.077500", "192514.537500", "192514.997500", "192515.457500", "192515.917500", "192516.377500", "192516.837500", "192517.297500", "192517.757500", "192518.217500", "192518.677500", "192519.137500", "192519.597500", "192520.057500", "192520.517500", "192520.977500", "192521.437500", "192521.897500", "192522.357500", "192522.817500", "192523.277500", "192523.737500", "192524.197500", "192524.657500", "192525.117500", "192525.577500", "192526.037500", "192526.497500", "192526.957500", "192527.417500", "192527.877500", "192528.337500", "192528.797500", "192529.257500", "192529.717500", "192530.177500", "192530.637500", "192531.097500", "192531.557500", "192532.017500", "192532.477500", "192532.937500", "192533.397500", "192533.857500", "192534.317500", "192534.777500", "192535.237500", "192535.697500", "192536.157500", "192536.617500", "192537.077500", "192537.537500", "192537.997500", "192538.457500", "192538.917500", "192539.377500", "192539.837500", "192540.297500", "192540.757500", "192541.217500", "192541.677500", "192542.137500", "192542.597500", "192543.057500", "192543.517500", "192543.977500", "192544.437500", "192544.897500", "192545.357500", "192545.817500", "192546.277500", "192546.737500", "192547.197500", "192547.657500", "192548.117500", "192548.577500", "192549.037500", "192549.497500", "192549.957500", "192550.417500", "192550.877500", "192551.337500", "192551.797500", "192552.257500", "192552.717500", "192553.177500", "192553.637500", "192554.097500", "192554.557500", "192555.017500", "192555.477500", "192555.937500", "192556.397500", "192556.857500", "192557.317500", "192557.777500", "192558.237500", "192558.697500", "192559.157500", "192559.617500", "192600.077500", "192600.537500", "192600.997500", "192601.457500", "192601.917500", "192602.377500", "192602.837500", "192603.297500", "192603.757500", "192604.217500", "192604.677500", "192605.137500", "192605.597500", "192606.057500", "192606.517500", "192606.977500", "192607.437500", "192607.897500", "192608.357500", "192608.817500", "192609.277500", "192609.737500", "192610.197500", "192610.657500", "192611.117500", "192611.577500", "192612.037500", "192612.497500", "192612.957500", "192613.417500", "192613.877500", "192614.337500", "192614.797500", "192615.257500", "192615.717500", "192616.177500", "192616.637500", "192617.097500", "192617.557500", "192618.017500", "192618.477500", "192618.937500", "192619.397500", "192619.857500", "192620.317500", "192620.777500", "192621.237500", "192621.697500", "192622.157500", "192622.617500", "192623.077500", "192623.537500", "192623.997500", "192624.457500", "192624.917500", "192625.377500", "192625.837500", "192626.297500", "192626.757500", "192627.217500", "192627.677500", "192628.137500", "192628.597500", "192629.057500", "192629.517500", "192629.977500", "192630.437500", "192630.897500", "192631.357500", "192631.817500", "192632.277500", "192632.737500", "192633.197500", "192633.657500", "192634.117500", "192634.577500", "192635.037500", "192635.497500", "192635.957500", "192636.417500", "192636.877500", "192637.337500", "192637.797500", "192638.257500", "192638.717500", "192639.177500", "192639.637500", "192640.097500", "192640.557500", "192641.017500", "192641.477500", "192641.937500", "192642.397500", "192642.857500", "192643.317500", "192643.777500", "192644.237500", "192644.697500", "192645.157500", "192645.617500", "192646.077500", "192646.537500", "192646.997500", "192647.457500", "192647.917500", "192648.377500", "192648.837500", "192649.297500", "192649.757500", "192650.217500", "192650.677500", "192651.137500", "192651.597500", "192652.057500", "192652.517500", "192652.977500", "192653.437500", "192653.897500", "192654.357500", "192654.817500", "192655.277500", "192655.737500", "192656.197500", "192656.657500", "192657.117500", "192657.577500", "192658.037500", "192658.497500", "192658.957500", "192659.417500", "192659.877500", "192700.337500", "192700.797500", "192701.257500", "192701.717500", "192702.177500", "192702.637500", "192703.097500", "192703.557500", "192704.017500", "192704.477500", "192704.937500", "192705.397500", "192705.857500", "192706.317500", "192706.777500", "192707.237500", "192707.697500", "192708.157500", "192708.617500", "192709.077500", "192709.537500", "192709.997500", "192710.457500", "192710.917500", "192711.377500", "192711.837500", "192712.297500", "192712.757500", "192713.217500", "192713.677500", "192714.137500", "192714.597500", "192715.057500", "192715.517500", "192715.977500", "192716.437500", "192716.897500", "192717.357500", "192717.817500", "192718.277500", "192718.737500", "192719.197500", "192719.657500", "192720.117500", "192720.577500", "192721.037500", "192721.497500", "192721.957500", "192722.417500", "192722.877500", "192723.337500", "192723.797500", "192724.257500", "192724.717500", "192725.177500", "192725.637500", "192726.097500", "192726.557500", "192727.017500", "192727.477500", "192727.937500", "192728.397500", "192728.857500", "192729.317500", "192729.777500", "192730.237500", "192730.697500", "192731.157500", "192731.617500", "192732.077500", "192732.537500", "192732.997500", "192733.457500", "192733.917500", "192734.377500", "192734.837500", "192735.297500", "192735.757500", "192736.217500", "192736.677500", "192737.137500", "192737.597500", "192738.057500", "192738.517500", "192738.977500", "192739.437500", "192739.897500", "192740.357500", "192740.817500", "192741.277500", "192741.737500", "192742.197500", "192742.657500", "192743.117500", "192743.577500", "192744.037500", "192744.497500", "192744.957500", "192745.417500", "192745.877500", "192746.337500", "192746.797500", "192747.257500", "192747.717500", "192748.177500", "192748.637500", "192749.097500", "192749.557500", "192750.017500", "192750.477500", "192750.937500", "192751.397500", "192751.857500", "192752.317500", "192752.777500", "192753.237500", "192753.697500", "192754.157500", "192754.617500", "192755.077500", "192755.537500", "192755.997500", "192756.457500", "192756.917500", "192757.377500", "192757.837500", "192758.297500", "192758.757500", "192759.217500", "192759.677500", "192800.137500", "192800.597500", "192801.057500", "192801.517500", "192801.977500", "192802.437500", "192802.897500", "192803.357500", "192803.817500", "192804.277500", "192804.737500", "192805.197500", "192805.657500", "192806.117500", "192806.577500", "192807.037500", "192807.497500", "192807.957500", "192808.417500", "192808.877500", "192809.337500", "192809.797500", "192810.257500", "192810.717500", "192811.177500", "192811.637500", "192812.097500", "192812.557500", "192813.017500", "192813.477500", "192813.937500", "192814.397500", "192814.857500", "192815.317500", "192815.777500", "192816.237500", "192816.697500", "192817.157500", "192817.617500", "192818.077500", "192818.537500", "192818.997500", "192819.457500", "192819.917500", "192820.377500", "192820.837500", "192821.297500", "192821.757500", "192822.217500", "192822.677500", "192823.137500", "192823.597500", "192824.057500", "192824.517500", "192824.977500", "192825.437500", "192825.897500", "192826.357500", "192826.817500", "192827.277500", "192827.737500", "192828.197500", "192828.657500", "192829.117500", "192829.577500", "192830.037500", "192830.497500", "192830.957500", "192831.417500", "192831.877500", "192832.337500", "192832.797500", "192833.257500", "192833.717500", "192834.177500", "192834.637500", "192835.097500", "192835.557500", "192836.017500", "192836.477500", "192836.937500", "192837.397500", "192837.857500", "192838.317500", "192838.777500", "192839.237500", "192839.697500", "192840.157500", "192840.617500", "192841.077500", "192841.537500", "192841.997500", "192842.457500", "192842.917500", "192843.377500", "192843.837500", "192844.297500", "192844.757500", "192845.217500", "192845.677500", "192846.137500", "192846.597500", "192847.057500", "192847.517500", "192847.977500", "192848.437500", "192848.897500", "192849.357500", "192849.817500", "192850.277500", "192850.737500", "192851.197500", "192851.657500", "192852.117500", "192852.577500", "192853.037500", "192853.497500", "192853.957500", "192854.417500", "192854.877500", "192855.337500", "192855.797500", "192856.257500", "192856.717500", "192857.177500", "192857.637500", "192858.097500", "192858.557500", "192859.017500", "192859.477500", "192859.937500", "192900.397500", "192900.857500", "192901.317500", "192901.777500", "192902.237500", "192902.697500", "192903.157500", "192903.617500", "192904.077500", "192904.537500", "192904.997500", "192905.457500", "192905.917500", "192906.377500", "192906.837500", "192907.297500", "192907.757500", "192908.217500", "192908.677500", "192909.137500", "192909.597500", "192910.057500", "192910.517500", "192910.977500", "192911.437500", "192911.897500", "192912.357500", "192912.817500", "192913.277500", "192913.737500", "192914.197500", "192914.657500", "192915.117500", "192915.577500", "192916.037500", "192916.497500", "192916.957500", "192917.417500", "192917.877500", "192918.337500", "192918.797500", "192919.257500", "192919.717500", "192920.177500", "192920.637500", "192921.097500", "192921.557500", "192922.017500", "192922.477500", "192922.937500", "192923.397500", "192923.857500", "192924.317500", "192924.777500", "192925.237500", "192925.697500", "192926.157500", "192926.617500", "192927.077500", "192927.537500", "192927.997500", "192928.457500", "192928.917500", "192929.377500", "192929.837500", "192930.297500", "192930.757500", "192931.217500", "192931.677500", "192932.137500", "192932.597500", "192933.057500", "192933.517500", "192933.977500", "192934.437500", "192934.897500", "192935.357500", "192935.817500", "192936.277500", "192936.737500", "192937.197500", "192937.657500", "192938.117500", "192938.577500", "192939.037500", "192939.497500", "192939.957500", "192940.417500", "192940.877500", "192941.337500", "192941.797500", "192942.257500", "192942.717500", "192943.177500", "192943.637500", "192944.097500", "192944.557500", "192945.017500", "192945.477500", "192945.937500", "192946.397500", "192946.857500", "192947.317500", "192947.777500", "192948.237500", "192948.697500", "192949.157500", "192949.617500", "192950.077500", "192950.537500", "192950.997500", "192951.457500", "192951.917500", "192952.377500", "192952.837500", "192953.297500", "192953.757500", "192954.217500", "192954.677500", "192955.137500", "192955.597500", "192956.057500", "192956.517500", "192956.977500", "192957.437500", "192957.897500", "192958.357500"],
