{
  "AcquisitionMatrixPE": 82,
  "AcquisitionNumber": 1,
  "AcquisitionTime": "19:40:32.965000",
  "BandwidthPerPixelPhaseEncode": 24.888,
  "BaseResolution": 82,
  "BodyPartExamined": "BRAIN",
  "ConsistencyInfo": "N4_VE11E_LATEST_20181129",
  "ConversionSoftware": "dcm2niix",
  "ConversionSoftwareVersion": "v1.0.20201102",
  "DerivedVendorReportedEchoSpacing": 0.00049,
  "DeviceSerialNumber": "66112",
  "DwellTime": 2e-06,
  "EchoTime": 0.0272,
  "EchoTrainLength": 82,
  "EffectiveEchoSpacing": 0.00049,
  "FlipAngle": 44,
  "ImageComments": "Unaliased MB8/PE3",
  "ImageOrientationPatientDICOM": [0.999247, -0.00475115, 0.0385139, 0.00470886, 0.999988, 0.00118865],
  "ImageType": [
    "ORIGINAL",
    "PRIMARY",
    "M",
    "MB",
    "ND",
    "NORM",
    "MOSAIC"
],
  "ImagingFrequency": 123.259,
  "InPlanePhaseEncodingDirectionDICOM": "COL",
  "InstitutionAddress": "Maynard 3,Hanover,NH,US,03755",
  "InstitutionName": "Dartmouth College - PBS",
  "InstitutionalDepartmentName": "Department",
  "MRAcquisitionType": "2D",
  "MagneticFieldStrength": 3,
  "Manufacturer": "Siemens",
  "ManufacturersModelName": "Prisma",
  "Modality": "MR",
  "MultibandAccelerationFactor": 8,
  "PartialFourier": 1,
  "PatientPosition": "HFS",
  "PercentPhaseFOV": 100,
  "PercentSampling": 100,
  "PhaseEncodingDirection": "j-",
  "PhaseEncodingSteps": 82,
  "PhaseResolution": 1,
  "PixelBandwidth": 3050,
  "ProcedureStepDescription": "Wager_Wager^1076_spacetop",
  "ProtocolName": "func_run-01_task-alignvideo_acq-ap-mb8",
  "PulseSequenceDetails": "%CustomerSeq%\\cmrr_mbep2d_bold",
  "ReceiveCoilActiveElements": "HEA;HEP",
  "ReceiveCoilName": "Head_32",
  "ReconMatrixPE": 82,
  "RepetitionTime": 0.46,
  "SAR": 0.12651,
  "ScanOptions": "FS",
  "ScanningSequence": "EP",
  "SequenceName": "epfid2d1_82",
  "SequenceVariant": "SK\\SS",
  "SeriesDescription": "func_run-01_task-alignvideo_acq-ap-mb8",
  "SeriesNumber": 30,
  "ShimSetting": [4214, -7778, -7261, 213, -166, -118, -44, 54],
  "SliceThickness": 2.7,
  "SliceTiming": [0, 0.2525, 0.0625, 0.315, 0.1275, 0.3775, 0.19, 0, 0.2525, 0.0625, 0.315, 0.1275, 0.3775, 0.19, 0, 0.2525, 0.0625, 0.315, 0.1275, 0.3775, 0.19, 0, 0.2525, 0.0625, 0.315, 0.1275, 0.3775, 0.19, 0, 0.2525, 0.0625, 0.315, 0.1275, 0.3775, 0.19, 0, 0.2525, 0.0625, 0.315, 0.1275, 0.3775, 0.19, 0, 0.2525, 0.0625, 0.315, 0.1275, 0.3775, 0.19, 0, 0.2525, 0.0625, 0.315, 0.1275, 0.3775, 0.19],
  "SoftwareVersions": "syngo MR E11",
  "SpacingBetweenSlices": 2.7,
  "StationName": "AWP66112",
  "TaskName": "alignvideo",
  "TotalReadoutTime": 0.03969,
  "TxRefAmp": 283.487,
  "WipMemBlock": "3b83c317-a2c4-40b8-84f7-c65022359061||Sequence: R016 ve11e/master r/434b28f1; Aug  7 2019 18:53:46 by eja",
  "dcmmeta_affine": [
    [-2.680906057357788, 0.01263353694230318, 0.10400142520666122, 109.97582244873047],
    [0.012746994383633137, 2.6828951835632324, 0.002717273775488138, -91.49797058105469],
    [0.1033298522233963, -0.0031890596728771925, 2.6979949474334717, -69.73649597167969],
    [0.0, 0.0, 0.0, 1.0]
],
  "dcmmeta_reorient_transform": [
    [0.0, -1.0, 0.0, 81.0],
    [1.0, 0.0, 0.0, 0.0],
    [0.0, 0.0, 1.0, 0.0],
    [0.0, 0.0, 0.0, 1.0]
],
  "dcmmeta_shape": [82, 82, 56, 1073],
  "dcmmeta_slice_dim": 2,
  "dcmmeta_version": 0.6,
  "global": {
    "const": {
      "AccessionNumber": "A004368",
      "AcquisitionMatrix": [82, 0, 0, 82],
      "AngioFlag": "N",
      "BitsAllocated": 16,
      "BitsStored": 16,
      "BodyPartExamined": "BRAIN",
      "Columns": 656,
      "EchoNumbers": 1,
      "EchoTime": 27.2,
      "EchoTrainLength": 82,
      "FlipAngle": 44.0,
      "HighBit": 15,
      "ImageOrientationPatient": [0.999246771127, -0.004751152224, 0.03851385393345, 0.00470886357117, 0.99998820678857, 0.00118864950795],
      "ImagePositionPatient": [-884.04499671524, -892.149092536, -100.56573682041],
      "ImageType": [
        "ORIGINAL",
        "PRIMARY",
        "M",
        "MB",
        "ND",
        "NORM",
        "MOSAIC"
],
      "ImagedNucleus": "1H",
      "ImagingFrequency": 123.259099,
      "InPlanePhaseEncodingDirection": "COL",
      "MRAcquisitionType": "2D",
      "MagneticFieldStrength": 3.0,
      "Manufacturer": "SIEMENS",
      "ManufacturerModelName": "Prisma",
      "Modality": "MR",
      "NumberOfAverages": 1.0,
      "NumberOfPhaseEncodingSteps": 82,
      "PercentPhaseFieldOfView": 100.0,
      "PercentSampling": 100.0,
      "PerformedProcedureStepStartTime": "182153.808000",
      "PhotometricInterpretation": "MONOCHROME2",
      "PixelBandwidth": 3050.0,
      "PixelRepresentation": 0,
      "PixelSpacing": [2.6829268932343, 2.6829268932343],
      "ProtocolName": "func_run-01_task-alignvideo_acq-ap-mb8",
      "RepetitionTime": 460.0,
      "Rows": 656,
      "SAR": 0.12650976792782,
      "SamplesPerPixel": 1,
      "ScanOptions": "FS",
      "ScanningSequence": "EP",
      "SequenceName": "epfid2d1_82",
      "SequenceVariant": [
        "SK",
        "SS"
],
      "SeriesDescription": "func_run-01_task-alignvideo_acq-ap-mb8",
      "SeriesNumber": 30,
      "SeriesTime": "194053.143000",
      "SliceLocation": -65.540624876735,
      "SliceThickness": 2.7000000476837,
      "SmallestImagePixelValue": 0,
      "SoftwareVersions": "syngo MR E11",
      "SpacingBetweenSlices": 2.699999985999,
      "SpecificCharacterSet": "ISO_IR 100",
      "StudyID": "1",
      "StudyTime": "182153.680000",
      "TransmitCoilName": "Body",
      "VariableFlipAngleFlag": "N",
      "WindowCenterWidthExplanation": "Algo1"
    },
    "slices": {}
  },
  "time": {
    "samples": {
      "AcquisitionNumber": [1, 2, 3, 4, 5, 6, 7, 8, 9, 10, 11, 12, 13, 14, 15, 16, 17, 18, 19, 20, 21, 22, 23, 24, 25, 26, 27, 28, 29, 30, 31, 32, 33, 34, 35, 36, 37, 38, 39, 40, 41, 42, 43, 44, 45, 46, 47, 48, 49, 50, 51, 52, 53, 54, 55, 56, 57, 58, 59, 60, 61, 62, 63, 64, 65, 66, 67, 68, 69, 70, 71, 72, 73, 74, 75, 76, 77, 78, 79, 80, 81, 82, 83, 84, 85, 86, 87, 88, 89, 90, 91, 92, 93, 94, 95, 96, 97, 98, 99, 100, 101, 102, 103, 104, 105, 106, 107, 108, 109, 110, 111, 112, 113, 114, 115, 116, 117, 118, 119, 120, 121, 122, 123, 124, 125, 126, 127, 128, 129, 130, 131, 132, 133, 134, 135, 136, 137, 138, 139, 140, 141, 142, 143, 144, 145, 146, 147, 148, 149, 150, 151, 152, 153, 154, 155, 156, 157, 158, 159, 160, 161, 162, 163, 164, 165, 166, 167, 168, 169, 170, 171, 172, 173, 174, 175, 176, 177, 178, 179, 180, 181, 182, 183, 184, 185, 186, 187, 188, 189, 190, 191, 192, 193, 194, 195, 196, 197, 198, 199, 200, 201, 202, 203, 204, 205, 206, 207, 208, 209, 210, 211, 212, 213, 214, 215, 216, 217, 218, 219, 220, 221, 222, 223, 224, 225, 226, 227, 228, 229, 230, 231, 232, 233, 234, 235, 236, 237, 238, 239, 240, 241, 242, 243, 244, 245, 246, 247, 248, 249, 250, 251, 252, 253, 254, 255, 256, 257, 258, 259, 260, 261, 262, 263, 264, 265, 266, 267, 268, 269, 270, 271, 272, 273, 274, 275, 276, 277, 278, 279, 280, 281, 282, 283, 284, 285, 286, 287, 288, 289, 290, 291, 292, 293, 294, 295, 296, 297, 298, 299, 300, 301, 302, 303, 304, 305, 306, 307, 308, 309, 310, 311, 312, 313, 314, 315, 316, 317, 318, 319, 320, 321, 322, 323, 324, 325, 326, 327, 328, 329, 330, 331, 332, 333, 334, 335, 336, 337, 338, 339, 340, 341, 342, 343, 344, 345, 346, 347, 348, 349, 350, 351, 352, 353, 354, 355, 356, 357, 358, 359, 360, 361, 362, 363, 364, 365, 366, 367, 368, 369, 370, 371, 372, 373, 374, 375, 376, 377, 378, 379, 380, 381, 382, 383, 384, 385, 386, 387, 388, 389, 390, 391, 392, 393, 394, 395, 396, 397, 398, 399, 400, 401, 402, 403, 404, 405, 406, 407, 408, 409, 410, 411, 412, 413, 414, 415, 416, 417, 418, 419, 420, 421, 422, 423, 424, 425, 426, 427, 428, 429, 430, 431, 432, 433, 434, 435, 436, 437, 438, 439, 440, 441, 442, 443, 444, 445, 446, 447, 448, 449, 450, 451, 452, 453, 454, 455, 456, 457, 458, 459, 460, 461, 462, 463, 464, 465, 466, 467, 468, 469, 470, 471, 472, 473, 474, 475, 476, 477, 478, 479, 480, 481, 482, 483, 484, 485, 486, 487, 488, 489, 490, 491, 492, 493, 494, 495, 496, 497, 498, 499, 500, 501, 502, 503, 504, 505, 506, 507, 508, 509, 510, 511, 512, 513, 514, 515, 516, 517, 518, 519, 520, 521, 522, 523, 524, 525, 526, 527, 528, 529, 530, 531, 532, 533, 534, 535, 536, 537, 538, 539, 540, 541, 542, 543, 544, 545, 546, 547, 548, 549, 550, 551, 552, 553, 554, 555, 556, 557, 558, 559, 560, 561, 562, 563, 564, 565, 566, 567, 568, 569, 570, 571, 572, 573, 574, 575, 576, 577, 578, 579, 580, 581, 582, 583, 584, 585, 586, 587, 588, 589, 590, 591, 592, 593, 594, 595, 596, 597, 598, 599, 600, 601, 602, 603, 604, 605, 606, 607, 608, 609, 610, 611, 612, 613, 614, 615, 616, 617, 618, 619, 620, 621, 622, 623, 624, 625, 626, 627, 628, 629, 630, 631, 632, 633, 634, 635, 636, 637, 638, 639, 640, 641, 642, 643, 644, 645, 646, 647, 648, 649, 650, 651, 652, 653, 654, 655, 656, 657, 658, 659, 660, 661, 662, 663, 664, 665, 666, 667, 668, 669, 670, 671, 672, 673, 674, 675, 676, 677, 678, 679, 680, 681, 682, 683, 684, 685, 686, 687, 688, 689, 690, 691, 692, 693, 694, 695, 696, 697, 698, 699, 700, 701, 702, 703, 704, 705, 706, 707, 708, 709, 710, 711, 712, 713, 714, 715, 716, 717, 718, 719, 720, 721, 722, 723, 724, 725, 726, 727, 728, 729, 730, 731, 732, 733, 734, 735, 736, 737, 738, 739, 740, 741, 742, 743, 744, 745, 746, 747, 748, 749, 750, 751, 752, 753, 754, 755, 756, 757, 758, 759, 760, 761, 762, 763, 764, 765, 766, 767, 768, 769, 770, 771, 772, 773, 774, 775, 776, 777, 778, 779, 780, 781, 782, 783, 784, 785, 786, 787, 788, 789, 790, 791, 792, 793, 794, 795, 796, 797, 798, 799, 800, 801, 802, 803, 804, 805, 806, 807, 808, 809, 810, 811, 812, 813, 814, 815, 816, 817, 818, 819, 820, 821, 822, 823, 824, 825, 826, 827, 828, 829, 830, 831, 832, 833, 834, 835, 836, 837, 838, 839, 840, 841, 842, 843, 844, 845, 846, 847, 848, 849, 850, 851, 852, 853, 854, 855, 856, 857, 858, 859, 860, 861, 862, 863, 864, 865, 866, 867, 868, 869, 870, 871, 872, 873, 874, 875, 876, 877, 878, 879, 880, 881, 882, 883, 884, 885, 886, 887, 888, 889, 890, 891, 892, 893, 894, 895, 896, 897, 898, 899, 900, 901, 902, 903, 904, 905, 906, 907, 908, 909, 910, 911, 912, 913, 914, 915, 916, 917, 918, 919, 920, 921, 922, 923, 924, 925, 926, 927, 928, 929, 930, 931, 932, 933, 934, 935, 936, 937, 938, 939, 940, 941, 942, 943, 944, 945, 946, 947, 948, 949, 950, 951, 952, 953, 954, 955, 956, 957, 958, 959, 960, 961, 962, 963, 964, 965, 966, 967, 968, 969, 970, 971, 972, 973, 974, 975, 976, 977, 978, 979, 980, 981, 982, 983, 984, 985, 986, 987, 988, 989, 990, 991, 992, 993, 994, 995, 996, 997, 998, 999, 1000, 1001, 1002, 1003, 1004, 1005, 1006, 1007, 1008, 1009, 1010, 1011, 1012, 1013, 1014, 1015, 1016, 1017, 1018, 1019, 1020, 1021, 1022, 1023, 1024, 1025, 1026, 1027, 1028, 1029, 1030, 1031, 1032, 1033, 1034, 1035, 1036, 1037, 1038, 1039, 1040, 1041, 1042, 1043, 1044, 1045, 1046, 1047, 1048, 1049, 1050, 1051, 1052, 1053, 1054, 1055, 1056, 1057, 1058, 1059, 1060, 1061, 1062, 1063, 1064, 1065, 1066, 1067, 1068, 1069, 1070, 1071, 1072, 1073],
      "AcquisitionTime": ["194032.965000", "194033.425000", "194033.885000", "194034.345000", "194034.805000", "194035.265000", "194035.725000", "194036.185000", "194036.645000", "194037.105000", "194037.565000", "194038.025000", "194038.485000", "194038.945000", "194039.405000", "194039.865000", "194040.325000", "194040.785000", "194041.245000", "194041.705000", "194042.165000", "194042.625000", "194043.085000", "194043.545000", "194044.005000", "194044.465000", "194044.925000", "194045.385000", "194045.845000", "194046.305000", "194046.765000", "194047.225000", "194047.685000", "194048.145000", "194048.605000", "194049.065000", "194049.525000", "194049.985000", "194050.445000", "194050.905000", "194051.365000", "194051.825000", "194052.285000", "194052.745000", "194053.205000", "194053.665000", "194054.125000", "194054.585000", "194055.045000", "194055.505000", "194055.965000", "194056.425000", "194056.885000", "194057.345000", "194057.805000", "194058.265000", "194058.725000", "194059.185000", "194059.645000", "194100.105000", "194100.565000", "194101.025000", "194101.485000", "194101.945000", "194102.405000", "194102.865000", "194103.325000", "194103.785000", "194104.245000", "194104.705000", "194105.165000", "194105.625000", "194106.085000", "194106.545000", "194107.005000", "194107.465000", "194107.925000", "194108.385000", "194108.845000", "194109.305000", "194109.765000", "194110.225000", "194110.685000", "194111.145000", "194111.605000", "194112.065000", "194112.525000", "194112.985000", "194113.445000", "194113.905000", "194114.365000", "194114.825000", "194115.285000", "194115.745000", "194116.205000", "194116.665000", "194117.125000", "194117.585000", "194118.045000", "194118.505000", "194118.965000", "194119.425000", "194119.885000", "194120.345000", "194120.805000", "194121.265000", "194121.725000", "194122.185000", "194122.645000", "194123.105000", "194123.565000", "194124.025000", "194124.485000", "194124.945000", "194125.405000", "194125.865000", "194126.325000", "194126.785000", "194127.245000", "194127.705000", "194128.165000", "194128.625000", "194129.085000", "194129.545000", "194130.005000", "194130.465000", "194130.925000", "194131.385000", "194131.845000", "194132.305000", "194132.765000", "194133.225000", "194133.685000", "194134.145000", "194134.605000", "194135.065000", "194135.525000", "194135.985000", "194136.445000", "194136.905000", "194137.365000", "194137.825000", "194138.285000", "194138.745000", "194139.205000", "194139.665000", "194140.125000", "194140.585000", "194141.045000", "194141.505000", "194141.965000", "194142.425000", "194142.885000", "194143.345000", "194143.805000", "194144.265000", "194144.725000", "194145.185000", "194145.645000", "194146.105000", "194146.565000", "194147.025000", "194147.485000", "194147.945000", "194148.405000", "194148.865000", "194149.325000", "194149.785000", "194150.245000", "194150.705000", "194151.165000", "194151.625000", "194152.085000", "194152.545000", "194153.005000", "194153.465000", "194153.925000", "194154.385000", "194154.845000", "194155.305000", "194155.765000", "194156.225000", "194156.685000", "194157.145000", "194157.605000", "194158.065000", "194158.525000", "194158.985000", "194159.445000", "194159.905000", "194200.365000", "194200.825000", "194201.285000", "194201.745000", "194202.205000", "194202.665000", "194203.125000", "194203.585000", "194204.045000", "194204.505000", "194204.965000", "194205.425000", "194205.885000", "194206.345000", "194206.805000", "194207.265000", "194207.725000", "194208.185000", "194208.645000", "194209.105000", "194209.565000", "194210.025000", "194210.485000", "194210.945000", "194211.405000", "194211.865000", "194212.325000", "194212.785000", "194213.245000", "194213.705000", "194214.165000", "194214.625000", "194215.085000", "194215.545000", "194216.005000", "194216.465000", "194216.925000", "194217.385000", "194217.845000", "194218.305000", "194218.765000", "194219.225000", "194219.685000", "194220.145000", "194220.605000", "194221.065000", "194221.525000", "194221.985000", "194222.445000", "194222.905000", "194223.365000", "194223.825000", "194224.285000", "194224.745000", "194225.205000", "194225.665000", "194226.125000", "194226.585000", "194227.045000", "194227.505000", "194227.965000", "194228.425000", "194228.885000", "194229.345000", "194229.805000", "194230.265000", "194230.725000", "194231.185000", "194231.645000", "194232.105000", "194232.565000", "194233.025000", "194233.485000", "194233.945000", "194234.405000", "194234.865000", "194235.325000", "194235.785000", "194236.245000", "194236.705000", "194237.165000", "194237.625000", "194238.085000", "194238.545000", "194239.005000", "194239.465000", "194239.925000", "194240.385000", "194240.845000", "194241.305000", "194241.765000", "194242.225000", "194242.685000", "194243.145000", "194243.605000", "194244.065000", "194244.525000", "194244.985000", "194245.445000", "194245.905000", "194246.365000", "194246.825000", "194247.285000", "194247.745000", "194248.205000", "194248.665000", "194249.125000", "194249.585000", "194250.045000", "194250.505000", "194250.965000", "194251.425000", "194251.885000", "194252.345000", "194252.805000", "194253.265000", "194253.725000", "194254.185000", "194254.645000", "194255.105000", "194255.565000", "194256.025000", "194256.485000", "194256.945000", "194257.405000", "194257.865000", "194258.325000", "194258.785000", "194259.245000", "194259.705000", "194300.165000", "194300.625000", "194301.085000", "194301.545000", "194302.005000", "194302.465000", "194302.925000", "194303.385000", "194303.845000", "194304.305000", "194304.765000", "194305.225000", "194305.685000", "194306.145000", "194306.605000", "194307.065000", "194307.525000", "194307.985000", "194308.445000", "194308.905000", "194309.365000", "194309.825000", "194310.285000", "194310.745000", "194311.205000", "194311.665000", "194312.125000", "194312.585000", "194313.045000", "194313.505000", "194313.965000", "194314.425000", "194314.885000", "194315.345000", "194315.805000", "194316.265000", "194316.725000", "194317.185000", "194317.645000", "194318.105000", "194318.565000", "194319.025000", "194319.485000", "194319.945000", "194320.405000", "194320.865000", "194321.325000", "194321.785000", "194322.245000", "194322.705000", "194323.165000", "194323.625000", "194324.085000", "194324.545000", "194325.005000", "194325.465000", "194325.925000", "194326.385000", "194326.845000", "194327.305000", "194327.765000", "194328.225000", "194328.685000", "194329.145000", "194329.605000", "194330.065000", "194330.525000", "194330.985000", "194331.445000", "194331.905000", "194332.365000", "194332.825000", "194333.285000", "194333.745000", "194334.205000", "194334.665000", "194335.125000", "194335.585000", "194336.045000", "194336.505000", "194336.965000", "194337.425000", "194337.885000", "194338.345000", "194338.805000", "194339.265000", "194339.725000", "194340.185000", "194340.645000", "194341.105000", "194341.565000", "194342.025000", "194342.485000", "194342.945000", "194343.405000", "194343.865000", "194344.325000", "194344.785000", "194345.245000", "194345.705000", "194346.165000", "194346.625000", "194347.085000", "194347.545000", "194348.005000", "194348.465000", "194348.925000", "194349.385000", "194349.845000", "194350.305000", "194350.765000", "194351.225000", "194351.685000", "194352.145000", "194352.605000", "194353.065000", "194353.525000", "194353.985000", "194354.445000", "194354.905000", "194355.365000", "194355.825000", "194356.285000", "194356.745000", "194357.205000", "194357.665000", "194358.125000", "194358.585000", "194359.045000", "194359.505000", "194359.965000", "194400.425000", "194400.885000", "194401.345000", "194401.805000", "194402.265000", "194402.725000", "194403.185000", "194403.645000", "194404.105000", "194404.565000", "194405.025000", "194405.485000", "194405.945000", "194406.405000", "194406.865000", "194407.325000", "194407.785000", "194408.245000", "194408.705000", "194409.165000", "194409.625000", "194410.085000", "194410.545000", "194411.005000", "194411.465000", "194411.925000", "194412.385000", "194412.845000", "194413.305000", "194413.765000", "194414.225000", "194414.685000", "194415.145000", "194415.605000", "194416.065000", "194416.525000", "194416.985000", "194417.445000", "194417.905000", "194418.365000", "194418.825000", "194419.285000", "194419.745000", "194420.205000", "194420.665000", "194421.125000", "194421.585000", "194422.045000", "194422.505000", "194422.965000", "194423.425000", "194423.885000", "194424.345000", "194424.805000", "194425.265000", "194425.725000", "194426.185000", "194426.645000", "194427.105000", "194427.565000", "194428.025000", "194428.485000", "194428.945000", "194429.405000", "194429.865000", "194430.325000", "194430.785000", "194431.245000", "194431.705000", "194432.165000", "194432.625000", "194433.085000", "194433.545000", "194434.005000", "194434.465000", "194434.925000", "194435.385000", "194435.845000", "194436.305000", "194436.765000", "194437.225000", "194437.685000", "194438.145000", "194438.605000", "194439.065000", "194439.525000", "194439.985000", "194440.445000", "194440.905000", "194441.365000", "194441.825000", "194442.285000", "194442.745000", "194443.205000", "194443.665000", "194444.125000", "194444.585000", "194445.045000", "194445.505000", "194445.965000", "194446.425000", "194446.885000", "194447.345000", "194447.805000", "194448.265000", "194448.725000", "194449.185000", "194449.645000", "194450.105000", "194450.565000", "194451.025000", "194451.485000", "194451.945000", "194452.405000", "194452.865000", "194453.325000", "194453.785000", "194454.245000", "194454.705000", "194455.165000", "194455.625000", "194456.085000", "194456.545000", "194457.005000", "194457.465000", "194457.925000", "194458.385000", "194458.845000", "194459.305000", "194459.765000", "194500.225000", "194500.685000", "194501.145000", "194501.605000", "194502.065000", "194502.525000", "194502.985000", "194503.445000", "194503.905000", "194504.365000", "194504.825000", "194505.285000", "194505.745000", "194506.205000", "194506.665000", "194507.125000", "194507.585000", "194508.045000", "194508.505000", "194508.965000", "194509.425000", "194509.885000", "194510.345000", "194510.805000", "194511.265000", "194511.725000", "194512.185000", "194512.645000", "194513.105000", "194513.565000", "194514.025000", "194514.485000", "194514.945000", "194515.405000", "194515.865000", "194516.325000", "194516.785000", "194517.245000", "194517.705000", "194518.165000", "194518.625000", "194519.085000", "194519.545000", "194520.005000", "194520.465000", "194520.925000", "194521.385000", "194521.845000", "194522.305000", "194522.765000", "194523.225000", "194523.685000", "194524.145000", "194524.605000", "194525.065000", "194525.525000", "194525.985000", "194526.445000", "194526.905000", "194527.365000", "194527.825000", "194528.285000", "194528.745000", "194529.205000", "194529.665000", "194530.125000", "194530.585000", "194531.045000", "194531.505000", "194531.965000", "194532.425000", "194532.885000", "194533.345000", "194533.805000", "194534.265000", "194534.725000", "194535.185000", "194535.645000", "194536.105000", "194536.565000", "194537.025000", "194537.485000", "194537.945000", "194538.405000", "194538.865000", "194539.325000", "194539.785000", "194540.245000", "194540.705000", "194541.165000", "194541.625000", "194542.085000", "194542.545000", "194543.005000", "194543.465000", "194543.925000", "194544.385000", "194544.845000", "194545.305000", "194545.765000", "194546.225000", "194546.685000", "194547.145000", "194547.605000", "194548.065000", "194548.525000", "194548.985000", "194549.445000", "194549.905000", "194550.365000", "194550.825000", "194551.285000", "194551.745000", "194552.205000", "194552.665000", "194553.125000", "194553.585000", "194554.045000", "194554.505000", "194554.965000", "194555.425000", "194555.885000", "194556.345000", "194556.805000", "194557.265000", "194557.725000", "194558.185000", "194558.645000", "194559.105000", "194559.565000", "194600.025000", "194600.485000", "194600.945000", "194601.405000", "194601.865000", "194602.325000", "194602.785000", "194603.245000", "194603.705000", "194604.165000", "194604.625000", "194605.085000", "194605.545000", "194606.005000", "194606.465000", "194606.925000", "194607.385000", "194607.845000", "194608.305000", "194608.765000", "194609.225000", "194609.685000", "194610.145000", "194610.605000", "194611.065000", "194611.525000", "194611.985000", "194612.445000", "194612.905000", "194613.365000", "194613.825000", "194614.285000", "194614.745000", "194615.205000", "194615.665000", "194616.125000", "194616.585000", "194617.045000", "194617.505000", "194617.965000", "194618.425000", "194618.885000", "194619.345000", "194619.805000", "194620.265000", "194620.725000", "194621.185000", "194621.645000", "194622.105000", "194622.565000", "194623.025000", "194623.485000", "194623.945000", "194624.405000", "194624.865000", "194625.325000", "194625.785000", "194626.245000", "194626.705000", "194627.165000", "194627.625000", "194628.085000", "194628.545000", "194629.005000", "194629.465000", "194629.925000", "194630.385000", "194630.845000", "194631.305000", "194631.765000", "194632.225000", "194632.685000", "194633.145000", "194633.605000", "194634.065000", "194634.525000", "194634.985000", "194635.445000", "194635.905000", "194636.365000", "194636.825000", "194637.285000", "194637.745000", "194638.205000", "194638.665000", "194639.125000", "194639.585000", "194640.045000", "194640.505000", "194640.965000", "194641.425000", "194641.885000", "194642.345000", "194642.805000", "194643.265000", "194643.725000", "194644.185000", "194644.645000", "194645.105000", "194645.565000", "194646.025000", "194646.485000", "194646.945000", "194647.405000", "194647.865000", "194648.325000", "194648.785000", "194649.245000", "194649.705000", "194650.165000", "194650.625000", "194651.085000", "194651.545000", "194652.005000", "194652.465000", "194652.925000", "194653.385000", "194653.845000", "194654.305000", "194654.765000", "194655.225000", "194655.685000", "194656.145000", "194656.605000", "194657.065000", "194657.525000", "194657.985000", "194658.445000", "194658.905000", "194659.365000", "194659.825000", "194700.285000", "194700.745000", "194701.205000", "194701.665000", "194702.125000", "194702.585000", "194703.045000", "194703.505000", "194703.965000", "194704.425000", "194704.885000", "194705.345000", "194705.805000", "194706.265000", "194706.725000", "194707.185000", "194707.645000", "194708.105000", "194708.565000", "194709.025000", "194709.485000", "194709.945000", "194710.405000", "194710.865000", "194711.325000", "194711.785000", "194712.245000", "194712.705000", "194713.165000", "194713.625000", "194714.085000", "194714.545000", "194715.005000", "194715.465000", "194715.925000", "194716.385000", "194716.845000", "194717.305000", "194717.765000", "194718.225000", "194718.685000", "194719.145000", "194719.605000", "194720.065000", "194720.525000", "194720.985000", "194721.445000", "194721.905000", "194722.365000", "194722.825000", "194723.285000", "194723.745000", "194724.205000", "194724.665000", "194725.125000", "194725.585000", "194726.045000", "194726.505000", "194726.965000", "194727.425000", "194727.885000", "194728.345000", "194728.805000", "194729.265000", "194729.725000", "194730.185000", "194730.645000", "194731.105000", "194731.565000", "194732.025000", "194732.485000", "194732.945000", "194733.405000", "194733.865000", "194734.325000", "194734.785000", "194735.245000", "194735.705000", "194736.165000", "194736.625000", "194737.085000", "194737.545000", "194738.005000", "194738.465000", "194738.925000", "194739.385000", "194739.845000", "194740.305000", "194740.765000", "194741.225000", "194741.685000", "194742.145000", "194742.605000", "194743.065000", "194743.525000", "194743.985000", "194744.445000", "194744.905000", "194745.365000", "194745.825000", "194746.285000", "194746.745000", "194747.205000", "194747.665000", "194748.125000", "194748.585000", "194749.045000", "194749.505000", "194749.965000", "194750.425000", "194750.885000", "194751.345000", "194751.805000", "194752.265000", "194752.725000", "194753.185000", "194753.645000", "194754.105000", "194754.565000", "194755.025000", "194755.485000", "194755.945000", "194756.405000", "194756.865000", "194757.325000", "194757.785000", "194758.245000", "194758.705000", "194759.165000", "194759.625000", "194800.085000", "194800.545000", "194801.005000", "194801.465000", "194801.925000", "194802.385000", "194802.845000", "194803.305000", "194803.765000", "194804.225000", "194804.685000", "194805.145000", "194805.605000", "194806.065000", "194806.525000", "194806.985000", "194807.445000", "194807.905000", "194808.365000", "194808.825000", "194809.285000", "194809.745000", "194810.205000", "194810.665000", "194811.125000", "194811.585000", "194812.045000", "194812.505000", "194812.965000", "194813.425000", "194813.885000", "194814.345000", "194814.805000", "194815.265000", "194815.725000", "194816.185000", "194816.645000", "194817.105000", "194817.565000", "194818.025000", "194818.485000", "194818.945000", "194819.405000", "194819.865000", "194820.325000", "194820.785000", "194821.245000", "194821.705000", "194822.165000", "194822.625000", "194823.085000", "194823.545000", "194824.005000", "194824.465000", "194824.925000", "194825.385000", "194825.845000", "194826.305000", "194826.765000", "194827.225000", "194827.685000", "194828.145000", "194828.605000", "194829.065000", "194829.525000", "194829.985000", "194830.445000", "194830.905000", "194831.365000", "194831.825000", "194832.285000", "194832.745000", "194833.205000", "194833.665000", "194834.125000", "194834.585000", "194835.045000", "194835.505000", "194835.965000", "194836.425000", "194836.885000", "194837.345000", "194837.805000", "194838.265000", "194838.725000", "194839.185000", "194839.645000", "194840.105000", "194840.565000", "194841.025000", "194841.485000", "194841.945000", "194842.405000", "194842.865000", "194843.325000", "194843.785000", "194844.245000", "194844.705000", "194845.165000", "194845.625000", "194846.085000"],
