{
  "AcquisitionMatrixPE": 82,
  "AcquisitionNumber": 1,
  "AcquisitionTime": "19:15:11.577500",
  "BandwidthPerPixelPhaseEncode": 24.888,
  "BaseResolution": 82,
  "BodyPartExamined": "BRAIN",
  "ConsistencyInfo": "N4_VE11E_LATEST_20181129",
  "ConversionSoftware": "dcm2niix",
  "ConversionSoftwareVersion": "v1.0.20201102",
  "DerivedVendorReportedEchoSpacing": 0.00049,
  "DeviceSerialNumber": "66112",
  "DwellTime": 2e-06,
  "EchoTime": 0.0272,
  "EchoTrainLength": 82,
  "EffectiveEchoSpacing": 0.00049,
  "FlipAngle": 44,
  "ImageComments": "Unaliased MB8/PE3",
  "ImageOrientationPatientDICOM": [0.999247, -0.00475115, 0.0385139, 0.00470886, 0.999988, 0.00118865],
  "ImageType": [
    "ORIGINAL",
    "PRIMARY",
    "M",
    "MB",
    "ND",
    "NORM",
    "MOSAIC"
],
  "ImagingFrequency": 123.259,
  "InPlanePhaseEncodingDirectionDICOM": "COL",
  "InstitutionAddress": "Maynard 3,Hanover,NH,US,03755",
  "InstitutionName": "Dartmouth College - PBS",
  "InstitutionalDepartmentName": "Department",
  "MRAcquisitionType": "2D",
  "MagneticFieldStrength": 3,
  "Manufacturer": "Siemens",
  "ManufacturersModelName": "Prisma",
  "Modality": "MR",
  "MultibandAccelerationFactor": 8,
  "PartialFourier": 1,
  "PatientPosition": "HFS",
  "PercentPhaseFOV": 100,
  "PercentSampling": 100,
  "PhaseEncodingDirection": "j-",
  "PhaseEncodingSteps": 82,
  "PhaseResolution": 1,
  "PixelBandwidth": 3050,
  "ProcedureStepDescription": "Wager_Wager^1076_spacetop",
  "ProtocolName": "func_run-04_task-social_acq-ap-mb8",
  "PulseSequenceDetails": "%CustomerSeq%\\cmrr_mbep2d_bold",
  "ReceiveCoilActiveElements": "HEA;HEP",
  "ReceiveCoilName": "Head_32",
  "ReconMatrixPE": 82,
  "RepetitionTime": 0.46,
  "SAR": 0.126362,
  "ScanOptions": "FS",
  "ScanningSequence": "EP",
  "SequenceName": "epfid2d1_82",
  "SequenceVariant": "SK\\SS",
  "SeriesDescription": "func_run-04_task-social_acq-ap-mb8",
  "SeriesNumber": 18,
  "ShimSetting": [4214, -7778, -7261, 213, -166, -118, -44, 54],
  "SliceThickness": 2.7,
  "SliceTiming": [0, 0.2525, 0.0625, 0.315, 0.1275, 0.3775, 0.19, 0, 0.2525, 0.0625, 0.315, 0.1275, 0.3775, 0.19, 0, 0.2525, 0.0625, 0.315, 0.1275, 0.3775, 0.19, 0, 0.2525, 0.0625, 0.315, 0.1275, 0.3775, 0.19, 0, 0.2525, 0.0625, 0.315, 0.1275, 0.3775, 0.19, 0, 0.2525, 0.0625, 0.315, 0.1275, 0.3775, 0.19, 0, 0.2525, 0.0625, 0.315, 0.1275, 0.3775, 0.19, 0, 0.2525, 0.0625, 0.315, 0.1275, 0.3775, 0.19],
  "SoftwareVersions": "syngo MR E11",
  "SpacingBetweenSlices": 2.7,
  "StationName": "AWP66112",
  "TaskName": "social",
  "TotalReadoutTime": 0.03969,
  "TxRefAmp": 283.487,
  "WipMemBlock": "8f264d65-e486-44fe-a558-534f6d422fcd||Sequence: R016 ve11e/master r/434b28f1; Aug  7 2019 18:53:46 by eja",
  "dcmmeta_affine": [
    [-2.680906057357788, 0.01263353694230318, 0.10400142520666122, 109.97582244873047],
    [0.012746994383633137, 2.6828951835632324, 0.002717273775488138, -91.49797058105469],
    [0.1033298522233963, -0.0031890596728771925, 2.6979949474334717, -69.73649597167969],
    [0.0, 0.0, 0.0, 1.0]
],
  "dcmmeta_reorient_transform": [
    [0.0, -1.0, 0.0, 81.0],
    [1.0, 0.0, 0.0, 0.0],
    [0.0, 0.0, 1.0, 0.0],
    [0.0, 0.0, 0.0, 1.0]
],
  "dcmmeta_shape": [82, 82, 56, 872],
  "dcmmeta_slice_dim": 2,
  "dcmmeta_version": 0.6,
  "global": {
    "const": {
      "AccessionNumber": "A004368",
      "AcquisitionMatrix": [82, 0, 0, 82],
      "AngioFlag": "N",
      "BitsAllocated": 16,
      "BitsStored": 16,
      "BodyPartExamined": "BRAIN",
      "Columns": 656,
      "EchoNumbers": 1,
      "EchoTime": 27.2,
      "EchoTrainLength": 82,
      "FlipAngle": 44.0,
      "HighBit": 15,
      "ImageOrientationPatient": [0.999246771127, -0.004751152224, 0.03851385393345, 0.00470886357117, 0.99998820678857, 0.00118864950795],
      "ImagePositionPatient": [-884.04499671524, -892.149092536, -100.56573682041],
      "ImageType": [
        "ORIGINAL",
        "PRIMARY",
        "M",
        "MB",
        "ND",
        "NORM",
        "MOSAIC"
],
      "ImagedNucleus": "1H",
      "ImagingFrequency": 123.2591,
      "InPlanePhaseEncodingDirection": "COL",
      "MRAcquisitionType": "2D",
      "MagneticFieldStrength": 3.0,
      "Manufacturer": "SIEMENS",
      "ManufacturerModelName": "Prisma",
      "Modality": "MR",
      "NumberOfAverages": 1.0,
      "NumberOfPhaseEncodingSteps": 82,
      "PercentPhaseFieldOfView": 100.0,
      "PercentSampling": 100.0,
      "PerformedProcedureStepStartTime": "182153.808000",
      "PhotometricInterpretation": "MONOCHROME2",
      "PixelBandwidth": 3050.0,
      "PixelRepresentation": 0,
      "PixelSpacing": [2.6829268932343, 2.6829268932343],
      "ProtocolName": "func_run-04_task-social_acq-ap-mb8",
      "RepetitionTime": 460.0,
      "Rows": 656,
      "SAR": 0.1263623972816,
      "SamplesPerPixel": 1,
      "ScanOptions": "FS",
      "ScanningSequence": "EP",
      "SequenceName": "epfid2d1_82",
      "SequenceVariant": [
        "SK",
        "SS"
],
      "SeriesDescription": "func_run-04_task-social_acq-ap-mb8",
      "SeriesNumber": 18,
      "SeriesTime": "191533.151000",
      "SliceLocation": -65.540624876735,
      "SliceThickness": 2.7000000476837,
      "SmallestImagePixelValue": 0,
      "SoftwareVersions": "syngo MR E11",
      "SpacingBetweenSlices": 2.699999985999,
      "SpecificCharacterSet": "ISO_IR 100",
      "StudyID": "1",
      "StudyTime": "182153.680000",
      "TransmitCoilName": "Body",
      "VariableFlipAngleFlag": "N",
      "WindowCenterWidthExplanation": "Algo1"
    },
    "slices": {}
  },
  "time": {
    "samples": {
      "AcquisitionNumber": [1, 2, 3, 4, 5, 6, 7, 8, 9, 10, 11, 12, 13, 14, 15, 16, 17, 18, 19, 20, 21, 22, 23, 24, 25, 26, 27, 28, 29, 30, 31, 32, 33, 34, 35, 36, 37, 38, 39, 40, 41, 42, 43, 44, 45, 46, 47, 48, 49, 50, 51, 52, 53, 54, 55, 56, 57, 58, 59, 60, 61, 62, 63, 64, 65, 66, 67, 68, 69, 70, 71, 72, 73, 74, 75, 76, 77, 78, 79, 80, 81, 82, 83, 84, 85, 86, 87, 88, 89, 90, 91, 92, 93, 94, 95, 96, 97, 98, 99, 100, 101, 102, 103, 104, 105, 106, 107, 108, 109, 110, 111, 112, 113, 114, 115, 116, 117, 118, 119, 120, 121, 122, 123, 124, 125, 126, 127, 128, 129, 130, 131, 132, 133, 134, 135, 136, 137, 138, 139, 140, 141, 142, 143, 144, 145, 146, 147, 148, 149, 150, 151, 152, 153, 154, 155, 156, 157, 158, 159, 160, 161, 162, 163, 164, 165, 166, 167, 168, 169, 170, 171, 172, 173, 174, 175, 176, 177, 178, 179, 180, 181, 182, 183, 184, 185, 186, 187, 188, 189, 190, 191, 192, 193, 194, 195, 196, 197, 198, 199, 200, 201, 202, 203, 204, 205, 206, 207, 208, 209, 210, 211, 212, 213, 214, 215, 216, 217, 218, 219, 220, 221, 222, 223, 224, 225, 226, 227, 228, 229, 230, 231, 232, 233, 234, 235, 236, 237, 238, 239, 240, 241, 242, 243, 244, 245, 246, 247, 248, 249, 250, 251, 252, 253, 254, 255, 256, 257, 258, 259, 260, 261, 262, 263, 264, 265, 266, 267, 268, 269, 270, 271, 272, 273, 274, 275, 276, 277, 278, 279, 280, 281, 282, 283, 284, 285, 286, 287, 288, 289, 290, 291, 292, 293, 294, 295, 296, 297, 298, 299, 300, 301, 302, 303, 304, 305, 306, 307, 308, 309, 310, 311, 312, 313, 314, 315, 316, 317, 318, 319, 320, 321, 322, 323, 324, 325, 326, 327, 328, 329, 330, 331, 332, 333, 334, 335, 336, 337, 338, 339, 340, 341, 342, 343, 344, 345, 346, 347, 348, 349, 350, 351, 352, 353, 354, 355, 356, 357, 358, 359, 360, 361, 362, 363, 364, 365, 366, 367, 368, 369, 370, 371, 372, 373, 374, 375, 376, 377, 378, 379, 380, 381, 382, 383, 384, 385, 386, 387, 388, 389, 390, 391, 392, 393, 394, 395, 396, 397, 398, 399, 400, 401, 402, 403, 404, 405, 406, 407, 408, 409, 410, 411, 412, 413, 414, 415, 416, 417, 418, 419, 420, 421, 422, 423, 424, 425, 426, 427, 428, 429, 430, 431, 432, 433, 434, 435, 436, 437, 438, 439, 440, 441, 442, 443, 444, 445, 446, 447, 448, 449, 450, 451, 452, 453, 454, 455, 456, 457, 458, 459, 460, 461, 462, 463, 464, 465, 466, 467, 468, 469, 470, 471, 472, 473, 474, 475, 476, 477, 478, 479, 480, 481, 482, 483, 484, 485, 486, 487, 488, 489, 490, 491, 492, 493, 494, 495, 496, 497, 498, 499, 500, 501, 502, 503, 504, 505, 506, 507, 508, 509, 510, 511, 512, 513, 514, 515, 516, 517, 518, 519, 520, 521, 522, 523, 524, 525, 526, 527, 528, 529, 530, 531, 532, 533, 534, 535, 536, 537, 538, 539, 540, 541, 542, 543, 544, 545, 546, 547, 548, 549, 550, 551, 552, 553, 554, 555, 556, 557, 558, 559, 560, 561, 562, 563, 564, 565, 566, 567, 568, 569, 570, 571, 572, 573, 574, 575, 576, 577, 578, 579, 580, 581, 582, 583, 584, 585, 586, 587, 588, 589, 590, 591, 592, 593, 594, 595, 596, 597, 598, 599, 600, 601, 602, 603, 604, 605, 606, 607, 608, 609, 610, 611, 612, 613, 614, 615, 616, 617, 618, 619, 620, 621, 622, 623, 624, 625, 626, 627, 628, 629, 630, 631, 632, 633, 634, 635, 636, 637, 638, 639, 640, 641, 642, 643, 644, 645, 646, 647, 648, 649, 650, 651, 652, 653, 654, 655, 656, 657, 658, 659, 660, 661, 662, 663, 664, 665, 666, 667, 668, 669, 670, 671, 672, 673, 674, 675, 676, 677, 678, 679, 680, 681, 682, 683, 684, 685, 686, 687, 688, 689, 690, 691, 692, 693, 694, 695, 696, 697, 698, 699, 700, 701, 702, 703, 704, 705, 706, 707, 708, 709, 710, 711, 712, 713, 714, 715, 716, 717, 718, 719, 720, 721, 722, 723, 724, 725, 726, 727, 728, 729, 730, 731, 732, 733, 734, 735, 736, 737, 738, 739, 740, 741, 742, 743, 744, 745, 746, 747, 748, 749, 750, 751, 752, 753, 754, 755, 756, 757, 758, 759, 760, 761, 762, 763, 764, 765, 766, 767, 768, 769, 770, 771, 772, 773, 774, 775, 776, 777, 778, 779, 780, 781, 782, 783, 784, 785, 786, 787, 788, 789, 790, 791, 792, 793, 794, 795, 796, 797, 798, 799, 800, 801, 802, 803, 804, 805, 806, 807, 808, 809, 810, 811, 812, 813, 814, 815, 816, 817, 818, 819, 820, 821, 822, 823, 824, 825, 826, 827, 828, 829, 830, 831, 832, 833, 834, 835, 836, 837, 838, 839, 840, 841, 842, 843, 844, 845, 846, 847, 848, 849, 850, 851, 852, 853, 854, 855, 856, 857, 858, 859, 860, 861, 862, 863, 864, 865, 866, 867, 868, 869, 870, 871, 872],
      "AcquisitionTime": ["191511.577500", "191512.037500", "191512.497500", "191512.957500", "191513.417500", "191513.877500", "191514.337500", "191514.797500", "191515.257500", "191515.717500", "191516.177500", "191516.637500", "191517.097500", "191517.557500", "191518.017500", "191518.477500", "191518.937500", "191519.397500", "191519.857500", "191520.317500", "191520.777500", "191521.237500", "191521.697500", "191522.157500", "191522.617500", "191523.077500", "191523.537500", "191523.997500", "191524.457500", "191524.917500", "191525.377500", "191525.837500", "191526.297500", "191526.757500", "191527.217500", "191527.677500", "191528.137500", "191528.597500", "191529.057500", "191529.517500", "191529.977500", "191530.437500", "191530.897500", "191531.357500", "191531.817500", "191532.277500", "191532.737500", "191533.197500", "191533.657500", "191534.117500", "191534.577500", "191535.037500", "191535.497500", "191535.957500", "191536.417500", "191536.877500", "191537.337500", "191537.797500", "191538.257500", "191538.717500", "191539.177500", "191539.637500", "191540.097500", "191540.557500", "191541.017500", "191541.477500", "191541.937500", "191542.397500", "191542.857500", "191543.317500", "191543.777500", "191544.237500", "191544.697500", "191545.157500", "191545.617500", "191546.077500", "191546.537500", "191546.997500", "191547.457500", "191547.917500", "191548.377500", "191548.837500", "191549.297500", "191549.757500", "191550.217500", "191550.677500", "191551.137500", "191551.597500", "191552.057500", "191552.517500", "191552.977500", "191553.437500", "191553.897500", "191554.357500", "191554.817500", "191555.277500", "191555.737500", "191556.197500", "191556.657500", "191557.117500", "191557.577500", "191558.037500", "191558.497500", "191558.957500", "191559.417500", "191559.877500", "191600.337500", "191600.797500", "191601.257500", "191601.717500", "191602.177500", "191602.637500", "191603.097500", "191603.557500", "191604.017500", "191604.477500", "191604.937500", "191605.397500", "191605.857500", "191606.317500", "191606.777500", "191607.237500", "191607.697500", "191608.157500", "191608.617500", "191609.077500", "191609.537500", "191609.997500", "191610.457500", "191610.917500", "191611.377500", "191611.837500", "191612.297500", "191612.757500", "191613.217500", "191613.677500", "191614.137500", "191614.597500", "191615.057500", "191615.517500", "191615.977500", "191616.437500", "191616.897500", "191617.357500", "191617.817500", "191618.277500", "191618.737500", "191619.197500", "191619.657500", "191620.117500", "191620.577500", "191621.037500", "191621.497500", "191621.957500", "191622.417500", "191622.877500", "191623.337500", "191623.797500", "191624.257500", "191624.717500", "191625.177500", "191625.637500", "191626.097500", "191626.557500", "191627.017500", "191627.477500", "191627.937500", "191628.397500", "191628.857500", "191629.317500", "191629.777500", "191630.237500", "191630.697500", "191631.157500", "191631.617500", "191632.077500", "191632.537500", "191632.997500", "191633.457500", "191633.917500", "191634.377500", "191634.837500", "191635.297500", "191635.757500", "191636.217500", "191636.677500", "191637.137500", "191637.597500", "191638.057500", "191638.517500", "191638.977500", "191639.437500", "191639.897500", "191640.357500", "191640.817500", "191641.277500", "191641.737500", "191642.197500", "191642.657500", "191643.117500", "191643.577500", "191644.037500", "191644.497500", "191644.957500", "191645.417500", "191645.877500", "191646.337500", "191646.797500", "191647.257500", "191647.717500", "191648.177500", "191648.637500", "191649.097500", "191649.557500", "191650.017500", "191650.477500", "191650.937500", "191651.397500", "191651.857500", "191652.317500", "191652.777500", "191653.237500", "191653.697500", "191654.157500", "191654.617500", "191655.077500", "191655.537500", "191655.997500", "191656.457500", "191656.917500", "191657.377500", "191657.837500", "191658.297500", "191658.757500", "191659.217500", "191659.677500", "191700.137500", "191700.597500", "191701.057500", "191701.517500", "191701.977500", "191702.437500", "191702.897500", "191703.357500", "191703.817500", "191704.277500", "191704.737500", "191705.197500", "191705.657500", "191706.117500", "191706.577500", "191707.037500", "191707.497500", "191707.957500", "191708.417500", "191708.877500", "191709.337500", "191709.797500", "191710.257500", "191710.717500", "191711.177500", "191711.637500", "191712.097500", "191712.557500", "191713.017500", "191713.477500", "191713.937500", "191714.397500", "191714.857500", "191715.317500", "191715.777500", "191716.237500", "191716.697500", "191717.157500", "191717.617500", "191718.077500", "191718.537500", "191718.997500", "191719.457500", "191719.917500", "191720.377500", "191720.837500", "191721.297500", "191721.757500", "191722.217500", "191722.677500", "191723.137500", "191723.597500", "191724.057500", "191724.517500", "191724.977500", "191725.437500", "191725.897500", "191726.357500", "191726.817500", "191727.277500", "191727.737500", "191728.197500", "191728.657500", "191729.117500", "191729.577500", "191730.037500", "191730.497500", "191730.957500", "191731.417500", "191731.877500", "191732.337500", "191732.797500", "191733.257500", "191733.717500", "191734.177500", "191734.637500", "191735.097500", "191735.557500", "191736.017500", "191736.477500", "191736.937500", "191737.397500", "191737.857500", "191738.317500", "191738.777500", "191739.237500", "191739.697500", "191740.157500", "191740.617500", "191741.077500", "191741.537500", "191741.997500", "191742.457500", "191742.917500", "191743.377500", "191743.837500", "191744.297500", "191744.757500", "191745.217500", "191745.677500", "191746.137500", "191746.597500", "191747.057500", "191747.517500", "191747.977500", "191748.437500", "191748.897500", "191749.357500", "191749.817500", "191750.277500", "191750.737500", "191751.197500", "191751.657500", "191752.117500", "191752.577500", "191753.037500", "191753.497500", "191753.957500", "191754.417500", "191754.877500", "191755.337500", "191755.797500", "191756.257500", "191756.717500", "191757.177500", "191757.637500", "191758.097500", "191758.557500", "191759.017500", "191759.477500", "191759.937500", "191800.397500", "191800.857500", "191801.317500", "191801.777500", "191802.237500", "191802.697500", "191803.157500", "191803.617500", "191804.077500", "191804.537500", "191804.997500", "191805.457500", "191805.917500", "191806.377500", "191806.837500", "191807.297500", "191807.757500", "191808.217500", "191808.677500", "191809.137500", "191809.597500", "191810.057500", "191810.517500", "191810.977500", "191811.437500", "191811.897500", "191812.357500", "191812.817500", "191813.277500", "191813.737500", "191814.197500", "191814.657500", "191815.117500", "191815.577500", "191816.037500", "191816.497500", "191816.957500", "191817.417500", "191817.877500", "191818.337500", "191818.797500", "191819.257500", "191819.717500", "191820.177500", "191820.637500", "191821.097500", "191821.557500", "191822.017500", "191822.477500", "191822.937500", "191823.397500", "191823.857500", "191824.317500", "191824.777500", "191825.237500", "191825.697500", "191826.157500", "191826.617500", "191827.077500", "191827.537500", "191827.997500", "191828.457500", "191828.917500", "191829.377500", "191829.837500", "191830.297500", "191830.757500", "191831.217500", "191831.677500", "191832.137500", "191832.597500", "191833.057500", "191833.517500", "191833.977500", "191834.437500", "191834.897500", "191835.357500", "191835.817500", "191836.277500", "191836.737500", "191837.197500", "191837.657500", "191838.117500", "191838.577500", "191839.037500", "191839.497500", "191839.957500", "191840.417500", "191840.877500", "191841.337500", "191841.797500", "191842.257500", "191842.717500", "191843.177500", "191843.637500", "191844.097500", "191844.557500", "191845.017500", "191845.477500", "191845.937500", "191846.397500", "191846.857500", "191847.317500", "191847.777500", "191848.237500", "191848.697500", "191849.157500", "191849.617500", "191850.077500", "191850.537500", "191850.997500", "191851.457500", "191851.917500", "191852.377500", "191852.837500", "191853.297500", "191853.757500", "191854.217500", "191854.677500", "191855.137500", "191855.597500", "191856.057500", "191856.517500", "191856.977500", "191857.437500", "191857.897500", "191858.357500", "191858.817500", "191859.277500", "191859.737500", "191900.197500", "191900.657500", "191901.117500", "191901.577500", "191902.037500", "191902.497500", "191902.957500", "191903.417500", "191903.877500", "191904.337500", "191904.797500", "191905.257500", "191905.717500", "191906.177500", "191906.637500", "191907.097500", "191907.557500", "191908.017500", "191908.477500", "191908.937500", "191909.397500", "191909.857500", "191910.317500", "191910.777500", "191911.237500", "191911.697500", "191912.157500", "191912.617500", "191913.077500", "191913.537500", "191913.997500", "191914.457500", "191914.917500", "191915.377500", "191915.837500", "191916.297500", "191916.757500", "191917.217500", "191917.677500", "191918.137500", "191918.597500", "191919.057500", "191919.517500", "191919.977500", "191920.437500", "191920.897500", "191921.357500", "191921.817500", "191922.277500", "191922.737500", "191923.197500", "191923.657500", "191924.117500", "191924.577500", "191925.037500", "191925.497500", "191925.957500", "191926.417500", "191926.877500", "191927.337500", "191927.797500", "191928.257500", "191928.717500", "191929.177500", "191929.637500", "191930.097500", "191930.557500", "191931.017500", "191931.477500", "191931.937500", "191932.397500", "191932.857500", "191933.317500", "191933.777500", "191934.237500", "191934.697500", "191935.157500", "191935.617500", "191936.077500", "191936.537500", "191936.997500", "191937.457500", "191937.917500", "191938.377500", "191938.837500", "191939.297500", "191939.757500", "191940.217500", "191940.677500", "191941.137500", "191941.597500", "191942.057500", "191942.517500", "191942.977500", "191943.437500", "191943.897500", "191944.357500", "191944.817500", "191945.277500", "191945.737500", "191946.197500", "191946.657500", "191947.117500", "191947.577500", "191948.037500", "191948.497500", "191948.957500", "191949.417500", "191949.877500", "191950.337500", "191950.797500", "191951.257500", "191951.717500", "191952.177500", "191952.637500", "191953.097500", "191953.557500", "191954.017500", "191954.477500", "191954.937500", "191955.397500", "191955.857500", "191956.317500", "191956.777500", "191957.237500", "191957.697500", "191958.157500", "191958.617500", "191959.077500", "191959.537500", "191959.997500", "192000.457500", "192000.917500", "192001.377500", "192001.837500", "192002.297500", "192002.757500", "192003.217500", "192003.677500", "192004.137500", "192004.597500", "192005.057500", "192005.517500", "192005.977500", "192006.437500", "192006.897500", "192007.357500", "192007.817500", "192008.277500", "192008.737500", "192009.197500", "192009.657500", "192010.117500", "192010.577500", "192011.037500", "192011.497500", "192011.957500", "192012.417500", "192012.877500", "192013.337500", "192013.797500", "192014.257500", "192014.717500", "192015.177500", "192015.637500", "192016.097500", "192016.557500", "192017.017500", "192017.477500", "192017.937500", "192018.397500", "192018.857500", "192019.317500", "192019.777500", "192020.237500", "192020.697500", "192021.157500", "192021.617500", "192022.077500", "192022.537500", "192022.997500", "192023.457500", "192023.917500", "192024.377500", "192024.837500", "192025.297500", "192025.757500", "192026.217500", "192026.677500", "192027.137500", "192027.597500", "192028.057500", "192028.517500", "192028.977500", "192029.437500", "192029.897500", "192030.357500", "192030.817500", "192031.277500", "192031.737500", "192032.197500", "192032.657500", "192033.117500", "192033.577500", "192034.037500", "192034.497500", "192034.957500", "192035.417500", "192035.877500", "192036.337500", "192036.797500", "192037.257500", "192037.717500", "192038.177500", "192038.637500", "192039.097500", "192039.557500", "192040.017500", "192040.477500", "192040.937500", "192041.397500", "192041.857500", "192042.317500", "192042.777500", "192043.237500", "192043.697500", "192044.157500", "192044.617500", "192045.077500", "192045.537500", "192045.997500", "192046.457500", "192046.917500", "192047.377500", "192047.837500", "192048.297500", "192048.757500", "192049.217500", "192049.677500", "192050.137500", "192050.597500", "192051.057500", "192051.517500", "192051.977500", "192052.437500", "192052.897500", "192053.357500", "192053.817500", "192054.277500", "192054.737500", "192055.197500", "192055.657500", "192056.117500", "192056.577500", "192057.037500", "192057.497500", "192057.957500", "192058.417500", "192058.877500", "192059.337500", "192059.797500", "192100.257500", "192100.717500", "192101.177500", "192101.637500", "192102.097500", "192102.557500", "192103.017500", "192103.477500", "192103.937500", "192104.397500", "192104.857500", "192105.317500", "192105.777500", "192106.237500", "192106.697500", "192107.157500", "192107.617500", "192108.077500", "192108.537500", "192108.997500", "192109.457500", "192109.917500", "192110.377500", "192110.837500", "192111.297500", "192111.757500", "192112.217500", "192112.677500", "192113.137500", "192113.597500", "192114.057500", "192114.517500", "192114.977500", "192115.437500", "192115.897500", "192116.357500", "192116.817500", "192117.277500", "192117.737500", "192118.197500", "192118.657500", "192119.117500", "192119.577500", "192120.037500", "192120.497500", "192120.957500", "192121.417500", "192121.877500", "192122.337500", "192122.797500", "192123.257500", "192123.717500", "192124.177500", "192124.637500", "192125.097500", "192125.557500", "192126.017500", "192126.477500", "192126.937500", "192127.397500", "192127.857500", "192128.317500", "192128.777500", "192129.237500", "192129.697500", "192130.157500", "192130.617500", "192131.077500", "192131.537500", "192131.997500", "192132.457500", "192132.917500", "192133.377500", "192133.837500", "192134.297500", "192134.757500", "192135.217500", "192135.677500", "192136.137500", "192136.597500", "192137.057500", "192137.517500", "192137.977500", "192138.437500", "192138.897500", "192139.357500", "192139.817500", "192140.277500", "192140.737500", "192141.197500", "192141.657500", "192142.117500", "192142.577500", "192143.037500", "192143.497500", "192143.957500", "192144.417500", "192144.877500", "192145.337500", "192145.797500", "192146.257500", "192146.717500", "192147.177500", "192147.637500", "192148.097500", "192148.557500", "192149.017500", "192149.477500", "192149.937500", "192150.397500", "192150.857500", "192151.317500", "192151.777500", "192152.237500"],
