{
  "AcquisitionMatrixPE": 140,
  "AcquisitionNumber": 1,
  "AcquisitionTime": "10:23:21.995000",
  "BandwidthPerPixelPhaseEncode": 10.352,
  "BaseResolution": 140,
  "BodyPartExamined": "BRAIN",
  "ConsistencyInfo": "N4_VE11E_LATEST_20181129",
  "ConversionSoftware": "dcm2niix",
  "ConversionSoftwareVersion": "v1.0.20201102",
  "DerivedVendorReportedEchoSpacing": 0.000689998,
  "DeviceSerialNumber": "66112",
  "DiffusionScheme": "Monopolar",
  "DwellTime": 2.1e-06,
  "EchoTime": 0.088,
  "EchoTrainLength": 105,
  "EffectiveEchoSpacing": 0.000689998,
  "FlipAngle": 90,
  "ImageComments": "Unaliased MB3/PE3",
  "ImageOrientationPatientDICOM": [0.999685, -0.0016258, -0.0250627, 0.01012, 0.939382, 0.342724],
  "ImageType": [
    "ORIGINAL",
    "PRIMARY",
    "DIFFUSION",
    "NONE",
    "MB",
    "ND"
],
  "ImagingFrequency": 123.252,
  "InPlanePhaseEncodingDirectionDICOM": "COL",
  "InstitutionAddress": "Maynard 3,Hanover,NH,US,03755",
  "InstitutionName": "Dartmouth College - PBS",
  "InstitutionalDepartmentName": "Department",
  "IntendedFor": [
    "ses-01/dwi/sub-0051_ses-01_acq-96dirX6b0Xmb_dwi.nii.gz"
],
  "MRAcquisitionType": "2D",
  "MagneticFieldStrength": 3,
  "Manufacturer": "Siemens",
  "ManufacturersModelName": "Prisma",
  "Modality": "MR",
  "MultibandAccelerationFactor": 3,
  "PartialFourier": 0.75,
  "PatientPosition": "HFS",
  "PercentPhaseFOV": 100,
  "PercentSampling": 100,
  "PhaseEncodingDirection": "j-",
  "PhaseEncodingSteps": 105,
  "PhaseResolution": 1,
  "PixelBandwidth": 1700,
  "ProcedureStepDescription": "Wager_Wager^1076_spacetop",
  "ProtocolName": "dwi_acq-discorr-AP",
  "PulseSequenceDetails": "%CustomerSeq%\\cmrr_mbep2d_diff",
  "ReceiveCoilActiveElements": "HEA;HEP",
  "ReceiveCoilName": "Head_32",
  "ReconMatrixPE": 140,
  "RepetitionTime": 4.1,
  "SAR": 0.157379,
  "ScanOptions": "PFP\\FS",
  "ScanningSequence": "EP",
  "SequenceName": "ep_b0",
  "SequenceVariant": "SK\\SS",
  "SeriesDescription": "dwi_acq-discorr-AP",
  "SeriesNumber": 7,
  "ShimSetting": [4122, -7779, -7300, 572, -56, -68, -18, 145],
  "SliceThickness": 1.7,
  "SliceTiming": [0, 2.11719, 0.15625, 2.27344, 0.30469, 2.42188, 0.46094, 2.57031, 0.60938, 2.72656, 0.75781, 2.875, 0.91406, 3.02344, 1.0625, 3.17969, 1.21094, 3.32812, 1.35938, 3.47656, 1.51562, 3.63281, 1.66406, 3.78125, 1.82031, 3.92969, 1.96875, 0, 2.11719, 0.15625, 2.27344, 0.30469, 2.42188, 0.46094, 2.57031, 0.60938, 2.72656, 0.75781, 2.875, 0.91406, 3.02344, 1.0625, 3.17969, 1.21094, 3.32812, 1.35938, 3.47656, 1.51562, 3.63281, 1.66406, 3.78125, 1.82031, 3.92969, 1.96875, 0, 2.11719, 0.15625, 2.27344, 0.30469, 2.42188, 0.46094, 2.57031, 0.60938, 2.72656, 0.75781, 2.875, 0.91406, 3.02344, 1.0625, 3.17969, 1.21094, 3.32812, 1.35938, 3.47656, 1.51562, 3.63281, 1.66406, 3.78125, 1.82031, 3.92969, 1.96875],
  "SoftwareVersions": "syngo MR E11",
  "SpacingBetweenSlices": 1.7,
  "StationName": "AWP66112",
  "TotalReadoutTime": 0.0959097,
  "TxRefAmp": 251.747,
  "WipMemBlock": "8a94bf97-4410-46ba-b709-8c56108d656d||Sequence: R016 ve11e/master r/434b28f1; Aug  7 2019 19:06:17 by eja",
  "dcmmeta_affine": [
    [-1.7137449979782104, 0.017348630353808403, -0.03907632827758789, 126.53179931640625],
    [0.0027870899066329002, 1.6103686094284058, 0.5828781127929688, -106.08824157714844],
    [-0.042964670807123184, -0.5875266194343567, 1.5964736938476562, -25.274066925048828],
    [0.0, 0.0, 0.0, 1.0]
],
  "dcmmeta_reorient_transform": [
    [0.0, -1.0, 0.0, 139.0],
    [1.0, 0.0, 0.0, 0.0],
    [0.0, 0.0, -1.0, 80.0],
    [0.0, 0.0, 0.0, 1.0]
],
  "dcmmeta_shape": [140, 140, 81],
  "dcmmeta_slice_dim": 2,
  "dcmmeta_version": 0.6,
  "global": {
    "const": {
      "AccessionNumber": "A003889",
      "AcquisitionMatrix": [140, 0, 0, 140],
      "AcquisitionNumber": 1,
      "AngioFlag": "N",
      "BitsAllocated": 16,
      "BitsStored": 16,
      "BodyPartExamined": "BRAIN",
      "Columns": 140,
      "EchoNumbers": 1,
      "EchoTime": 88.0,
      "EchoTrainLength": 105,
      "FlipAngle": 90.0,
      "HighBit": 15,
      "ImageOrientationPatient": [0.99968455856655, -0.0016258024821, -0.0250627239119, 0.01012003465521, 0.93938168253445, 0.34272385300315],
      "ImageType": [
        "ORIGINAL",
        "PRIMARY",
        "DIFFUSION",
        "NONE",
        "MB",
        "ND"
],
      "ImagedNucleus": "1H",
      "ImagingFrequency": 123.252172,
      "InPlanePhaseEncodingDirection": "COL",
      "MRAcquisitionType": "2D",
      "MagneticFieldStrength": 3.0,
      "Manufacturer": "SIEMENS",
      "ManufacturerModelName": "Prisma",
      "Modality": "MR",
      "NumberOfAverages": 1.0,
      "NumberOfPhaseEncodingSteps": 105,
      "PercentPhaseFieldOfView": 100.0,
      "PercentSampling": 100.0,
      "PerformedProcedureStepStartTime": "100512.308000",
      "PhotometricInterpretation": "MONOCHROME2",
      "PixelBandwidth": 1700.0,
      "PixelRepresentation": 0,
      "PixelSpacing": [1.7142857313156, 1.7142857313156],
      "ProtocolName": "dwi_acq-discorr-AP",
      "RepetitionTime": 4100.0,
      "Rows": 140,
      "SAR": 0.15737915412238,
      "SamplesPerPixel": 1,
      "ScanOptions": [
        "PFP",
        "FS"
],
      "ScanningSequence": "EP",
      "SequenceName": "ep_b0",
      "SequenceVariant": [
        "SK",
        "SS"
],
      "SeriesDescription": "dwi_acq-discorr-AP",
      "SeriesNumber": 7,
      "SeriesTime": "102326.730000",
      "SliceThickness": 1.7000000476837,
      "SmallestImagePixelValue": 0,
      "SoftwareVersions": "syngo MR E11",
      "SpacingBetweenSlices": 1.7,
      "SpecificCharacterSet": "ISO_IR 100",
      "StudyID": "1",
      "StudyTime": "100512.141000",
      "TransmitCoilName": "Body",
      "VariableFlipAngleFlag": "N",
      "WindowCenterWidthExplanation": "Algo1"
    },
    "slices": {
      "AcquisitionTime": ["102321.995000", "102324.112500", "102322.147500", "102324.262500", "102322.297500", "102324.412500", "102322.450000", "102324.565000", "102322.600000", "102324.715000", "102322.752500", "102324.867500", "102322.902500", "102325.017500", "102323.052500", "102325.170000", "102323.205000", "102325.320000", "102323.355000", "102325.472500", "102323.507500", "102325.622500", "102323.657500", "102325.772500", "102323.810000", "102325.925000", "102323.960000", "102321.995000", "102324.112500", "102322.147500", "102324.262500", "102322.297500", "102324.412500", "102322.450000", "102324.565000", "102322.600000", "102324.715000", "102322.752500", "102324.867500", "102322.902500", "102325.017500", "102323.052500", "102325.170000", "102323.205000", "102325.320000", "102323.355000", "102325.472500", "102323.507500", "102325.622500", "102323.657500", "102325.772500", "102323.810000", "102325.925000", "102323.960000", "102321.995000", "102324.112500", "102322.147500", "102324.262500", "102322.297500", "102324.412500", "102322.450000", "102324.565000", "102322.600000", "102324.715000", "102322.752500", "102324.867500", "102322.902500", "102325.017500", "102323.052500", "102325.170000", "102323.205000", "102325.320000", "102323.355000", "102325.472500", "102323.507500", "102325.622500", "102323.657500", "102325.772500", "102323.810000", "102325.925000", "102323.960000"],
      "ContentTime": ["102326.733000", "102326.823000", "102326.740000", "102326.842000", "102326.746000", "102326.848000", "102326.752000", "102326.854000", "102326.757000", "102326.860000", "102326.763000", "102326.866000", "102326.769000", "102326.873000", "102326.775000", "102326.879000", "102326.781000", "102326.885000", "102326.794000", "102326.891000", "102326.799000", "102326.897000", "102326.805000", "102326.903000", "102326.811000", "102326.909000", "102326.817000", "102326.736000", "102326.825000", "102326.742000", "102326.844000", "102326.748000", "102326.850000", "102326.754000", "102326.856000", "102326.759000", "102326.862000", "102326.765000", "102326.869000", "102326.771000", "102326.875000", "102326.777000", "102326.881000", "102326.783000", "102326.887000", "102326.795000", "102326.893000", "102326.801000", "102326.899000", "102326.807000", "102326.905000", "102326.813000", "102326.910000", "102326.819000", "102326.738000", "102326.840000", "102326.744000", "102326.846000", "102326.750000", "102326.852000", "102326.756000", "102326.858000", "102326.761000", "102326.864000", "102326.767000", "102326.871000", "102326.773000", "102326.877000", "102326.779000", "102326.883000", "102326.792000", "102326.889000", "102326.797000", "102326.895000", "102326.803000", "102326.901000", "102326.809000", "102326.907000", "102326.815000", "102326.912000", "102326.821000"],
      "CsaImage.GSWDDataType": [
        "predicted",
        "predicted",
        "predicted",
        "predicted",
        "predicted",
        "predicted",
        "predicted",
        "predicted",
        "predicted",
        "predicted",
        "predicted",
        "predicted",
        "predicted",
        "predicted",
        "predicted",
        "predicted",
        "predicted",
        "predicted",
        "predicted",
        "predicted",
        "predicted",
        "predicted",
        "predicted",
        "measured",
        "predicted",
        "measured",
        "predicted",
        "predicted",
        "predicted",
        "predicted",
        "predicted",
        "predicted",
        "predicted",
        "predicted",
        "predicted",
        "predicted",
        "predicted",
        "predicted",
        "predicted",
        "predicted",
        "predicted",
        "predicted",
        "predicted",
        "predicted",
        "predicted",
        "predicted",
        "predicted",
        "predicted",
        "predicted",
        "predicted",
        "measured",
        "predicted",
        "measured",
        "predicted",
        "predicted",
        "predicted",
        "predicted",
        "predicted",
        "predicted",
        "predicted",
        "predicted",
        "predicted",
        "predicted",
        "predicted",
        "predicted",
        "predicted",
        "predicted",
        "predicted",
        "predicted",
        "predicted",
        "predicted",
        "predicted",
        "predicted",
        "predicted",
        "predicted",
        "predicted",
        "predicted",
        "measured",
        "predicted",
        "measured",
        "predicted"
],
      "CsaImage.ICE_Dims": [
        "X_1_1_1_1_1_1_1_1_1_1_1_25",
        "X_1_1_1_1_1_1_42_1_1_2_1_25",
        "X_1_1_1_1_1_1_2_1_1_3_1_25",
        "X_1_1_1_1_1_1_43_1_1_4_1_25",
        "X_1_1_1_1_1_1_3_1_1_5_1_25",
        "X_1_1_1_1_1_1_44_1_1_6_1_25",
        "X_1_1_1_1_1_1_4_1_1_7_1_25",
        "X_1_1_1_1_1_1_45_1_1_8_1_25",
        "X_1_1_1_1_1_1_5_1_1_9_1_25",
        "X_1_1_1_1_1_1_46_1_1_10_1_25",
        "X_1_1_1_1_1_1_6_1_1_11_1_25",
        "X_1_1_1_1_1_1_47_1_1_12_1_25",
        "X_1_1_1_1_1_1_7_1_1_13_1_25",
        "X_1_1_1_1_1_1_48_1_1_14_1_25",
        "X_1_1_1_1_1_1_8_1_1_15_1_25",
        "X_1_1_1_1_1_1_49_1_1_16_1_25",
        "X_1_1_1_1_1_1_9_1_1_17_1_25",
        "X_1_1_1_1_1_1_50_1_1_18_1_25",
        "X_1_1_1_1_1_1_10_1_1_19_1_25",
        "X_1_1_1_1_1_1_51_1_1_20_1_25",
        "X_1_1_1_1_1_1_11_1_1_21_1_25",
        "X_1_1_1_1_1_1_52_1_1_22_1_25",
        "X_1_1_1_1_1_1_12_1_1_23_1_25",
        "X_1_1_1_1_1_1_53_1_1_24_1_25",
        "X_1_1_1_1_1_1_13_1_1_25_1_25",
        "X_1_1_1_1_1_1_54_1_1_26_1_25",
        "X_1_1_1_1_1_1_14_1_1_27_1_25",
        "X_1_1_1_1_1_1_55_1_1_28_1_25",
        "X_1_1_1_1_1_1_15_1_1_29_1_25",
        "X_1_1_1_1_1_1_56_1_1_30_1_25",
        "X_1_1_1_1_1_1_16_1_1_31_1_25",
        "X_1_1_1_1_1_1_57_1_1_32_1_25",
        "X_1_1_1_1_1_1_17_1_1_33_1_25",
        "X_1_1_1_1_1_1_58_1_1_34_1_25",
        "X_1_1_1_1_1_1_18_1_1_35_1_25",
        "X_1_1_1_1_1_1_59_1_1_36_1_25",
        "X_1_1_1_1_1_1_19_1_1_37_1_25",
        "X_1_1_1_1_1_1_60_1_1_38_1_25",
        "X_1_1_1_1_1_1_20_1_1_39_1_25",
        "X_1_1_1_1_1_1_61_1_1_40_1_25",
        "X_1_1_1_1_1_1_21_1_1_41_1_25",
        "X_1_1_1_1_1_1_62_1_1_42_1_25",
        "X_1_1_1_1_1_1_22_1_1_43_1_25",
        "X_1_1_1_1_1_1_63_1_1_44_1_25",
        "X_1_1_1_1_1_1_23_1_1_45_1_25",
        "X_1_1_1_1_1_1_64_1_1_46_1_25",
        "X_1_1_1_1_1_1_24_1_1_47_1_25",
        "X_1_1_1_1_1_1_65_1_1_48_1_25",
        "X_1_1_1_1_1_1_25_1_1_49_1_25",
        "X_1_1_1_1_1_1_66_1_1_50_1_25",
        "X_1_1_1_1_1_1_26_1_1_51_1_25",
        "X_1_1_1_1_1_1_67_1_1_52_1_25",
        "X_1_1_1_1_1_1_27_1_1_53_1_25",
        "X_1_1_1_1_1_1_68_1_1_54_1_25",
        "X_1_1_1_1_1_1_28_1_1_55_1_25",
        "X_1_1_1_1_1_1_69_1_1_56_1_25",
        "X_1_1_1_1_1_1_29_1_1_57_1_25",
        "X_1_1_1_1_1_1_70_1_1_58_1_25",
        "X_1_1_1_1_1_1_30_1_1_59_1_25",
        "X_1_1_1_1_1_1_71_1_1_60_1_25",
        "X_1_1_1_1_1_1_31_1_1_61_1_25",
        "X_1_1_1_1_1_1_72_1_1_62_1_25",
        "X_1_1_1_1_1_1_32_1_1_63_1_25",
        "X_1_1_1_1_1_1_73_1_1_64_1_25",
        "X_1_1_1_1_1_1_33_1_1_65_1_25",
        "X_1_1_1_1_1_1_74_1_1_66_1_25",
        "X_1_1_1_1_1_1_34_1_1_67_1_25",
        "X_1_1_1_1_1_1_75_1_1_68_1_25",
        "X_1_1_1_1_1_1_35_1_1_69_1_25",
        "X_1_1_1_1_1_1_76_1_1_70_1_25",
        "X_1_1_1_1_1_1_36_1_1_71_1_25",
        "X_1_1_1_1_1_1_77_1_1_72_1_25",
        "X_1_1_1_1_1_1_37_1_1_73_1_25",
        "X_1_1_1_1_1_1_78_1_1_74_1_25",
        "X_1_1_1_1_1_1_38_1_1_75_1_25",
        "X_1_1_1_1_1_1_79_1_1_76_1_25",
        "X_1_1_1_1_1_1_39_1_1_77_1_25",
        "X_1_1_1_1_1_1_80_1_1_78_1_25",
        "X_1_1_1_1_1_1_40_1_1_79_1_25",
        "X_1_1_1_1_1_1_81_1_1_80_1_25",
        "X_1_1_1_1_1_1_41_1_1_81_1_25"
],
      "CsaImage.ProtocolSliceNumber": [0, 1, 2, 3, 4, 5, 6, 7, 8, 9, 10, 11, 12, 13, 14, 15, 16, 17, 18, 19, 20, 21, 22, 23, 24, 25, 26, 27, 28, 29, 30, 31, 32, 33, 34, 35, 36, 37, 38, 39, 40, 41, 42, 43, 44, 45, 46, 47, 48, 49, 50, 51, 52, 53, 54, 55, 56, 57, 58, 59, 60, 61, 62, 63, 64, 65, 66, 67, 68, 69, 70, 71, 72, 73, 74, 75, 76, 77, 78, 79, 80],
      "CsaImage.RFSWDDataType": [
        "predicted",
        "predicted",
        "predicted",
        "predicted",
        "predicted",
        "predicted",
        "predicted",
        "predicted",
        "predicted",
        "predicted",
        "predicted",
        "predicted",
        "predicted",
        "predicted",
        "predicted",
        "predicted",
        "predicted",
        "predicted",
        "predicted",
        "predicted",
        "predicted",
        "predicted",
        "predicted",
        "measured",
        "predicted",
        "measured",
        "predicted",
        "predicted",
        "predicted",
        "predicted",
        "predicted",
        "predicted",
        "predicted",
        "predicted",
        "predicted",
        "predicted",
        "predicted",
        "predicted",
        "predicted",
        "predicted",
        "predicted",
        "predicted",
        "predicted",
        "predicted",
        "predicted",
        "predicted",
        "predicted",
        "predicted",
        "predicted",
        "predicted",
        "measured",
        "predicted",
        "measured",
        "predicted",
        "predicted",
        "predicted",
        "predicted",
        "predicted",
        "predicted",
        "predicted",
        "predicted",
        "predicted",
        "predicted",
        "predicted",
        "predicted",
        "predicted",
        "predicted",
        "predicted",
        "predicted",
        "predicted",
        "predicted",
        "predicted",
        "predicted",
        "predicted",
        "predicted",
        "predicted",
        "predicted",
        "measured",
        "predicted",
        "measured",
        "predicted"
],
      "CsaImage.SlicePosition_PCS": [
        [-128.94328318, -117.75300773, -106.94022057],
        [-128.90420637, -118.33588584, -105.34374688],
        [-128.86512957, -118.91876348, -103.74727319],
        [-128.82605324, -119.50164159, -102.15079949],
        [-128.78697643, -120.08451923, -100.5543258],
        [-128.74789963, -120.66739782, -98.9578521],
        [-128.7088233, -121.25027498, -97.36138223],
        [-128.66974649, -121.83315309, -95.76490853],
        [-128.63066969, -122.4160312, -94.16843484],
        [-128.59159336, -122.99890932, -92.57196114],
        [-128.55251656, -123.58178743, -90.97548745],
        [-128.51343975, -124.16466554, -89.37901376],
        [-128.47436342, -124.7475427, -87.78254388],
        [-128.43528662, -125.33042081, -86.18607018],
        [-128.39620981, -125.91329893, -84.58959649],
        [-128.35713348, -126.49617704, -82.9931228],
        [-128.31805668, -127.07905515, -81.3966491],
        [-128.27897987, -127.66193231, -79.80017541],
        [-128.23990354, -128.24481042, -78.20370553],
        [-128.20082674, -128.82768854, -76.60723184],
        [-128.16174993, -129.41056665, -75.01075814],
        [-128.12267361, -129.99344476, -73.41428445],
        [-128.0835968, -130.57632287, -71.81781075],
        [-128.04452, -131.15920099, -70.22133706],
        [-128.00544367, -131.7420791, -68.62486527],
        [-127.96636686, -132.32495721, -67.02839158],
        [-127.92729006, -132.90783342, -65.43191979],
        [-127.88821373, -133.49071153, -63.8354461],
        [-127.84913692, -134.07358964, -62.23897241],
        [-127.81006012, -134.65646776, -60.64250062],
        [-127.77098379, -135.23934587, -59.04602692],
        [-127.73190699, -135.82222398, -57.44955323],
        [-127.69283066, -136.40510209, -55.85307954],
        [-127.65375385, -136.98798021, -54.25660775],
        [-127.61467705, -137.57085832, -52.66013406],
        [-127.57560072, -138.15373643, -51.06366132],
        [-127.53652391, -138.73661455, -49.46718762],
        [-127.49744711, -139.31949075, -47.87071488],
        [-127.45837078, -139.90236886, -46.27424214],
        [-127.41929398, -140.48524698, -44.67776893],
        [-127.38021717, -141.06812509, -43.08129571],
        [-127.34114084, -141.6510032, -41.48482273],
        [-127.30206404, -142.23388132, -39.88834951],
        [-127.26298723, -142.81675943, -38.29187647],
        [-127.2239109, -143.39963754, -36.69540344],
        [-127.1848341, -143.98251565, -35.09893034],
        [-127.14575729, -144.56539377, -33.50245736],
        [-127.10668096, -145.14827188, -31.90598414],
        [-127.06760416, -145.73114999, -30.30951093],
        [-127.02852735, -146.3140281, -28.71303819],
        [-126.98945103, -146.89690622, -27.11656449],
        [-126.95037422, -147.47978433, -25.52009175],
        [-126.91129742, -148.06266244, -23.92361901],
        [-126.87222109, -148.64554056, -22.32714532],
        [-126.83314428, -149.22841485, -20.73067162],
        [-126.79406748, -149.81129297, -19.13419984],
        [-126.75499115, -150.39417108, -17.53772614],
        [-126.71591434, -150.97704919, -15.94125245],
        [-126.67683754, -151.55992731, -14.34478066],
        [-126.63776121, -152.14280542, -12.74830697],
        [-126.59868441, -152.72568353, -11.15183328],
        [-126.5596076, -153.30856164, -9.55536149],
        [-126.52053127, -153.89143976, -7.9588878],
        [-126.48145447, -154.47431787, -6.3624141],
        [-126.44237766, -155.05719598, -4.76594231],
        [-126.40330133, -155.64007409, -3.16946862],
        [-126.36422453, -156.22295221, -1.57299493],
        [-126.32514772, -156.80583032, 0.02347877],
        [-126.2860714, -157.38870843, 1.61995246],
        [-126.24699459, -157.97158655, 3.21642234],
        [-126.20791778, -158.55446466, 4.81289603],
        [-126.16884146, -159.13734277, 6.40936973],
        [-126.12976465, -159.72022088, 8.00584342],
        [-126.09068785, -160.303099, 9.60231711],
        [-126.05161152, -160.88597711, 11.19879081],
        [-126.01253471, -161.46885522, 12.79526069],
        [-125.97345791, -162.05173334, 14.39173438],
        [-125.93438158, -162.63460763, 15.98820808],
        [-125.89530477, -163.21748575, 17.58468177],
        [-125.85622797, -163.80036386, 19.18115546],
        [-125.81715164, -164.38324197, 20.77762916]
],
      "CsaImage.TimeAfterStart": [16.4, 18.515, 16.5525, 18.6675, 16.7025, 18.8175, 16.8525, 18.97, 17.005, 19.12, 17.155, 19.2725, 17.3075, 19.4225, 17.4575, 19.5725, 17.61, 19.725, 17.76, 19.875, 17.9125, 20.0275, 18.0625, 20.1775, 18.2125, 20.33, 18.365, 16.4, 18.515, 16.5525, 18.6675, 16.7025, 18.8175, 16.8525, 18.97, 17.005, 19.12, 17.155, 19.2725, 17.3075, 19.4225, 17.4575, 19.5725, 17.61, 19.725, 17.76, 19.875, 17.9125, 20.0275, 18.0625, 20.1775, 18.2125, 20.33, 18.365, 16.4, 18.515, 16.5525, 18.6675, 16.7025, 18.8175, 16.8525, 18.97, 17.005, 19.12, 17.155, 19.2725, 17.3075, 19.4225, 17.4575, 19.5725, 17.61, 19.725, 17.76, 19.875, 17.9125, 20.0275, 18.0625, 20.1775, 18.2125, 20.33, 18.365],
      "ImagePositionPatient": [
        [-128.94328317576, -117.75300773049, -106.94022057422],
        [-128.90420637065, -118.33588584328, -105.34374688037],
        [-128.86512956553, -118.91876347924, -103.74727318652],
        [-128.82605323726, -119.50164159203, -102.15079949268],
        [-128.78697643214, -120.08451922799, -100.55432579883],
        [-128.74789962703, -120.66739781762, -98.95785210498],
        [-128.70882329875, -121.25027497674, -97.361382225829],
        [-128.66974649363, -121.83315308953, -95.764908531982],
        [-128.63066968852, -122.41603120232, -94.168434838134],
        [-128.59159336024, -122.99890931511, -92.571961144286],
        [-128.55251655513, -123.58178742791, -90.975487450439],
        [-128.51343975001, -124.1646655407, -89.379013756591],
        [-128.47436342173, -124.74754269982, -87.782543877441],
        [-128.43528661662, -125.33042081261, -86.186070183593],
        [-128.3962098115, -125.9132989254, -84.589596489745],
        [-128.35713348323, -126.4961770382, -82.993122795898],
        [-128.31805667811, -127.07905515099, -81.39664910205],
        [-128.278979873, -127.66193231011, -79.800175408202],
        [-128.23990354472, -128.2448104229, -78.203705529052],
        [-128.2008267396, -128.8276885357, -76.607231835204],
        [-128.16174993449, -129.41056664849, -75.010758141357],
        [-128.12267360621, -129.99344476128, -73.414284447509],
        [-128.0835968011, -130.57632287407, -71.817810753661],
        [-128.04451999598, -131.15920098687, -70.221337059814],
        [-128.00544366771, -131.74207909966, -68.624865273315],
        [-127.96636686259, -132.32495721245, -67.028391579467],
        [-127.92729005748, -132.9078334179, -65.431919792968],
        [-127.8882137292, -133.49071153069, -63.83544609912],
        [-127.84913692408, -134.07358964348, -62.238972405273],
        [-127.81006011897, -134.65646775628, -60.642500618774],
        [-127.77098379069, -135.23934586907, -59.046026924926],
        [-127.73190698558, -135.82222398186, -57.449553231078],
        [-127.6928306573, -136.40510209466, -55.853079537231],
        [-127.65375385218, -136.98798020745, -54.256607750732],
        [-127.61467704707, -137.57085832024, -52.660134056884],
        [-127.57560071879, -138.15373643303, -51.063661316711],
        [-127.53652391368, -138.73661454583, -49.467187622863],
        [-127.49744710856, -139.31949075127, -47.87071488269],
        [-127.45837078028, -139.90236886406, -46.274242142516],
        [-127.41929397517, -140.48524697686, -44.677768925506],
        [-127.38021717006, -141.06812508965, -43.081295708495],
        [-127.34114084178, -141.65100320244, -41.484822729903],
        [-127.30206403666, -142.23388131524, -39.888349512893],
        [-127.26298723155, -142.81675942803, -38.291876474696],
        [-127.22391090327, -143.39963754082, -36.6954034365],
        [-127.18483409816, -143.98251565361, -35.098930338699],
        [-127.14575729304, -144.56539376641, -33.502457360107],
        [-127.10668096476, -145.1482718792, -31.905984143096],
        [-127.06760415965, -145.73114999199, -30.309510926086],
        [-127.02852735453, -146.31402810479, -28.713038185912],
        [-126.98945102626, -146.89690621758, -27.116564492065],
        [-126.95037422114, -147.47978433037, -25.520091751891],
        [-126.91129741603, -148.06266244317, -23.923619011718],
        [-126.87222108775, -148.64554055596, -22.32714531787],
        [-126.83314428263, -149.22841485405, -20.730671624023],
        [-126.79406747752, -149.81129296685, -19.134199837524],
        [-126.75499114924, -150.39417107964, -17.537726143676],
        [-126.71591434413, -150.97704919243, -15.941252449828],
        [-126.67683753901, -151.55992730523, -14.344780663329],
        [-126.63776121074, -152.14280541802, -12.748306969482],
        [-126.59868440562, -152.72568353081, -11.151833275634],
        [-126.55960760051, -153.30856164361, -9.555361489135],
        [-126.52053127223, -153.8914397564, -7.9588877952874],
        [-126.48145446711, -154.47431786919, -6.3624141014397],
        [-126.442377662, -155.05719598198, -4.7659423149407],
        [-126.40330133372, -155.64007409478, -3.1694686210931],
        [-126.36422452861, -156.22295220757, -1.5729949272454],
        [-126.32514772349, -156.80583032036, 0.02347876660225],
        [-126.28607139521, -157.38870843316, 1.6199524604499],
        [-126.2469945901, -157.97158654595, 3.2164223396003],
        [-126.20791778498, -158.55446465874, 4.812896033448],
        [-126.16884145671, -159.13734277153, 6.4093697272956],
        [-126.12976465159, -159.72022088433, 8.0058434211433],
        [-126.09068784648, -160.30309899712, 9.6023171149909],
        [-126.0516115182, -160.88597710991, 11.198790808839],
        [-126.01253471309, -161.46885522271, 12.795260687989],
        [-125.97345790797, -162.0517333355, 14.391734381837],
        [-125.93438157969, -162.6346076336, 15.988208075684],
        [-125.89530477458, -163.21748574639, 17.584681769532],
        [-125.85622796946, -163.80036385918, 19.18115546338],
        [-125.81715164119, -164.38324197197, 20.777629157227]
],
      "InstanceCreationTime": ["102326.733000", "102326.823000", "102326.740000", "102326.842000", "102326.746000", "102326.848000", "102326.752000", "102326.854000", "102326.757000", "102326.860000", "102326.763000", "102326.866000", "102326.769000", "102326.873000", "102326.775000", "102326.879000", "102326.781000", "102326.885000", "102326.794000", "102326.891000", "102326.799000", "102326.897000", "102326.805000", "102326.903000", "102326.811000", "102326.909000", "102326.817000", "102326.736000", "102326.825000", "102326.742000", "102326.844000", "102326.748000", "102326.850000", "102326.754000", "102326.856000", "102326.759000", "102326.862000", "102326.765000", "102326.869000", "102326.771000", "102326.875000", "102326.777000", "102326.881000", "102326.783000", "102326.887000", "102326.795000", "102326.893000", "102326.801000", "102326.899000", "102326.807000", "102326.905000", "102326.813000", "102326.910000", "102326.819000", "102326.738000", "102326.840000", "102326.744000", "102326.846000", "102326.750000", "102326.852000", "102326.756000", "102326.858000", "102326.761000", "102326.864000", "102326.767000", "102326.871000", "102326.773000", "102326.877000", "102326.779000", "102326.883000", "102326.792000", "102326.889000", "102326.797000", "102326.895000", "102326.803000", "102326.901000", "102326.809000", "102326.907000", "102326.815000", "102326.912000", "102326.821000"],
      "InstanceNumber": [1, 2, 3, 4, 5, 6, 7, 8, 9, 10, 11, 12, 13, 14, 15, 16, 17, 18, 19, 20, 21, 22, 23, 24, 25, 26, 27, 28, 29, 30, 31, 32, 33, 34, 35, 36, 37, 38, 39, 40, 41, 42, 43, 44, 45, 46, 47, 48, 49, 50, 51, 52, 53, 54, 55, 56, 57, 58, 59, 60, 61, 62, 63, 64, 65, 66, 67, 68, 69, 70, 71, 72, 73, 74, 75, 76, 77, 78, 79, 80, 81],
      "LargestImagePixelValue": [61949, 27632, 19640, 14346, 15752, 13877, 13101, 14083, 22683, 21406, 25714, 18142, 21050, 28218, 35012, 22125, 25227, 31283, 23052, 37693, 42694, 37340, 30025, 28048, 23497, 27949, 26498, 28486, 30921, 31755, 41458, 48403, 45913, 57208, 38933, 34749, 40355, 43794, 33498, 36452, 39757, 37380, 37545, 36834, 44932, 40384, 54784, 41933, 51894, 47625, 60158, 60069, 54642, 47505, 41102, 39020, 41866, 44443, 52508, 55097, 51737, 54182, 55983, 63270, 57265, 42424, 49602, 45583, 50330, 51612, 50809, 45093, 64317, 59774, 49690, 44740, 44600, 63966, 38364, 19898, 17836],
      "SliceLocation": [-63.017778799159, -61.317778167918, -59.617777700171, -57.917777079891, -56.217776612143, -54.517775817409, -52.817779106504, -51.117778475264, -49.417777844023, -47.717777223743, -46.017776592502, -44.317775961262, -42.617779250357, -40.917778619116, -39.217777987875, -37.517777367595, -35.817776736355, -34.1177764321, -32.417779394209, -30.717778762968, -29.017778131728, -27.317777511448, -25.617776880207, -23.917776248966, -22.217777419881, -20.51777678864, -18.817778602566, -17.117777982286, -15.417777351045, -13.717778510999, -12.017777890719, -10.317777259478, -8.6177766391984, -6.9177777991523, -5.2177771679116, -3.5177774432289, -1.8177768119883, -0.1177777303164, 1.5822219943663, 3.2822221778083, 4.9822223612503, 6.6822223098323, 8.3822224932743, 10.082222508792, 11.782222513349, 13.482222584841, 15.182222544384, 16.882222716865, 18.582222900307, 20.28222263595, 21.98222325623, 23.682222991874, 25.382222727517, 27.082223347797, 28.782222671095, 30.482221511141, 32.182222131421, 33.882222762662, 35.582221602708, 37.282222222988, 38.982222854228, 40.682221694274, 42.382222314554, 44.082222945795, 45.782221785841, 47.482222406121, 49.182223037362, 50.882223668602, 52.582224288882, 54.282221337734, 55.982221968974, 57.682222589254, 59.382223220495, 61.082223851736, 62.782224472016, 64.482221520867, 66.182222152108, 67.882221464445, 69.582222095686, 71.282222726926, 72.982223347206],
