{
  "AcquisitionMatrixPE": 82,
  "AcquisitionNumber": 1,
  "AcquisitionTime": "19:38:39.020000",
  "BandwidthPerPixelPhaseEncode": 24.888,
  "BaseResolution": 82,
  "BodyPartExamined": "BRAIN",
  "ConsistencyInfo": "N4_VE11E_LATEST_20181129",
  "ConversionSoftware": "dcm2niix",
  "ConversionSoftwareVersion": "v1.0.20201102",
  "DerivedVendorReportedEchoSpacing": 0.00049,
  "DeviceSerialNumber": "66112",
  "DwellTime": 2e-06,
  "EchoTime": 0.0272,
  "EchoTrainLength": 82,
  "EffectiveEchoSpacing": 0.00049,
  "FlipAngle": 44,
  "ImageComments": "Unaliased MB8/PE3",
  "ImageOrientationPatientDICOM": [0.999879, 0.014073, -0.00656595, -0.0139618, 0.999763, 0.0166756],
  "ImageType": [
    "ORIGINAL",
    "PRIMARY",
    "M",
    "MB",
    "ND",
    "NORM",
    "MOSAIC"
],
  "ImagingFrequency": 123.252,
  "InPlanePhaseEncodingDirectionDICOM": "COL",
  "InstitutionAddress": "Maynard 3,Hanover,NH,US,03755",
  "InstitutionName": "Dartmouth College - PBS",
  "InstitutionalDepartmentName": "Department",
  "MRAcquisitionType": "2D",
  "MagneticFieldStrength": 3,
  "Manufacturer": "Siemens",
  "ManufacturersModelName": "Prisma",
  "Modality": "MR",
  "MultibandAccelerationFactor": 8,
  "PartialFourier": 1,
  "PatientPosition": "HFS",
  "PercentPhaseFOV": 100,
  "PercentSampling": 100,
  "PhaseEncodingDirection": "j-",
  "PhaseEncodingSteps": 82,
  "PhaseResolution": 1,
  "PixelBandwidth": 3050,
  "ProcedureStepDescription": "Wager_Wager^1076_spacetop",
  "ProtocolName": "func_run-06_task-social_acq-ap-mb8",
  "PulseSequenceDetails": "%CustomerSeq%\\cmrr_mbep2d_bold",
  "ReceiveCoilActiveElements": "HEA;HEP",
  "ReceiveCoilName": "Head_32",
  "ReconMatrixPE": 82,
  "RepetitionTime": 0.46,
  "SAR": 0.0793763,
  "ScanOptions": "FS",
  "ScanningSequence": "EP",
  "SequenceName": "epfid2d1_82",
  "SequenceVariant": "SK\\SS",
  "SeriesDescription": "func_run-06_task-social_acq-ap-mb8",
  "SeriesNumber": 20,
  "ShimSetting": [4147, -7720, -7213, 759, -23, -61, -65, 12],
  "SliceThickness": 2.7,
  "SliceTiming": [0, 0.2525, 0.0625, 0.315, 0.125, 0.3775, 0.1875, 0, 0.2525, 0.0625, 0.315, 0.125, 0.3775, 0.1875, 0, 0.2525, 0.0625, 0.315, 0.125, 0.3775, 0.1875, 0, 0.2525, 0.0625, 0.315, 0.125, 0.3775, 0.1875, 0, 0.2525, 0.0625, 0.315, 0.125, 0.3775, 0.1875, 0, 0.2525, 0.0625, 0.315, 0.125, 0.3775, 0.1875, 0, 0.2525, 0.0625, 0.315, 0.125, 0.3775, 0.1875, 0, 0.2525, 0.0625, 0.315, 0.125, 0.3775, 0.1875],
  "SoftwareVersions": "syngo MR E11",
  "SpacingBetweenSlices": 2.7,
  "StationName": "AWP66112",
  "TaskName": "social",
  "TotalReadoutTime": 0.03969,
  "TxRefAmp": 229.877,
  "WipMemBlock": "ca683a78-d181-4616-890d-9a4868203ac9||Sequence: R016 ve11e/master r/434b28f1; Aug  7 2019 18:53:46 by eja",
  "dcmmeta_affine": [
    [-2.682603359222412, -0.03745853900909424, -0.018357496708631516, 117.05907440185547],
    [-0.03775671124458313, 2.6822922229766846, 0.04477105289697647, -89.07964324951172],
    [-0.017615968361496925, -0.04473929479718208, 2.69956636428833, -56.42960739135742],
    [0.0, 0.0, 0.0, 1.0]
],
  "dcmmeta_reorient_transform": [
    [0.0, -1.0, 0.0, 81.0],
    [1.0, 0.0, 0.0, 0.0],
    [0.0, 0.0, 1.0, 0.0],
    [0.0, 0.0, 0.0, 1.0]
],
  "dcmmeta_shape": [82, 82, 56, 872],
  "dcmmeta_slice_dim": 2,
  "dcmmeta_version": 0.6,
  "global": {
    "const": {
      "AccessionNumber": "A004085",
      "AcquisitionMatrix": [82, 0, 0, 82],
      "AngioFlag": "N",
      "BitsAllocated": 16,
      "BitsStored": 16,
      "BodyPartExamined": "BRAIN",
      "Columns": 656,
      "EchoNumbers": 1,
      "EchoTime": 27.2,
      "EchoTrainLength": 82,
      "FlipAngle": 44.0,
      "HighBit": 15,
      "ImageOrientationPatient": [0.99987941283188, 0.0140729553744, -0.0065659517217, -0.0139618194131, 0.99976346877101, 0.01667555425287],
      "ImagePositionPatient": [-873.18149848413, -908.84010077947, -67.837883392413],
      "ImageType": [
        "ORIGINAL",
        "PRIMARY",
        "M",
        "MB",
        "ND",
        "NORM",
        "MOSAIC"
],
      "ImagedNucleus": "1H",
      "ImagingFrequency": 123.252185,
      "InPlanePhaseEncodingDirection": "COL",
      "MRAcquisitionType": "2D",
      "MagneticFieldStrength": 3.0,
      "Manufacturer": "SIEMENS",
      "ManufacturerModelName": "Prisma",
      "Modality": "MR",
      "NumberOfAverages": 1.0,
      "NumberOfPhaseEncodingSteps": 82,
      "PercentPhaseFieldOfView": 100.0,
      "PercentSampling": 100.0,
      "PerformedProcedureStepStartTime": "184203.477000",
      "PhotometricInterpretation": "MONOCHROME2",
      "PixelBandwidth": 3050.0,
      "PixelRepresentation": 0,
      "PixelSpacing": [2.6829268932343, 2.6829268932343],
      "ProtocolName": "func_run-06_task-social_acq-ap-mb8",
      "RepetitionTime": 460.0,
      "Rows": 656,
      "SAR": 0.07937631576954,
      "SamplesPerPixel": 1,
      "ScanOptions": "FS",
      "ScanningSequence": "EP",
      "SequenceName": "epfid2d1_82",
      "SequenceVariant": [
        "SK",
        "SS"
],
      "SeriesDescription": "func_run-06_task-social_acq-ap-mb8",
      "SeriesNumber": 20,
      "SeriesTime": "193906.589000",
      "SliceLocation": -58.693543889207,
      "SliceThickness": 2.7000000476837,
      "SmallestImagePixelValue": 0,
      "SoftwareVersions": "syngo MR E11",
      "SpacingBetweenSlices": 2.7000000774779,
      "SpecificCharacterSet": "ISO_IR 100",
      "StudyID": "1",
      "StudyTime": "184203.421000",
      "TransmitCoilName": "Body",
      "VariableFlipAngleFlag": "N",
      "WindowCenterWidthExplanation": "Algo1"
    },
    "slices": {}
  },
  "time": {
    "samples": {
      "AcquisitionNumber": [1, 2, 3, 4, 5, 6, 7, 8, 9, 10, 11, 12, 13, 14, 15, 16, 17, 18, 19, 20, 21, 22, 23, 24, 25, 26, 27, 28, 29, 30, 31, 32, 33, 34, 35, 36, 37, 38, 39, 40, 41, 42, 43, 44, 45, 46, 47, 48, 49, 50, 51, 52, 53, 54, 55, 56, 57, 58, 59, 60, 61, 62, 63, 64, 65, 66, 67, 68, 69, 70, 71, 72, 73, 74, 75, 76, 77, 78, 79, 80, 81, 82, 83, 84, 85, 86, 87, 88, 89, 90, 91, 92, 93, 94, 95, 96, 97, 98, 99, 100, 101, 102, 103, 104, 105, 106, 107, 108, 109, 110, 111, 112, 113, 114, 115, 116, 117, 118, 119, 120, 121, 122, 123, 124, 125, 126, 127, 128, 129, 130, 131, 132, 133, 134, 135, 136, 137, 138, 139, 140, 141, 142, 143, 144, 145, 146, 147, 148, 149, 150, 151, 152, 153, 154, 155, 156, 157, 158, 159, 160, 161, 162, 163, 164, 165, 166, 167, 168, 169, 170, 171, 172, 173, 174, 175, 176, 177, 178, 179, 180, 181, 182, 183, 184, 185, 186, 187, 188, 189, 190, 191, 192, 193, 194, 195, 196, 197, 198, 199, 200, 201, 202, 203, 204, 205, 206, 207, 208, 209, 210, 211, 212, 213, 214, 215, 216, 217, 218, 219, 220, 221, 222, 223, 224, 225, 226, 227, 228, 229, 230, 231, 232, 233, 234, 235, 236, 237, 238, 239, 240, 241, 242, 243, 244, 245, 246, 247, 248, 249, 250, 251, 252, 253, 254, 255, 256, 257, 258, 259, 260, 261, 262, 263, 264, 265, 266, 267, 268, 269, 270, 271, 272, 273, 274, 275, 276, 277, 278, 279, 280, 281, 282, 283, 284, 285, 286, 287, 288, 289, 290, 291, 292, 293, 294, 295, 296, 297, 298, 299, 300, 301, 302, 303, 304, 305, 306, 307, 308, 309, 310, 311, 312, 313, 314, 315, 316, 317, 318, 319, 320, 321, 322, 323, 324, 325, 326, 327, 328, 329, 330, 331, 332, 333, 334, 335, 336, 337, 338, 339, 340, 341, 342, 343, 344, 345, 346, 347, 348, 349, 350, 351, 352, 353, 354, 355, 356, 357, 358, 359, 360, 361, 362, 363, 364, 365, 366, 367, 368, 369, 370, 371, 372, 373, 374, 375, 376, 377, 378, 379, 380, 381, 382, 383, 384, 385, 386, 387, 388, 389, 390, 391, 392, 393, 394, 395, 396, 397, 398, 399, 400, 401, 402, 403, 404, 405, 406, 407, 408, 409, 410, 411, 412, 413, 414, 415, 416, 417, 418, 419, 420, 421, 422, 423, 424, 425, 426, 427, 428, 429, 430, 431, 432, 433, 434, 435, 436, 437, 438, 439, 440, 441, 442, 443, 444, 445, 446, 447, 448, 449, 450, 451, 452, 453, 454, 455, 456, 457, 458, 459, 460, 461, 462, 463, 464, 465, 466, 467, 468, 469, 470, 471, 472, 473, 474, 475, 476, 477, 478, 479, 480, 481, 482, 483, 484, 485, 486, 487, 488, 489, 490, 491, 492, 493, 494, 495, 496, 497, 498, 499, 500, 501, 502, 503, 504, 505, 506, 507, 508, 509, 510, 511, 512, 513, 514, 515, 516, 517, 518, 519, 520, 521, 522, 523, 524, 525, 526, 527, 528, 529, 530, 531, 532, 533, 534, 535, 536, 537, 538, 539, 540, 541, 542, 543, 544, 545, 546, 547, 548, 549, 550, 551, 552, 553, 554, 555, 556, 557, 558, 559, 560, 561, 562, 563, 564, 565, 566, 567, 568, 569, 570, 571, 572, 573, 574, 575, 576, 577, 578, 579, 580, 581, 582, 583, 584, 585, 586, 587, 588, 589, 590, 591, 592, 593, 594, 595, 596, 597, 598, 599, 600, 601, 602, 603, 604, 605, 606, 607, 608, 609, 610, 611, 612, 613, 614, 615, 616, 617, 618, 619, 620, 621, 622, 623, 624, 625, 626, 627, 628, 629, 630, 631, 632, 633, 634, 635, 636, 637, 638, 639, 640, 641, 642, 643, 644, 645, 646, 647, 648, 649, 650, 651, 652, 653, 654, 655, 656, 657, 658, 659, 660, 661, 662, 663, 664, 665, 666, 667, 668, 669, 670, 671, 672, 673, 674, 675, 676, 677, 678, 679, 680, 681, 682, 683, 684, 685, 686, 687, 688, 689, 690, 691, 692, 693, 694, 695, 696, 697, 698, 699, 700, 701, 702, 703, 704, 705, 706, 707, 708, 709, 710, 711, 712, 713, 714, 715, 716, 717, 718, 719, 720, 721, 722, 723, 724, 725, 726, 727, 728, 729, 730, 731, 732, 733, 734, 735, 736, 737, 738, 739, 740, 741, 742, 743, 744, 745, 746, 747, 748, 749, 750, 751, 752, 753, 754, 755, 756, 757, 758, 759, 760, 761, 762, 763, 764, 765, 766, 767, 768, 769, 770, 771, 772, 773, 774, 775, 776, 777, 778, 779, 780, 781, 782, 783, 784, 785, 786, 787, 788, 789, 790, 791, 792, 793, 794, 795, 796, 797, 798, 799, 800, 801, 802, 803, 804, 805, 806, 807, 808, 809, 810, 811, 812, 813, 814, 815, 816, 817, 818, 819, 820, 821, 822, 823, 824, 825, 826, 827, 828, 829, 830, 831, 832, 833, 834, 835, 836, 837, 838, 839, 840, 841, 842, 843, 844, 845, 846, 847, 848, 849, 850, 851, 852, 853, 854, 855, 856, 857, 858, 859, 860, 861, 862, 863, 864, 865, 866, 867, 868, 869, 870, 871, 872],
      "AcquisitionTime": ["193839.020000", "193839.480000", "193839.940000", "193840.400000", "193840.860000", "193841.320000", "193841.780000", "193842.240000", "193842.700000", "193843.160000", "193843.620000", "193844.080000", "193844.540000", "193845.000000", "193845.460000", "193845.920000", "193846.380000", "193846.840000", "193847.300000", "193847.760000", "193848.220000", "193848.680000", "193849.140000", "193849.600000", "193850.060000", "193850.520000", "193850.980000", "193851.440000", "193851.900000", "193852.360000", "193852.820000", "193853.280000", "193853.740000", "193854.200000", "193854.660000", "193855.120000", "193855.580000", "193856.040000", "193856.500000", "193856.960000", "193857.420000", "193857.880000", "193858.340000", "193858.800000", "193859.260000", "193859.720000", "193900.180000", "193900.640000", "193901.100000", "193901.560000", "193902.020000", "193902.480000", "193902.940000", "193903.400000", "193903.860000", "193904.320000", "193904.780000", "193905.240000", "193905.700000", "193906.160000", "193906.620000", "193907.080000", "193907.540000", "193908.000000", "193908.460000", "193908.920000", "193909.380000", "193909.840000", "193910.300000", "193910.760000", "193911.220000", "193911.680000", "193912.140000", "193912.600000", "193913.060000", "193913.520000", "193913.980000", "193914.440000", "193914.900000", "193915.360000", "193915.820000", "193916.280000", "193916.740000", "193917.200000", "193917.660000", "193918.120000", "193918.580000", "193919.040000", "193919.500000", "193919.960000", "193920.420000", "193920.880000", "193921.340000", "193921.800000", "193922.260000", "193922.720000", "193923.180000", "193923.640000", "193924.100000", "193924.560000", "193925.020000", "193925.480000", "193925.940000", "193926.400000", "193926.860000", "193927.320000", "193927.780000", "193928.240000", "193928.700000", "193929.160000", "193929.620000", "193930.080000", "193930.540000", "193931.000000", "193931.460000", "193931.920000", "193932.380000", "193932.840000", "193933.300000", "193933.760000", "193934.220000", "193934.680000", "193935.140000", "193935.600000", "193936.060000", "193936.520000", "193936.980000", "193937.440000", "193937.900000", "193938.360000", "193938.820000", "193939.280000", "193939.740000", "193940.200000", "193940.660000", "193941.120000", "193941.580000", "193942.040000", "193942.500000", "193942.960000", "193943.420000", "193943.880000", "193944.340000", "193944.800000", "193945.260000", "193945.720000", "193946.180000", "193946.640000", "193947.100000", "193947.560000", "193948.020000", "193948.480000", "193948.940000", "193949.400000", "193949.860000", "193950.320000", "193950.780000", "193951.240000", "193951.700000", "193952.160000", "193952.620000", "193953.080000", "193953.540000", "193954.000000", "193954.460000", "193954.920000", "193955.380000", "193955.840000", "193956.300000", "193956.760000", "193957.220000", "193957.680000", "193958.140000", "193958.600000", "193959.060000", "193959.520000", "193959.980000", "194000.440000", "194000.900000", "194001.360000", "194001.820000", "194002.280000", "194002.740000", "194003.200000", "194003.660000", "194004.120000", "194004.580000", "194005.040000", "194005.500000", "194005.960000", "194006.420000", "194006.880000", "194007.340000", "194007.800000", "194008.260000", "194008.720000", "194009.180000", "194009.640000", "194010.100000", "194010.560000", "194011.020000", "194011.480000", "194011.940000", "194012.400000", "194012.860000", "194013.320000", "194013.780000", "194014.240000", "194014.700000", "194015.160000", "194015.620000", "194016.080000", "194016.540000", "194017.000000", "194017.460000", "194017.920000", "194018.380000", "194018.840000", "194019.300000", "194019.760000", "194020.220000", "194020.680000", "194021.140000", "194021.600000", "194022.060000", "194022.520000", "194022.980000", "194023.440000", "194023.900000", "194024.360000", "194024.820000", "194025.280000", "194025.740000", "194026.200000", "194026.660000", "194027.120000", "194027.580000", "194028.040000", "194028.500000", "194028.960000", "194029.420000", "194029.880000", "194030.340000", "194030.800000", "194031.260000", "194031.720000", "194032.180000", "194032.640000", "194033.100000", "194033.560000", "194034.020000", "194034.480000", "194034.940000", "194035.400000", "194035.860000", "194036.320000", "194036.780000", "194037.240000", "194037.700000", "194038.160000", "194038.620000", "194039.080000", "194039.540000", "194040.000000", "194040.460000", "194040.920000", "194041.380000", "194041.840000", "194042.300000", "194042.760000", "194043.220000", "194043.680000", "194044.140000", "194044.600000", "194045.060000", "194045.520000", "194045.980000", "194046.440000", "194046.900000", "194047.360000", "194047.820000", "194048.280000", "194048.740000", "194049.200000", "194049.660000", "194050.120000", "194050.580000", "194051.040000", "194051.500000", "194051.960000", "194052.420000", "194052.880000", "194053.340000", "194053.800000", "194054.260000", "194054.720000", "194055.180000", "194055.640000", "194056.100000", "194056.560000", "194057.020000", "194057.480000", "194057.940000", "194058.400000", "194058.860000", "194059.320000", "194059.780000", "194100.240000", "194100.700000", "194101.160000", "194101.620000", "194102.080000", "194102.540000", "194103.000000", "194103.460000", "194103.920000", "194104.380000", "194104.840000", "194105.300000", "194105.760000", "194106.220000", "194106.680000", "194107.140000", "194107.600000", "194108.060000", "194108.520000", "194108.980000", "194109.440000", "194109.900000", "194110.360000", "194110.820000", "194111.280000", "194111.740000", "194112.200000", "194112.660000", "194113.120000", "194113.580000", "194114.040000", "194114.500000", "194114.960000", "194115.420000", "194115.880000", "194116.340000", "194116.800000", "194117.260000", "194117.720000", "194118.180000", "194118.640000", "194119.100000", "194119.560000", "194120.020000", "194120.480000", "194120.940000", "194121.400000", "194121.860000", "194122.320000", "194122.780000", "194123.240000", "194123.700000", "194124.160000", "194124.620000", "194125.080000", "194125.540000", "194126.000000", "194126.460000", "194126.920000", "194127.380000", "194127.840000", "194128.300000", "194128.760000", "194129.220000", "194129.680000", "194130.140000", "194130.600000", "194131.060000", "194131.520000", "194131.980000", "194132.440000", "194132.900000", "194133.360000", "194133.820000", "194134.280000", "194134.740000", "194135.200000", "194135.660000", "194136.120000", "194136.580000", "194137.040000", "194137.500000", "194137.960000", "194138.420000", "194138.880000", "194139.340000", "194139.800000", "194140.260000", "194140.720000", "194141.180000", "194141.640000", "194142.100000", "194142.560000", "194143.020000", "194143.480000", "194143.940000", "194144.400000", "194144.860000", "194145.320000", "194145.780000", "194146.240000", "194146.700000", "194147.160000", "194147.620000", "194148.080000", "194148.540000", "194149.000000", "194149.460000", "194149.920000", "194150.380000", "194150.840000", "194151.300000", "194151.760000", "194152.220000", "194152.680000", "194153.140000", "194153.600000", "194154.060000", "194154.520000", "194154.980000", "194155.440000", "194155.900000", "194156.360000", "194156.820000", "194157.280000", "194157.740000", "194158.200000", "194158.660000", "194159.120000", "194159.580000", "194200.040000", "194200.500000", "194200.960000", "194201.420000", "194201.880000", "194202.340000", "194202.800000", "194203.260000", "194203.720000", "194204.180000", "194204.640000", "194205.100000", "194205.560000", "194206.020000", "194206.480000", "194206.940000", "194207.400000", "194207.860000", "194208.320000", "194208.780000", "194209.240000", "194209.700000", "194210.160000", "194210.620000", "194211.080000", "194211.540000", "194212.000000", "194212.460000", "194212.920000", "194213.380000", "194213.840000", "194214.300000", "194214.760000", "194215.220000", "194215.680000", "194216.140000", "194216.600000", "194217.060000", "194217.520000", "194217.980000", "194218.440000", "194218.900000", "194219.360000", "194219.820000", "194220.280000", "194220.740000", "194221.200000", "194221.660000", "194222.120000", "194222.580000", "194223.040000", "194223.500000", "194223.960000", "194224.420000", "194224.880000", "194225.340000", "194225.800000", "194226.260000", "194226.720000", "194227.180000", "194227.640000", "194228.100000", "194228.560000", "194229.020000", "194229.480000", "194229.940000", "194230.400000", "194230.860000", "194231.320000", "194231.780000", "194232.240000", "194232.700000", "194233.160000", "194233.620000", "194234.080000", "194234.540000", "194235.000000", "194235.460000", "194235.920000", "194236.380000", "194236.840000", "194237.300000", "194237.760000", "194238.220000", "194238.680000", "194239.140000", "194239.600000", "194240.060000", "194240.520000", "194240.980000", "194241.440000", "194241.900000", "194242.360000", "194242.820000", "194243.280000", "194243.740000", "194244.200000", "194244.660000", "194245.120000", "194245.580000", "194246.040000", "194246.500000", "194246.960000", "194247.420000", "194247.880000", "194248.340000", "194248.800000", "194249.260000", "194249.720000", "194250.180000", "194250.640000", "194251.100000", "194251.560000", "194252.020000", "194252.480000", "194252.940000", "194253.400000", "194253.860000", "194254.320000", "194254.780000", "194255.240000", "194255.700000", "194256.160000", "194256.620000", "194257.080000", "194257.540000", "194258.000000", "194258.460000", "194258.920000", "194259.380000", "194259.840000", "194300.300000", "194300.760000", "194301.220000", "194301.680000", "194302.140000", "194302.600000", "194303.060000", "194303.520000", "194303.980000", "194304.440000", "194304.900000", "194305.360000", "194305.820000", "194306.280000", "194306.740000", "194307.200000", "194307.660000", "194308.120000", "194308.580000", "194309.040000", "194309.500000", "194309.960000", "194310.420000", "194310.880000", "194311.340000", "194311.800000", "194312.260000", "194312.720000", "194313.180000", "194313.640000", "194314.100000", "194314.560000", "194315.020000", "194315.480000", "194315.940000", "194316.400000", "194316.860000", "194317.320000", "194317.780000", "194318.240000", "194318.700000", "194319.160000", "194319.620000", "194320.080000", "194320.540000", "194321.000000", "194321.460000", "194321.920000", "194322.380000", "194322.840000", "194323.300000", "194323.760000", "194324.220000", "194324.680000", "194325.140000", "194325.600000", "194326.060000", "194326.520000", "194326.980000", "194327.440000", "194327.900000", "194328.360000", "194328.820000", "194329.280000", "194329.740000", "194330.200000", "194330.660000", "194331.120000", "194331.580000", "194332.040000", "194332.500000", "194332.960000", "194333.420000", "194333.880000", "194334.340000", "194334.800000", "194335.260000", "194335.720000", "194336.180000", "194336.640000", "194337.100000", "194337.560000", "194338.020000", "194338.480000", "194338.940000", "194339.400000", "194339.860000", "194340.320000", "194340.780000", "194341.240000", "194341.700000", "194342.160000", "194342.620000", "194343.080000", "194343.540000", "194344.000000", "194344.460000", "194344.920000", "194345.380000", "194345.840000", "194346.300000", "194346.760000", "194347.220000", "194347.680000", "194348.140000", "194348.600000", "194349.060000", "194349.520000", "194349.980000", "194350.440000", "194350.900000", "194351.360000", "194351.820000", "194352.280000", "194352.740000", "194353.200000", "194353.660000", "194354.120000", "194354.580000", "194355.040000", "194355.500000", "194355.960000", "194356.420000", "194356.880000", "194357.340000", "194357.800000", "194358.260000", "194358.720000", "194359.180000", "194359.640000", "194400.100000", "194400.560000", "194401.020000", "194401.480000", "194401.940000", "194402.400000", "194402.860000", "194403.320000", "194403.780000", "194404.240000", "194404.700000", "194405.160000", "194405.620000", "194406.080000", "194406.540000", "194407.000000", "194407.460000", "194407.920000", "194408.380000", "194408.840000", "194409.300000", "194409.760000", "194410.220000", "194410.680000", "194411.140000", "194411.600000", "194412.060000", "194412.520000", "194412.980000", "194413.440000", "194413.900000", "194414.360000", "194414.820000", "194415.280000", "194415.740000", "194416.200000", "194416.660000", "194417.120000", "194417.580000", "194418.040000", "194418.500000", "194418.960000", "194419.420000", "194419.880000", "194420.340000", "194420.800000", "194421.260000", "194421.720000", "194422.180000", "194422.640000", "194423.100000", "194423.560000", "194424.020000", "194424.480000", "194424.940000", "194425.400000", "194425.860000", "194426.320000", "194426.780000", "194427.240000", "194427.700000", "194428.160000", "194428.620000", "194429.080000", "194429.540000", "194430.000000", "194430.460000", "194430.920000", "194431.380000", "194431.840000", "194432.300000", "194432.760000", "194433.220000", "194433.680000", "194434.140000", "194434.600000", "194435.060000", "194435.520000", "194435.980000", "194436.440000", "194436.900000", "194437.360000", "194437.820000", "194438.280000", "194438.740000", "194439.200000", "194439.660000", "194440.120000", "194440.580000", "194441.040000", "194441.500000", "194441.960000", "194442.420000", "194442.880000", "194443.340000", "194443.800000", "194444.260000", "194444.720000", "194445.180000", "194445.640000", "194446.100000", "194446.560000", "194447.020000", "194447.480000", "194447.940000", "194448.400000", "194448.860000", "194449.320000", "194449.780000", "194450.240000", "194450.700000", "194451.160000", "194451.620000", "194452.080000", "194452.540000", "194453.000000", "194453.460000", "194453.920000", "194454.380000", "194454.840000", "194455.300000", "194455.760000", "194456.220000", "194456.680000", "194457.140000", "194457.600000", "194458.060000", "194458.520000", "194458.980000", "194459.440000", "194459.900000", "194500.360000", "194500.820000", "194501.280000", "194501.740000", "194502.200000", "194502.660000", "194503.120000", "194503.580000", "194504.040000", "194504.500000", "194504.960000", "194505.420000", "194505.880000", "194506.340000", "194506.800000", "194507.260000", "194507.720000", "194508.180000", "194508.640000", "194509.100000", "194509.560000", "194510.020000", "194510.480000", "194510.940000", "194511.400000", "194511.860000", "194512.320000", "194512.780000", "194513.240000", "194513.700000", "194514.160000", "194514.620000", "194515.080000", "194515.540000", "194516.000000", "194516.460000", "194516.920000", "194517.380000", "194517.840000", "194518.300000", "194518.760000", "194519.220000", "194519.680000"],
