{
  "AcquisitionMatrixPE": 82,
  "AcquisitionNumber": 1,
  "AcquisitionTime": "19:07:40.827500",
  "BandwidthPerPixelPhaseEncode": 24.888,
  "BaseResolution": 82,
  "BodyPartExamined": "BRAIN",
  "ConsistencyInfo": "N4_VE11E_LATEST_20181129",
  "ConversionSoftware": "dcm2niix",
  "ConversionSoftwareVersion": "v1.0.20201102",
  "DerivedVendorReportedEchoSpacing": 0.00049,
  "DeviceSerialNumber": "66112",
  "DwellTime": 2e-06,
  "EchoTime": 0.0272,
  "EchoTrainLength": 82,
  "EffectiveEchoSpacing": 0.00049,
  "FlipAngle": 44,
  "ImageComments": "Unaliased MB8/PE3",
  "ImageOrientationPatientDICOM": [0.999879, 0.014073, -0.00656595, -0.0139618, 0.999763, 0.0166756],
  "ImageType": [
    "ORIGINAL",
    "PRIMARY",
    "M",
    "MB",
    "ND",
    "NORM",
    "MOSAIC"
],
  "ImagingFrequency": 123.252,
  "InPlanePhaseEncodingDirectionDICOM": "COL",
  "InstitutionAddress": "Maynard 3,Hanover,NH,US,03755",
  "InstitutionName": "Dartmouth College - PBS",
  "InstitutionalDepartmentName": "Department",
  "MRAcquisitionType": "2D",
  "MagneticFieldStrength": 3,
  "Manufacturer": "Siemens",
  "ManufacturersModelName": "Prisma",
  "Modality": "MR",
  "MultibandAccelerationFactor": 8,
  "PartialFourier": 1,
  "PatientPosition": "HFS",
  "PercentPhaseFOV": 100,
  "PercentSampling": 100,
  "PhaseEncodingDirection": "j-",
  "PhaseEncodingSteps": 82,
  "PhaseResolution": 1,
  "PixelBandwidth": 3050,
  "ProcedureStepDescription": "Wager_Wager^1076_spacetop",
  "ProtocolName": "func_run-02_task-social_acq-ap-mb8",
  "PulseSequenceDetails": "%CustomerSeq%\\cmrr_mbep2d_bold",
  "ReceiveCoilActiveElements": "HEA;HEP",
  "ReceiveCoilName": "Head_32",
  "ReconMatrixPE": 82,
  "RepetitionTime": 0.46,
  "SAR": 0.0793763,
  "ScanOptions": "FS",
  "ScanningSequence": "EP",
  "SequenceName": "epfid2d1_82",
  "SequenceVariant": "SK\\SS",
  "SeriesDescription": "func_run-02_task-social_acq-ap-mb8",
  "SeriesNumber": 12,
  "ShimSetting": [4147, -7720, -7213, 759, -23, -61, -65, 12],
  "SliceThickness": 2.7,
  "SliceTiming": [0, 0.2525, 0.065, 0.315, 0.1275, 0.3775, 0.19, 0, 0.2525, 0.065, 0.315, 0.1275, 0.3775, 0.19, 0, 0.2525, 0.065, 0.315, 0.1275, 0.3775, 0.19, 0, 0.2525, 0.065, 0.315, 0.1275, 0.3775, 0.19, 0, 0.2525, 0.065, 0.315, 0.1275, 0.3775, 0.19, 0, 0.2525, 0.065, 0.315, 0.1275, 0.3775, 0.19, 0, 0.2525, 0.065, 0.315, 0.1275, 0.3775, 0.19, 0, 0.2525, 0.065, 0.315, 0.1275, 0.3775, 0.19],
  "SoftwareVersions": "syngo MR E11",
  "SpacingBetweenSlices": 2.7,
  "StationName": "AWP66112",
  "TaskName": "social",
  "TotalReadoutTime": 0.03969,
  "TxRefAmp": 229.877,
  "WipMemBlock": "e76604ec-a68c-4285-b105-a3e9c8384e14||Sequence: R016 ve11e/master r/434b28f1; Aug  7 2019 18:53:46 by eja",
  "dcmmeta_affine": [
    [-2.682603359222412, -0.03745853900909424, -0.018357496708631516, 117.05907440185547],
    [-0.03775671124458313, 2.6822922229766846, 0.04477105289697647, -89.07964324951172],
    [-0.017615968361496925, -0.04473929479718208, 2.69956636428833, -56.42960739135742],
    [0.0, 0.0, 0.0, 1.0]
],
  "dcmmeta_reorient_transform": [
    [0.0, -1.0, 0.0, 81.0],
    [1.0, 0.0, 0.0, 0.0],
    [0.0, 0.0, 1.0, 0.0],
    [0.0, 0.0, 0.0, 1.0]
],
  "dcmmeta_shape": [82, 82, 56, 872],
  "dcmmeta_slice_dim": 2,
  "dcmmeta_version": 0.6,
  "global": {
    "const": {
      "AccessionNumber": "A004085",
      "AcquisitionMatrix": [82, 0, 0, 82],
      "AngioFlag": "N",
      "BitsAllocated": 16,
      "BitsStored": 16,
      "BodyPartExamined": "BRAIN",
      "Columns": 656,
      "EchoNumbers": 1,
      "EchoTime": 27.2,
      "EchoTrainLength": 82,
      "FlipAngle": 44.0,
      "HighBit": 15,
      "ImageOrientationPatient": [0.99987941283188, 0.0140729553744, -0.0065659517217, -0.0139618194131, 0.99976346877101, 0.01667555425287],
      "ImagePositionPatient": [-873.18149848413, -908.84010077947, -67.837883392413],
      "ImageType": [
        "ORIGINAL",
        "PRIMARY",
        "M",
        "MB",
        "ND",
        "NORM",
        "MOSAIC"
],
      "ImagedNucleus": "1H",
      "ImagingFrequency": 123.252178,
      "InPlanePhaseEncodingDirection": "COL",
      "MRAcquisitionType": "2D",
      "MagneticFieldStrength": 3.0,
      "Manufacturer": "SIEMENS",
      "ManufacturerModelName": "Prisma",
      "Modality": "MR",
      "NumberOfAverages": 1.0,
      "NumberOfPhaseEncodingSteps": 82,
      "PercentPhaseFieldOfView": 100.0,
      "PercentSampling": 100.0,
      "PerformedProcedureStepStartTime": "184203.477000",
      "PhotometricInterpretation": "MONOCHROME2",
      "PixelBandwidth": 3050.0,
      "PixelRepresentation": 0,
      "PixelSpacing": [2.6829268932343, 2.6829268932343],
      "ProtocolName": "func_run-02_task-social_acq-ap-mb8",
      "RepetitionTime": 460.0,
      "Rows": 656,
      "SAR": 0.07937631576954,
      "SamplesPerPixel": 1,
      "ScanOptions": "FS",
      "ScanningSequence": "EP",
      "SequenceName": "epfid2d1_82",
      "SequenceVariant": [
        "SK",
        "SS"
],
      "SeriesDescription": "func_run-02_task-social_acq-ap-mb8",
      "SeriesNumber": 12,
      "SeriesTime": "190806.754000",
      "SliceLocation": -58.693543889207,
      "SliceThickness": 2.7000000476837,
      "SmallestImagePixelValue": 0,
      "SoftwareVersions": "syngo MR E11",
      "SpacingBetweenSlices": 2.7000000774779,
      "SpecificCharacterSet": "ISO_IR 100",
      "StudyID": "1",
      "StudyTime": "184203.421000",
      "TransmitCoilName": "Body",
      "VariableFlipAngleFlag": "N",
      "WindowCenterWidthExplanation": "Algo1"
    },
    "slices": {}
  },
  "time": {
    "samples": {
      "AcquisitionNumber": [1, 2, 3, 4, 5, 6, 7, 8, 9, 10, 11, 12, 13, 14, 15, 16, 17, 18, 19, 20, 21, 22, 23, 24, 25, 26, 27, 28, 29, 30, 31, 32, 33, 34, 35, 36, 37, 38, 39, 40, 41, 42, 43, 44, 45, 46, 47, 48, 49, 50, 51, 52, 53, 54, 55, 56, 57, 58, 59, 60, 61, 62, 63, 64, 65, 66, 67, 68, 69, 70, 71, 72, 73, 74, 75, 76, 77, 78, 79, 80, 81, 82, 83, 84, 85, 86, 87, 88, 89, 90, 91, 92, 93, 94, 95, 96, 97, 98, 99, 100, 101, 102, 103, 104, 105, 106, 107, 108, 109, 110, 111, 112, 113, 114, 115, 116, 117, 118, 119, 120, 121, 122, 123, 124, 125, 126, 127, 128, 129, 130, 131, 132, 133, 134, 135, 136, 137, 138, 139, 140, 141, 142, 143, 144, 145, 146, 147, 148, 149, 150, 151, 152, 153, 154, 155, 156, 157, 158, 159, 160, 161, 162, 163, 164, 165, 166, 167, 168, 169, 170, 171, 172, 173, 174, 175, 176, 177, 178, 179, 180, 181, 182, 183, 184, 185, 186, 187, 188, 189, 190, 191, 192, 193, 194, 195, 196, 197, 198, 199, 200, 201, 202, 203, 204, 205, 206, 207, 208, 209, 210, 211, 212, 213, 214, 215, 216, 217, 218, 219, 220, 221, 222, 223, 224, 225, 226, 227, 228, 229, 230, 231, 232, 233, 234, 235, 236, 237, 238, 239, 240, 241, 242, 243, 244, 245, 246, 247, 248, 249, 250, 251, 252, 253, 254, 255, 256, 257, 258, 259, 260, 261, 262, 263, 264, 265, 266, 267, 268, 269, 270, 271, 272, 273, 274, 275, 276, 277, 278, 279, 280, 281, 282, 283, 284, 285, 286, 287, 288, 289, 290, 291, 292, 293, 294, 295, 296, 297, 298, 299, 300, 301, 302, 303, 304, 305, 306, 307, 308, 309, 310, 311, 312, 313, 314, 315, 316, 317, 318, 319, 320, 321, 322, 323, 324, 325, 326, 327, 328, 329, 330, 331, 332, 333, 334, 335, 336, 337, 338, 339, 340, 341, 342, 343, 344, 345, 346, 347, 348, 349, 350, 351, 352, 353, 354, 355, 356, 357, 358, 359, 360, 361, 362, 363, 364, 365, 366, 367, 368, 369, 370, 371, 372, 373, 374, 375, 376, 377, 378, 379, 380, 381, 382, 383, 384, 385, 386, 387, 388, 389, 390, 391, 392, 393, 394, 395, 396, 397, 398, 399, 400, 401, 402, 403, 404, 405, 406, 407, 408, 409, 410, 411, 412, 413, 414, 415, 416, 417, 418, 419, 420, 421, 422, 423, 424, 425, 426, 427, 428, 429, 430, 431, 432, 433, 434, 435, 436, 437, 438, 439, 440, 441, 442, 443, 444, 445, 446, 447, 448, 449, 450, 451, 452, 453, 454, 455, 456, 457, 458, 459, 460, 461, 462, 463, 464, 465, 466, 467, 468, 469, 470, 471, 472, 473, 474, 475, 476, 477, 478, 479, 480, 481, 482, 483, 484, 485, 486, 487, 488, 489, 490, 491, 492, 493, 494, 495, 496, 497, 498, 499, 500, 501, 502, 503, 504, 505, 506, 507, 508, 509, 510, 511, 512, 513, 514, 515, 516, 517, 518, 519, 520, 521, 522, 523, 524, 525, 526, 527, 528, 529, 530, 531, 532, 533, 534, 535, 536, 537, 538, 539, 540, 541, 542, 543, 544, 545, 546, 547, 548, 549, 550, 551, 552, 553, 554, 555, 556, 557, 558, 559, 560, 561, 562, 563, 564, 565, 566, 567, 568, 569, 570, 571, 572, 573, 574, 575, 576, 577, 578, 579, 580, 581, 582, 583, 584, 585, 586, 587, 588, 589, 590, 591, 592, 593, 594, 595, 596, 597, 598, 599, 600, 601, 602, 603, 604, 605, 606, 607, 608, 609, 610, 611, 612, 613, 614, 615, 616, 617, 618, 619, 620, 621, 622, 623, 624, 625, 626, 627, 628, 629, 630, 631, 632, 633, 634, 635, 636, 637, 638, 639, 640, 641, 642, 643, 644, 645, 646, 647, 648, 649, 650, 651, 652, 653, 654, 655, 656, 657, 658, 659, 660, 661, 662, 663, 664, 665, 666, 667, 668, 669, 670, 671, 672, 673, 674, 675, 676, 677, 678, 679, 680, 681, 682, 683, 684, 685, 686, 687, 688, 689, 690, 691, 692, 693, 694, 695, 696, 697, 698, 699, 700, 701, 702, 703, 704, 705, 706, 707, 708, 709, 710, 711, 712, 713, 714, 715, 716, 717, 718, 719, 720, 721, 722, 723, 724, 725, 726, 727, 728, 729, 730, 731, 732, 733, 734, 735, 736, 737, 738, 739, 740, 741, 742, 743, 744, 745, 746, 747, 748, 749, 750, 751, 752, 753, 754, 755, 756, 757, 758, 759, 760, 761, 762, 763, 764, 765, 766, 767, 768, 769, 770, 771, 772, 773, 774, 775, 776, 777, 778, 779, 780, 781, 782, 783, 784, 785, 786, 787, 788, 789, 790, 791, 792, 793, 794, 795, 796, 797, 798, 799, 800, 801, 802, 803, 804, 805, 806, 807, 808, 809, 810, 811, 812, 813, 814, 815, 816, 817, 818, 819, 820, 821, 822, 823, 824, 825, 826, 827, 828, 829, 830, 831, 832, 833, 834, 835, 836, 837, 838, 839, 840, 841, 842, 843, 844, 845, 846, 847, 848, 849, 850, 851, 852, 853, 854, 855, 856, 857, 858, 859, 860, 861, 862, 863, 864, 865, 866, 867, 868, 869, 870, 871, 872],
      "AcquisitionTime": ["190740.827500", "190741.287500", "190741.747500", "190742.207500", "190742.667500", "190743.127500", "190743.587500", "190744.047500", "190744.507500", "190744.967500", "190745.427500", "190745.887500", "190746.347500", "190746.807500", "190747.267500", "190747.727500", "190748.187500", "190748.647500", "190749.107500", "190749.567500", "190750.027500", "190750.487500", "190750.947500", "190751.407500", "190751.867500", "190752.327500", "190752.787500", "190753.247500", "190753.707500", "190754.167500", "190754.627500", "190755.087500", "190755.547500", "190756.007500", "190756.467500", "190756.927500", "190757.387500", "190757.847500", "190758.307500", "190758.767500", "190759.227500", "190759.687500", "190800.147500", "190800.607500", "190801.067500", "190801.527500", "190801.987500", "190802.447500", "190802.907500", "190803.367500", "190803.827500", "190804.287500", "190804.747500", "190805.207500", "190805.667500", "190806.127500", "190806.587500", "190807.047500", "190807.507500", "190807.967500", "190808.427500", "190808.887500", "190809.347500", "190809.807500", "190810.267500", "190810.727500", "190811.187500", "190811.647500", "190812.107500", "190812.567500", "190813.027500", "190813.487500", "190813.947500", "190814.407500", "190814.867500", "190815.327500", "190815.787500", "190816.247500", "190816.707500", "190817.167500", "190817.627500", "190818.087500", "190818.547500", "190819.007500", "190819.467500", "190819.927500", "190820.387500", "190820.847500", "190821.307500", "190821.767500", "190822.227500", "190822.687500", "190823.147500", "190823.607500", "190824.067500", "190824.527500", "190824.987500", "190825.447500", "190825.907500", "190826.367500", "190826.827500", "190827.287500", "190827.747500", "190828.207500", "190828.667500", "190829.127500", "190829.587500", "190830.047500", "190830.507500", "190830.967500", "190831.427500", "190831.887500", "190832.347500", "190832.807500", "190833.267500", "190833.727500", "190834.187500", "190834.647500", "190835.107500", "190835.567500", "190836.027500", "190836.487500", "190836.947500", "190837.407500", "190837.867500", "190838.327500", "190838.787500", "190839.247500", "190839.707500", "190840.167500", "190840.627500", "190841.087500", "190841.547500", "190842.007500", "190842.467500", "190842.927500", "190843.387500", "190843.847500", "190844.307500", "190844.767500", "190845.227500", "190845.687500", "190846.147500", "190846.607500", "190847.067500", "190847.527500", "190847.987500", "190848.447500", "190848.907500", "190849.367500", "190849.827500", "190850.287500", "190850.747500", "190851.207500", "190851.667500", "190852.127500", "190852.587500", "190853.047500", "190853.507500", "190853.967500", "190854.427500", "190854.887500", "190855.347500", "190855.807500", "190856.267500", "190856.727500", "190857.187500", "190857.647500", "190858.107500", "190858.567500", "190859.027500", "190859.487500", "190859.947500", "190900.407500", "190900.867500", "190901.327500", "190901.787500", "190902.247500", "190902.707500", "190903.167500", "190903.627500", "190904.087500", "190904.547500", "190905.007500", "190905.467500", "190905.927500", "190906.387500", "190906.847500", "190907.307500", "190907.767500", "190908.227500", "190908.687500", "190909.147500", "190909.607500", "190910.067500", "190910.527500", "190910.987500", "190911.447500", "190911.907500", "190912.367500", "190912.827500", "190913.287500", "190913.747500", "190914.207500", "190914.667500", "190915.127500", "190915.587500", "190916.047500", "190916.507500", "190916.967500", "190917.427500", "190917.887500", "190918.347500", "190918.807500", "190919.267500", "190919.727500", "190920.187500", "190920.647500", "190921.107500", "190921.567500", "190922.027500", "190922.487500", "190922.947500", "190923.407500", "190923.867500", "190924.327500", "190924.787500", "190925.247500", "190925.707500", "190926.167500", "190926.627500", "190927.087500", "190927.547500", "190928.007500", "190928.467500", "190928.927500", "190929.387500", "190929.847500", "190930.307500", "190930.767500", "190931.227500", "190931.687500", "190932.147500", "190932.607500", "190933.067500", "190933.527500", "190933.987500", "190934.447500", "190934.907500", "190935.367500", "190935.827500", "190936.287500", "190936.747500", "190937.207500", "190937.667500", "190938.127500", "190938.587500", "190939.047500", "190939.507500", "190939.967500", "190940.427500", "190940.887500", "190941.347500", "190941.807500", "190942.267500", "190942.727500", "190943.187500", "190943.647500", "190944.107500", "190944.567500", "190945.027500", "190945.487500", "190945.947500", "190946.407500", "190946.867500", "190947.327500", "190947.787500", "190948.247500", "190948.707500", "190949.167500", "190949.627500", "190950.087500", "190950.547500", "190951.007500", "190951.467500", "190951.927500", "190952.387500", "190952.847500", "190953.307500", "190953.767500", "190954.227500", "190954.687500", "190955.147500", "190955.607500", "190956.067500", "190956.527500", "190956.987500", "190957.447500", "190957.907500", "190958.367500", "190958.827500", "190959.287500", "190959.747500", "191000.207500", "191000.667500", "191001.127500", "191001.587500", "191002.047500", "191002.507500", "191002.967500", "191003.427500", "191003.887500", "191004.347500", "191004.807500", "191005.267500", "191005.727500", "191006.187500", "191006.647500", "191007.107500", "191007.567500", "191008.027500", "191008.487500", "191008.947500", "191009.407500", "191009.867500", "191010.327500", "191010.787500", "191011.247500", "191011.707500", "191012.167500", "191012.627500", "191013.087500", "191013.547500", "191014.007500", "191014.467500", "191014.927500", "191015.387500", "191015.847500", "191016.307500", "191016.767500", "191017.227500", "191017.687500", "191018.147500", "191018.607500", "191019.067500", "191019.527500", "191019.987500", "191020.447500", "191020.907500", "191021.367500", "191021.827500", "191022.287500", "191022.747500", "191023.207500", "191023.667500", "191024.127500", "191024.587500", "191025.047500", "191025.507500", "191025.967500", "191026.427500", "191026.887500", "191027.347500", "191027.807500", "191028.267500", "191028.727500", "191029.187500", "191029.647500", "191030.107500", "191030.567500", "191031.027500", "191031.487500", "191031.947500", "191032.407500", "191032.867500", "191033.327500", "191033.787500", "191034.247500", "191034.707500", "191035.167500", "191035.627500", "191036.087500", "191036.547500", "191037.007500", "191037.467500", "191037.927500", "191038.387500", "191038.847500", "191039.307500", "191039.767500", "191040.227500", "191040.687500", "191041.147500", "191041.607500", "191042.067500", "191042.527500", "191042.987500", "191043.447500", "191043.907500", "191044.367500", "191044.827500", "191045.287500", "191045.747500", "191046.207500", "191046.667500", "191047.127500", "191047.587500", "191048.047500", "191048.507500", "191048.967500", "191049.427500", "191049.887500", "191050.347500", "191050.807500", "191051.267500", "191051.727500", "191052.187500", "191052.647500", "191053.107500", "191053.567500", "191054.027500", "191054.487500", "191054.947500", "191055.407500", "191055.867500", "191056.327500", "191056.787500", "191057.247500", "191057.707500", "191058.167500", "191058.627500", "191059.087500", "191059.547500", "191100.007500", "191100.467500", "191100.927500", "191101.387500", "191101.847500", "191102.307500", "191102.767500", "191103.227500", "191103.687500", "191104.147500", "191104.607500", "191105.067500", "191105.527500", "191105.987500", "191106.447500", "191106.907500", "191107.367500", "191107.827500", "191108.287500", "191108.747500", "191109.207500", "191109.667500", "191110.127500", "191110.587500", "191111.047500", "191111.507500", "191111.967500", "191112.427500", "191112.887500", "191113.347500", "191113.807500", "191114.267500", "191114.727500", "191115.187500", "191115.647500", "191116.107500", "191116.567500", "191117.027500", "191117.487500", "191117.947500", "191118.407500", "191118.867500", "191119.327500", "191119.787500", "191120.247500", "191120.707500", "191121.167500", "191121.627500", "191122.087500", "191122.547500", "191123.007500", "191123.467500", "191123.927500", "191124.387500", "191124.847500", "191125.307500", "191125.767500", "191126.227500", "191126.687500", "191127.147500", "191127.607500", "191128.067500", "191128.527500", "191128.987500", "191129.447500", "191129.907500", "191130.367500", "191130.827500", "191131.287500", "191131.747500", "191132.207500", "191132.667500", "191133.127500", "191133.587500", "191134.047500", "191134.507500", "191134.967500", "191135.427500", "191135.887500", "191136.347500", "191136.807500", "191137.267500", "191137.727500", "191138.187500", "191138.647500", "191139.107500", "191139.567500", "191140.027500", "191140.487500", "191140.947500", "191141.407500", "191141.867500", "191142.327500", "191142.787500", "191143.247500", "191143.707500", "191144.167500", "191144.627500", "191145.087500", "191145.547500", "191146.007500", "191146.467500", "191146.927500", "191147.387500", "191147.847500", "191148.307500", "191148.767500", "191149.227500", "191149.687500", "191150.147500", "191150.607500", "191151.067500", "191151.527500", "191151.987500", "191152.447500", "191152.907500", "191153.367500", "191153.827500", "191154.287500", "191154.747500", "191155.207500", "191155.667500", "191156.127500", "191156.587500", "191157.047500", "191157.507500", "191157.967500", "191158.427500", "191158.887500", "191159.347500", "191159.807500", "191200.267500", "191200.727500", "191201.187500", "191201.647500", "191202.107500", "191202.567500", "191203.027500", "191203.487500", "191203.947500", "191204.407500", "191204.867500", "191205.327500", "191205.787500", "191206.247500", "191206.707500", "191207.167500", "191207.627500", "191208.087500", "191208.547500", "191209.007500", "191209.467500", "191209.927500", "191210.387500", "191210.847500", "191211.307500", "191211.767500", "191212.227500", "191212.687500", "191213.147500", "191213.607500", "191214.067500", "191214.527500", "191214.987500", "191215.447500", "191215.907500", "191216.367500", "191216.827500", "191217.287500", "191217.747500", "191218.207500", "191218.667500", "191219.127500", "191219.587500", "191220.047500", "191220.507500", "191220.967500", "191221.427500", "191221.887500", "191222.347500", "191222.807500", "191223.267500", "191223.727500", "191224.187500", "191224.647500", "191225.107500", "191225.567500", "191226.027500", "191226.487500", "191226.947500", "191227.407500", "191227.867500", "191228.327500", "191228.787500", "191229.247500", "191229.707500", "191230.167500", "191230.627500", "191231.087500", "191231.547500", "191232.007500", "191232.467500", "191232.927500", "191233.387500", "191233.847500", "191234.307500", "191234.767500", "191235.227500", "191235.687500", "191236.147500", "191236.607500", "191237.067500", "191237.527500", "191237.987500", "191238.447500", "191238.907500", "191239.367500", "191239.827500", "191240.287500", "191240.747500", "191241.207500", "191241.667500", "191242.127500", "191242.587500", "191243.047500", "191243.507500", "191243.967500", "191244.427500", "191244.887500", "191245.347500", "191245.807500", "191246.267500", "191246.727500", "191247.187500", "191247.647500", "191248.107500", "191248.567500", "191249.027500", "191249.487500", "191249.947500", "191250.407500", "191250.867500", "191251.327500", "191251.787500", "191252.247500", "191252.707500", "191253.167500", "191253.627500", "191254.087500", "191254.547500", "191255.007500", "191255.467500", "191255.927500", "191256.387500", "191256.847500", "191257.307500", "191257.767500", "191258.227500", "191258.687500", "191259.147500", "191259.607500", "191300.067500", "191300.527500", "191300.987500", "191301.447500", "191301.907500", "191302.367500", "191302.827500", "191303.287500", "191303.747500", "191304.207500", "191304.667500", "191305.127500", "191305.587500", "191306.047500", "191306.507500", "191306.967500", "191307.427500", "191307.887500", "191308.347500", "191308.807500", "191309.267500", "191309.727500", "191310.187500", "191310.647500", "191311.107500", "191311.567500", "191312.027500", "191312.487500", "191312.947500", "191313.407500", "191313.867500", "191314.327500", "191314.787500", "191315.247500", "191315.707500", "191316.167500", "191316.627500", "191317.087500", "191317.547500", "191318.007500", "191318.467500", "191318.927500", "191319.387500", "191319.847500", "191320.307500", "191320.767500", "191321.227500", "191321.687500", "191322.147500", "191322.607500", "191323.067500", "191323.527500", "191323.987500", "191324.447500", "191324.907500", "191325.367500", "191325.827500", "191326.287500", "191326.747500", "191327.207500", "191327.667500", "191328.127500", "191328.587500", "191329.047500", "191329.507500", "191329.967500", "191330.427500", "191330.887500", "191331.347500", "191331.807500", "191332.267500", "191332.727500", "191333.187500", "191333.647500", "191334.107500", "191334.567500", "191335.027500", "191335.487500", "191335.947500", "191336.407500", "191336.867500", "191337.327500", "191337.787500", "191338.247500", "191338.707500", "191339.167500", "191339.627500", "191340.087500", "191340.547500", "191341.007500", "191341.467500", "191341.927500", "191342.387500", "191342.847500", "191343.307500", "191343.767500", "191344.227500", "191344.687500", "191345.147500", "191345.607500", "191346.067500", "191346.527500", "191346.987500", "191347.447500", "191347.907500", "191348.367500", "191348.827500", "191349.287500", "191349.747500", "191350.207500", "191350.667500", "191351.127500", "191351.587500", "191352.047500", "191352.507500", "191352.967500", "191353.427500", "191353.887500", "191354.347500", "191354.807500", "191355.267500", "191355.727500", "191356.187500", "191356.647500", "191357.107500", "191357.567500", "191358.027500", "191358.487500", "191358.947500", "191359.407500", "191359.867500", "191400.327500", "191400.787500", "191401.247500", "191401.707500", "191402.167500", "191402.627500", "191403.087500", "191403.547500", "191404.007500", "191404.467500", "191404.927500", "191405.387500", "191405.847500", "191406.307500", "191406.767500", "191407.227500", "191407.687500", "191408.147500", "191408.607500", "191409.067500", "191409.527500", "191409.987500", "191410.447500", "191410.907500", "191411.367500", "191411.827500", "191412.287500", "191412.747500", "191413.207500", "191413.667500", "191414.127500", "191414.587500", "191415.047500", "191415.507500", "191415.967500", "191416.427500", "191416.887500", "191417.347500", "191417.807500", "191418.267500", "191418.727500", "191419.187500", "191419.647500", "191420.107500", "191420.567500", "191421.027500", "191421.487500"],
