{
  "AcquisitionMatrixPE": 82,
  "AcquisitionNumber": 1,
  "AcquisitionTime": "19:14:43.880000",
  "BandwidthPerPixelPhaseEncode": 24.888,
  "BaseResolution": 82,
  "BodyPartExamined": "BRAIN",
  "ConsistencyInfo": "N4_VE11E_LATEST_20181129",
  "ConversionSoftware": "dcm2niix",
  "ConversionSoftwareVersion": "v1.0.20201102",
  "DerivedVendorReportedEchoSpacing": 0.00049,
  "DeviceSerialNumber": "66112",
  "DwellTime": 2e-06,
  "EchoTime": 0.0272,
  "EchoTrainLength": 82,
  "EffectiveEchoSpacing": 0.00049,
  "FlipAngle": 44,
  "ImageComments": "Unaliased MB8/PE3",
  "ImageOrientationPatientDICOM": [0.999879, 0.014073, -0.00656595, -0.0139618, 0.999763, 0.0166756],
  "ImageType": [
    "ORIGINAL",
    "PRIMARY",
    "M",
    "MB",
    "ND",
    "NORM",
    "MOSAIC"
],
  "ImagingFrequency": 123.252,
  "InPlanePhaseEncodingDirectionDICOM": "COL",
  "InstitutionAddress": "Maynard 3,Hanover,NH,US,03755",
  "InstitutionName": "Dartmouth College - PBS",
  "InstitutionalDepartmentName": "Department",
  "MRAcquisitionType": "2D",
  "MagneticFieldStrength": 3,
  "Manufacturer": "Siemens",
  "ManufacturersModelName": "Prisma",
  "Modality": "MR",
  "MultibandAccelerationFactor": 8,
  "PartialFourier": 1,
  "PatientPosition": "HFS",
  "PercentPhaseFOV": 100,
  "PercentSampling": 100,
  "PhaseEncodingDirection": "j-",
  "PhaseEncodingSteps": 82,
  "PhaseResolution": 1,
  "PixelBandwidth": 3050,
  "ProcedureStepDescription": "Wager_Wager^1076_spacetop",
  "ProtocolName": "func_run-03_task-social_acq-ap-mb8",
  "PulseSequenceDetails": "%CustomerSeq%\\cmrr_mbep2d_bold",
  "ReceiveCoilActiveElements": "HEA;HEP",
  "ReceiveCoilName": "Head_32",
  "ReconMatrixPE": 82,
  "RepetitionTime": 0.46,
  "SAR": 0.0793763,
  "ScanOptions": "FS",
  "ScanningSequence": "EP",
  "SequenceName": "epfid2d1_82",
  "SequenceVariant": "SK\\SS",
  "SeriesDescription": "func_run-03_task-social_acq-ap-mb8",
  "SeriesNumber": 14,
  "ShimSetting": [4147, -7720, -7213, 759, -23, -61, -65, 12],
  "SliceThickness": 2.7,
  "SliceTiming": [0, 0.25, 0.0625, 0.3125, 0.125, 0.3775, 0.1875, 0, 0.25, 0.0625, 0.3125, 0.125, 0.3775, 0.1875, 0, 0.25, 0.0625, 0.3125, 0.125, 0.3775, 0.1875, 0, 0.25, 0.0625, 0.3125, 0.125, 0.3775, 0.1875, 0, 0.25, 0.0625, 0.3125, 0.125, 0.3775, 0.1875, 0, 0.25, 0.0625, 0.3125, 0.125, 0.3775, 0.1875, 0, 0.25, 0.0625, 0.3125, 0.125, 0.3775, 0.1875, 0, 0.25, 0.0625, 0.3125, 0.125, 0.3775, 0.1875],
  "SoftwareVersions": "syngo MR E11",
  "SpacingBetweenSlices": 2.7,
  "StationName": "AWP66112",
  "TaskName": "social",
  "TotalReadoutTime": 0.03969,
  "TxRefAmp": 229.877,
  "WipMemBlock": "5cd3b41a-175b-415e-8b99-869ca94eb83c||Sequence: R016 ve11e/master r/434b28f1; Aug  7 2019 18:53:46 by eja",
  "dcmmeta_affine": [
    [-2.682603359222412, -0.03745853900909424, -0.018357496708631516, 117.05907440185547],
    [-0.03775671124458313, 2.6822922229766846, 0.04477105289697647, -89.07964324951172],
    [-0.017615968361496925, -0.04473929479718208, 2.69956636428833, -56.42960739135742],
    [0.0, 0.0, 0.0, 1.0]
],
  "dcmmeta_reorient_transform": [
    [0.0, -1.0, 0.0, 81.0],
    [1.0, 0.0, 0.0, 0.0],
    [0.0, 0.0, 1.0, 0.0],
    [0.0, 0.0, 0.0, 1.0]
],
  "dcmmeta_shape": [82, 82, 56, 872],
  "dcmmeta_slice_dim": 2,
  "dcmmeta_version": 0.6,
  "global": {
    "const": {
      "AccessionNumber": "A004085",
      "AcquisitionMatrix": [82, 0, 0, 82],
      "AngioFlag": "N",
      "BitsAllocated": 16,
      "BitsStored": 16,
      "BodyPartExamined": "BRAIN",
      "Columns": 656,
      "EchoNumbers": 1,
      "EchoTime": 27.2,
      "EchoTrainLength": 82,
      "FlipAngle": 44.0,
      "HighBit": 15,
      "ImageOrientationPatient": [0.99987941283188, 0.0140729553744, -0.0065659517217, -0.0139618194131, 0.99976346877101, 0.01667555425287],
      "ImagePositionPatient": [-873.18149848413, -908.84010077947, -67.837883392413],
      "ImageType": [
        "ORIGINAL",
        "PRIMARY",
        "M",
        "MB",
        "ND",
        "NORM",
        "MOSAIC"
],
      "ImagedNucleus": "1H",
      "ImagingFrequency": 123.252181,
      "InPlanePhaseEncodingDirection": "COL",
      "MRAcquisitionType": "2D",
      "MagneticFieldStrength": 3.0,
      "Manufacturer": "SIEMENS",
      "ManufacturerModelName": "Prisma",
      "Modality": "MR",
      "NumberOfAverages": 1.0,
      "NumberOfPhaseEncodingSteps": 82,
      "PercentPhaseFieldOfView": 100.0,
      "PercentSampling": 100.0,
      "PerformedProcedureStepStartTime": "184203.477000",
      "PhotometricInterpretation": "MONOCHROME2",
      "PixelBandwidth": 3050.0,
      "PixelRepresentation": 0,
      "PixelSpacing": [2.6829268932343, 2.6829268932343],
      "ProtocolName": "func_run-03_task-social_acq-ap-mb8",
      "RepetitionTime": 460.0,
      "Rows": 656,
      "SAR": 0.07937631576954,
      "SamplesPerPixel": 1,
      "ScanOptions": "FS",
      "ScanningSequence": "EP",
      "SequenceName": "epfid2d1_82",
      "SequenceVariant": [
        "SK",
        "SS"
],
      "SeriesDescription": "func_run-03_task-social_acq-ap-mb8",
      "SeriesNumber": 14,
      "SeriesTime": "191506.572000",
      "SliceLocation": -58.693543889207,
      "SliceThickness": 2.7000000476837,
      "SmallestImagePixelValue": 0,
      "SoftwareVersions": "syngo MR E11",
      "SpacingBetweenSlices": 2.7000000774779,
      "SpecificCharacterSet": "ISO_IR 100",
      "StudyID": "1",
      "StudyTime": "184203.421000",
      "TransmitCoilName": "Body",
      "VariableFlipAngleFlag": "N",
      "WindowCenterWidthExplanation": "Algo1"
    },
    "slices": {}
  },
  "time": {
    "samples": {
      "AcquisitionNumber": [1, 2, 3, 4, 5, 6, 7, 8, 9, 10, 11, 12, 13, 14, 15, 16, 17, 18, 19, 20, 21, 22, 23, 24, 25, 26, 27, 28, 29, 30, 31, 32, 33, 34, 35, 36, 37, 38, 39, 40, 41, 42, 43, 44, 45, 46, 47, 48, 49, 50, 51, 52, 53, 54, 55, 56, 57, 58, 59, 60, 61, 62, 63, 64, 65, 66, 67, 68, 69, 70, 71, 72, 73, 74, 75, 76, 77, 78, 79, 80, 81, 82, 83, 84, 85, 86, 87, 88, 89, 90, 91, 92, 93, 94, 95, 96, 97, 98, 99, 100, 101, 102, 103, 104, 105, 106, 107, 108, 109, 110, 111, 112, 113, 114, 115, 116, 117, 118, 119, 120, 121, 122, 123, 124, 125, 126, 127, 128, 129, 130, 131, 132, 133, 134, 135, 136, 137, 138, 139, 140, 141, 142, 143, 144, 145, 146, 147, 148, 149, 150, 151, 152, 153, 154, 155, 156, 157, 158, 159, 160, 161, 162, 163, 164, 165, 166, 167, 168, 169, 170, 171, 172, 173, 174, 175, 176, 177, 178, 179, 180, 181, 182, 183, 184, 185, 186, 187, 188, 189, 190, 191, 192, 193, 194, 195, 196, 197, 198, 199, 200, 201, 202, 203, 204, 205, 206, 207, 208, 209, 210, 211, 212, 213, 214, 215, 216, 217, 218, 219, 220, 221, 222, 223, 224, 225, 226, 227, 228, 229, 230, 231, 232, 233, 234, 235, 236, 237, 238, 239, 240, 241, 242, 243, 244, 245, 246, 247, 248, 249, 250, 251, 252, 253, 254, 255, 256, 257, 258, 259, 260, 261, 262, 263, 264, 265, 266, 267, 268, 269, 270, 271, 272, 273, 274, 275, 276, 277, 278, 279, 280, 281, 282, 283, 284, 285, 286, 287, 288, 289, 290, 291, 292, 293, 294, 295, 296, 297, 298, 299, 300, 301, 302, 303, 304, 305, 306, 307, 308, 309, 310, 311, 312, 313, 314, 315, 316, 317, 318, 319, 320, 321, 322, 323, 324, 325, 326, 327, 328, 329, 330, 331, 332, 333, 334, 335, 336, 337, 338, 339, 340, 341, 342, 343, 344, 345, 346, 347, 348, 349, 350, 351, 352, 353, 354, 355, 356, 357, 358, 359, 360, 361, 362, 363, 364, 365, 366, 367, 368, 369, 370, 371, 372, 373, 374, 375, 376, 377, 378, 379, 380, 381, 382, 383, 384, 385, 386, 387, 388, 389, 390, 391, 392, 393, 394, 395, 396, 397, 398, 399, 400, 401, 402, 403, 404, 405, 406, 407, 408, 409, 410, 411, 412, 413, 414, 415, 416, 417, 418, 419, 420, 421, 422, 423, 424, 425, 426, 427, 428, 429, 430, 431, 432, 433, 434, 435, 436, 437, 438, 439, 440, 441, 442, 443, 444, 445, 446, 447, 448, 449, 450, 451, 452, 453, 454, 455, 456, 457, 458, 459, 460, 461, 462, 463, 464, 465, 466, 467, 468, 469, 470, 471, 472, 473, 474, 475, 476, 477, 478, 479, 480, 481, 482, 483, 484, 485, 486, 487, 488, 489, 490, 491, 492, 493, 494, 495, 496, 497, 498, 499, 500, 501, 502, 503, 504, 505, 506, 507, 508, 509, 510, 511, 512, 513, 514, 515, 516, 517, 518, 519, 520, 521, 522, 523, 524, 525, 526, 527, 528, 529, 530, 531, 532, 533, 534, 535, 536, 537, 538, 539, 540, 541, 542, 543, 544, 545, 546, 547, 548, 549, 550, 551, 552, 553, 554, 555, 556, 557, 558, 559, 560, 561, 562, 563, 564, 565, 566, 567, 568, 569, 570, 571, 572, 573, 574, 575, 576, 577, 578, 579, 580, 581, 582, 583, 584, 585, 586, 587, 588, 589, 590, 591, 592, 593, 594, 595, 596, 597, 598, 599, 600, 601, 602, 603, 604, 605, 606, 607, 608, 609, 610, 611, 612, 613, 614, 615, 616, 617, 618, 619, 620, 621, 622, 623, 624, 625, 626, 627, 628, 629, 630, 631, 632, 633, 634, 635, 636, 637, 638, 639, 640, 641, 642, 643, 644, 645, 646, 647, 648, 649, 650, 651, 652, 653, 654, 655, 656, 657, 658, 659, 660, 661, 662, 663, 664, 665, 666, 667, 668, 669, 670, 671, 672, 673, 674, 675, 676, 677, 678, 679, 680, 681, 682, 683, 684, 685, 686, 687, 688, 689, 690, 691, 692, 693, 694, 695, 696, 697, 698, 699, 700, 701, 702, 703, 704, 705, 706, 707, 708, 709, 710, 711, 712, 713, 714, 715, 716, 717, 718, 719, 720, 721, 722, 723, 724, 725, 726, 727, 728, 729, 730, 731, 732, 733, 734, 735, 736, 737, 738, 739, 740, 741, 742, 743, 744, 745, 746, 747, 748, 749, 750, 751, 752, 753, 754, 755, 756, 757, 758, 759, 760, 761, 762, 763, 764, 765, 766, 767, 768, 769, 770, 771, 772, 773, 774, 775, 776, 777, 778, 779, 780, 781, 782, 783, 784, 785, 786, 787, 788, 789, 790, 791, 792, 793, 794, 795, 796, 797, 798, 799, 800, 801, 802, 803, 804, 805, 806, 807, 808, 809, 810, 811, 812, 813, 814, 815, 816, 817, 818, 819, 820, 821, 822, 823, 824, 825, 826, 827, 828, 829, 830, 831, 832, 833, 834, 835, 836, 837, 838, 839, 840, 841, 842, 843, 844, 845, 846, 847, 848, 849, 850, 851, 852, 853, 854, 855, 856, 857, 858, 859, 860, 861, 862, 863, 864, 865, 866, 867, 868, 869, 870, 871, 872],
      "AcquisitionTime": ["191443.880000", "191444.340000", "191444.800000", "191445.260000", "191445.720000", "191446.180000", "191446.640000", "191447.100000", "191447.560000", "191448.020000", "191448.480000", "191448.940000", "191449.400000", "191449.860000", "191450.320000", "191450.780000", "191451.240000", "191451.700000", "191452.160000", "191452.620000", "191453.080000", "191453.540000", "191454.000000", "191454.460000", "191454.920000", "191455.380000", "191455.840000", "191456.300000", "191456.760000", "191457.220000", "191457.680000", "191458.140000", "191458.600000", "191459.060000", "191459.520000", "191459.980000", "191500.440000", "191500.900000", "191501.360000", "191501.820000", "191502.280000", "191502.740000", "191503.200000", "191503.660000", "191504.120000", "191504.580000", "191505.040000", "191505.500000", "191505.960000", "191506.420000", "191506.880000", "191507.340000", "191507.800000", "191508.260000", "191508.720000", "191509.180000", "191509.640000", "191510.100000", "191510.560000", "191511.020000", "191511.480000", "191511.940000", "191512.400000", "191512.860000", "191513.320000", "191513.780000", "191514.240000", "191514.700000", "191515.160000", "191515.620000", "191516.080000", "191516.540000", "191517.000000", "191517.460000", "191517.920000", "191518.380000", "191518.840000", "191519.300000", "191519.760000", "191520.220000", "191520.680000", "191521.140000", "191521.600000", "191522.060000", "191522.520000", "191522.980000", "191523.440000", "191523.900000", "191524.360000", "191524.820000", "191525.280000", "191525.740000", "191526.200000", "191526.660000", "191527.120000", "191527.580000", "191528.040000", "191528.500000", "191528.960000", "191529.420000", "191529.880000", "191530.340000", "191530.800000", "191531.260000", "191531.720000", "191532.180000", "191532.640000", "191533.100000", "191533.560000", "191534.020000", "191534.480000", "191534.940000", "191535.400000", "191535.860000", "191536.320000", "191536.780000", "191537.240000", "191537.700000", "191538.160000", "191538.620000", "191539.080000", "191539.540000", "191540.000000", "191540.460000", "191540.920000", "191541.380000", "191541.840000", "191542.300000", "191542.760000", "191543.220000", "191543.680000", "191544.140000", "191544.600000", "191545.060000", "191545.520000", "191545.980000", "191546.440000", "191546.900000", "191547.360000", "191547.820000", "191548.280000", "191548.740000", "191549.200000", "191549.660000", "191550.120000", "191550.580000", "191551.040000", "191551.500000", "191551.960000", "191552.420000", "191552.880000", "191553.340000", "191553.800000", "191554.260000", "191554.720000", "191555.180000", "191555.640000", "191556.100000", "191556.560000", "191557.020000", "191557.480000", "191557.940000", "191558.400000", "191558.860000", "191559.320000", "191559.780000", "191600.240000", "191600.700000", "191601.160000", "191601.620000", "191602.080000", "191602.540000", "191603.000000", "191603.460000", "191603.920000", "191604.380000", "191604.840000", "191605.300000", "191605.760000", "191606.220000", "191606.680000", "191607.140000", "191607.600000", "191608.060000", "191608.520000", "191608.980000", "191609.440000", "191609.900000", "191610.360000", "191610.820000", "191611.280000", "191611.740000", "191612.200000", "191612.660000", "191613.120000", "191613.580000", "191614.040000", "191614.500000", "191614.960000", "191615.420000", "191615.880000", "191616.340000", "191616.800000", "191617.260000", "191617.720000", "191618.180000", "191618.640000", "191619.100000", "191619.560000", "191620.020000", "191620.480000", "191620.940000", "191621.400000", "191621.860000", "191622.320000", "191622.780000", "191623.240000", "191623.700000", "191624.160000", "191624.620000", "191625.080000", "191625.540000", "191626.000000", "191626.460000", "191626.920000", "191627.380000", "191627.840000", "191628.300000", "191628.760000", "191629.220000", "191629.680000", "191630.140000", "191630.600000", "191631.060000", "191631.520000", "191631.980000", "191632.440000", "191632.900000", "191633.360000", "191633.820000", "191634.280000", "191634.740000", "191635.200000", "191635.660000", "191636.120000", "191636.580000", "191637.040000", "191637.500000", "191637.960000", "191638.420000", "191638.880000", "191639.340000", "191639.800000", "191640.260000", "191640.720000", "191641.180000", "191641.640000", "191642.100000", "191642.560000", "191643.020000", "191643.480000", "191643.940000", "191644.400000", "191644.860000", "191645.320000", "191645.780000", "191646.240000", "191646.700000", "191647.160000", "191647.620000", "191648.080000", "191648.540000", "191649.000000", "191649.460000", "191649.920000", "191650.380000", "191650.840000", "191651.300000", "191651.760000", "191652.220000", "191652.680000", "191653.140000", "191653.600000", "191654.060000", "191654.520000", "191654.980000", "191655.440000", "191655.900000", "191656.360000", "191656.820000", "191657.280000", "191657.740000", "191658.200000", "191658.660000", "191659.120000", "191659.580000", "191700.040000", "191700.500000", "191700.960000", "191701.420000", "191701.880000", "191702.340000", "191702.800000", "191703.260000", "191703.720000", "191704.180000", "191704.640000", "191705.100000", "191705.560000", "191706.020000", "191706.480000", "191706.940000", "191707.400000", "191707.860000", "191708.320000", "191708.780000", "191709.240000", "191709.700000", "191710.160000", "191710.620000", "191711.080000", "191711.540000", "191712.000000", "191712.460000", "191712.920000", "191713.380000", "191713.840000", "191714.300000", "191714.760000", "191715.220000", "191715.680000", "191716.140000", "191716.600000", "191717.060000", "191717.520000", "191717.980000", "191718.440000", "191718.900000", "191719.360000", "191719.820000", "191720.280000", "191720.740000", "191721.200000", "191721.660000", "191722.120000", "191722.580000", "191723.040000", "191723.500000", "191723.960000", "191724.420000", "191724.880000", "191725.340000", "191725.800000", "191726.260000", "191726.720000", "191727.180000", "191727.640000", "191728.100000", "191728.560000", "191729.020000", "191729.480000", "191729.940000", "191730.400000", "191730.860000", "191731.320000", "191731.780000", "191732.240000", "191732.700000", "191733.160000", "191733.620000", "191734.080000", "191734.540000", "191735.000000", "191735.460000", "191735.920000", "191736.380000", "191736.840000", "191737.300000", "191737.760000", "191738.220000", "191738.680000", "191739.140000", "191739.600000", "191740.060000", "191740.520000", "191740.980000", "191741.440000", "191741.900000", "191742.360000", "191742.820000", "191743.280000", "191743.740000", "191744.200000", "191744.660000", "191745.120000", "191745.580000", "191746.040000", "191746.500000", "191746.960000", "191747.420000", "191747.880000", "191748.340000", "191748.800000", "191749.260000", "191749.720000", "191750.180000", "191750.640000", "191751.100000", "191751.560000", "191752.020000", "191752.480000", "191752.940000", "191753.400000", "191753.860000", "191754.320000", "191754.780000", "191755.240000", "191755.700000", "191756.160000", "191756.620000", "191757.080000", "191757.540000", "191758.000000", "191758.460000", "191758.920000", "191759.380000", "191759.840000", "191800.300000", "191800.760000", "191801.220000", "191801.680000", "191802.140000", "191802.600000", "191803.060000", "191803.520000", "191803.980000", "191804.440000", "191804.900000", "191805.360000", "191805.820000", "191806.280000", "191806.740000", "191807.200000", "191807.660000", "191808.120000", "191808.580000", "191809.040000", "191809.500000", "191809.960000", "191810.420000", "191810.880000", "191811.340000", "191811.800000", "191812.260000", "191812.720000", "191813.180000", "191813.640000", "191814.100000", "191814.560000", "191815.020000", "191815.480000", "191815.940000", "191816.400000", "191816.860000", "191817.320000", "191817.780000", "191818.240000", "191818.700000", "191819.160000", "191819.620000", "191820.080000", "191820.540000", "191821.000000", "191821.460000", "191821.920000", "191822.380000", "191822.840000", "191823.300000", "191823.760000", "191824.220000", "191824.680000", "191825.140000", "191825.600000", "191826.060000", "191826.520000", "191826.980000", "191827.440000", "191827.900000", "191828.360000", "191828.820000", "191829.280000", "191829.740000", "191830.200000", "191830.660000", "191831.120000", "191831.580000", "191832.040000", "191832.500000", "191832.960000", "191833.420000", "191833.880000", "191834.340000", "191834.800000", "191835.260000", "191835.720000", "191836.180000", "191836.640000", "191837.100000", "191837.560000", "191838.020000", "191838.480000", "191838.940000", "191839.400000", "191839.860000", "191840.320000", "191840.780000", "191841.240000", "191841.700000", "191842.160000", "191842.620000", "191843.080000", "191843.540000", "191844.000000", "191844.460000", "191844.920000", "191845.380000", "191845.840000", "191846.300000", "191846.760000", "191847.220000", "191847.680000", "191848.140000", "191848.600000", "191849.060000", "191849.520000", "191849.980000", "191850.440000", "191850.900000", "191851.360000", "191851.820000", "191852.280000", "191852.740000", "191853.200000", "191853.660000", "191854.120000", "191854.580000", "191855.040000", "191855.500000", "191855.960000", "191856.420000", "191856.880000", "191857.340000", "191857.800000", "191858.260000", "191858.720000", "191859.180000", "191859.640000", "191900.100000", "191900.560000", "191901.020000", "191901.480000", "191901.940000", "191902.400000", "191902.860000", "191903.320000", "191903.780000", "191904.240000", "191904.700000", "191905.160000", "191905.620000", "191906.080000", "191906.540000", "191907.000000", "191907.460000", "191907.920000", "191908.380000", "191908.840000", "191909.300000", "191909.760000", "191910.220000", "191910.680000", "191911.140000", "191911.600000", "191912.060000", "191912.520000", "191912.980000", "191913.440000", "191913.900000", "191914.360000", "191914.820000", "191915.280000", "191915.740000", "191916.200000", "191916.660000", "191917.120000", "191917.580000", "191918.040000", "191918.500000", "191918.960000", "191919.420000", "191919.880000", "191920.340000", "191920.800000", "191921.260000", "191921.720000", "191922.180000", "191922.640000", "191923.100000", "191923.560000", "191924.020000", "191924.480000", "191924.940000", "191925.400000", "191925.860000", "191926.320000", "191926.780000", "191927.240000", "191927.700000", "191928.160000", "191928.620000", "191929.080000", "191929.540000", "191930.000000", "191930.460000", "191930.920000", "191931.380000", "191931.840000", "191932.300000", "191932.760000", "191933.220000", "191933.680000", "191934.140000", "191934.600000", "191935.060000", "191935.520000", "191935.980000", "191936.440000", "191936.900000", "191937.360000", "191937.820000", "191938.280000", "191938.740000", "191939.200000", "191939.660000", "191940.120000", "191940.580000", "191941.040000", "191941.500000", "191941.960000", "191942.420000", "191942.880000", "191943.340000", "191943.800000", "191944.260000", "191944.720000", "191945.180000", "191945.640000", "191946.100000", "191946.560000", "191947.020000", "191947.480000", "191947.940000", "191948.400000", "191948.860000", "191949.320000", "191949.780000", "191950.240000", "191950.700000", "191951.160000", "191951.620000", "191952.080000", "191952.540000", "191953.000000", "191953.460000", "191953.920000", "191954.380000", "191954.840000", "191955.300000", "191955.760000", "191956.220000", "191956.680000", "191957.140000", "191957.600000", "191958.060000", "191958.520000", "191958.980000", "191959.440000", "191959.900000", "192000.360000", "192000.820000", "192001.280000", "192001.740000", "192002.200000", "192002.660000", "192003.120000", "192003.580000", "192004.040000", "192004.500000", "192004.960000", "192005.420000", "192005.880000", "192006.340000", "192006.800000", "192007.260000", "192007.720000", "192008.180000", "192008.640000", "192009.100000", "192009.560000", "192010.020000", "192010.480000", "192010.940000", "192011.400000", "192011.860000", "192012.320000", "192012.780000", "192013.240000", "192013.700000", "192014.160000", "192014.620000", "192015.080000", "192015.540000", "192016.000000", "192016.460000", "192016.920000", "192017.380000", "192017.840000", "192018.300000", "192018.760000", "192019.220000", "192019.680000", "192020.140000", "192020.600000", "192021.060000", "192021.520000", "192021.980000", "192022.440000", "192022.900000", "192023.360000", "192023.820000", "192024.280000", "192024.740000", "192025.200000", "192025.660000", "192026.120000", "192026.580000", "192027.040000", "192027.500000", "192027.960000", "192028.420000", "192028.880000", "192029.340000", "192029.800000", "192030.260000", "192030.720000", "192031.180000", "192031.640000", "192032.100000", "192032.560000", "192033.020000", "192033.480000", "192033.940000", "192034.400000", "192034.860000", "192035.320000", "192035.780000", "192036.240000", "192036.700000", "192037.160000", "192037.620000", "192038.080000", "192038.540000", "192039.000000", "192039.460000", "192039.920000", "192040.380000", "192040.840000", "192041.300000", "192041.760000", "192042.220000", "192042.680000", "192043.140000", "192043.600000", "192044.060000", "192044.520000", "192044.980000", "192045.440000", "192045.900000", "192046.360000", "192046.820000", "192047.280000", "192047.740000", "192048.200000", "192048.660000", "192049.120000", "192049.580000", "192050.040000", "192050.500000", "192050.960000", "192051.420000", "192051.880000", "192052.340000", "192052.800000", "192053.260000", "192053.720000", "192054.180000", "192054.640000", "192055.100000", "192055.560000", "192056.020000", "192056.480000", "192056.940000", "192057.400000", "192057.860000", "192058.320000", "192058.780000", "192059.240000", "192059.700000", "192100.160000", "192100.620000", "192101.080000", "192101.540000", "192102.000000", "192102.460000", "192102.920000", "192103.380000", "192103.840000", "192104.300000", "192104.760000", "192105.220000", "192105.680000", "192106.140000", "192106.600000", "192107.060000", "192107.520000", "192107.980000", "192108.440000", "192108.900000", "192109.360000", "192109.820000", "192110.280000", "192110.740000", "192111.200000", "192111.660000", "192112.120000", "192112.580000", "192113.040000", "192113.500000", "192113.960000", "192114.420000", "192114.880000", "192115.340000", "192115.800000", "192116.260000", "192116.720000", "192117.180000", "192117.640000", "192118.100000", "192118.560000", "192119.020000", "192119.480000", "192119.940000", "192120.400000", "192120.860000", "192121.320000", "192121.780000", "192122.240000", "192122.700000", "192123.160000", "192123.620000", "192124.080000", "192124.540000"],
