{
  "AcquisitionMatrixPE": 82,
  "AcquisitionNumber": 1,
  "AcquisitionTime": "18:49:18.827500",
  "BandwidthPerPixelPhaseEncode": 24.888,
  "BaseResolution": 82,
  "BodyPartExamined": "BRAIN",
  "ConsistencyInfo": "N4_VE11E_LATEST_20181129",
  "ConversionSoftware": "dcm2niix",
  "ConversionSoftwareVersion": "v1.0.20201102",
  "DerivedVendorReportedEchoSpacing": 0.00049,
  "DeviceSerialNumber": "66112",
  "DwellTime": 2e-06,
  "EchoTime": 0.0272,
  "EchoTrainLength": 82,
  "EffectiveEchoSpacing": 0.00049,
  "FlipAngle": 44,
  "ImageComments": "Unaliased MB8/PE3",
  "ImageOrientationPatientDICOM": [0.99926, 0.0375039, 0.00855082, -0.0378638, 0.998189, 0.0467499],
  "ImageType": [
    "ORIGINAL",
    "PRIMARY",
    "M",
    "MB",
    "ND",
    "NORM",
    "MOSAIC"
],
  "ImagingFrequency": 123.252,
  "InPlanePhaseEncodingDirectionDICOM": "COL",
  "InstitutionAddress": "Maynard 3,Hanover,NH,US,03755",
  "InstitutionName": "Dartmouth College - PBS",
  "InstitutionalDepartmentName": "Department",
  "MRAcquisitionType": "2D",
  "MagneticFieldStrength": 3,
  "Manufacturer": "Siemens",
  "ManufacturersModelName": "Prisma",
  "Modality": "MR",
  "MultibandAccelerationFactor": 8,
  "PartialFourier": 1,
  "PatientPosition": "HFS",
  "PercentPhaseFOV": 100,
  "PercentSampling": 100,
  "PhaseEncodingDirection": "j-",
  "PhaseEncodingSteps": 82,
  "PhaseResolution": 1,
  "PixelBandwidth": 3050,
  "ProcedureStepDescription": "Wager_Wager^1076_spacetop",
  "ProtocolName": "func_run-03_task-social_acq-ap-mb8",
  "PulseSequenceDetails": "%CustomerSeq%\\cmrr_mbep2d_bold",
  "ReceiveCoilActiveElements": "HEA;HEP",
  "ReceiveCoilName": "Head_32",
  "ReconMatrixPE": 82,
  "RepetitionTime": 0.46,
  "SAR": 0.0842085,
  "ScanOptions": "FS",
  "ScanningSequence": "EP",
  "SequenceName": "epfid2d1_82",
  "SequenceVariant": "SK\\SS",
  "SeriesDescription": "func_run-03_task-social_acq-ap-mb8",
  "SeriesNumber": 12,
  "ShimSetting": [4154, -7760, -7298, 819, -9, -353, 67, 57],
  "SliceThickness": 2.7,
  "SliceTiming": [0, 0.25, 0.0625, 0.315, 0.125, 0.3775, 0.1875, 0, 0.25, 0.0625, 0.315, 0.125, 0.3775, 0.1875, 0, 0.25, 0.0625, 0.315, 0.125, 0.3775, 0.1875, 0, 0.25, 0.0625, 0.315, 0.125, 0.3775, 0.1875, 0, 0.25, 0.0625, 0.315, 0.125, 0.3775, 0.1875, 0, 0.25, 0.0625, 0.315, 0.125, 0.3775, 0.1875, 0, 0.25, 0.0625, 0.315, 0.125, 0.3775, 0.1875, 0, 0.25, 0.0625, 0.315, 0.125, 0.3775, 0.1875],
  "SoftwareVersions": "syngo MR E11",
  "SpacingBetweenSlices": 2.7,
  "StationName": "AWP66112",
  "TaskName": "social",
  "TotalReadoutTime": 0.03969,
  "TxRefAmp": 226.726,
  "WipMemBlock": "638132a0-1307-420e-a904-66cc97787c6d||Sequence: R016 ve11e/master r/434b28f1; Aug  7 2019 18:53:46 by eja",
  "dcmmeta_affine": [
    [-2.680941343307495, -0.10158572345972061, 0.01831146515905857, 115.65644836425781],
    [-0.10062028467655182, 2.678067445755005, 0.1270054429769516, -95.5753173828125],
    [0.022941214963793755, -0.1254265308380127, 2.696949005126953, -76.30717468261719],
    [0.0, 0.0, 0.0, 1.0]
],
  "dcmmeta_reorient_transform": [
    [0.0, -1.0, 0.0, 81.0],
    [1.0, 0.0, 0.0, 0.0],
    [0.0, 0.0, 1.0, 0.0],
    [0.0, 0.0, 0.0, 1.0]
],
  "dcmmeta_shape": [82, 82, 56, 872],
  "dcmmeta_slice_dim": 2,
  "dcmmeta_version": 0.6,
  "global": {
    "const": {
      "AccessionNumber": "A003934",
      "AcquisitionMatrix": [82, 0, 0, 82],
      "AngioFlag": "N",
      "BitsAllocated": 16,
      "BitsStored": 16,
      "BodyPartExamined": "BRAIN",
      "Columns": 656,
      "EchoNumbers": 1,
      "EchoTime": 27.2,
      "EchoTrainLength": 82,
      "FlipAngle": 44.0,
      "HighBit": 15,
      "ImageOrientationPatient": [0.99925989574423, 0.03750392377293, 0.00855081626879, -0.0378637676769, 0.99818875121325, 0.04674988822071],
      "ImagePositionPatient": [-847.70303775688, -918.83152558097, -129.04826521502],
      "ImageType": [
        "ORIGINAL",
        "PRIMARY",
        "M",
        "MB",
        "ND",
        "NORM",
        "MOSAIC"
],
      "ImagedNucleus": "1H",
      "ImagingFrequency": 123.252237,
      "InPlanePhaseEncodingDirection": "COL",
      "MRAcquisitionType": "2D",
      "MagneticFieldStrength": 3.0,
      "Manufacturer": "SIEMENS",
      "ManufacturerModelName": "Prisma",
      "Modality": "MR",
      "NumberOfAverages": 1.0,
      "NumberOfPhaseEncodingSteps": 82,
      "PercentPhaseFieldOfView": 100.0,
      "PercentSampling": 100.0,
      "PerformedProcedureStepStartTime": "181926.038000",
      "PhotometricInterpretation": "MONOCHROME2",
      "PixelBandwidth": 3050.0,
      "PixelRepresentation": 0,
      "PixelSpacing": [2.6829268932343, 2.6829268932343],
      "ProtocolName": "func_run-03_task-social_acq-ap-mb8",
      "RepetitionTime": 460.0,
      "Rows": 656,
      "SAR": 0.0842084677285,
      "SamplesPerPixel": 1,
      "ScanOptions": "FS",
      "ScanningSequence": "EP",
      "SequenceName": "epfid2d1_82",
      "SequenceVariant": [
        "SK",
        "SS"
],
      "SeriesDescription": "func_run-03_task-social_acq-ap-mb8",
      "SeriesNumber": 12,
      "SeriesTime": "184936.890000",
      "SliceLocation": -79.93233528794,
      "SliceThickness": 2.7000000476837,
      "SmallestImagePixelValue": 0,
      "SoftwareVersions": "syngo MR E11",
      "SpacingBetweenSlices": 2.7000000007195,
      "SpecificCharacterSet": "ISO_IR 100",
      "StudyID": "2",
      "StudyTime": "181925.961000",
      "TransmitCoilName": "Body",
      "VariableFlipAngleFlag": "N",
      "WindowCenterWidthExplanation": "Algo1"
    },
    "slices": {}
  },
  "time": {
    "samples": {
      "AcquisitionNumber": [1, 2, 3, 4, 5, 6, 7, 8, 9, 10, 11, 12, 13, 14, 15, 16, 17, 18, 19, 20, 21, 22, 23, 24, 25, 26, 27, 28, 29, 30, 31, 32, 33, 34, 35, 36, 37, 38, 39, 40, 41, 42, 43, 44, 45, 46, 47, 48, 49, 50, 51, 52, 53, 54, 55, 56, 57, 58, 59, 60, 61, 62, 63, 64, 65, 66, 67, 68, 69, 70, 71, 72, 73, 74, 75, 76, 77, 78, 79, 80, 81, 82, 83, 84, 85, 86, 87, 88, 89, 90, 91, 92, 93, 94, 95, 96, 97, 98, 99, 100, 101, 102, 103, 104, 105, 106, 107, 108, 109, 110, 111, 112, 113, 114, 115, 116, 117, 118, 119, 120, 121, 122, 123, 124, 125, 126, 127, 128, 129, 130, 131, 132, 133, 134, 135, 136, 137, 138, 139, 140, 141, 142, 143, 144, 145, 146, 147, 148, 149, 150, 151, 152, 153, 154, 155, 156, 157, 158, 159, 160, 161, 162, 163, 164, 165, 166, 167, 168, 169, 170, 171, 172, 173, 174, 175, 176, 177, 178, 179, 180, 181, 182, 183, 184, 185, 186, 187, 188, 189, 190, 191, 192, 193, 194, 195, 196, 197, 198, 199, 200, 201, 202, 203, 204, 205, 206, 207, 208, 209, 210, 211, 212, 213, 214, 215, 216, 217, 218, 219, 220, 221, 222, 223, 224, 225, 226, 227, 228, 229, 230, 231, 232, 233, 234, 235, 236, 237, 238, 239, 240, 241, 242, 243, 244, 245, 246, 247, 248, 249, 250, 251, 252, 253, 254, 255, 256, 257, 258, 259, 260, 261, 262, 263, 264, 265, 266, 267, 268, 269, 270, 271, 272, 273, 274, 275, 276, 277, 278, 279, 280, 281, 282, 283, 284, 285, 286, 287, 288, 289, 290, 291, 292, 293, 294, 295, 296, 297, 298, 299, 300, 301, 302, 303, 304, 305, 306, 307, 308, 309, 310, 311, 312, 313, 314, 315, 316, 317, 318, 319, 320, 321, 322, 323, 324, 325, 326, 327, 328, 329, 330, 331, 332, 333, 334, 335, 336, 337, 338, 339, 340, 341, 342, 343, 344, 345, 346, 347, 348, 349, 350, 351, 352, 353, 354, 355, 356, 357, 358, 359, 360, 361, 362, 363, 364, 365, 366, 367, 368, 369, 370, 371, 372, 373, 374, 375, 376, 377, 378, 379, 380, 381, 382, 383, 384, 385, 386, 387, 388, 389, 390, 391, 392, 393, 394, 395, 396, 397, 398, 399, 400, 401, 402, 403, 404, 405, 406, 407, 408, 409, 410, 411, 412, 413, 414, 415, 416, 417, 418, 419, 420, 421, 422, 423, 424, 425, 426, 427, 428, 429, 430, 431, 432, 433, 434, 435, 436, 437, 438, 439, 440, 441, 442, 443, 444, 445, 446, 447, 448, 449, 450, 451, 452, 453, 454, 455, 456, 457, 458, 459, 460, 461, 462, 463, 464, 465, 466, 467, 468, 469, 470, 471, 472, 473, 474, 475, 476, 477, 478, 479, 480, 481, 482, 483, 484, 485, 486, 487, 488, 489, 490, 491, 492, 493, 494, 495, 496, 497, 498, 499, 500, 501, 502, 503, 504, 505, 506, 507, 508, 509, 510, 511, 512, 513, 514, 515, 516, 517, 518, 519, 520, 521, 522, 523, 524, 525, 526, 527, 528, 529, 530, 531, 532, 533, 534, 535, 536, 537, 538, 539, 540, 541, 542, 543, 544, 545, 546, 547, 548, 549, 550, 551, 552, 553, 554, 555, 556, 557, 558, 559, 560, 561, 562, 563, 564, 565, 566, 567, 568, 569, 570, 571, 572, 573, 574, 575, 576, 577, 578, 579, 580, 581, 582, 583, 584, 585, 586, 587, 588, 589, 590, 591, 592, 593, 594, 595, 596, 597, 598, 599, 600, 601, 602, 603, 604, 605, 606, 607, 608, 609, 610, 611, 612, 613, 614, 615, 616, 617, 618, 619, 620, 621, 622, 623, 624, 625, 626, 627, 628, 629, 630, 631, 632, 633, 634, 635, 636, 637, 638, 639, 640, 641, 642, 643, 644, 645, 646, 647, 648, 649, 650, 651, 652, 653, 654, 655, 656, 657, 658, 659, 660, 661, 662, 663, 664, 665, 666, 667, 668, 669, 670, 671, 672, 673, 674, 675, 676, 677, 678, 679, 680, 681, 682, 683, 684, 685, 686, 687, 688, 689, 690, 691, 692, 693, 694, 695, 696, 697, 698, 699, 700, 701, 702, 703, 704, 705, 706, 707, 708, 709, 710, 711, 712, 713, 714, 715, 716, 717, 718, 719, 720, 721, 722, 723, 724, 725, 726, 727, 728, 729, 730, 731, 732, 733, 734, 735, 736, 737, 738, 739, 740, 741, 742, 743, 744, 745, 746, 747, 748, 749, 750, 751, 752, 753, 754, 755, 756, 757, 758, 759, 760, 761, 762, 763, 764, 765, 766, 767, 768, 769, 770, 771, 772, 773, 774, 775, 776, 777, 778, 779, 780, 781, 782, 783, 784, 785, 786, 787, 788, 789, 790, 791, 792, 793, 794, 795, 796, 797, 798, 799, 800, 801, 802, 803, 804, 805, 806, 807, 808, 809, 810, 811, 812, 813, 814, 815, 816, 817, 818, 819, 820, 821, 822, 823, 824, 825, 826, 827, 828, 829, 830, 831, 832, 833, 834, 835, 836, 837, 838, 839, 840, 841, 842, 843, 844, 845, 846, 847, 848, 849, 850, 851, 852, 853, 854, 855, 856, 857, 858, 859, 860, 861, 862, 863, 864, 865, 866, 867, 868, 869, 870, 871, 872],
      "AcquisitionTime": ["184918.827500", "184919.287500", "184919.747500", "184920.207500", "184920.667500", "184921.127500", "184921.587500", "184922.047500", "184922.507500", "184922.967500", "184923.427500", "184923.887500", "184924.347500", "184924.807500", "184925.267500", "184925.727500", "184926.187500", "184926.647500", "184927.107500", "184927.567500", "184928.027500", "184928.487500", "184928.947500", "184929.407500", "184929.867500", "184930.327500", "184930.787500", "184931.247500", "184931.707500", "184932.167500", "184932.627500", "184933.087500", "184933.547500", "184934.007500", "184934.467500", "184934.927500", "184935.387500", "184935.847500", "184936.307500", "184936.767500", "184937.227500", "184937.687500", "184938.147500", "184938.607500", "184939.067500", "184939.527500", "184939.987500", "184940.447500", "184940.907500", "184941.367500", "184941.827500", "184942.287500", "184942.747500", "184943.207500", "184943.667500", "184944.127500", "184944.587500", "184945.047500", "184945.507500", "184945.967500", "184946.427500", "184946.887500", "184947.347500", "184947.807500", "184948.267500", "184948.727500", "184949.187500", "184949.647500", "184950.107500", "184950.567500", "184951.027500", "184951.487500", "184951.947500", "184952.407500", "184952.867500", "184953.327500", "184953.787500", "184954.247500", "184954.707500", "184955.167500", "184955.627500", "184956.087500", "184956.547500", "184957.007500", "184957.467500", "184957.927500", "184958.387500", "184958.847500", "184959.307500", "184959.767500", "185000.227500", "185000.687500", "185001.147500", "185001.607500", "185002.067500", "185002.527500", "185002.987500", "185003.447500", "185003.907500", "185004.367500", "185004.827500", "185005.287500", "185005.747500", "185006.207500", "185006.667500", "185007.127500", "185007.587500", "185008.047500", "185008.507500", "185008.967500", "185009.427500", "185009.887500", "185010.347500", "185010.807500", "185011.267500", "185011.727500", "185012.187500", "185012.647500", "185013.107500", "185013.567500", "185014.027500", "185014.487500", "185014.947500", "185015.407500", "185015.867500", "185016.327500", "185016.787500", "185017.247500", "185017.707500", "185018.167500", "185018.627500", "185019.087500", "185019.547500", "185020.007500", "185020.467500", "185020.927500", "185021.387500", "185021.847500", "185022.307500", "185022.767500", "185023.227500", "185023.687500", "185024.147500", "185024.607500", "185025.067500", "185025.527500", "185025.987500", "185026.447500", "185026.907500", "185027.367500", "185027.827500", "185028.287500", "185028.747500", "185029.207500", "185029.667500", "185030.127500", "185030.587500", "185031.047500", "185031.507500", "185031.967500", "185032.427500", "185032.887500", "185033.347500", "185033.807500", "185034.267500", "185034.727500", "185035.187500", "185035.647500", "185036.107500", "185036.567500", "185037.027500", "185037.487500", "185037.947500", "185038.407500", "185038.867500", "185039.327500", "185039.787500", "185040.247500", "185040.707500", "185041.167500", "185041.627500", "185042.087500", "185042.547500", "185043.007500", "185043.467500", "185043.927500", "185044.387500", "185044.847500", "185045.307500", "185045.767500", "185046.227500", "185046.687500", "185047.147500", "185047.607500", "185048.067500", "185048.527500", "185048.987500", "185049.447500", "185049.907500", "185050.367500", "185050.827500", "185051.287500", "185051.747500", "185052.207500", "185052.667500", "185053.127500", "185053.587500", "185054.047500", "185054.507500", "185054.967500", "185055.427500", "185055.887500", "185056.347500", "185056.807500", "185057.267500", "185057.727500", "185058.187500", "185058.647500", "185059.107500", "185059.567500", "185100.027500", "185100.487500", "185100.947500", "185101.407500", "185101.867500", "185102.327500", "185102.787500", "185103.247500", "185103.707500", "185104.167500", "185104.627500", "185105.087500", "185105.547500", "185106.007500", "185106.467500", "185106.927500", "185107.387500", "185107.847500", "185108.307500", "185108.767500", "185109.227500", "185109.687500", "185110.147500", "185110.607500", "185111.067500", "185111.527500", "185111.987500", "185112.447500", "185112.907500", "185113.367500", "185113.827500", "185114.287500", "185114.747500", "185115.207500", "185115.667500", "185116.127500", "185116.587500", "185117.047500", "185117.507500", "185117.967500", "185118.427500", "185118.887500", "185119.347500", "185119.807500", "185120.267500", "185120.727500", "185121.187500", "185121.647500", "185122.107500", "185122.567500", "185123.027500", "185123.487500", "185123.947500", "185124.407500", "185124.867500", "185125.327500", "185125.787500", "185126.247500", "185126.707500", "185127.167500", "185127.627500", "185128.087500", "185128.547500", "185129.007500", "185129.467500", "185129.927500", "185130.387500", "185130.847500", "185131.307500", "185131.767500", "185132.227500", "185132.687500", "185133.147500", "185133.607500", "185134.067500", "185134.527500", "185134.987500", "185135.447500", "185135.907500", "185136.367500", "185136.827500", "185137.287500", "185137.747500", "185138.207500", "185138.667500", "185139.127500", "185139.587500", "185140.047500", "185140.507500", "185140.967500", "185141.427500", "185141.887500", "185142.347500", "185142.807500", "185143.267500", "185143.727500", "185144.187500", "185144.647500", "185145.107500", "185145.567500", "185146.027500", "185146.487500", "185146.947500", "185147.407500", "185147.867500", "185148.327500", "185148.787500", "185149.247500", "185149.707500", "185150.167500", "185150.627500", "185151.087500", "185151.547500", "185152.007500", "185152.467500", "185152.927500", "185153.387500", "185153.847500", "185154.307500", "185154.767500", "185155.227500", "185155.687500", "185156.147500", "185156.607500", "185157.067500", "185157.527500", "185157.987500", "185158.447500", "185158.907500", "185159.367500", "185159.827500", "185200.287500", "185200.747500", "185201.207500", "185201.667500", "185202.127500", "185202.587500", "185203.047500", "185203.507500", "185203.967500", "185204.427500", "185204.887500", "185205.347500", "185205.807500", "185206.267500", "185206.727500", "185207.187500", "185207.647500", "185208.107500", "185208.567500", "185209.027500", "185209.487500", "185209.947500", "185210.407500", "185210.867500", "185211.327500", "185211.787500", "185212.247500", "185212.707500", "185213.167500", "185213.627500", "185214.087500", "185214.547500", "185215.007500", "185215.467500", "185215.927500", "185216.387500", "185216.847500", "185217.307500", "185217.767500", "185218.227500", "185218.687500", "185219.147500", "185219.607500", "185220.067500", "185220.527500", "185220.987500", "185221.447500", "185221.907500", "185222.367500", "185222.827500", "185223.287500", "185223.747500", "185224.207500", "185224.667500", "185225.127500", "185225.587500", "185226.047500", "185226.507500", "185226.967500", "185227.427500", "185227.887500", "185228.347500", "185228.807500", "185229.267500", "185229.727500", "185230.187500", "185230.647500", "185231.107500", "185231.567500", "185232.027500", "185232.487500", "185232.947500", "185233.407500", "185233.867500", "185234.327500", "185234.787500", "185235.247500", "185235.707500", "185236.167500", "185236.627500", "185237.087500", "185237.547500", "185238.007500", "185238.467500", "185238.927500", "185239.387500", "185239.847500", "185240.307500", "185240.767500", "185241.227500", "185241.687500", "185242.147500", "185242.607500", "185243.067500", "185243.527500", "185243.987500", "185244.447500", "185244.907500", "185245.367500", "185245.827500", "185246.287500", "185246.747500", "185247.207500", "185247.667500", "185248.127500", "185248.587500", "185249.047500", "185249.507500", "185249.967500", "185250.427500", "185250.887500", "185251.347500", "185251.807500", "185252.267500", "185252.727500", "185253.187500", "185253.647500", "185254.107500", "185254.567500", "185255.027500", "185255.487500", "185255.947500", "185256.407500", "185256.867500", "185257.327500", "185257.787500", "185258.247500", "185258.707500", "185259.167500", "185259.627500", "185300.087500", "185300.547500", "185301.007500", "185301.467500", "185301.927500", "185302.387500", "185302.847500", "185303.307500", "185303.767500", "185304.227500", "185304.687500", "185305.147500", "185305.607500", "185306.067500", "185306.527500", "185306.987500", "185307.447500", "185307.907500", "185308.367500", "185308.827500", "185309.287500", "185309.747500", "185310.207500", "185310.667500", "185311.127500", "185311.587500", "185312.047500", "185312.507500", "185312.967500", "185313.427500", "185313.887500", "185314.347500", "185314.807500", "185315.267500", "185315.727500", "185316.187500", "185316.647500", "185317.107500", "185317.567500", "185318.027500", "185318.487500", "185318.947500", "185319.407500", "185319.867500", "185320.327500", "185320.787500", "185321.247500", "185321.707500", "185322.167500", "185322.627500", "185323.087500", "185323.547500", "185324.007500", "185324.467500", "185324.927500", "185325.387500", "185325.847500", "185326.307500", "185326.767500", "185327.227500", "185327.687500", "185328.147500", "185328.607500", "185329.067500", "185329.527500", "185329.987500", "185330.447500", "185330.907500", "185331.367500", "185331.827500", "185332.287500", "185332.747500", "185333.207500", "185333.667500", "185334.127500", "185334.587500", "185335.047500", "185335.507500", "185335.967500", "185336.427500", "185336.887500", "185337.347500", "185337.807500", "185338.267500", "185338.727500", "185339.187500", "185339.647500", "185340.107500", "185340.567500", "185341.027500", "185341.487500", "185341.947500", "185342.407500", "185342.867500", "185343.327500", "185343.787500", "185344.247500", "185344.707500", "185345.167500", "185345.627500", "185346.087500", "185346.547500", "185347.007500", "185347.467500", "185347.927500", "185348.387500", "185348.847500", "185349.307500", "185349.767500", "185350.227500", "185350.687500", "185351.147500", "185351.607500", "185352.067500", "185352.527500", "185352.987500", "185353.447500", "185353.907500", "185354.367500", "185354.827500", "185355.287500", "185355.747500", "185356.207500", "185356.667500", "185357.127500", "185357.587500", "185358.047500", "185358.507500", "185358.967500", "185359.427500", "185359.887500", "185400.347500", "185400.807500", "185401.267500", "185401.727500", "185402.187500", "185402.647500", "185403.107500", "185403.567500", "185404.027500", "185404.487500", "185404.947500", "185405.407500", "185405.867500", "185406.327500", "185406.787500", "185407.247500", "185407.707500", "185408.167500", "185408.627500", "185409.087500", "185409.547500", "185410.007500", "185410.467500", "185410.927500", "185411.387500", "185411.847500", "185412.307500", "185412.767500", "185413.227500", "185413.687500", "185414.147500", "185414.607500", "185415.067500", "185415.527500", "185415.987500", "185416.447500", "185416.907500", "185417.367500", "185417.827500", "185418.287500", "185418.747500", "185419.207500", "185419.667500", "185420.127500", "185420.587500", "185421.047500", "185421.507500", "185421.967500", "185422.427500", "185422.887500", "185423.347500", "185423.807500", "185424.267500", "185424.727500", "185425.187500", "185425.647500", "185426.107500", "185426.567500", "185427.027500", "185427.487500", "185427.947500", "185428.407500", "185428.867500", "185429.327500", "185429.787500", "185430.247500", "185430.707500", "185431.167500", "185431.627500", "185432.087500", "185432.547500", "185433.007500", "185433.467500", "185433.927500", "185434.387500", "185434.847500", "185435.307500", "185435.767500", "185436.227500", "185436.687500", "185437.147500", "185437.607500", "185438.067500", "185438.527500", "185438.987500", "185439.447500", "185439.907500", "185440.367500", "185440.827500", "185441.287500", "185441.747500", "185442.207500", "185442.667500", "185443.127500", "185443.587500", "185444.047500", "185444.507500", "185444.967500", "185445.427500", "185445.887500", "185446.347500", "185446.807500", "185447.267500", "185447.727500", "185448.187500", "185448.647500", "185449.107500", "185449.567500", "185450.027500", "185450.487500", "185450.947500", "185451.407500", "185451.867500", "185452.327500", "185452.787500", "185453.247500", "185453.707500", "185454.167500", "185454.627500", "185455.087500", "185455.547500", "185456.007500", "185456.467500", "185456.927500", "185457.387500", "185457.847500", "185458.307500", "185458.767500", "185459.227500", "185459.687500", "185500.147500", "185500.607500", "185501.067500", "185501.527500", "185501.987500", "185502.447500", "185502.907500", "185503.367500", "185503.827500", "185504.287500", "185504.747500", "185505.207500", "185505.667500", "185506.127500", "185506.587500", "185507.047500", "185507.507500", "185507.967500", "185508.427500", "185508.887500", "185509.347500", "185509.807500", "185510.267500", "185510.727500", "185511.187500", "185511.647500", "185512.107500", "185512.567500", "185513.027500", "185513.487500", "185513.947500", "185514.407500", "185514.867500", "185515.327500", "185515.787500", "185516.247500", "185516.707500", "185517.167500", "185517.627500", "185518.087500", "185518.547500", "185519.007500", "185519.467500", "185519.927500", "185520.387500", "185520.847500", "185521.307500", "185521.767500", "185522.227500", "185522.687500", "185523.147500", "185523.607500", "185524.067500", "185524.527500", "185524.987500", "185525.447500", "185525.907500", "185526.367500", "185526.827500", "185527.287500", "185527.747500", "185528.207500", "185528.667500", "185529.127500", "185529.587500", "185530.047500", "185530.507500", "185530.967500", "185531.427500", "185531.887500", "185532.347500", "185532.807500", "185533.267500", "185533.727500", "185534.187500", "185534.647500", "185535.107500", "185535.567500", "185536.027500", "185536.487500", "185536.947500", "185537.407500", "185537.867500", "185538.327500", "185538.787500", "185539.247500", "185539.707500", "185540.167500", "185540.627500", "185541.087500", "185541.547500", "185542.007500", "185542.467500", "185542.927500", "185543.387500", "185543.847500", "185544.307500", "185544.767500", "185545.227500", "185545.687500", "185546.147500", "185546.607500", "185547.067500", "185547.527500", "185547.987500", "185548.447500", "185548.907500", "185549.367500", "185549.827500", "185550.287500", "185550.747500", "185551.207500", "185551.667500", "185552.127500", "185552.587500", "185553.047500", "185553.507500", "185553.967500", "185554.427500", "185554.887500", "185555.347500", "185555.807500", "185556.267500", "185556.727500", "185557.187500", "185557.647500", "185558.107500", "185558.567500", "185559.027500", "185559.487500"],
