{
  "AcquisitionMatrixPE": 82,
  "AcquisitionNumber": 1,
  "AcquisitionTime": "17:42:7.922500",
  "BandwidthPerPixelPhaseEncode": 24.888,
  "BaseResolution": 82,
  "BodyPartExamined": "BRAIN",
  "ConsistencyInfo": "N4_VE11E_LATEST_20181129",
  "ConversionSoftware": "dcm2niix",
  "ConversionSoftwareVersion": "v1.0.20201102",
  "DerivedVendorReportedEchoSpacing": 0.00049,
  "DeviceSerialNumber": "66112",
  "DwellTime": 2e-06,
  "EchoTime": 0.0272,
  "EchoTrainLength": 82,
  "EffectiveEchoSpacing": 0.00049,
  "FlipAngle": 44,
  "ImageComments": "Unaliased MB8/PE3",
  "ImageOrientationPatientDICOM": [0.997176, -0.00511715, 0.074925, 0.00887629, 0.998713, -0.0499253],
  "ImageType": [
    "ORIGINAL",
    "PRIMARY",
    "M",
    "MB",
    "ND",
    "NORM",
    "MOSAIC"
],
  "ImagingFrequency": 123.252,
  "InPlanePhaseEncodingDirectionDICOM": "COL",
  "InstitutionAddress": "Maynard 3,Hanover,NH,US,03755",
  "InstitutionName": "Dartmouth College - PBS",
  "InstitutionalDepartmentName": "Department",
  "MRAcquisitionType": "2D",
  "MagneticFieldStrength": 3,
  "Manufacturer": "Siemens",
  "ManufacturersModelName": "Prisma",
  "Modality": "MR",
  "MultibandAccelerationFactor": 8,
  "PartialFourier": 1,
  "PatientPosition": "HFS",
  "PercentPhaseFOV": 100,
  "PercentSampling": 100,
  "PhaseEncodingDirection": "j-",
  "PhaseEncodingSteps": 82,
  "PhaseResolution": 1,
  "PixelBandwidth": 3050,
  "ProcedureStepDescription": "Wager_Wager^1076_spacetop",
  "ProtocolName": "func_run-04_task-social_acq-ap-mb8",
  "PulseSequenceDetails": "%CustomerSeq%\\cmrr_mbep2d_bold",
  "ReceiveCoilActiveElements": "HEA;HEP",
  "ReceiveCoilName": "Head_32",
  "ReconMatrixPE": 82,
  "RepetitionTime": 0.46,
  "SAR": 0.0963451,
  "ScanOptions": "FS",
  "ScanningSequence": "EP",
  "SequenceName": "epfid2d1_82",
  "SequenceVariant": "SK\\SS",
  "SeriesDescription": "func_run-04_task-social_acq-ap-mb8",
  "SeriesNumber": 14,
  "ShimSetting": [4190, -7816, -7247, 573, 44, -296, 91, -23],
  "SliceThickness": 2.7,
  "SliceTiming": [0, 0.25, 0.0625, 0.3125, 0.125, 0.375, 0.1875, 0, 0.25, 0.0625, 0.3125, 0.125, 0.375, 0.1875, 0, 0.25, 0.0625, 0.3125, 0.125, 0.375, 0.1875, 0, 0.25, 0.0625, 0.3125, 0.125, 0.375, 0.1875, 0, 0.25, 0.0625, 0.3125, 0.125, 0.375, 0.1875, 0, 0.25, 0.0625, 0.3125, 0.125, 0.375, 0.1875, 0, 0.25, 0.0625, 0.3125, 0.125, 0.375, 0.1875, 0, 0.25, 0.0625, 0.3125, 0.125, 0.375, 0.1875],
  "SoftwareVersions": "syngo MR E11",
  "SpacingBetweenSlices": 2.7,
  "StationName": "AWP66112",
  "TaskName": "social",
  "TotalReadoutTime": 0.03969,
  "TxRefAmp": 232.752,
  "WipMemBlock": "7ddd19a2-7b3b-4d7b-9f1d-35c3941f5a05||Sequence: R016 ve11e/master r/434b28f1; Aug  7 2019 18:53:46 by eja",
  "dcmmeta_affine": [
    [-2.6753504276275635, 0.023814434185624123, 0.20134741067886353, 102.0378646850586],
    [0.013728948310017586, 2.6794753074645996, -0.13621331751346588, -95.58316802978516],
    [0.20101822912693024, 0.13394595682621002, 2.6890342235565186, -78.93635559082031],
    [0.0, 0.0, 0.0, 1.0]
],
  "dcmmeta_reorient_transform": [
    [0.0, -1.0, 0.0, 81.0],
    [1.0, 0.0, 0.0, 0.0],
    [0.0, 0.0, 1.0, 0.0],
    [0.0, 0.0, 0.0, 1.0]
],
  "dcmmeta_shape": [82, 82, 56, 872],
  "dcmmeta_slice_dim": 2,
  "dcmmeta_version": 0.6,
  "global": {
    "const": {
      "AccessionNumber": "A004149",
      "AcquisitionMatrix": [82, 0, 0, 82],
      "AngioFlag": "N",
      "BitsAllocated": 16,
      "BitsStored": 16,
      "BodyPartExamined": "BRAIN",
      "Columns": 656,
      "EchoNumbers": 1,
      "EchoTime": 27.2,
      "EchoTrainLength": 82,
      "FlipAngle": 44.0,
      "HighBit": 15,
      "ImageOrientationPatient": [0.99717604395865, -0.0051171534321, 0.07492497644803, 0.00887628907288, 0.99871351000761, -0.0499253084175],
      "ImagePositionPatient": [-878.62715154144, -886.52354418618, -87.336477495396],
      "ImageType": [
        "ORIGINAL",
        "PRIMARY",
        "M",
        "MB",
        "ND",
        "NORM",
        "MOSAIC"
],
      "ImagedNucleus": "1H",
      "ImagingFrequency": 123.252197,
      "InPlanePhaseEncodingDirection": "COL",
      "MRAcquisitionType": "2D",
      "MagneticFieldStrength": 3.0,
      "Manufacturer": "SIEMENS",
      "ManufacturerModelName": "Prisma",
      "Modality": "MR",
      "NumberOfAverages": 1.0,
      "NumberOfPhaseEncodingSteps": 82,
      "PercentPhaseFieldOfView": 100.0,
      "PercentSampling": 100.0,
      "PerformedProcedureStepStartTime": "164749.251000",
      "PhotometricInterpretation": "MONOCHROME2",
      "PixelBandwidth": 3050.0,
      "PixelRepresentation": 0,
      "PixelSpacing": [2.6829268932343, 2.6829268932343],
      "ProtocolName": "func_run-04_task-social_acq-ap-mb8",
      "RepetitionTime": 460.0,
      "Rows": 656,
      "SAR": 0.09634513851211,
      "SamplesPerPixel": 1,
      "ScanOptions": "FS",
      "ScanningSequence": "EP",
      "SequenceName": "epfid2d1_82",
      "SequenceVariant": [
        "SK",
        "SS"
],
      "SeriesDescription": "func_run-04_task-social_acq-ap-mb8",
      "SeriesNumber": 14,
      "SeriesTime": "174218.965000",
      "SliceLocation": -66.184370725766,
      "SliceThickness": 2.7000000476837,
      "SmallestImagePixelValue": 0,
      "SoftwareVersions": "syngo MR E11",
      "SpacingBetweenSlices": 2.700000096014,
      "SpecificCharacterSet": "ISO_IR 100",
      "StudyID": "1",
      "StudyTime": "164749.178000",
      "TransmitCoilName": "Body",
      "VariableFlipAngleFlag": "N",
      "WindowCenterWidthExplanation": "Algo1"
    },
    "slices": {}
  },
  "time": {
    "samples": {
      "AcquisitionNumber": [1, 2, 3, 4, 5, 6, 7, 8, 9, 10, 11, 12, 13, 14, 15, 16, 17, 18, 19, 20, 21, 22, 23, 24, 25, 26, 27, 28, 29, 30, 31, 32, 33, 34, 35, 36, 37, 38, 39, 40, 41, 42, 43, 44, 45, 46, 47, 48, 49, 50, 51, 52, 53, 54, 55, 56, 57, 58, 59, 60, 61, 62, 63, 64, 65, 66, 67, 68, 69, 70, 71, 72, 73, 74, 75, 76, 77, 78, 79, 80, 81, 82, 83, 84, 85, 86, 87, 88, 89, 90, 91, 92, 93, 94, 95, 96, 97, 98, 99, 100, 101, 102, 103, 104, 105, 106, 107, 108, 109, 110, 111, 112, 113, 114, 115, 116, 117, 118, 119, 120, 121, 122, 123, 124, 125, 126, 127, 128, 129, 130, 131, 132, 133, 134, 135, 136, 137, 138, 139, 140, 141, 142, 143, 144, 145, 146, 147, 148, 149, 150, 151, 152, 153, 154, 155, 156, 157, 158, 159, 160, 161, 162, 163, 164, 165, 166, 167, 168, 169, 170, 171, 172, 173, 174, 175, 176, 177, 178, 179, 180, 181, 182, 183, 184, 185, 186, 187, 188, 189, 190, 191, 192, 193, 194, 195, 196, 197, 198, 199, 200, 201, 202, 203, 204, 205, 206, 207, 208, 209, 210, 211, 212, 213, 214, 215, 216, 217, 218, 219, 220, 221, 222, 223, 224, 225, 226, 227, 228, 229, 230, 231, 232, 233, 234, 235, 236, 237, 238, 239, 240, 241, 242, 243, 244, 245, 246, 247, 248, 249, 250, 251, 252, 253, 254, 255, 256, 257, 258, 259, 260, 261, 262, 263, 264, 265, 266, 267, 268, 269, 270, 271, 272, 273, 274, 275, 276, 277, 278, 279, 280, 281, 282, 283, 284, 285, 286, 287, 288, 289, 290, 291, 292, 293, 294, 295, 296, 297, 298, 299, 300, 301, 302, 303, 304, 305, 306, 307, 308, 309, 310, 311, 312, 313, 314, 315, 316, 317, 318, 319, 320, 321, 322, 323, 324, 325, 326, 327, 328, 329, 330, 331, 332, 333, 334, 335, 336, 337, 338, 339, 340, 341, 342, 343, 344, 345, 346, 347, 348, 349, 350, 351, 352, 353, 354, 355, 356, 357, 358, 359, 360, 361, 362, 363, 364, 365, 366, 367, 368, 369, 370, 371, 372, 373, 374, 375, 376, 377, 378, 379, 380, 381, 382, 383, 384, 385, 386, 387, 388, 389, 390, 391, 392, 393, 394, 395, 396, 397, 398, 399, 400, 401, 402, 403, 404, 405, 406, 407, 408, 409, 410, 411, 412, 413, 414, 415, 416, 417, 418, 419, 420, 421, 422, 423, 424, 425, 426, 427, 428, 429, 430, 431, 432, 433, 434, 435, 436, 437, 438, 439, 440, 441, 442, 443, 444, 445, 446, 447, 448, 449, 450, 451, 452, 453, 454, 455, 456, 457, 458, 459, 460, 461, 462, 463, 464, 465, 466, 467, 468, 469, 470, 471, 472, 473, 474, 475, 476, 477, 478, 479, 480, 481, 482, 483, 484, 485, 486, 487, 488, 489, 490, 491, 492, 493, 494, 495, 496, 497, 498, 499, 500, 501, 502, 503, 504, 505, 506, 507, 508, 509, 510, 511, 512, 513, 514, 515, 516, 517, 518, 519, 520, 521, 522, 523, 524, 525, 526, 527, 528, 529, 530, 531, 532, 533, 534, 535, 536, 537, 538, 539, 540, 541, 542, 543, 544, 545, 546, 547, 548, 549, 550, 551, 552, 553, 554, 555, 556, 557, 558, 559, 560, 561, 562, 563, 564, 565, 566, 567, 568, 569, 570, 571, 572, 573, 574, 575, 576, 577, 578, 579, 580, 581, 582, 583, 584, 585, 586, 587, 588, 589, 590, 591, 592, 593, 594, 595, 596, 597, 598, 599, 600, 601, 602, 603, 604, 605, 606, 607, 608, 609, 610, 611, 612, 613, 614, 615, 616, 617, 618, 619, 620, 621, 622, 623, 624, 625, 626, 627, 628, 629, 630, 631, 632, 633, 634, 635, 636, 637, 638, 639, 640, 641, 642, 643, 644, 645, 646, 647, 648, 649, 650, 651, 652, 653, 654, 655, 656, 657, 658, 659, 660, 661, 662, 663, 664, 665, 666, 667, 668, 669, 670, 671, 672, 673, 674, 675, 676, 677, 678, 679, 680, 681, 682, 683, 684, 685, 686, 687, 688, 689, 690, 691, 692, 693, 694, 695, 696, 697, 698, 699, 700, 701, 702, 703, 704, 705, 706, 707, 708, 709, 710, 711, 712, 713, 714, 715, 716, 717, 718, 719, 720, 721, 722, 723, 724, 725, 726, 727, 728, 729, 730, 731, 732, 733, 734, 735, 736, 737, 738, 739, 740, 741, 742, 743, 744, 745, 746, 747, 748, 749, 750, 751, 752, 753, 754, 755, 756, 757, 758, 759, 760, 761, 762, 763, 764, 765, 766, 767, 768, 769, 770, 771, 772, 773, 774, 775, 776, 777, 778, 779, 780, 781, 782, 783, 784, 785, 786, 787, 788, 789, 790, 791, 792, 793, 794, 795, 796, 797, 798, 799, 800, 801, 802, 803, 804, 805, 806, 807, 808, 809, 810, 811, 812, 813, 814, 815, 816, 817, 818, 819, 820, 821, 822, 823, 824, 825, 826, 827, 828, 829, 830, 831, 832, 833, 834, 835, 836, 837, 838, 839, 840, 841, 842, 843, 844, 845, 846, 847, 848, 849, 850, 851, 852, 853, 854, 855, 856, 857, 858, 859, 860, 861, 862, 863, 864, 865, 866, 867, 868, 869, 870, 871, 872],
      "AcquisitionTime": ["174207.922500", "174208.382500", "174208.842500", "174209.302500", "174209.762500", "174210.222500", "174210.682500", "174211.142500", "174211.602500", "174212.062500", "174212.522500", "174212.982500", "174213.442500", "174213.902500", "174214.362500", "174214.822500", "174215.282500", "174215.742500", "174216.202500", "174216.662500", "174217.122500", "174217.582500", "174218.042500", "174218.502500", "174218.962500", "174219.422500", "174219.882500", "174220.342500", "174220.802500", "174221.262500", "174221.722500", "174222.182500", "174222.642500", "174223.102500", "174223.562500", "174224.022500", "174224.482500", "174224.942500", "174225.402500", "174225.862500", "174226.322500", "174226.782500", "174227.242500", "174227.702500", "174228.162500", "174228.622500", "174229.082500", "174229.542500", "174230.002500", "174230.462500", "174230.922500", "174231.382500", "174231.842500", "174232.302500", "174232.762500", "174233.222500", "174233.682500", "174234.142500", "174234.602500", "174235.062500", "174235.522500", "174235.982500", "174236.442500", "174236.902500", "174237.362500", "174237.822500", "174238.282500", "174238.742500", "174239.202500", "174239.662500", "174240.122500", "174240.582500", "174241.042500", "174241.502500", "174241.962500", "174242.422500", "174242.882500", "174243.342500", "174243.802500", "174244.262500", "174244.722500", "174245.182500", "174245.642500", "174246.102500", "174246.562500", "174247.022500", "174247.482500", "174247.942500", "174248.402500", "174248.862500", "174249.322500", "174249.782500", "174250.242500", "174250.702500", "174251.162500", "174251.622500", "174252.082500", "174252.542500", "174253.002500", "174253.462500", "174253.922500", "174254.382500", "174254.842500", "174255.302500", "174255.762500", "174256.222500", "174256.682500", "174257.142500", "174257.602500", "174258.062500", "174258.522500", "174258.982500", "174259.442500", "174259.902500", "174300.362500", "174300.822500", "174301.282500", "174301.742500", "174302.202500", "174302.662500", "174303.122500", "174303.582500", "174304.042500", "174304.502500", "174304.962500", "174305.422500", "174305.882500", "174306.342500", "174306.802500", "174307.262500", "174307.722500", "174308.182500", "174308.642500", "174309.102500", "174309.562500", "174310.022500", "174310.482500", "174310.942500", "174311.402500", "174311.862500", "174312.322500", "174312.782500", "174313.242500", "174313.702500", "174314.162500", "174314.622500", "174315.082500", "174315.542500", "174316.002500", "174316.462500", "174316.922500", "174317.382500", "174317.842500", "174318.302500", "174318.762500", "174319.222500", "174319.682500", "174320.142500", "174320.602500", "174321.062500", "174321.522500", "174321.982500", "174322.442500", "174322.902500", "174323.362500", "174323.822500", "174324.282500", "174324.742500", "174325.202500", "174325.662500", "174326.122500", "174326.582500", "174327.042500", "174327.502500", "174327.962500", "174328.422500", "174328.882500", "174329.342500", "174329.802500", "174330.262500", "174330.722500", "174331.182500", "174331.642500", "174332.102500", "174332.562500", "174333.022500", "174333.482500", "174333.942500", "174334.402500", "174334.862500", "174335.322500", "174335.782500", "174336.242500", "174336.702500", "174337.162500", "174337.622500", "174338.082500", "174338.542500", "174339.002500", "174339.462500", "174339.922500", "174340.382500", "174340.842500", "174341.302500", "174341.762500", "174342.222500", "174342.682500", "174343.142500", "174343.602500", "174344.062500", "174344.522500", "174344.982500", "174345.442500", "174345.902500", "174346.362500", "174346.822500", "174347.282500", "174347.742500", "174348.202500", "174348.662500", "174349.122500", "174349.582500", "174350.042500", "174350.502500", "174350.962500", "174351.422500", "174351.882500", "174352.342500", "174352.802500", "174353.262500", "174353.722500", "174354.182500", "174354.642500", "174355.102500", "174355.562500", "174356.022500", "174356.482500", "174356.942500", "174357.402500", "174357.862500", "174358.322500", "174358.782500", "174359.242500", "174359.702500", "174400.162500", "174400.622500", "174401.082500", "174401.542500", "174402.002500", "174402.462500", "174402.922500", "174403.382500", "174403.842500", "174404.302500", "174404.762500", "174405.222500", "174405.682500", "174406.142500", "174406.602500", "174407.062500", "174407.522500", "174407.982500", "174408.442500", "174408.902500", "174409.362500", "174409.822500", "174410.282500", "174410.742500", "174411.202500", "174411.662500", "174412.122500", "174412.582500", "174413.042500", "174413.502500", "174413.962500", "174414.422500", "174414.882500", "174415.342500", "174415.802500", "174416.262500", "174416.722500", "174417.182500", "174417.642500", "174418.102500", "174418.562500", "174419.022500", "174419.482500", "174419.942500", "174420.402500", "174420.862500", "174421.322500", "174421.782500", "174422.242500", "174422.702500", "174423.162500", "174423.622500", "174424.082500", "174424.542500", "174425.002500", "174425.462500", "174425.922500", "174426.382500", "174426.842500", "174427.302500", "174427.762500", "174428.222500", "174428.682500", "174429.142500", "174429.602500", "174430.062500", "174430.522500", "174430.982500", "174431.442500", "174431.902500", "174432.362500", "174432.822500", "174433.282500", "174433.742500", "174434.202500", "174434.662500", "174435.122500", "174435.582500", "174436.042500", "174436.502500", "174436.962500", "174437.422500", "174437.882500", "174438.342500", "174438.802500", "174439.262500", "174439.722500", "174440.182500", "174440.642500", "174441.102500", "174441.562500", "174442.022500", "174442.482500", "174442.942500", "174443.402500", "174443.862500", "174444.322500", "174444.782500", "174445.242500", "174445.702500", "174446.162500", "174446.622500", "174447.082500", "174447.542500", "174448.002500", "174448.462500", "174448.922500", "174449.382500", "174449.842500", "174450.302500", "174450.762500", "174451.222500", "174451.682500", "174452.142500", "174452.602500", "174453.062500", "174453.522500", "174453.982500", "174454.442500", "174454.902500", "174455.362500", "174455.822500", "174456.282500", "174456.742500", "174457.202500", "174457.662500", "174458.122500", "174458.582500", "174459.042500", "174459.502500", "174459.962500", "174500.422500", "174500.882500", "174501.342500", "174501.802500", "174502.262500", "174502.722500", "174503.182500", "174503.642500", "174504.102500", "174504.562500", "174505.022500", "174505.482500", "174505.942500", "174506.402500", "174506.862500", "174507.322500", "174507.782500", "174508.242500", "174508.702500", "174509.162500", "174509.622500", "174510.082500", "174510.542500", "174511.002500", "174511.462500", "174511.922500", "174512.382500", "174512.842500", "174513.302500", "174513.762500", "174514.222500", "174514.682500", "174515.142500", "174515.602500", "174516.062500", "174516.522500", "174516.982500", "174517.442500", "174517.902500", "174518.362500", "174518.822500", "174519.282500", "174519.742500", "174520.202500", "174520.662500", "174521.122500", "174521.582500", "174522.042500", "174522.502500", "174522.962500", "174523.422500", "174523.882500", "174524.342500", "174524.802500", "174525.262500", "174525.722500", "174526.182500", "174526.642500", "174527.102500", "174527.562500", "174528.022500", "174528.482500", "174528.942500", "174529.402500", "174529.862500", "174530.322500", "174530.782500", "174531.242500", "174531.702500", "174532.162500", "174532.622500", "174533.082500", "174533.542500", "174534.002500", "174534.462500", "174534.922500", "174535.382500", "174535.842500", "174536.302500", "174536.762500", "174537.222500", "174537.682500", "174538.142500", "174538.602500", "174539.062500", "174539.522500", "174539.982500", "174540.442500", "174540.902500", "174541.362500", "174541.822500", "174542.282500", "174542.742500", "174543.202500", "174543.662500", "174544.122500", "174544.582500", "174545.042500", "174545.502500", "174545.962500", "174546.422500", "174546.882500", "174547.342500", "174547.802500", "174548.262500", "174548.722500", "174549.182500", "174549.642500", "174550.102500", "174550.562500", "174551.022500", "174551.482500", "174551.942500", "174552.402500", "174552.862500", "174553.322500", "174553.782500", "174554.242500", "174554.702500", "174555.162500", "174555.622500", "174556.082500", "174556.542500", "174557.002500", "174557.462500", "174557.922500", "174558.382500", "174558.842500", "174559.302500", "174559.762500", "174600.222500", "174600.682500", "174601.142500", "174601.602500", "174602.062500", "174602.522500", "174602.982500", "174603.442500", "174603.902500", "174604.362500", "174604.822500", "174605.282500", "174605.742500", "174606.202500", "174606.662500", "174607.122500", "174607.582500", "174608.042500", "174608.502500", "174608.962500", "174609.422500", "174609.882500", "174610.342500", "174610.802500", "174611.262500", "174611.722500", "174612.182500", "174612.642500", "174613.102500", "174613.562500", "174614.022500", "174614.482500", "174614.942500", "174615.402500", "174615.862500", "174616.322500", "174616.782500", "174617.242500", "174617.702500", "174618.162500", "174618.622500", "174619.082500", "174619.542500", "174620.002500", "174620.462500", "174620.922500", "174621.382500", "174621.842500", "174622.302500", "174622.762500", "174623.222500", "174623.682500", "174624.142500", "174624.602500", "174625.062500", "174625.522500", "174625.982500", "174626.442500", "174626.902500", "174627.362500", "174627.822500", "174628.282500", "174628.742500", "174629.202500", "174629.662500", "174630.122500", "174630.582500", "174631.042500", "174631.502500", "174631.962500", "174632.422500", "174632.882500", "174633.342500", "174633.802500", "174634.262500", "174634.722500", "174635.182500", "174635.642500", "174636.102500", "174636.562500", "174637.022500", "174637.482500", "174637.942500", "174638.402500", "174638.862500", "174639.322500", "174639.782500", "174640.242500", "174640.702500", "174641.162500", "174641.622500", "174642.082500", "174642.542500", "174643.002500", "174643.462500", "174643.922500", "174644.382500", "174644.842500", "174645.302500", "174645.762500", "174646.222500", "174646.682500", "174647.142500", "174647.602500", "174648.062500", "174648.522500", "174648.982500", "174649.442500", "174649.902500", "174650.362500", "174650.822500", "174651.282500", "174651.742500", "174652.202500", "174652.662500", "174653.122500", "174653.582500", "174654.042500", "174654.502500", "174654.962500", "174655.422500", "174655.882500", "174656.342500", "174656.802500", "174657.262500", "174657.722500", "174658.182500", "174658.642500", "174659.102500", "174659.562500", "174700.022500", "174700.482500", "174700.942500", "174701.402500", "174701.862500", "174702.322500", "174702.782500", "174703.242500", "174703.702500", "174704.162500", "174704.622500", "174705.082500", "174705.542500", "174706.002500", "174706.462500", "174706.922500", "174707.382500", "174707.842500", "174708.302500", "174708.762500", "174709.222500", "174709.682500", "174710.142500", "174710.602500", "174711.062500", "174711.522500", "174711.982500", "174712.442500", "174712.902500", "174713.362500", "174713.822500", "174714.282500", "174714.742500", "174715.202500", "174715.662500", "174716.122500", "174716.582500", "174717.042500", "174717.502500", "174717.962500", "174718.422500", "174718.882500", "174719.342500", "174719.802500", "174720.262500", "174720.722500", "174721.182500", "174721.642500", "174722.102500", "174722.562500", "174723.022500", "174723.482500", "174723.942500", "174724.402500", "174724.862500", "174725.322500", "174725.782500", "174726.242500", "174726.702500", "174727.162500", "174727.622500", "174728.082500", "174728.542500", "174729.002500", "174729.462500", "174729.922500", "174730.382500", "174730.842500", "174731.302500", "174731.762500", "174732.222500", "174732.682500", "174733.142500", "174733.602500", "174734.062500", "174734.522500", "174734.982500", "174735.442500", "174735.902500", "174736.362500", "174736.822500", "174737.282500", "174737.742500", "174738.202500", "174738.662500", "174739.122500", "174739.582500", "174740.042500", "174740.502500", "174740.962500", "174741.422500", "174741.882500", "174742.342500", "174742.802500", "174743.262500", "174743.722500", "174744.182500", "174744.642500", "174745.102500", "174745.562500", "174746.022500", "174746.482500", "174746.942500", "174747.402500", "174747.862500", "174748.322500", "174748.782500", "174749.242500", "174749.702500", "174750.162500", "174750.622500", "174751.082500", "174751.542500", "174752.002500", "174752.462500", "174752.922500", "174753.382500", "174753.842500", "174754.302500", "174754.762500", "174755.222500", "174755.682500", "174756.142500", "174756.602500", "174757.062500", "174757.522500", "174757.982500", "174758.442500", "174758.902500", "174759.362500", "174759.822500", "174800.282500", "174800.742500", "174801.202500", "174801.662500", "174802.122500", "174802.582500", "174803.042500", "174803.502500", "174803.962500", "174804.422500", "174804.882500", "174805.342500", "174805.802500", "174806.262500", "174806.722500", "174807.182500", "174807.642500", "174808.102500", "174808.562500", "174809.022500", "174809.482500", "174809.942500", "174810.402500", "174810.862500", "174811.322500", "174811.782500", "174812.242500", "174812.702500", "174813.162500", "174813.622500", "174814.082500", "174814.542500", "174815.002500", "174815.462500", "174815.922500", "174816.382500", "174816.842500", "174817.302500", "174817.762500", "174818.222500", "174818.682500", "174819.142500", "174819.602500", "174820.062500", "174820.522500", "174820.982500", "174821.442500", "174821.902500", "174822.362500", "174822.822500", "174823.282500", "174823.742500", "174824.202500", "174824.662500", "174825.122500", "174825.582500", "174826.042500", "174826.502500", "174826.962500", "174827.422500", "174827.882500", "174828.342500", "174828.802500", "174829.262500", "174829.722500", "174830.182500", "174830.642500", "174831.102500", "174831.562500", "174832.022500", "174832.482500", "174832.942500", "174833.402500", "174833.862500", "174834.322500", "174834.782500", "174835.242500", "174835.702500", "174836.162500", "174836.622500", "174837.082500", "174837.542500", "174838.002500", "174838.462500", "174838.922500", "174839.382500", "174839.842500", "174840.302500", "174840.762500", "174841.222500", "174841.682500", "174842.142500", "174842.602500", "174843.062500", "174843.522500", "174843.982500", "174844.442500", "174844.902500", "174845.362500", "174845.822500", "174846.282500", "174846.742500", "174847.202500", "174847.662500", "174848.122500", "174848.582500"],
