{
  "AcquisitionMatrixPE": 82,
  "AcquisitionNumber": 1,
  "AcquisitionTime": "18:40:9.615000",
  "BandwidthPerPixelPhaseEncode": 24.888,
  "BaseResolution": 82,
  "BodyPartExamined": "BRAIN",
  "ConsistencyInfo": "N4_VE11E_LATEST_20181129",
  "ConversionSoftware": "dcm2niix",
  "ConversionSoftwareVersion": "v1.0.20201102",
  "DerivedVendorReportedEchoSpacing": 0.00049,
  "DeviceSerialNumber": "66112",
  "DwellTime": 2e-06,
  "EchoTime": 0.0272,
  "EchoTrainLength": 82,
  "EffectiveEchoSpacing": 0.00049,
  "FlipAngle": 44,
  "ImageComments": "Unaliased MB8/PE3",
  "ImageOrientationPatientDICOM": [0.997176, -0.00511715, 0.074925, 0.00887629, 0.998713, -0.0499253],
  "ImageType": [
    "ORIGINAL",
    "PRIMARY",
    "M",
    "MB",
    "ND",
    "NORM",
    "MOSAIC"
],
  "ImagingFrequency": 123.252,
  "InPlanePhaseEncodingDirectionDICOM": "COL",
  "InstitutionAddress": "Maynard 3,Hanover,NH,US,03755",
  "InstitutionName": "Dartmouth College - PBS",
  "InstitutionalDepartmentName": "Department",
  "MRAcquisitionType": "2D",
  "MagneticFieldStrength": 3,
  "Manufacturer": "Siemens",
  "ManufacturersModelName": "Prisma",
  "Modality": "MR",
  "MultibandAccelerationFactor": 8,
  "PartialFourier": 1,
  "PatientPosition": "HFS",
  "PercentPhaseFOV": 100,
  "PercentSampling": 100,
  "PhaseEncodingDirection": "j-",
  "PhaseEncodingSteps": 82,
  "PhaseResolution": 1,
  "PixelBandwidth": 3050,
  "ProcedureStepDescription": "Wager_Wager^1076_spacetop",
  "ProtocolName": "func_run-03_task-alignvideo_acq-ap-mb8",
  "PulseSequenceDetails": "%CustomerSeq%\\cmrr_mbep2d_bold",
  "ReceiveCoilActiveElements": "HEA;HEP",
  "ReceiveCoilName": "Head_32",
  "ReconMatrixPE": 82,
  "RepetitionTime": 0.46,
  "SAR": 0.0964538,
  "ScanOptions": "FS",
  "ScanningSequence": "EP",
  "SequenceName": "epfid2d1_82",
  "SequenceVariant": "SK\\SS",
  "SeriesDescription": "func_run-03_task-alignvideo_acq-ap-mb8",
  "SeriesNumber": 32,
  "ShimSetting": [4190, -7816, -7247, 573, 44, -296, 91, -23],
  "SliceThickness": 2.7,
  "SliceTiming": [0, 0.2525, 0.0625, 0.315, 0.125, 0.3775, 0.1875, 0, 0.2525, 0.0625, 0.315, 0.125, 0.3775, 0.1875, 0, 0.2525, 0.0625, 0.315, 0.125, 0.3775, 0.1875, 0, 0.2525, 0.0625, 0.315, 0.125, 0.3775, 0.1875, 0, 0.2525, 0.0625, 0.315, 0.125, 0.3775, 0.1875, 0, 0.2525, 0.0625, 0.315, 0.125, 0.3775, 0.1875, 0, 0.2525, 0.0625, 0.315, 0.125, 0.3775, 0.1875, 0, 0.2525, 0.0625, 0.315, 0.125, 0.3775, 0.1875],
  "SoftwareVersions": "syngo MR E11",
  "SpacingBetweenSlices": 2.7,
  "StationName": "AWP66112",
  "TaskName": "alignvideo",
  "TotalReadoutTime": 0.03969,
  "TxRefAmp": 232.752,
  "WipMemBlock": "0f0daf5b-5326-4019-8c31-05462a5a200e||Sequence: R016 ve11e/master r/434b28f1; Aug  7 2019 18:53:46 by eja",
  "dcmmeta_affine": [
    [-2.6753504276275635, 0.023814434185624123, 0.20134741067886353, 102.0378646850586],
    [0.013728948310017586, 2.6794753074645996, -0.13621331751346588, -95.58316802978516],
    [0.20101822912693024, 0.13394595682621002, 2.6890342235565186, -78.93635559082031],
    [0.0, 0.0, 0.0, 1.0]
],
  "dcmmeta_reorient_transform": [
    [0.0, -1.0, 0.0, 81.0],
    [1.0, 0.0, 0.0, 0.0],
    [0.0, 0.0, 1.0, 0.0],
    [0.0, 0.0, 0.0, 1.0]
],
  "dcmmeta_shape": [82, 82, 56, 1065],
  "dcmmeta_slice_dim": 2,
  "dcmmeta_version": 0.6,
  "global": {
    "const": {
      "AccessionNumber": "A004149",
      "AcquisitionMatrix": [82, 0, 0, 82],
      "AngioFlag": "N",
      "BitsAllocated": 16,
      "BitsStored": 16,
      "BodyPartExamined": "BRAIN",
      "Columns": 656,
      "EchoNumbers": 1,
      "EchoTime": 27.2,
      "EchoTrainLength": 82,
      "FlipAngle": 44.0,
      "HighBit": 15,
      "ImageOrientationPatient": [0.99717604395865, -0.0051171534321, 0.07492497644803, 0.00887628907288, 0.99871351000761, -0.0499253084175],
      "ImagePositionPatient": [-878.62715154144, -886.52354418618, -87.336477495396],
      "ImageType": [
        "ORIGINAL",
        "PRIMARY",
        "M",
        "MB",
        "ND",
        "NORM",
        "MOSAIC"
],
      "ImagedNucleus": "1H",
      "ImagingFrequency": 123.252221,
      "InPlanePhaseEncodingDirection": "COL",
      "MRAcquisitionType": "2D",
      "MagneticFieldStrength": 3.0,
      "Manufacturer": "SIEMENS",
      "ManufacturerModelName": "Prisma",
      "Modality": "MR",
      "NumberOfAverages": 1.0,
      "NumberOfPhaseEncodingSteps": 82,
      "PercentPhaseFieldOfView": 100.0,
      "PercentSampling": 100.0,
      "PerformedProcedureStepStartTime": "164749.251000",
      "PhotometricInterpretation": "MONOCHROME2",
      "PixelBandwidth": 3050.0,
      "PixelRepresentation": 0,
      "PixelSpacing": [2.6829268932343, 2.6829268932343],
      "ProtocolName": "func_run-03_task-alignvideo_acq-ap-mb8",
      "RepetitionTime": 460.0,
      "Rows": 656,
      "SAR": 0.09645382535705,
      "SamplesPerPixel": 1,
      "ScanOptions": "FS",
      "ScanningSequence": "EP",
      "SequenceName": "epfid2d1_82",
      "SequenceVariant": [
        "SK",
        "SS"
],
      "SeriesDescription": "func_run-03_task-alignvideo_acq-ap-mb8",
      "SeriesNumber": 32,
      "SeriesTime": "184038.976000",
      "SliceLocation": -66.184370725766,
      "SliceThickness": 2.7000000476837,
      "SmallestImagePixelValue": 0,
      "SoftwareVersions": "syngo MR E11",
      "SpacingBetweenSlices": 2.700000096014,
      "SpecificCharacterSet": "ISO_IR 100",
      "StudyID": "1",
      "StudyTime": "164749.178000",
      "TransmitCoilName": "Body",
      "VariableFlipAngleFlag": "N",
      "WindowCenterWidthExplanation": "Algo1"
    },
    "slices": {}
  },
  "time": {
    "samples": {
      "AcquisitionNumber": [1, 2, 3, 4, 5, 6, 7, 8, 9, 10, 11, 12, 13, 14, 15, 16, 17, 18, 19, 20, 21, 22, 23, 24, 25, 26, 27, 28, 29, 30, 31, 32, 33, 34, 35, 36, 37, 38, 39, 40, 41, 42, 43, 44, 45, 46, 47, 48, 49, 50, 51, 52, 53, 54, 55, 56, 57, 58, 59, 60, 61, 62, 63, 64, 65, 66, 67, 68, 69, 70, 71, 72, 73, 74, 75, 76, 77, 78, 79, 80, 81, 82, 83, 84, 85, 86, 87, 88, 89, 90, 91, 92, 93, 94, 95, 96, 97, 98, 99, 100, 101, 102, 103, 104, 105, 106, 107, 108, 109, 110, 111, 112, 113, 114, 115, 116, 117, 118, 119, 120, 121, 122, 123, 124, 125, 126, 127, 128, 129, 130, 131, 132, 133, 134, 135, 136, 137, 138, 139, 140, 141, 142, 143, 144, 145, 146, 147, 148, 149, 150, 151, 152, 153, 154, 155, 156, 157, 158, 159, 160, 161, 162, 163, 164, 165, 166, 167, 168, 169, 170, 171, 172, 173, 174, 175, 176, 177, 178, 179, 180, 181, 182, 183, 184, 185, 186, 187, 188, 189, 190, 191, 192, 193, 194, 195, 196, 197, 198, 199, 200, 201, 202, 203, 204, 205, 206, 207, 208, 209, 210, 211, 212, 213, 214, 215, 216, 217, 218, 219, 220, 221, 222, 223, 224, 225, 226, 227, 228, 229, 230, 231, 232, 233, 234, 235, 236, 237, 238, 239, 240, 241, 242, 243, 244, 245, 246, 247, 248, 249, 250, 251, 252, 253, 254, 255, 256, 257, 258, 259, 260, 261, 262, 263, 264, 265, 266, 267, 268, 269, 270, 271, 272, 273, 274, 275, 276, 277, 278, 279, 280, 281, 282, 283, 284, 285, 286, 287, 288, 289, 290, 291, 292, 293, 294, 295, 296, 297, 298, 299, 300, 301, 302, 303, 304, 305, 306, 307, 308, 309, 310, 311, 312, 313, 314, 315, 316, 317, 318, 319, 320, 321, 322, 323, 324, 325, 326, 327, 328, 329, 330, 331, 332, 333, 334, 335, 336, 337, 338, 339, 340, 341, 342, 343, 344, 345, 346, 347, 348, 349, 350, 351, 352, 353, 354, 355, 356, 357, 358, 359, 360, 361, 362, 363, 364, 365, 366, 367, 368, 369, 370, 371, 372, 373, 374, 375, 376, 377, 378, 379, 380, 381, 382, 383, 384, 385, 386, 387, 388, 389, 390, 391, 392, 393, 394, 395, 396, 397, 398, 399, 400, 401, 402, 403, 404, 405, 406, 407, 408, 409, 410, 411, 412, 413, 414, 415, 416, 417, 418, 419, 420, 421, 422, 423, 424, 425, 426, 427, 428, 429, 430, 431, 432, 433, 434, 435, 436, 437, 438, 439, 440, 441, 442, 443, 444, 445, 446, 447, 448, 449, 450, 451, 452, 453, 454, 455, 456, 457, 458, 459, 460, 461, 462, 463, 464, 465, 466, 467, 468, 469, 470, 471, 472, 473, 474, 475, 476, 477, 478, 479, 480, 481, 482, 483, 484, 485, 486, 487, 488, 489, 490, 491, 492, 493, 494, 495, 496, 497, 498, 499, 500, 501, 502, 503, 504, 505, 506, 507, 508, 509, 510, 511, 512, 513, 514, 515, 516, 517, 518, 519, 520, 521, 522, 523, 524, 525, 526, 527, 528, 529, 530, 531, 532, 533, 534, 535, 536, 537, 538, 539, 540, 541, 542, 543, 544, 545, 546, 547, 548, 549, 550, 551, 552, 553, 554, 555, 556, 557, 558, 559, 560, 561, 562, 563, 564, 565, 566, 567, 568, 569, 570, 571, 572, 573, 574, 575, 576, 577, 578, 579, 580, 581, 582, 583, 584, 585, 586, 587, 588, 589, 590, 591, 592, 593, 594, 595, 596, 597, 598, 599, 600, 601, 602, 603, 604, 605, 606, 607, 608, 609, 610, 611, 612, 613, 614, 615, 616, 617, 618, 619, 620, 621, 622, 623, 624, 625, 626, 627, 628, 629, 630, 631, 632, 633, 634, 635, 636, 637, 638, 639, 640, 641, 642, 643, 644, 645, 646, 647, 648, 649, 650, 651, 652, 653, 654, 655, 656, 657, 658, 659, 660, 661, 662, 663, 664, 665, 666, 667, 668, 669, 670, 671, 672, 673, 674, 675, 676, 677, 678, 679, 680, 681, 682, 683, 684, 685, 686, 687, 688, 689, 690, 691, 692, 693, 694, 695, 696, 697, 698, 699, 700, 701, 702, 703, 704, 705, 706, 707, 708, 709, 710, 711, 712, 713, 714, 715, 716, 717, 718, 719, 720, 721, 722, 723, 724, 725, 726, 727, 728, 729, 730, 731, 732, 733, 734, 735, 736, 737, 738, 739, 740, 741, 742, 743, 744, 745, 746, 747, 748, 749, 750, 751, 752, 753, 754, 755, 756, 757, 758, 759, 760, 761, 762, 763, 764, 765, 766, 767, 768, 769, 770, 771, 772, 773, 774, 775, 776, 777, 778, 779, 780, 781, 782, 783, 784, 785, 786, 787, 788, 789, 790, 791, 792, 793, 794, 795, 796, 797, 798, 799, 800, 801, 802, 803, 804, 805, 806, 807, 808, 809, 810, 811, 812, 813, 814, 815, 816, 817, 818, 819, 820, 821, 822, 823, 824, 825, 826, 827, 828, 829, 830, 831, 832, 833, 834, 835, 836, 837, 838, 839, 840, 841, 842, 843, 844, 845, 846, 847, 848, 849, 850, 851, 852, 853, 854, 855, 856, 857, 858, 859, 860, 861, 862, 863, 864, 865, 866, 867, 868, 869, 870, 871, 872, 873, 874, 875, 876, 877, 878, 879, 880, 881, 882, 883, 884, 885, 886, 887, 888, 889, 890, 891, 892, 893, 894, 895, 896, 897, 898, 899, 900, 901, 902, 903, 904, 905, 906, 907, 908, 909, 910, 911, 912, 913, 914, 915, 916, 917, 918, 919, 920, 921, 922, 923, 924, 925, 926, 927, 928, 929, 930, 931, 932, 933, 934, 935, 936, 937, 938, 939, 940, 941, 942, 943, 944, 945, 946, 947, 948, 949, 950, 951, 952, 953, 954, 955, 956, 957, 958, 959, 960, 961, 962, 963, 964, 965, 966, 967, 968, 969, 970, 971, 972, 973, 974, 975, 976, 977, 978, 979, 980, 981, 982, 983, 984, 985, 986, 987, 988, 989, 990, 991, 992, 993, 994, 995, 996, 997, 998, 999, 1000, 1001, 1002, 1003, 1004, 1005, 1006, 1007, 1008, 1009, 1010, 1011, 1012, 1013, 1014, 1015, 1016, 1017, 1018, 1019, 1020, 1021, 1022, 1023, 1024, 1025, 1026, 1027, 1028, 1029, 1030, 1031, 1032, 1033, 1034, 1035, 1036, 1037, 1038, 1039, 1040, 1041, 1042, 1043, 1044, 1045, 1046, 1047, 1048, 1049, 1050, 1051, 1052, 1053, 1054, 1055, 1056, 1057, 1058, 1059, 1060, 1061, 1062, 1063, 1064, 1065],
      "AcquisitionTime": ["184009.615000", "184010.075000", "184010.535000", "184010.995000", "184011.455000", "184011.915000", "184012.375000", "184012.835000", "184013.295000", "184013.755000", "184014.215000", "184014.675000", "184015.135000", "184015.595000", "184016.055000", "184016.515000", "184016.975000", "184017.435000", "184017.895000", "184018.355000", "184018.815000", "184019.275000", "184019.735000", "184020.195000", "184020.655000", "184021.115000", "184021.575000", "184022.035000", "184022.495000", "184022.955000", "184023.415000", "184023.875000", "184024.335000", "184024.795000", "184025.255000", "184025.715000", "184026.175000", "184026.635000", "184027.095000", "184027.555000", "184028.015000", "184028.475000", "184028.935000", "184029.395000", "184029.855000", "184030.315000", "184030.775000", "184031.235000", "184031.695000", "184032.155000", "184032.615000", "184033.075000", "184033.535000", "184033.995000", "184034.455000", "184034.915000", "184035.375000", "184035.835000", "184036.295000", "184036.755000", "184037.215000", "184037.675000", "184038.135000", "184038.595000", "184039.055000", "184039.515000", "184039.975000", "184040.435000", "184040.895000", "184041.355000", "184041.815000", "184042.275000", "184042.735000", "184043.195000", "184043.655000", "184044.115000", "184044.575000", "184045.035000", "184045.495000", "184045.955000", "184046.415000", "184046.875000", "184047.335000", "184047.795000", "184048.255000", "184048.715000", "184049.175000", "184049.635000", "184050.095000", "184050.555000", "184051.015000", "184051.475000", "184051.935000", "184052.395000", "184052.855000", "184053.315000", "184053.775000", "184054.235000", "184054.695000", "184055.155000", "184055.615000", "184056.075000", "184056.535000", "184056.995000", "184057.455000", "184057.915000", "184058.375000", "184058.835000", "184059.295000", "184059.755000", "184100.215000", "184100.675000", "184101.135000", "184101.595000", "184102.055000", "184102.515000", "184102.975000", "184103.435000", "184103.895000", "184104.355000", "184104.815000", "184105.275000", "184105.735000", "184106.195000", "184106.655000", "184107.115000", "184107.575000", "184108.035000", "184108.495000", "184108.955000", "184109.415000", "184109.875000", "184110.335000", "184110.795000", "184111.255000", "184111.715000", "184112.175000", "184112.635000", "184113.095000", "184113.555000", "184114.015000", "184114.475000", "184114.935000", "184115.395000", "184115.855000", "184116.315000", "184116.775000", "184117.235000", "184117.695000", "184118.155000", "184118.615000", "184119.075000", "184119.535000", "184119.995000", "184120.455000", "184120.915000", "184121.375000", "184121.835000", "184122.295000", "184122.755000", "184123.215000", "184123.675000", "184124.135000", "184124.595000", "184125.055000", "184125.515000", "184125.975000", "184126.435000", "184126.895000", "184127.355000", "184127.815000", "184128.275000", "184128.735000", "184129.195000", "184129.655000", "184130.115000", "184130.575000", "184131.035000", "184131.495000", "184131.955000", "184132.415000", "184132.875000", "184133.335000", "184133.795000", "184134.255000", "184134.715000", "184135.175000", "184135.635000", "184136.095000", "184136.555000", "184137.015000", "184137.475000", "184137.935000", "184138.395000", "184138.855000", "184139.315000", "184139.775000", "184140.235000", "184140.695000", "184141.155000", "184141.615000", "184142.075000", "184142.535000", "184142.995000", "184143.455000", "184143.915000", "184144.375000", "184144.835000", "184145.295000", "184145.755000", "184146.215000", "184146.675000", "184147.135000", "184147.595000", "184148.055000", "184148.515000", "184148.975000", "184149.435000", "184149.895000", "184150.355000", "184150.815000", "184151.275000", "184151.735000", "184152.195000", "184152.655000", "184153.115000", "184153.575000", "184154.035000", "184154.495000", "184154.955000", "184155.415000", "184155.875000", "184156.335000", "184156.795000", "184157.255000", "184157.715000", "184158.175000", "184158.635000", "184159.095000", "184159.555000", "184200.015000", "184200.475000", "184200.935000", "184201.395000", "184201.855000", "184202.315000", "184202.775000", "184203.235000", "184203.695000", "184204.155000", "184204.615000", "184205.075000", "184205.535000", "184205.995000", "184206.455000", "184206.915000", "184207.375000", "184207.835000", "184208.295000", "184208.755000", "184209.215000", "184209.675000", "184210.135000", "184210.595000", "184211.055000", "184211.515000", "184211.975000", "184212.435000", "184212.895000", "184213.355000", "184213.815000", "184214.275000", "184214.735000", "184215.195000", "184215.655000", "184216.115000", "184216.575000", "184217.035000", "184217.495000", "184217.955000", "184218.415000", "184218.875000", "184219.335000", "184219.795000", "184220.255000", "184220.715000", "184221.175000", "184221.635000", "184222.095000", "184222.555000", "184223.015000", "184223.475000", "184223.935000", "184224.395000", "184224.855000", "184225.315000", "184225.775000", "184226.235000", "184226.695000", "184227.155000", "184227.615000", "184228.075000", "184228.535000", "184228.995000", "184229.455000", "184229.915000", "184230.375000", "184230.835000", "184231.295000", "184231.755000", "184232.215000", "184232.675000", "184233.135000", "184233.595000", "184234.055000", "184234.515000", "184234.975000", "184235.435000", "184235.895000", "184236.355000", "184236.815000", "184237.275000", "184237.735000", "184238.195000", "184238.655000", "184239.115000", "184239.575000", "184240.035000", "184240.495000", "184240.955000", "184241.415000", "184241.875000", "184242.335000", "184242.795000", "184243.255000", "184243.715000", "184244.175000", "184244.635000", "184245.095000", "184245.555000", "184246.015000", "184246.475000", "184246.935000", "184247.395000", "184247.855000", "184248.315000", "184248.775000", "184249.235000", "184249.695000", "184250.155000", "184250.615000", "184251.075000", "184251.535000", "184251.995000", "184252.455000", "184252.915000", "184253.375000", "184253.835000", "184254.295000", "184254.755000", "184255.215000", "184255.675000", "184256.135000", "184256.595000", "184257.055000", "184257.515000", "184257.975000", "184258.435000", "184258.895000", "184259.355000", "184259.815000", "184300.275000", "184300.735000", "184301.195000", "184301.655000", "184302.115000", "184302.575000", "184303.035000", "184303.495000", "184303.955000", "184304.415000", "184304.875000", "184305.335000", "184305.795000", "184306.255000", "184306.715000", "184307.175000", "184307.635000", "184308.095000", "184308.555000", "184309.015000", "184309.475000", "184309.935000", "184310.395000", "184310.855000", "184311.315000", "184311.775000", "184312.235000", "184312.695000", "184313.155000", "184313.615000", "184314.075000", "184314.535000", "184314.995000", "184315.455000", "184315.915000", "184316.375000", "184316.835000", "184317.295000", "184317.755000", "184318.215000", "184318.675000", "184319.135000", "184319.595000", "184320.055000", "184320.515000", "184320.975000", "184321.435000", "184321.895000", "184322.355000", "184322.815000", "184323.275000", "184323.735000", "184324.195000", "184324.655000", "184325.115000", "184325.575000", "184326.035000", "184326.495000", "184326.955000", "184327.415000", "184327.875000", "184328.335000", "184328.795000", "184329.255000", "184329.715000", "184330.175000", "184330.635000", "184331.095000", "184331.555000", "184332.015000", "184332.475000", "184332.935000", "184333.395000", "184333.855000", "184334.315000", "184334.775000", "184335.235000", "184335.695000", "184336.155000", "184336.615000", "184337.075000", "184337.535000", "184337.995000", "184338.455000", "184338.915000", "184339.375000", "184339.835000", "184340.295000", "184340.755000", "184341.215000", "184341.675000", "184342.135000", "184342.595000", "184343.055000", "184343.515000", "184343.975000", "184344.435000", "184344.895000", "184345.355000", "184345.815000", "184346.275000", "184346.735000", "184347.195000", "184347.655000", "184348.115000", "184348.575000", "184349.035000", "184349.495000", "184349.955000", "184350.415000", "184350.875000", "184351.335000", "184351.795000", "184352.255000", "184352.715000", "184353.175000", "184353.635000", "184354.095000", "184354.555000", "184355.015000", "184355.475000", "184355.935000", "184356.395000", "184356.855000", "184357.315000", "184357.775000", "184358.235000", "184358.695000", "184359.155000", "184359.615000", "184400.075000", "184400.535000", "184400.995000", "184401.455000", "184401.915000", "184402.375000", "184402.835000", "184403.295000", "184403.755000", "184404.215000", "184404.675000", "184405.135000", "184405.595000", "184406.055000", "184406.515000", "184406.975000", "184407.435000", "184407.895000", "184408.355000", "184408.815000", "184409.275000", "184409.735000", "184410.195000", "184410.655000", "184411.115000", "184411.575000", "184412.035000", "184412.495000", "184412.955000", "184413.415000", "184413.875000", "184414.335000", "184414.795000", "184415.255000", "184415.715000", "184416.175000", "184416.635000", "184417.095000", "184417.555000", "184418.015000", "184418.475000", "184418.935000", "184419.395000", "184419.855000", "184420.315000", "184420.775000", "184421.235000", "184421.695000", "184422.155000", "184422.615000", "184423.075000", "184423.535000", "184423.995000", "184424.455000", "184424.915000", "184425.375000", "184425.835000", "184426.295000", "184426.755000", "184427.215000", "184427.675000", "184428.135000", "184428.595000", "184429.055000", "184429.515000", "184429.975000", "184430.435000", "184430.895000", "184431.355000", "184431.815000", "184432.275000", "184432.735000", "184433.195000", "184433.655000", "184434.115000", "184434.575000", "184435.035000", "184435.495000", "184435.955000", "184436.415000", "184436.875000", "184437.335000", "184437.795000", "184438.255000", "184438.715000", "184439.175000", "184439.635000", "184440.095000", "184440.555000", "184441.015000", "184441.475000", "184441.935000", "184442.395000", "184442.855000", "184443.315000", "184443.775000", "184444.235000", "184444.695000", "184445.155000", "184445.615000", "184446.075000", "184446.535000", "184446.995000", "184447.455000", "184447.915000", "184448.375000", "184448.835000", "184449.295000", "184449.755000", "184450.215000", "184450.675000", "184451.135000", "184451.595000", "184452.055000", "184452.515000", "184452.975000", "184453.435000", "184453.895000", "184454.355000", "184454.815000", "184455.275000", "184455.735000", "184456.195000", "184456.655000", "184457.115000", "184457.575000", "184458.035000", "184458.495000", "184458.955000", "184459.415000", "184459.875000", "184500.335000", "184500.795000", "184501.255000", "184501.715000", "184502.175000", "184502.635000", "184503.095000", "184503.555000", "184504.015000", "184504.475000", "184504.935000", "184505.395000", "184505.855000", "184506.315000", "184506.775000", "184507.235000", "184507.695000", "184508.155000", "184508.615000", "184509.075000", "184509.535000", "184509.995000", "184510.455000", "184510.915000", "184511.375000", "184511.835000", "184512.295000", "184512.755000", "184513.215000", "184513.675000", "184514.135000", "184514.595000", "184515.055000", "184515.515000", "184515.975000", "184516.435000", "184516.895000", "184517.355000", "184517.815000", "184518.275000", "184518.735000", "184519.195000", "184519.655000", "184520.115000", "184520.575000", "184521.035000", "184521.495000", "184521.955000", "184522.415000", "184522.875000", "184523.335000", "184523.795000", "184524.255000", "184524.715000", "184525.175000", "184525.635000", "184526.095000", "184526.555000", "184527.015000", "184527.475000", "184527.935000", "184528.395000", "184528.855000", "184529.315000", "184529.775000", "184530.235000", "184530.695000", "184531.155000", "184531.615000", "184532.075000", "184532.535000", "184532.995000", "184533.455000", "184533.915000", "184534.375000", "184534.835000", "184535.295000", "184535.755000", "184536.215000", "184536.675000", "184537.135000", "184537.595000", "184538.055000", "184538.515000", "184538.975000", "184539.435000", "184539.895000", "184540.355000", "184540.815000", "184541.275000", "184541.735000", "184542.195000", "184542.655000", "184543.115000", "184543.575000", "184544.035000", "184544.495000", "184544.955000", "184545.415000", "184545.875000", "184546.335000", "184546.795000", "184547.255000", "184547.715000", "184548.175000", "184548.635000", "184549.095000", "184549.555000", "184550.015000", "184550.475000", "184550.935000", "184551.395000", "184551.855000", "184552.315000", "184552.775000", "184553.235000", "184553.695000", "184554.155000", "184554.615000", "184555.075000", "184555.535000", "184555.995000", "184556.455000", "184556.915000", "184557.375000", "184557.835000", "184558.295000", "184558.755000", "184559.215000", "184559.675000", "184600.135000", "184600.595000", "184601.055000", "184601.515000", "184601.975000", "184602.435000", "184602.895000", "184603.355000", "184603.815000", "184604.275000", "184604.735000", "184605.195000", "184605.655000", "184606.115000", "184606.575000", "184607.035000", "184607.495000", "184607.955000", "184608.415000", "184608.875000", "184609.335000", "184609.795000", "184610.255000", "184610.715000", "184611.175000", "184611.635000", "184612.095000", "184612.555000", "184613.015000", "184613.475000", "184613.935000", "184614.395000", "184614.855000", "184615.315000", "184615.775000", "184616.235000", "184616.695000", "184617.155000", "184617.615000", "184618.075000", "184618.535000", "184618.995000", "184619.455000", "184619.915000", "184620.375000", "184620.835000", "184621.295000", "184621.755000", "184622.215000", "184622.675000", "184623.135000", "184623.595000", "184624.055000", "184624.515000", "184624.975000", "184625.435000", "184625.895000", "184626.355000", "184626.815000", "184627.275000", "184627.735000", "184628.195000", "184628.655000", "184629.115000", "184629.575000", "184630.035000", "184630.495000", "184630.955000", "184631.415000", "184631.875000", "184632.335000", "184632.795000", "184633.255000", "184633.715000", "184634.175000", "184634.635000", "184635.095000", "184635.555000", "184636.015000", "184636.475000", "184636.935000", "184637.395000", "184637.855000", "184638.315000", "184638.775000", "184639.235000", "184639.695000", "184640.155000", "184640.615000", "184641.075000", "184641.535000", "184641.995000", "184642.455000", "184642.915000", "184643.375000", "184643.835000", "184644.295000", "184644.755000", "184645.215000", "184645.675000", "184646.135000", "184646.595000", "184647.055000", "184647.515000", "184647.975000", "184648.435000", "184648.895000", "184649.355000", "184649.815000", "184650.275000", "184650.735000", "184651.195000", "184651.655000", "184652.115000", "184652.575000", "184653.035000", "184653.495000", "184653.955000", "184654.415000", "184654.875000", "184655.335000", "184655.795000", "184656.255000", "184656.715000", "184657.175000", "184657.635000", "184658.095000", "184658.555000", "184659.015000", "184659.475000", "184659.935000", "184700.395000", "184700.855000", "184701.315000", "184701.775000", "184702.235000", "184702.695000", "184703.155000", "184703.615000", "184704.075000", "184704.535000", "184704.995000", "184705.455000", "184705.915000", "184706.375000", "184706.835000", "184707.295000", "184707.755000", "184708.215000", "184708.675000", "184709.135000", "184709.595000", "184710.055000", "184710.515000", "184710.975000", "184711.435000", "184711.895000", "184712.355000", "184712.815000", "184713.275000", "184713.735000", "184714.195000", "184714.655000", "184715.115000", "184715.575000", "184716.035000", "184716.495000", "184716.955000", "184717.415000", "184717.875000", "184718.335000", "184718.795000", "184719.255000", "184719.715000", "184720.175000", "184720.635000", "184721.095000", "184721.555000", "184722.015000", "184722.475000", "184722.935000", "184723.395000", "184723.855000", "184724.315000", "184724.775000", "184725.235000", "184725.695000", "184726.155000", "184726.615000", "184727.075000", "184727.535000", "184727.995000", "184728.455000", "184728.915000", "184729.375000", "184729.835000", "184730.295000", "184730.755000", "184731.215000", "184731.675000", "184732.135000", "184732.595000", "184733.055000", "184733.515000", "184733.975000", "184734.435000", "184734.895000", "184735.355000", "184735.815000", "184736.275000", "184736.735000", "184737.195000", "184737.655000", "184738.115000", "184738.575000", "184739.035000", "184739.495000", "184739.955000", "184740.415000", "184740.875000", "184741.335000", "184741.795000", "184742.255000", "184742.715000", "184743.175000", "184743.635000", "184744.095000", "184744.555000", "184745.015000", "184745.475000", "184745.935000", "184746.395000", "184746.855000", "184747.315000", "184747.775000", "184748.235000", "184748.695000", "184749.155000", "184749.615000", "184750.075000", "184750.535000", "184750.995000", "184751.455000", "184751.915000", "184752.375000", "184752.835000", "184753.295000", "184753.755000", "184754.215000", "184754.675000", "184755.135000", "184755.595000", "184756.055000", "184756.515000", "184756.975000", "184757.435000", "184757.895000", "184758.355000", "184758.815000", "184759.275000", "184759.735000", "184800.195000", "184800.655000", "184801.115000", "184801.575000", "184802.035000", "184802.495000", "184802.955000", "184803.415000", "184803.875000", "184804.335000", "184804.795000", "184805.255000", "184805.715000", "184806.175000", "184806.635000", "184807.095000", "184807.555000", "184808.015000", "184808.475000", "184808.935000", "184809.395000", "184809.855000", "184810.315000", "184810.775000", "184811.235000", "184811.695000", "184812.155000", "184812.615000", "184813.075000", "184813.535000", "184813.995000", "184814.455000", "184814.915000", "184815.375000", "184815.835000", "184816.295000", "184816.755000", "184817.215000", "184817.675000", "184818.135000", "184818.595000", "184819.055000"],
