{
  "AcquisitionMatrixPE": 82,
  "AcquisitionNumber": 1,
  "AcquisitionTime": "17:33:33.972500",
  "BandwidthPerPixelPhaseEncode": 24.888,
  "BaseResolution": 82,
  "BodyPartExamined": "BRAIN",
  "ConsistencyInfo": "N4_VE11E_LATEST_20181129",
  "ConversionSoftware": "dcm2niix",
  "ConversionSoftwareVersion": "v1.0.20201102",
  "DerivedVendorReportedEchoSpacing": 0.00049,
  "DeviceSerialNumber": "66112",
  "DwellTime": 2e-06,
  "EchoTime": 0.0272,
  "EchoTrainLength": 82,
  "EffectiveEchoSpacing": 0.00049,
  "FlipAngle": 44,
  "ImageComments": "Unaliased MB8/PE3",
  "ImageOrientationPatientDICOM": [0.997176, -0.00511715, 0.074925, 0.00887629, 0.998713, -0.0499253],
  "ImageType": [
    "ORIGINAL",
    "PRIMARY",
    "M",
    "MB",
    "ND",
    "NORM",
    "MOSAIC"
],
  "ImagingFrequency": 123.252,
  "InPlanePhaseEncodingDirectionDICOM": "COL",
  "InstitutionAddress": "Maynard 3,Hanover,NH,US,03755",
  "InstitutionName": "Dartmouth College - PBS",
  "InstitutionalDepartmentName": "Department",
  "MRAcquisitionType": "2D",
  "MagneticFieldStrength": 3,
  "Manufacturer": "Siemens",
  "ManufacturersModelName": "Prisma",
  "Modality": "MR",
  "MultibandAccelerationFactor": 8,
  "PartialFourier": 1,
  "PatientPosition": "HFS",
  "PercentPhaseFOV": 100,
  "PercentSampling": 100,
  "PhaseEncodingDirection": "j-",
  "PhaseEncodingSteps": 82,
  "PhaseResolution": 1,
  "PixelBandwidth": 3050,
  "ProcedureStepDescription": "Wager_Wager^1076_spacetop",
  "ProtocolName": "func_run-03_task-social_acq-ap-mb8",
  "PulseSequenceDetails": "%CustomerSeq%\\cmrr_mbep2d_bold",
  "ReceiveCoilActiveElements": "HEA;HEP",
  "ReceiveCoilName": "Head_32",
  "ReconMatrixPE": 82,
  "RepetitionTime": 0.46,
  "SAR": 0.0963451,
  "ScanOptions": "FS",
  "ScanningSequence": "EP",
  "SequenceName": "epfid2d1_82",
  "SequenceVariant": "SK\\SS",
  "SeriesDescription": "func_run-03_task-social_acq-ap-mb8",
  "SeriesNumber": 12,
  "ShimSetting": [4190, -7816, -7247, 573, 44, -296, 91, -23],
  "SliceThickness": 2.7,
  "SliceTiming": [0, 0.25, 0.0625, 0.3125, 0.125, 0.3775, 0.1875, 0, 0.25, 0.0625, 0.3125, 0.125, 0.3775, 0.1875, 0, 0.25, 0.0625, 0.3125, 0.125, 0.3775, 0.1875, 0, 0.25, 0.0625, 0.3125, 0.125, 0.3775, 0.1875, 0, 0.25, 0.0625, 0.3125, 0.125, 0.3775, 0.1875, 0, 0.25, 0.0625, 0.3125, 0.125, 0.3775, 0.1875, 0, 0.25, 0.0625, 0.3125, 0.125, 0.3775, 0.1875, 0, 0.25, 0.0625, 0.3125, 0.125, 0.3775, 0.1875],
  "SoftwareVersions": "syngo MR E11",
  "SpacingBetweenSlices": 2.7,
  "StationName": "AWP66112",
  "TaskName": "social",
  "TotalReadoutTime": 0.03969,
  "TxRefAmp": 232.752,
  "WipMemBlock": "68171102-bb74-485d-985b-839122040d41||Sequence: R016 ve11e/master r/434b28f1; Aug  7 2019 18:53:46 by eja",
  "dcmmeta_affine": [
    [-2.6753504276275635, 0.023814434185624123, 0.20134741067886353, 102.0378646850586],
    [0.013728948310017586, 2.6794753074645996, -0.13621331751346588, -95.58316802978516],
    [0.20101822912693024, 0.13394595682621002, 2.6890342235565186, -78.93635559082031],
    [0.0, 0.0, 0.0, 1.0]
],
  "dcmmeta_reorient_transform": [
    [0.0, -1.0, 0.0, 81.0],
    [1.0, 0.0, 0.0, 0.0],
    [0.0, 0.0, 1.0, 0.0],
    [0.0, 0.0, 0.0, 1.0]
],
  "dcmmeta_shape": [82, 82, 56, 872],
  "dcmmeta_slice_dim": 2,
  "dcmmeta_version": 0.6,
  "global": {
    "const": {
      "AccessionNumber": "A004149",
      "AcquisitionMatrix": [82, 0, 0, 82],
      "AngioFlag": "N",
      "BitsAllocated": 16,
      "BitsStored": 16,
      "BodyPartExamined": "BRAIN",
      "Columns": 656,
      "EchoNumbers": 1,
      "EchoTime": 27.2,
      "EchoTrainLength": 82,
      "FlipAngle": 44.0,
      "HighBit": 15,
      "ImageOrientationPatient": [0.99717604395865, -0.0051171534321, 0.07492497644803, 0.00887628907288, 0.99871351000761, -0.0499253084175],
      "ImagePositionPatient": [-878.62715154144, -886.52354418618, -87.336477495396],
      "ImageType": [
        "ORIGINAL",
        "PRIMARY",
        "M",
        "MB",
        "ND",
        "NORM",
        "MOSAIC"
],
      "ImagedNucleus": "1H",
      "ImagingFrequency": 123.252191,
      "InPlanePhaseEncodingDirection": "COL",
      "MRAcquisitionType": "2D",
      "MagneticFieldStrength": 3.0,
      "Manufacturer": "SIEMENS",
      "ManufacturerModelName": "Prisma",
      "Modality": "MR",
      "NumberOfAverages": 1.0,
      "NumberOfPhaseEncodingSteps": 82,
      "PercentPhaseFieldOfView": 100.0,
      "PercentSampling": 100.0,
      "PerformedProcedureStepStartTime": "164749.251000",
      "PhotometricInterpretation": "MONOCHROME2",
      "PixelBandwidth": 3050.0,
      "PixelRepresentation": 0,
      "PixelSpacing": [2.6829268932343, 2.6829268932343],
      "ProtocolName": "func_run-03_task-social_acq-ap-mb8",
      "RepetitionTime": 460.0,
      "Rows": 656,
      "SAR": 0.09634513851211,
      "SamplesPerPixel": 1,
      "ScanOptions": "FS",
      "ScanningSequence": "EP",
      "SequenceName": "epfid2d1_82",
      "SequenceVariant": [
        "SK",
        "SS"
],
      "SeriesDescription": "func_run-03_task-social_acq-ap-mb8",
      "SeriesNumber": 12,
      "SeriesTime": "173358.863000",
      "SliceLocation": -66.184370725766,
      "SliceThickness": 2.7000000476837,
      "SmallestImagePixelValue": 0,
      "SoftwareVersions": "syngo MR E11",
      "SpacingBetweenSlices": 2.700000096014,
      "SpecificCharacterSet": "ISO_IR 100",
      "StudyID": "1",
      "StudyTime": "164749.178000",
      "TransmitCoilName": "Body",
      "VariableFlipAngleFlag": "N",
      "WindowCenterWidthExplanation": "Algo1"
    },
    "slices": {}
  },
  "time": {
    "samples": {
      "AcquisitionNumber": [1, 2, 3, 4, 5, 6, 7, 8, 9, 10, 11, 12, 13, 14, 15, 16, 17, 18, 19, 20, 21, 22, 23, 24, 25, 26, 27, 28, 29, 30, 31, 32, 33, 34, 35, 36, 37, 38, 39, 40, 41, 42, 43, 44, 45, 46, 47, 48, 49, 50, 51, 52, 53, 54, 55, 56, 57, 58, 59, 60, 61, 62, 63, 64, 65, 66, 67, 68, 69, 70, 71, 72, 73, 74, 75, 76, 77, 78, 79, 80, 81, 82, 83, 84, 85, 86, 87, 88, 89, 90, 91, 92, 93, 94, 95, 96, 97, 98, 99, 100, 101, 102, 103, 104, 105, 106, 107, 108, 109, 110, 111, 112, 113, 114, 115, 116, 117, 118, 119, 120, 121, 122, 123, 124, 125, 126, 127, 128, 129, 130, 131, 132, 133, 134, 135, 136, 137, 138, 139, 140, 141, 142, 143, 144, 145, 146, 147, 148, 149, 150, 151, 152, 153, 154, 155, 156, 157, 158, 159, 160, 161, 162, 163, 164, 165, 166, 167, 168, 169, 170, 171, 172, 173, 174, 175, 176, 177, 178, 179, 180, 181, 182, 183, 184, 185, 186, 187, 188, 189, 190, 191, 192, 193, 194, 195, 196, 197, 198, 199, 200, 201, 202, 203, 204, 205, 206, 207, 208, 209, 210, 211, 212, 213, 214, 215, 216, 217, 218, 219, 220, 221, 222, 223, 224, 225, 226, 227, 228, 229, 230, 231, 232, 233, 234, 235, 236, 237, 238, 239, 240, 241, 242, 243, 244, 245, 246, 247, 248, 249, 250, 251, 252, 253, 254, 255, 256, 257, 258, 259, 260, 261, 262, 263, 264, 265, 266, 267, 268, 269, 270, 271, 272, 273, 274, 275, 276, 277, 278, 279, 280, 281, 282, 283, 284, 285, 286, 287, 288, 289, 290, 291, 292, 293, 294, 295, 296, 297, 298, 299, 300, 301, 302, 303, 304, 305, 306, 307, 308, 309, 310, 311, 312, 313, 314, 315, 316, 317, 318, 319, 320, 321, 322, 323, 324, 325, 326, 327, 328, 329, 330, 331, 332, 333, 334, 335, 336, 337, 338, 339, 340, 341, 342, 343, 344, 345, 346, 347, 348, 349, 350, 351, 352, 353, 354, 355, 356, 357, 358, 359, 360, 361, 362, 363, 364, 365, 366, 367, 368, 369, 370, 371, 372, 373, 374, 375, 376, 377, 378, 379, 380, 381, 382, 383, 384, 385, 386, 387, 388, 389, 390, 391, 392, 393, 394, 395, 396, 397, 398, 399, 400, 401, 402, 403, 404, 405, 406, 407, 408, 409, 410, 411, 412, 413, 414, 415, 416, 417, 418, 419, 420, 421, 422, 423, 424, 425, 426, 427, 428, 429, 430, 431, 432, 433, 434, 435, 436, 437, 438, 439, 440, 441, 442, 443, 444, 445, 446, 447, 448, 449, 450, 451, 452, 453, 454, 455, 456, 457, 458, 459, 460, 461, 462, 463, 464, 465, 466, 467, 468, 469, 470, 471, 472, 473, 474, 475, 476, 477, 478, 479, 480, 481, 482, 483, 484, 485, 486, 487, 488, 489, 490, 491, 492, 493, 494, 495, 496, 497, 498, 499, 500, 501, 502, 503, 504, 505, 506, 507, 508, 509, 510, 511, 512, 513, 514, 515, 516, 517, 518, 519, 520, 521, 522, 523, 524, 525, 526, 527, 528, 529, 530, 531, 532, 533, 534, 535, 536, 537, 538, 539, 540, 541, 542, 543, 544, 545, 546, 547, 548, 549, 550, 551, 552, 553, 554, 555, 556, 557, 558, 559, 560, 561, 562, 563, 564, 565, 566, 567, 568, 569, 570, 571, 572, 573, 574, 575, 576, 577, 578, 579, 580, 581, 582, 583, 584, 585, 586, 587, 588, 589, 590, 591, 592, 593, 594, 595, 596, 597, 598, 599, 600, 601, 602, 603, 604, 605, 606, 607, 608, 609, 610, 611, 612, 613, 614, 615, 616, 617, 618, 619, 620, 621, 622, 623, 624, 625, 626, 627, 628, 629, 630, 631, 632, 633, 634, 635, 636, 637, 638, 639, 640, 641, 642, 643, 644, 645, 646, 647, 648, 649, 650, 651, 652, 653, 654, 655, 656, 657, 658, 659, 660, 661, 662, 663, 664, 665, 666, 667, 668, 669, 670, 671, 672, 673, 674, 675, 676, 677, 678, 679, 680, 681, 682, 683, 684, 685, 686, 687, 688, 689, 690, 691, 692, 693, 694, 695, 696, 697, 698, 699, 700, 701, 702, 703, 704, 705, 706, 707, 708, 709, 710, 711, 712, 713, 714, 715, 716, 717, 718, 719, 720, 721, 722, 723, 724, 725, 726, 727, 728, 729, 730, 731, 732, 733, 734, 735, 736, 737, 738, 739, 740, 741, 742, 743, 744, 745, 746, 747, 748, 749, 750, 751, 752, 753, 754, 755, 756, 757, 758, 759, 760, 761, 762, 763, 764, 765, 766, 767, 768, 769, 770, 771, 772, 773, 774, 775, 776, 777, 778, 779, 780, 781, 782, 783, 784, 785, 786, 787, 788, 789, 790, 791, 792, 793, 794, 795, 796, 797, 798, 799, 800, 801, 802, 803, 804, 805, 806, 807, 808, 809, 810, 811, 812, 813, 814, 815, 816, 817, 818, 819, 820, 821, 822, 823, 824, 825, 826, 827, 828, 829, 830, 831, 832, 833, 834, 835, 836, 837, 838, 839, 840, 841, 842, 843, 844, 845, 846, 847, 848, 849, 850, 851, 852, 853, 854, 855, 856, 857, 858, 859, 860, 861, 862, 863, 864, 865, 866, 867, 868, 869, 870, 871, 872],
      "AcquisitionTime": ["173333.972500", "173334.432500", "173334.892500", "173335.352500", "173335.812500", "173336.272500", "173336.732500", "173337.192500", "173337.652500", "173338.112500", "173338.572500", "173339.032500", "173339.492500", "173339.952500", "173340.412500", "173340.872500", "173341.332500", "173341.792500", "173342.252500", "173342.712500", "173343.172500", "173343.632500", "173344.092500", "173344.552500", "173345.012500", "173345.472500", "173345.932500", "173346.392500", "173346.852500", "173347.312500", "173347.772500", "173348.232500", "173348.692500", "173349.152500", "173349.612500", "173350.072500", "173350.532500", "173350.992500", "173351.452500", "173351.912500", "173352.372500", "173352.832500", "173353.292500", "173353.752500", "173354.212500", "173354.672500", "173355.132500", "173355.592500", "173356.052500", "173356.512500", "173356.972500", "173357.432500", "173357.892500", "173358.352500", "173358.812500", "173359.272500", "173359.732500", "173400.192500", "173400.652500", "173401.112500", "173401.572500", "173402.032500", "173402.492500", "173402.952500", "173403.412500", "173403.872500", "173404.332500", "173404.792500", "173405.252500", "173405.712500", "173406.172500", "173406.632500", "173407.092500", "173407.552500", "173408.012500", "173408.472500", "173408.932500", "173409.392500", "173409.852500", "173410.312500", "173410.772500", "173411.232500", "173411.692500", "173412.152500", "173412.612500", "173413.072500", "173413.532500", "173413.992500", "173414.452500", "173414.912500", "173415.372500", "173415.832500", "173416.292500", "173416.752500", "173417.212500", "173417.672500", "173418.132500", "173418.592500", "173419.052500", "173419.512500", "173419.972500", "173420.432500", "173420.892500", "173421.352500", "173421.812500", "173422.272500", "173422.732500", "173423.192500", "173423.652500", "173424.112500", "173424.572500", "173425.032500", "173425.492500", "173425.952500", "173426.412500", "173426.872500", "173427.332500", "173427.792500", "173428.252500", "173428.712500", "173429.172500", "173429.632500", "173430.092500", "173430.552500", "173431.012500", "173431.472500", "173431.932500", "173432.392500", "173432.852500", "173433.312500", "173433.772500", "173434.232500", "173434.692500", "173435.152500", "173435.612500", "173436.072500", "173436.532500", "173436.992500", "173437.452500", "173437.912500", "173438.372500", "173438.832500", "173439.292500", "173439.752500", "173440.212500", "173440.672500", "173441.132500", "173441.592500", "173442.052500", "173442.512500", "173442.972500", "173443.432500", "173443.892500", "173444.352500", "173444.812500", "173445.272500", "173445.732500", "173446.192500", "173446.652500", "173447.112500", "173447.572500", "173448.032500", "173448.492500", "173448.952500", "173449.412500", "173449.872500", "173450.332500", "173450.792500", "173451.252500", "173451.712500", "173452.172500", "173452.632500", "173453.092500", "173453.552500", "173454.012500", "173454.472500", "173454.932500", "173455.392500", "173455.852500", "173456.312500", "173456.772500", "173457.232500", "173457.692500", "173458.152500", "173458.612500", "173459.072500", "173459.532500", "173459.992500", "173500.452500", "173500.912500", "173501.372500", "173501.832500", "173502.292500", "173502.752500", "173503.212500", "173503.672500", "173504.132500", "173504.592500", "173505.052500", "173505.512500", "173505.972500", "173506.432500", "173506.892500", "173507.352500", "173507.812500", "173508.272500", "173508.732500", "173509.192500", "173509.652500", "173510.112500", "173510.572500", "173511.032500", "173511.492500", "173511.952500", "173512.412500", "173512.872500", "173513.332500", "173513.792500", "173514.252500", "173514.712500", "173515.172500", "173515.632500", "173516.092500", "173516.552500", "173517.012500", "173517.472500", "173517.932500", "173518.392500", "173518.852500", "173519.312500", "173519.772500", "173520.232500", "173520.692500", "173521.152500", "173521.612500", "173522.072500", "173522.532500", "173522.992500", "173523.452500", "173523.912500", "173524.372500", "173524.832500", "173525.292500", "173525.752500", "173526.212500", "173526.672500", "173527.132500", "173527.592500", "173528.052500", "173528.512500", "173528.972500", "173529.432500", "173529.892500", "173530.352500", "173530.812500", "173531.272500", "173531.732500", "173532.192500", "173532.652500", "173533.112500", "173533.572500", "173534.032500", "173534.492500", "173534.952500", "173535.412500", "173535.872500", "173536.332500", "173536.792500", "173537.252500", "173537.712500", "173538.172500", "173538.632500", "173539.092500", "173539.552500", "173540.012500", "173540.472500", "173540.932500", "173541.392500", "173541.852500", "173542.312500", "173542.772500", "173543.232500", "173543.692500", "173544.152500", "173544.612500", "173545.072500", "173545.532500", "173545.992500", "173546.452500", "173546.912500", "173547.372500", "173547.832500", "173548.292500", "173548.752500", "173549.212500", "173549.672500", "173550.132500", "173550.592500", "173551.052500", "173551.512500", "173551.972500", "173552.432500", "173552.892500", "173553.352500", "173553.812500", "173554.272500", "173554.732500", "173555.192500", "173555.652500", "173556.112500", "173556.572500", "173557.032500", "173557.492500", "173557.952500", "173558.412500", "173558.872500", "173559.332500", "173559.792500", "173600.252500", "173600.712500", "173601.172500", "173601.632500", "173602.092500", "173602.552500", "173603.012500", "173603.472500", "173603.932500", "173604.392500", "173604.852500", "173605.312500", "173605.772500", "173606.232500", "173606.692500", "173607.152500", "173607.612500", "173608.072500", "173608.532500", "173608.992500", "173609.452500", "173609.912500", "173610.372500", "173610.832500", "173611.292500", "173611.752500", "173612.212500", "173612.672500", "173613.132500", "173613.592500", "173614.052500", "173614.512500", "173614.972500", "173615.432500", "173615.892500", "173616.352500", "173616.812500", "173617.272500", "173617.732500", "173618.192500", "173618.652500", "173619.112500", "173619.572500", "173620.032500", "173620.492500", "173620.952500", "173621.412500", "173621.872500", "173622.332500", "173622.792500", "173623.252500", "173623.712500", "173624.172500", "173624.632500", "173625.092500", "173625.552500", "173626.012500", "173626.472500", "173626.932500", "173627.392500", "173627.852500", "173628.312500", "173628.772500", "173629.232500", "173629.692500", "173630.152500", "173630.612500", "173631.072500", "173631.532500", "173631.992500", "173632.452500", "173632.912500", "173633.372500", "173633.832500", "173634.292500", "173634.752500", "173635.212500", "173635.672500", "173636.132500", "173636.592500", "173637.052500", "173637.512500", "173637.972500", "173638.432500", "173638.892500", "173639.352500", "173639.812500", "173640.272500", "173640.732500", "173641.192500", "173641.652500", "173642.112500", "173642.572500", "173643.032500", "173643.492500", "173643.952500", "173644.412500", "173644.872500", "173645.332500", "173645.792500", "173646.252500", "173646.712500", "173647.172500", "173647.632500", "173648.092500", "173648.552500", "173649.012500", "173649.472500", "173649.932500", "173650.392500", "173650.852500", "173651.312500", "173651.772500", "173652.232500", "173652.692500", "173653.152500", "173653.612500", "173654.072500", "173654.532500", "173654.992500", "173655.452500", "173655.912500", "173656.372500", "173656.832500", "173657.292500", "173657.752500", "173658.212500", "173658.672500", "173659.132500", "173659.592500", "173700.052500", "173700.512500", "173700.972500", "173701.432500", "173701.892500", "173702.352500", "173702.812500", "173703.272500", "173703.732500", "173704.192500", "173704.652500", "173705.112500", "173705.572500", "173706.032500", "173706.492500", "173706.952500", "173707.412500", "173707.872500", "173708.332500", "173708.792500", "173709.252500", "173709.712500", "173710.172500", "173710.632500", "173711.092500", "173711.552500", "173712.012500", "173712.472500", "173712.932500", "173713.392500", "173713.852500", "173714.312500", "173714.772500", "173715.232500", "173715.692500", "173716.152500", "173716.612500", "173717.072500", "173717.532500", "173717.992500", "173718.452500", "173718.912500", "173719.372500", "173719.832500", "173720.292500", "173720.752500", "173721.212500", "173721.672500", "173722.132500", "173722.592500", "173723.052500", "173723.512500", "173723.972500", "173724.432500", "173724.892500", "173725.352500", "173725.812500", "173726.272500", "173726.732500", "173727.192500", "173727.652500", "173728.112500", "173728.572500", "173729.032500", "173729.492500", "173729.952500", "173730.412500", "173730.872500", "173731.332500", "173731.792500", "173732.252500", "173732.712500", "173733.172500", "173733.632500", "173734.092500", "173734.552500", "173735.012500", "173735.472500", "173735.932500", "173736.392500", "173736.852500", "173737.312500", "173737.772500", "173738.232500", "173738.692500", "173739.152500", "173739.612500", "173740.072500", "173740.532500", "173740.992500", "173741.452500", "173741.912500", "173742.372500", "173742.832500", "173743.292500", "173743.752500", "173744.212500", "173744.672500", "173745.132500", "173745.592500", "173746.052500", "173746.512500", "173746.972500", "173747.432500", "173747.892500", "173748.352500", "173748.812500", "173749.272500", "173749.732500", "173750.192500", "173750.652500", "173751.112500", "173751.572500", "173752.032500", "173752.492500", "173752.952500", "173753.412500", "173753.872500", "173754.332500", "173754.792500", "173755.252500", "173755.712500", "173756.172500", "173756.632500", "173757.092500", "173757.552500", "173758.012500", "173758.472500", "173758.932500", "173759.392500", "173759.852500", "173800.312500", "173800.772500", "173801.232500", "173801.692500", "173802.152500", "173802.612500", "173803.072500", "173803.532500", "173803.992500", "173804.452500", "173804.912500", "173805.372500", "173805.832500", "173806.292500", "173806.752500", "173807.212500", "173807.672500", "173808.132500", "173808.592500", "173809.052500", "173809.512500", "173809.972500", "173810.432500", "173810.892500", "173811.352500", "173811.812500", "173812.272500", "173812.732500", "173813.192500", "173813.652500", "173814.112500", "173814.572500", "173815.032500", "173815.492500", "173815.952500", "173816.412500", "173816.872500", "173817.332500", "173817.792500", "173818.252500", "173818.712500", "173819.172500", "173819.632500", "173820.092500", "173820.552500", "173821.012500", "173821.472500", "173821.932500", "173822.392500", "173822.852500", "173823.312500", "173823.772500", "173824.232500", "173824.692500", "173825.152500", "173825.612500", "173826.072500", "173826.532500", "173826.992500", "173827.452500", "173827.912500", "173828.372500", "173828.832500", "173829.292500", "173829.752500", "173830.212500", "173830.672500", "173831.132500", "173831.592500", "173832.052500", "173832.512500", "173832.972500", "173833.432500", "173833.892500", "173834.352500", "173834.812500", "173835.272500", "173835.732500", "173836.192500", "173836.652500", "173837.112500", "173837.572500", "173838.032500", "173838.492500", "173838.952500", "173839.412500", "173839.872500", "173840.332500", "173840.792500", "173841.252500", "173841.712500", "173842.172500", "173842.632500", "173843.092500", "173843.552500", "173844.012500", "173844.472500", "173844.932500", "173845.392500", "173845.852500", "173846.312500", "173846.772500", "173847.232500", "173847.692500", "173848.152500", "173848.612500", "173849.072500", "173849.532500", "173849.992500", "173850.452500", "173850.912500", "173851.372500", "173851.832500", "173852.292500", "173852.752500", "173853.212500", "173853.672500", "173854.132500", "173854.592500", "173855.052500", "173855.512500", "173855.972500", "173856.432500", "173856.892500", "173857.352500", "173857.812500", "173858.272500", "173858.732500", "173859.192500", "173859.652500", "173900.112500", "173900.572500", "173901.032500", "173901.492500", "173901.952500", "173902.412500", "173902.872500", "173903.332500", "173903.792500", "173904.252500", "173904.712500", "173905.172500", "173905.632500", "173906.092500", "173906.552500", "173907.012500", "173907.472500", "173907.932500", "173908.392500", "173908.852500", "173909.312500", "173909.772500", "173910.232500", "173910.692500", "173911.152500", "173911.612500", "173912.072500", "173912.532500", "173912.992500", "173913.452500", "173913.912500", "173914.372500", "173914.832500", "173915.292500", "173915.752500", "173916.212500", "173916.672500", "173917.132500", "173917.592500", "173918.052500", "173918.512500", "173918.972500", "173919.432500", "173919.892500", "173920.352500", "173920.812500", "173921.272500", "173921.732500", "173922.192500", "173922.652500", "173923.112500", "173923.572500", "173924.032500", "173924.492500", "173924.952500", "173925.412500", "173925.872500", "173926.332500", "173926.792500", "173927.252500", "173927.712500", "173928.172500", "173928.632500", "173929.092500", "173929.552500", "173930.012500", "173930.472500", "173930.932500", "173931.392500", "173931.852500", "173932.312500", "173932.772500", "173933.232500", "173933.692500", "173934.152500", "173934.612500", "173935.072500", "173935.532500", "173935.992500", "173936.452500", "173936.912500", "173937.372500", "173937.832500", "173938.292500", "173938.752500", "173939.212500", "173939.672500", "173940.132500", "173940.592500", "173941.052500", "173941.512500", "173941.972500", "173942.432500", "173942.892500", "173943.352500", "173943.812500", "173944.272500", "173944.732500", "173945.192500", "173945.652500", "173946.112500", "173946.572500", "173947.032500", "173947.492500", "173947.952500", "173948.412500", "173948.872500", "173949.332500", "173949.792500", "173950.252500", "173950.712500", "173951.172500", "173951.632500", "173952.092500", "173952.552500", "173953.012500", "173953.472500", "173953.932500", "173954.392500", "173954.852500", "173955.312500", "173955.772500", "173956.232500", "173956.692500", "173957.152500", "173957.612500", "173958.072500", "173958.532500", "173958.992500", "173959.452500", "173959.912500", "174000.372500", "174000.832500", "174001.292500", "174001.752500", "174002.212500", "174002.672500", "174003.132500", "174003.592500", "174004.052500", "174004.512500", "174004.972500", "174005.432500", "174005.892500", "174006.352500", "174006.812500", "174007.272500", "174007.732500", "174008.192500", "174008.652500", "174009.112500", "174009.572500", "174010.032500", "174010.492500", "174010.952500", "174011.412500", "174011.872500", "174012.332500", "174012.792500", "174013.252500", "174013.712500", "174014.172500", "174014.632500"],
