{
  "AcquisitionMatrixPE": 82,
  "AcquisitionNumber": 1,
  "AcquisitionTime": "17:56:7.085000",
  "BandwidthPerPixelPhaseEncode": 24.888,
  "BaseResolution": 82,
  "BodyPartExamined": "BRAIN",
  "ConsistencyInfo": "N4_VE11E_LATEST_20181129",
  "ConversionSoftware": "dcm2niix",
  "ConversionSoftwareVersion": "v1.0.20201102",
  "DerivedVendorReportedEchoSpacing": 0.00049,
  "DeviceSerialNumber": "66112",
  "DwellTime": 2e-06,
  "EchoTime": 0.0272,
  "EchoTrainLength": 82,
  "EffectiveEchoSpacing": 0.00049,
  "FlipAngle": 44,
  "ImageComments": "Unaliased MB8/PE3",
  "ImageOrientationPatientDICOM": [0.997176, -0.00511715, 0.074925, 0.00887629, 0.998713, -0.0499253],
  "ImageType": [
    "ORIGINAL",
    "PRIMARY",
    "M",
    "MB",
    "ND",
    "NORM",
    "MOSAIC"
],
  "ImagingFrequency": 123.252,
  "InPlanePhaseEncodingDirectionDICOM": "COL",
  "InstitutionAddress": "Maynard 3,Hanover,NH,US,03755",
  "InstitutionName": "Dartmouth College - PBS",
  "InstitutionalDepartmentName": "Department",
  "MRAcquisitionType": "2D",
  "MagneticFieldStrength": 3,
  "Manufacturer": "Siemens",
  "ManufacturersModelName": "Prisma",
  "Modality": "MR",
  "MultibandAccelerationFactor": 8,
  "PartialFourier": 1,
  "PatientPosition": "HFS",
  "PercentPhaseFOV": 100,
  "PercentSampling": 100,
  "PhaseEncodingDirection": "j-",
  "PhaseEncodingSteps": 82,
  "PhaseResolution": 1,
  "PixelBandwidth": 3050,
  "ProcedureStepDescription": "Wager_Wager^1076_spacetop",
  "ProtocolName": "func_run-06_task-social_acq-ap-mb8",
  "PulseSequenceDetails": "%CustomerSeq%\\cmrr_mbep2d_bold",
  "ReceiveCoilActiveElements": "HEA;HEP",
  "ReceiveCoilName": "Head_32",
  "ReconMatrixPE": 82,
  "RepetitionTime": 0.46,
  "SAR": 0.0963451,
  "ScanOptions": "FS",
  "ScanningSequence": "EP",
  "SequenceName": "epfid2d1_82",
  "SequenceVariant": "SK\\SS",
  "SeriesDescription": "func_run-06_task-social_acq-ap-mb8",
  "SeriesNumber": 18,
  "ShimSetting": [4190, -7816, -7247, 573, 44, -296, 91, -23],
  "SliceThickness": 2.7,
  "SliceTiming": [0, 0.2525, 0.0625, 0.315, 0.1275, 0.3775, 0.19, 0, 0.2525, 0.0625, 0.315, 0.1275, 0.3775, 0.19, 0, 0.2525, 0.0625, 0.315, 0.1275, 0.3775, 0.19, 0, 0.2525, 0.0625, 0.315, 0.1275, 0.3775, 0.19, 0, 0.2525, 0.0625, 0.315, 0.1275, 0.3775, 0.19, 0, 0.2525, 0.0625, 0.315, 0.1275, 0.3775, 0.19, 0, 0.2525, 0.0625, 0.315, 0.1275, 0.3775, 0.19, 0, 0.2525, 0.0625, 0.315, 0.1275, 0.3775, 0.19],
  "SoftwareVersions": "syngo MR E11",
  "SpacingBetweenSlices": 2.7,
  "StationName": "AWP66112",
  "TaskName": "social",
  "TotalReadoutTime": 0.03969,
  "TxRefAmp": 232.752,
  "WipMemBlock": "70beec5f-4198-4a86-a4cd-b2c90dcd16ff||Sequence: R016 ve11e/master r/434b28f1; Aug  7 2019 18:53:46 by eja",
  "dcmmeta_affine": [
    [-2.6753504276275635, 0.023814434185624123, 0.20134741067886353, 102.0378646850586],
    [0.013728948310017586, 2.6794753074645996, -0.13621331751346588, -95.58316802978516],
    [0.20101822912693024, 0.13394595682621002, 2.6890342235565186, -78.93635559082031],
    [0.0, 0.0, 0.0, 1.0]
],
  "dcmmeta_reorient_transform": [
    [0.0, -1.0, 0.0, 81.0],
    [1.0, 0.0, 0.0, 0.0],
    [0.0, 0.0, 1.0, 0.0],
    [0.0, 0.0, 0.0, 1.0]
],
  "dcmmeta_shape": [82, 82, 56, 872],
  "dcmmeta_slice_dim": 2,
  "dcmmeta_version": 0.6,
  "global": {
    "const": {
      "AccessionNumber": "A004149",
      "AcquisitionMatrix": [82, 0, 0, 82],
      "AngioFlag": "N",
      "BitsAllocated": 16,
      "BitsStored": 16,
      "BodyPartExamined": "BRAIN",
      "Columns": 656,
      "EchoNumbers": 1,
      "EchoTime": 27.2,
      "EchoTrainLength": 82,
      "FlipAngle": 44.0,
      "HighBit": 15,
      "ImageOrientationPatient": [0.99717604395865, -0.0051171534321, 0.07492497644803, 0.00887628907288, 0.99871351000761, -0.0499253084175],
      "ImagePositionPatient": [-878.62715154144, -886.52354418618, -87.336477495396],
      "ImageType": [
        "ORIGINAL",
        "PRIMARY",
        "M",
        "MB",
        "ND",
        "NORM",
        "MOSAIC"
],
      "ImagedNucleus": "1H",
      "ImagingFrequency": 123.252205,
      "InPlanePhaseEncodingDirection": "COL",
      "MRAcquisitionType": "2D",
      "MagneticFieldStrength": 3.0,
      "Manufacturer": "SIEMENS",
      "ManufacturerModelName": "Prisma",
      "Modality": "MR",
      "NumberOfAverages": 1.0,
      "NumberOfPhaseEncodingSteps": 82,
      "PercentPhaseFieldOfView": 100.0,
      "PercentSampling": 100.0,
      "PerformedProcedureStepStartTime": "164749.251000",
      "PhotometricInterpretation": "MONOCHROME2",
      "PixelBandwidth": 3050.0,
      "PixelRepresentation": 0,
      "PixelSpacing": [2.6829268932343, 2.6829268932343],
      "ProtocolName": "func_run-06_task-social_acq-ap-mb8",
      "RepetitionTime": 460.0,
      "Rows": 656,
      "SAR": 0.09634513851211,
      "SamplesPerPixel": 1,
      "ScanOptions": "FS",
      "ScanningSequence": "EP",
      "SequenceName": "epfid2d1_82",
      "SequenceVariant": [
        "SK",
        "SS"
],
      "SeriesDescription": "func_run-06_task-social_acq-ap-mb8",
      "SeriesNumber": 18,
      "SeriesTime": "175618.863000",
      "SliceLocation": -66.184370725766,
      "SliceThickness": 2.7000000476837,
      "SmallestImagePixelValue": 0,
      "SoftwareVersions": "syngo MR E11",
      "SpacingBetweenSlices": 2.700000096014,
      "SpecificCharacterSet": "ISO_IR 100",
      "StudyID": "1",
      "StudyTime": "164749.178000",
      "TransmitCoilName": "Body",
      "VariableFlipAngleFlag": "N",
      "WindowCenterWidthExplanation": "Algo1"
    },
    "slices": {}
  },
  "time": {
    "samples": {
      "AcquisitionNumber": [1, 2, 3, 4, 5, 6, 7, 8, 9, 10, 11, 12, 13, 14, 15, 16, 17, 18, 19, 20, 21, 22, 23, 24, 25, 26, 27, 28, 29, 30, 31, 32, 33, 34, 35, 36, 37, 38, 39, 40, 41, 42, 43, 44, 45, 46, 47, 48, 49, 50, 51, 52, 53, 54, 55, 56, 57, 58, 59, 60, 61, 62, 63, 64, 65, 66, 67, 68, 69, 70, 71, 72, 73, 74, 75, 76, 77, 78, 79, 80, 81, 82, 83, 84, 85, 86, 87, 88, 89, 90, 91, 92, 93, 94, 95, 96, 97, 98, 99, 100, 101, 102, 103, 104, 105, 106, 107, 108, 109, 110, 111, 112, 113, 114, 115, 116, 117, 118, 119, 120, 121, 122, 123, 124, 125, 126, 127, 128, 129, 130, 131, 132, 133, 134, 135, 136, 137, 138, 139, 140, 141, 142, 143, 144, 145, 146, 147, 148, 149, 150, 151, 152, 153, 154, 155, 156, 157, 158, 159, 160, 161, 162, 163, 164, 165, 166, 167, 168, 169, 170, 171, 172, 173, 174, 175, 176, 177, 178, 179, 180, 181, 182, 183, 184, 185, 186, 187, 188, 189, 190, 191, 192, 193, 194, 195, 196, 197, 198, 199, 200, 201, 202, 203, 204, 205, 206, 207, 208, 209, 210, 211, 212, 213, 214, 215, 216, 217, 218, 219, 220, 221, 222, 223, 224, 225, 226, 227, 228, 229, 230, 231, 232, 233, 234, 235, 236, 237, 238, 239, 240, 241, 242, 243, 244, 245, 246, 247, 248, 249, 250, 251, 252, 253, 254, 255, 256, 257, 258, 259, 260, 261, 262, 263, 264, 265, 266, 267, 268, 269, 270, 271, 272, 273, 274, 275, 276, 277, 278, 279, 280, 281, 282, 283, 284, 285, 286, 287, 288, 289, 290, 291, 292, 293, 294, 295, 296, 297, 298, 299, 300, 301, 302, 303, 304, 305, 306, 307, 308, 309, 310, 311, 312, 313, 314, 315, 316, 317, 318, 319, 320, 321, 322, 323, 324, 325, 326, 327, 328, 329, 330, 331, 332, 333, 334, 335, 336, 337, 338, 339, 340, 341, 342, 343, 344, 345, 346, 347, 348, 349, 350, 351, 352, 353, 354, 355, 356, 357, 358, 359, 360, 361, 362, 363, 364, 365, 366, 367, 368, 369, 370, 371, 372, 373, 374, 375, 376, 377, 378, 379, 380, 381, 382, 383, 384, 385, 386, 387, 388, 389, 390, 391, 392, 393, 394, 395, 396, 397, 398, 399, 400, 401, 402, 403, 404, 405, 406, 407, 408, 409, 410, 411, 412, 413, 414, 415, 416, 417, 418, 419, 420, 421, 422, 423, 424, 425, 426, 427, 428, 429, 430, 431, 432, 433, 434, 435, 436, 437, 438, 439, 440, 441, 442, 443, 444, 445, 446, 447, 448, 449, 450, 451, 452, 453, 454, 455, 456, 457, 458, 459, 460, 461, 462, 463, 464, 465, 466, 467, 468, 469, 470, 471, 472, 473, 474, 475, 476, 477, 478, 479, 480, 481, 482, 483, 484, 485, 486, 487, 488, 489, 490, 491, 492, 493, 494, 495, 496, 497, 498, 499, 500, 501, 502, 503, 504, 505, 506, 507, 508, 509, 510, 511, 512, 513, 514, 515, 516, 517, 518, 519, 520, 521, 522, 523, 524, 525, 526, 527, 528, 529, 530, 531, 532, 533, 534, 535, 536, 537, 538, 539, 540, 541, 542, 543, 544, 545, 546, 547, 548, 549, 550, 551, 552, 553, 554, 555, 556, 557, 558, 559, 560, 561, 562, 563, 564, 565, 566, 567, 568, 569, 570, 571, 572, 573, 574, 575, 576, 577, 578, 579, 580, 581, 582, 583, 584, 585, 586, 587, 588, 589, 590, 591, 592, 593, 594, 595, 596, 597, 598, 599, 600, 601, 602, 603, 604, 605, 606, 607, 608, 609, 610, 611, 612, 613, 614, 615, 616, 617, 618, 619, 620, 621, 622, 623, 624, 625, 626, 627, 628, 629, 630, 631, 632, 633, 634, 635, 636, 637, 638, 639, 640, 641, 642, 643, 644, 645, 646, 647, 648, 649, 650, 651, 652, 653, 654, 655, 656, 657, 658, 659, 660, 661, 662, 663, 664, 665, 666, 667, 668, 669, 670, 671, 672, 673, 674, 675, 676, 677, 678, 679, 680, 681, 682, 683, 684, 685, 686, 687, 688, 689, 690, 691, 692, 693, 694, 695, 696, 697, 698, 699, 700, 701, 702, 703, 704, 705, 706, 707, 708, 709, 710, 711, 712, 713, 714, 715, 716, 717, 718, 719, 720, 721, 722, 723, 724, 725, 726, 727, 728, 729, 730, 731, 732, 733, 734, 735, 736, 737, 738, 739, 740, 741, 742, 743, 744, 745, 746, 747, 748, 749, 750, 751, 752, 753, 754, 755, 756, 757, 758, 759, 760, 761, 762, 763, 764, 765, 766, 767, 768, 769, 770, 771, 772, 773, 774, 775, 776, 777, 778, 779, 780, 781, 782, 783, 784, 785, 786, 787, 788, 789, 790, 791, 792, 793, 794, 795, 796, 797, 798, 799, 800, 801, 802, 803, 804, 805, 806, 807, 808, 809, 810, 811, 812, 813, 814, 815, 816, 817, 818, 819, 820, 821, 822, 823, 824, 825, 826, 827, 828, 829, 830, 831, 832, 833, 834, 835, 836, 837, 838, 839, 840, 841, 842, 843, 844, 845, 846, 847, 848, 849, 850, 851, 852, 853, 854, 855, 856, 857, 858, 859, 860, 861, 862, 863, 864, 865, 866, 867, 868, 869, 870, 871, 872],
      "AcquisitionTime": ["175607.085000", "175607.545000", "175608.005000", "175608.465000", "175608.925000", "175609.385000", "175609.845000", "175610.305000", "175610.765000", "175611.225000", "175611.685000", "175612.145000", "175612.605000", "175613.065000", "175613.525000", "175613.985000", "175614.445000", "175614.905000", "175615.365000", "175615.825000", "175616.285000", "175616.745000", "175617.205000", "175617.665000", "175618.125000", "175618.585000", "175619.045000", "175619.505000", "175619.965000", "175620.425000", "175620.885000", "175621.345000", "175621.805000", "175622.265000", "175622.725000", "175623.185000", "175623.645000", "175624.105000", "175624.565000", "175625.025000", "175625.485000", "175625.945000", "175626.405000", "175626.865000", "175627.325000", "175627.785000", "175628.245000", "175628.705000", "175629.165000", "175629.625000", "175630.085000", "175630.545000", "175631.005000", "175631.465000", "175631.925000", "175632.385000", "175632.845000", "175633.305000", "175633.765000", "175634.225000", "175634.685000", "175635.145000", "175635.605000", "175636.065000", "175636.525000", "175636.985000", "175637.445000", "175637.905000", "175638.365000", "175638.825000", "175639.285000", "175639.745000", "175640.205000", "175640.665000", "175641.125000", "175641.585000", "175642.045000", "175642.505000", "175642.965000", "175643.425000", "175643.885000", "175644.345000", "175644.805000", "175645.265000", "175645.725000", "175646.185000", "175646.645000", "175647.105000", "175647.565000", "175648.025000", "175648.485000", "175648.945000", "175649.405000", "175649.865000", "175650.325000", "175650.785000", "175651.245000", "175651.705000", "175652.165000", "175652.625000", "175653.085000", "175653.545000", "175654.005000", "175654.465000", "175654.925000", "175655.385000", "175655.845000", "175656.305000", "175656.765000", "175657.225000", "175657.685000", "175658.145000", "175658.605000", "175659.065000", "175659.525000", "175659.985000", "175700.445000", "175700.905000", "175701.365000", "175701.825000", "175702.285000", "175702.745000", "175703.205000", "175703.665000", "175704.125000", "175704.585000", "175705.045000", "175705.505000", "175705.965000", "175706.425000", "175706.885000", "175707.345000", "175707.805000", "175708.265000", "175708.725000", "175709.185000", "175709.645000", "175710.105000", "175710.565000", "175711.025000", "175711.485000", "175711.945000", "175712.405000", "175712.865000", "175713.325000", "175713.785000", "175714.245000", "175714.705000", "175715.165000", "175715.625000", "175716.085000", "175716.545000", "175717.005000", "175717.465000", "175717.925000", "175718.385000", "175718.845000", "175719.305000", "175719.765000", "175720.225000", "175720.685000", "175721.145000", "175721.605000", "175722.065000", "175722.525000", "175722.985000", "175723.445000", "175723.905000", "175724.365000", "175724.825000", "175725.285000", "175725.745000", "175726.205000", "175726.665000", "175727.125000", "175727.585000", "175728.045000", "175728.505000", "175728.965000", "175729.425000", "175729.885000", "175730.345000", "175730.805000", "175731.265000", "175731.725000", "175732.185000", "175732.645000", "175733.105000", "175733.565000", "175734.025000", "175734.485000", "175734.945000", "175735.405000", "175735.865000", "175736.325000", "175736.785000", "175737.245000", "175737.705000", "175738.165000", "175738.625000", "175739.085000", "175739.545000", "175740.005000", "175740.465000", "175740.925000", "175741.385000", "175741.845000", "175742.305000", "175742.765000", "175743.225000", "175743.685000", "175744.145000", "175744.605000", "175745.065000", "175745.525000", "175745.985000", "175746.445000", "175746.905000", "175747.365000", "175747.825000", "175748.285000", "175748.745000", "175749.205000", "175749.665000", "175750.125000", "175750.585000", "175751.045000", "175751.505000", "175751.965000", "175752.425000", "175752.885000", "175753.345000", "175753.805000", "175754.265000", "175754.725000", "175755.185000", "175755.645000", "175756.105000", "175756.565000", "175757.025000", "175757.485000", "175757.945000", "175758.405000", "175758.865000", "175759.325000", "175759.785000", "175800.245000", "175800.705000", "175801.165000", "175801.625000", "175802.085000", "175802.545000", "175803.005000", "175803.465000", "175803.925000", "175804.385000", "175804.845000", "175805.305000", "175805.765000", "175806.225000", "175806.685000", "175807.145000", "175807.605000", "175808.065000", "175808.525000", "175808.985000", "175809.445000", "175809.905000", "175810.365000", "175810.825000", "175811.285000", "175811.745000", "175812.205000", "175812.665000", "175813.125000", "175813.585000", "175814.045000", "175814.505000", "175814.965000", "175815.425000", "175815.885000", "175816.345000", "175816.805000", "175817.265000", "175817.725000", "175818.185000", "175818.645000", "175819.105000", "175819.565000", "175820.025000", "175820.485000", "175820.945000", "175821.405000", "175821.865000", "175822.325000", "175822.785000", "175823.245000", "175823.705000", "175824.165000", "175824.625000", "175825.085000", "175825.545000", "175826.005000", "175826.465000", "175826.925000", "175827.385000", "175827.845000", "175828.305000", "175828.765000", "175829.225000", "175829.685000", "175830.145000", "175830.605000", "175831.065000", "175831.525000", "175831.985000", "175832.445000", "175832.905000", "175833.365000", "175833.825000", "175834.285000", "175834.745000", "175835.205000", "175835.665000", "175836.125000", "175836.585000", "175837.045000", "175837.505000", "175837.965000", "175838.425000", "175838.885000", "175839.345000", "175839.805000", "175840.265000", "175840.725000", "175841.185000", "175841.645000", "175842.105000", "175842.565000", "175843.025000", "175843.485000", "175843.945000", "175844.405000", "175844.865000", "175845.325000", "175845.785000", "175846.245000", "175846.705000", "175847.165000", "175847.625000", "175848.085000", "175848.545000", "175849.005000", "175849.465000", "175849.925000", "175850.385000", "175850.845000", "175851.305000", "175851.765000", "175852.225000", "175852.685000", "175853.145000", "175853.605000", "175854.065000", "175854.525000", "175854.985000", "175855.445000", "175855.905000", "175856.365000", "175856.825000", "175857.285000", "175857.745000", "175858.205000", "175858.665000", "175859.125000", "175859.585000", "175900.045000", "175900.505000", "175900.965000", "175901.425000", "175901.885000", "175902.345000", "175902.805000", "175903.265000", "175903.725000", "175904.185000", "175904.645000", "175905.105000", "175905.565000", "175906.025000", "175906.485000", "175906.945000", "175907.405000", "175907.865000", "175908.325000", "175908.785000", "175909.245000", "175909.705000", "175910.165000", "175910.625000", "175911.085000", "175911.545000", "175912.005000", "175912.465000", "175912.925000", "175913.385000", "175913.845000", "175914.305000", "175914.765000", "175915.225000", "175915.685000", "175916.145000", "175916.605000", "175917.065000", "175917.525000", "175917.985000", "175918.445000", "175918.905000", "175919.365000", "175919.825000", "175920.285000", "175920.745000", "175921.205000", "175921.665000", "175922.125000", "175922.585000", "175923.045000", "175923.505000", "175923.965000", "175924.425000", "175924.885000", "175925.345000", "175925.805000", "175926.265000", "175926.725000", "175927.185000", "175927.645000", "175928.105000", "175928.565000", "175929.025000", "175929.485000", "175929.945000", "175930.405000", "175930.865000", "175931.325000", "175931.785000", "175932.245000", "175932.705000", "175933.165000", "175933.625000", "175934.085000", "175934.545000", "175935.005000", "175935.465000", "175935.925000", "175936.385000", "175936.845000", "175937.305000", "175937.765000", "175938.225000", "175938.685000", "175939.145000", "175939.605000", "175940.065000", "175940.525000", "175940.985000", "175941.445000", "175941.905000", "175942.365000", "175942.825000", "175943.285000", "175943.745000", "175944.205000", "175944.665000", "175945.125000", "175945.585000", "175946.045000", "175946.505000", "175946.965000", "175947.425000", "175947.885000", "175948.345000", "175948.805000", "175949.265000", "175949.725000", "175950.185000", "175950.645000", "175951.105000", "175951.565000", "175952.025000", "175952.485000", "175952.945000", "175953.405000", "175953.865000", "175954.325000", "175954.785000", "175955.245000", "175955.705000", "175956.165000", "175956.625000", "175957.085000", "175957.545000", "175958.005000", "175958.465000", "175958.925000", "175959.385000", "175959.845000", "180000.305000", "180000.765000", "180001.225000", "180001.685000", "180002.145000", "180002.605000", "180003.065000", "180003.525000", "180003.985000", "180004.445000", "180004.905000", "180005.365000", "180005.825000", "180006.285000", "180006.745000", "180007.205000", "180007.665000", "180008.125000", "180008.585000", "180009.045000", "180009.505000", "180009.965000", "180010.425000", "180010.885000", "180011.345000", "180011.805000", "180012.265000", "180012.725000", "180013.185000", "180013.645000", "180014.105000", "180014.565000", "180015.025000", "180015.485000", "180015.945000", "180016.405000", "180016.865000", "180017.325000", "180017.785000", "180018.245000", "180018.705000", "180019.165000", "180019.625000", "180020.085000", "180020.545000", "180021.005000", "180021.465000", "180021.925000", "180022.385000", "180022.845000", "180023.305000", "180023.765000", "180024.225000", "180024.685000", "180025.145000", "180025.605000", "180026.065000", "180026.525000", "180026.985000", "180027.445000", "180027.905000", "180028.365000", "180028.825000", "180029.285000", "180029.745000", "180030.205000", "180030.665000", "180031.125000", "180031.585000", "180032.045000", "180032.505000", "180032.965000", "180033.425000", "180033.885000", "180034.345000", "180034.805000", "180035.265000", "180035.725000", "180036.185000", "180036.645000", "180037.105000", "180037.565000", "180038.025000", "180038.485000", "180038.945000", "180039.405000", "180039.865000", "180040.325000", "180040.785000", "180041.245000", "180041.705000", "180042.165000", "180042.625000", "180043.085000", "180043.545000", "180044.005000", "180044.465000", "180044.925000", "180045.385000", "180045.845000", "180046.305000", "180046.765000", "180047.225000", "180047.685000", "180048.145000", "180048.605000", "180049.065000", "180049.525000", "180049.985000", "180050.445000", "180050.905000", "180051.365000", "180051.825000", "180052.285000", "180052.745000", "180053.205000", "180053.665000", "180054.125000", "180054.585000", "180055.045000", "180055.505000", "180055.965000", "180056.425000", "180056.885000", "180057.345000", "180057.805000", "180058.265000", "180058.725000", "180059.185000", "180059.645000", "180100.105000", "180100.565000", "180101.025000", "180101.485000", "180101.945000", "180102.405000", "180102.865000", "180103.325000", "180103.785000", "180104.245000", "180104.705000", "180105.165000", "180105.625000", "180106.085000", "180106.545000", "180107.005000", "180107.465000", "180107.925000", "180108.385000", "180108.845000", "180109.305000", "180109.765000", "180110.225000", "180110.685000", "180111.145000", "180111.605000", "180112.065000", "180112.525000", "180112.985000", "180113.445000", "180113.905000", "180114.365000", "180114.825000", "180115.285000", "180115.745000", "180116.205000", "180116.665000", "180117.125000", "180117.585000", "180118.045000", "180118.505000", "180118.965000", "180119.425000", "180119.885000", "180120.345000", "180120.805000", "180121.265000", "180121.725000", "180122.185000", "180122.645000", "180123.105000", "180123.565000", "180124.025000", "180124.485000", "180124.945000", "180125.405000", "180125.865000", "180126.325000", "180126.785000", "180127.245000", "180127.705000", "180128.165000", "180128.625000", "180129.085000", "180129.545000", "180130.005000", "180130.465000", "180130.925000", "180131.385000", "180131.845000", "180132.305000", "180132.765000", "180133.225000", "180133.685000", "180134.145000", "180134.605000", "180135.065000", "180135.525000", "180135.985000", "180136.445000", "180136.905000", "180137.365000", "180137.825000", "180138.285000", "180138.745000", "180139.205000", "180139.665000", "180140.125000", "180140.585000", "180141.045000", "180141.505000", "180141.965000", "180142.425000", "180142.885000", "180143.345000", "180143.805000", "180144.265000", "180144.725000", "180145.185000", "180145.645000", "180146.105000", "180146.565000", "180147.025000", "180147.485000", "180147.945000", "180148.405000", "180148.865000", "180149.325000", "180149.785000", "180150.245000", "180150.705000", "180151.165000", "180151.625000", "180152.085000", "180152.545000", "180153.005000", "180153.465000", "180153.925000", "180154.385000", "180154.845000", "180155.305000", "180155.765000", "180156.225000", "180156.685000", "180157.145000", "180157.605000", "180158.065000", "180158.525000", "180158.985000", "180159.445000", "180159.905000", "180200.365000", "180200.825000", "180201.285000", "180201.745000", "180202.205000", "180202.665000", "180203.125000", "180203.585000", "180204.045000", "180204.505000", "180204.965000", "180205.425000", "180205.885000", "180206.345000", "180206.805000", "180207.265000", "180207.725000", "180208.185000", "180208.645000", "180209.105000", "180209.565000", "180210.025000", "180210.485000", "180210.945000", "180211.405000", "180211.865000", "180212.325000", "180212.785000", "180213.245000", "180213.705000", "180214.165000", "180214.625000", "180215.085000", "180215.545000", "180216.005000", "180216.465000", "180216.925000", "180217.385000", "180217.845000", "180218.305000", "180218.765000", "180219.225000", "180219.685000", "180220.145000", "180220.605000", "180221.065000", "180221.525000", "180221.985000", "180222.445000", "180222.905000", "180223.365000", "180223.825000", "180224.285000", "180224.745000", "180225.205000", "180225.665000", "180226.125000", "180226.585000", "180227.045000", "180227.505000", "180227.965000", "180228.425000", "180228.885000", "180229.345000", "180229.805000", "180230.265000", "180230.725000", "180231.185000", "180231.645000", "180232.105000", "180232.565000", "180233.025000", "180233.485000", "180233.945000", "180234.405000", "180234.865000", "180235.325000", "180235.785000", "180236.245000", "180236.705000", "180237.165000", "180237.625000", "180238.085000", "180238.545000", "180239.005000", "180239.465000", "180239.925000", "180240.385000", "180240.845000", "180241.305000", "180241.765000", "180242.225000", "180242.685000", "180243.145000", "180243.605000", "180244.065000", "180244.525000", "180244.985000", "180245.445000", "180245.905000", "180246.365000", "180246.825000", "180247.285000", "180247.745000"],
