{
  "AcquisitionMatrixPE": 82,
  "AcquisitionNumber": 1,
  "AcquisitionTime": "16:20:7.625000",
  "BandwidthPerPixelPhaseEncode": 24.888,
  "BaseResolution": 82,
  "BodyPartExamined": "BRAIN",
  "ConsistencyInfo": "N4_VE11E_LATEST_20181129",
  "ConversionSoftware": "dcm2niix",
  "ConversionSoftwareVersion": "v1.0.20201102",
  "DerivedVendorReportedEchoSpacing": 0.00049,
  "DeviceSerialNumber": "66112",
  "DwellTime": 2e-06,
  "EchoTime": 0.0272,
  "EchoTrainLength": 82,
  "EffectiveEchoSpacing": 0.00049,
  "FlipAngle": 44,
  "ImageComments": "Unaliased MB8/PE3",
  "ImageOrientationPatientDICOM": [0.999881, -0.0103992, 0.0113549, 0.00698058, 0.963479, 0.267693],
  "ImageType": [
    "ORIGINAL",
    "PRIMARY",
    "M",
    "MB",
    "ND",
    "NORM",
    "MOSAIC"
],
  "ImagingFrequency": 123.259,
  "InPlanePhaseEncodingDirectionDICOM": "COL",
  "InstitutionAddress": "Maynard 3,Hanover,NH,US,03755",
  "InstitutionName": "Dartmouth College - PBS",
  "InstitutionalDepartmentName": "Department",
  "MRAcquisitionType": "2D",
  "MagneticFieldStrength": 3,
  "Manufacturer": "Siemens",
  "ManufacturersModelName": "Prisma",
  "Modality": "MR",
  "MultibandAccelerationFactor": 8,
  "PartialFourier": 1,
  "PatientPosition": "HFS",
  "PercentPhaseFOV": 100,
  "PercentSampling": 100,
  "PhaseEncodingDirection": "j-",
  "PhaseEncodingSteps": 82,
  "PhaseResolution": 1,
  "PixelBandwidth": 3050,
  "ProcedureStepDescription": "Wager_Wager^1076_spacetop",
  "ProtocolName": "func_run-05_task-social_acq-ap-mb8",
  "PulseSequenceDetails": "%CustomerSeq%\\cmrr_mbep2d_bold",
  "ReceiveCoilActiveElements": "HEA;HEP",
  "ReceiveCoilName": "Head_32",
  "ReconMatrixPE": 82,
  "RepetitionTime": 0.46,
  "SAR": 0.102831,
  "ScanOptions": "FS",
  "ScanningSequence": "EP",
  "SequenceName": "epfid2d1_82",
  "SequenceVariant": "SK\\SS",
  "SeriesDescription": "func_run-05_task-social_acq-ap-mb8",
  "SeriesNumber": 24,
  "ShimSetting": [4243, -7849, -7180, 377, -76, -244, 21, 68],
  "SliceThickness": 2.7,
  "SliceTiming": [0, 0.25, 0.0625, 0.3125, 0.125, 0.375, 0.1875, 0, 0.25, 0.0625, 0.3125, 0.125, 0.375, 0.1875, 0, 0.25, 0.0625, 0.3125, 0.125, 0.375, 0.1875, 0, 0.25, 0.0625, 0.3125, 0.125, 0.375, 0.1875, 0, 0.25, 0.0625, 0.3125, 0.125, 0.375, 0.1875, 0, 0.25, 0.0625, 0.3125, 0.125, 0.375, 0.1875, 0, 0.25, 0.0625, 0.3125, 0.125, 0.375, 0.1875, 0, 0.25, 0.0625, 0.3125, 0.125, 0.375, 0.1875],
  "SoftwareVersions": "syngo MR E11",
  "SpacingBetweenSlices": 2.7,
  "StationName": "AWP66112",
  "TaskName": "social",
  "TotalReadoutTime": 0.03969,
  "TxRefAmp": 222.861,
  "WipMemBlock": "6c6f56bd-3b11-437f-afdc-ee9ce074e25c||Sequence: R016 ve11e/master r/434b28f1; Aug  7 2019 18:53:46 by eja",
  "dcmmeta_affine": [
    [-2.6826088428497314, 0.018728386610746384, 0.037054918706417084, 110.93649291992188],
    [0.027900254353880882, 2.5849432945251465, 0.7224722504615784, -104.45073699951172],
    [0.03046449087560177, -0.7182015776634216, 2.601280689239502, -17.939254760742188],
    [0.0, 0.0, 0.0, 1.0]
],
  "dcmmeta_reorient_transform": [
    [0.0, -1.0, 0.0, 81.0],
    [1.0, 0.0, 0.0, 0.0],
    [0.0, 0.0, 1.0, 0.0],
    [0.0, 0.0, 0.0, 1.0]
],
  "dcmmeta_shape": [82, 82, 56, 872],
  "dcmmeta_slice_dim": 2,
  "dcmmeta_version": 0.6,
  "global": {
    "const": {
      "AccessionNumber": "A004353",
      "AcquisitionMatrix": [82, 0, 0, 82],
      "AngioFlag": "N",
      "BitsAllocated": 16,
      "BitsStored": 16,
      "BodyPartExamined": "BRAIN",
      "Columns": 656,
      "EchoNumbers": 1,
      "EchoTime": 27.2,
      "EchoTrainLength": 82,
      "FlipAngle": 44.0,
      "HighBit": 15,
      "ImageOrientationPatient": [0.99988145403788, -0.0103991856696, 0.01135494643344, 0.0069805800392, 0.9634788836731, 0.26769331747049],
      "ImagePositionPatient": [-887.73727708916, -838.80106271467, -290.9807520159],
      "ImageType": [
        "ORIGINAL",
        "PRIMARY",
        "M",
        "MB",
        "ND",
        "NORM",
        "MOSAIC"
],
      "ImagedNucleus": "1H",
      "ImagingFrequency": 123.259073,
      "InPlanePhaseEncodingDirection": "COL",
      "MRAcquisitionType": "2D",
      "MagneticFieldStrength": 3.0,
      "Manufacturer": "SIEMENS",
      "ManufacturerModelName": "Prisma",
      "Modality": "MR",
      "NumberOfAverages": 1.0,
      "NumberOfPhaseEncodingSteps": 82,
      "PercentPhaseFieldOfView": 100.0,
      "PercentSampling": 100.0,
      "PerformedProcedureStepStartTime": "150924.669000",
      "PhotometricInterpretation": "MONOCHROME2",
      "PixelBandwidth": 3050.0,
      "PixelRepresentation": 0,
      "PixelSpacing": [2.6829268932343, 2.6829268932343],
      "ProtocolName": "func_run-05_task-social_acq-ap-mb8",
      "RepetitionTime": 460.0,
      "Rows": 656,
      "SAR": 0.10283109793306,
      "SamplesPerPixel": 1,
      "ScanOptions": "FS",
      "ScanningSequence": "EP",
      "SequenceName": "epfid2d1_82",
      "SequenceVariant": [
        "SK",
        "SS"
],
      "SeriesDescription": "func_run-05_task-social_acq-ap-mb8",
      "SeriesNumber": 24,
      "SeriesTime": "162031.709000",
      "SliceLocation": -43.710019295192,
      "SliceThickness": 2.7000000476837,
      "SmallestImagePixelValue": 0,
      "SoftwareVersions": "syngo MR E11",
      "SpacingBetweenSlices": 2.7000000384255,
      "SpecificCharacterSet": "ISO_IR 100",
      "StudyID": "1",
      "StudyTime": "150924.610000",
      "TransmitCoilName": "Body",
      "VariableFlipAngleFlag": "N",
      "WindowCenterWidthExplanation": "Algo1"
    },
    "slices": {}
  },
  "time": {
    "samples": {
      "AcquisitionNumber": [1, 2, 3, 4, 5, 6, 7, 8, 9, 10, 11, 12, 13, 14, 15, 16, 17, 18, 19, 20, 21, 22, 23, 24, 25, 26, 27, 28, 29, 30, 31, 32, 33, 34, 35, 36, 37, 38, 39, 40, 41, 42, 43, 44, 45, 46, 47, 48, 49, 50, 51, 52, 53, 54, 55, 56, 57, 58, 59, 60, 61, 62, 63, 64, 65, 66, 67, 68, 69, 70, 71, 72, 73, 74, 75, 76, 77, 78, 79, 80, 81, 82, 83, 84, 85, 86, 87, 88, 89, 90, 91, 92, 93, 94, 95, 96, 97, 98, 99, 100, 101, 102, 103, 104, 105, 106, 107, 108, 109, 110, 111, 112, 113, 114, 115, 116, 117, 118, 119, 120, 121, 122, 123, 124, 125, 126, 127, 128, 129, 130, 131, 132, 133, 134, 135, 136, 137, 138, 139, 140, 141, 142, 143, 144, 145, 146, 147, 148, 149, 150, 151, 152, 153, 154, 155, 156, 157, 158, 159, 160, 161, 162, 163, 164, 165, 166, 167, 168, 169, 170, 171, 172, 173, 174, 175, 176, 177, 178, 179, 180, 181, 182, 183, 184, 185, 186, 187, 188, 189, 190, 191, 192, 193, 194, 195, 196, 197, 198, 199, 200, 201, 202, 203, 204, 205, 206, 207, 208, 209, 210, 211, 212, 213, 214, 215, 216, 217, 218, 219, 220, 221, 222, 223, 224, 225, 226, 227, 228, 229, 230, 231, 232, 233, 234, 235, 236, 237, 238, 239, 240, 241, 242, 243, 244, 245, 246, 247, 248, 249, 250, 251, 252, 253, 254, 255, 256, 257, 258, 259, 260, 261, 262, 263, 264, 265, 266, 267, 268, 269, 270, 271, 272, 273, 274, 275, 276, 277, 278, 279, 280, 281, 282, 283, 284, 285, 286, 287, 288, 289, 290, 291, 292, 293, 294, 295, 296, 297, 298, 299, 300, 301, 302, 303, 304, 305, 306, 307, 308, 309, 310, 311, 312, 313, 314, 315, 316, 317, 318, 319, 320, 321, 322, 323, 324, 325, 326, 327, 328, 329, 330, 331, 332, 333, 334, 335, 336, 337, 338, 339, 340, 341, 342, 343, 344, 345, 346, 347, 348, 349, 350, 351, 352, 353, 354, 355, 356, 357, 358, 359, 360, 361, 362, 363, 364, 365, 366, 367, 368, 369, 370, 371, 372, 373, 374, 375, 376, 377, 378, 379, 380, 381, 382, 383, 384, 385, 386, 387, 388, 389, 390, 391, 392, 393, 394, 395, 396, 397, 398, 399, 400, 401, 402, 403, 404, 405, 406, 407, 408, 409, 410, 411, 412, 413, 414, 415, 416, 417, 418, 419, 420, 421, 422, 423, 424, 425, 426, 427, 428, 429, 430, 431, 432, 433, 434, 435, 436, 437, 438, 439, 440, 441, 442, 443, 444, 445, 446, 447, 448, 449, 450, 451, 452, 453, 454, 455, 456, 457, 458, 459, 460, 461, 462, 463, 464, 465, 466, 467, 468, 469, 470, 471, 472, 473, 474, 475, 476, 477, 478, 479, 480, 481, 482, 483, 484, 485, 486, 487, 488, 489, 490, 491, 492, 493, 494, 495, 496, 497, 498, 499, 500, 501, 502, 503, 504, 505, 506, 507, 508, 509, 510, 511, 512, 513, 514, 515, 516, 517, 518, 519, 520, 521, 522, 523, 524, 525, 526, 527, 528, 529, 530, 531, 532, 533, 534, 535, 536, 537, 538, 539, 540, 541, 542, 543, 544, 545, 546, 547, 548, 549, 550, 551, 552, 553, 554, 555, 556, 557, 558, 559, 560, 561, 562, 563, 564, 565, 566, 567, 568, 569, 570, 571, 572, 573, 574, 575, 576, 577, 578, 579, 580, 581, 582, 583, 584, 585, 586, 587, 588, 589, 590, 591, 592, 593, 594, 595, 596, 597, 598, 599, 600, 601, 602, 603, 604, 605, 606, 607, 608, 609, 610, 611, 612, 613, 614, 615, 616, 617, 618, 619, 620, 621, 622, 623, 624, 625, 626, 627, 628, 629, 630, 631, 632, 633, 634, 635, 636, 637, 638, 639, 640, 641, 642, 643, 644, 645, 646, 647, 648, 649, 650, 651, 652, 653, 654, 655, 656, 657, 658, 659, 660, 661, 662, 663, 664, 665, 666, 667, 668, 669, 670, 671, 672, 673, 674, 675, 676, 677, 678, 679, 680, 681, 682, 683, 684, 685, 686, 687, 688, 689, 690, 691, 692, 693, 694, 695, 696, 697, 698, 699, 700, 701, 702, 703, 704, 705, 706, 707, 708, 709, 710, 711, 712, 713, 714, 715, 716, 717, 718, 719, 720, 721, 722, 723, 724, 725, 726, 727, 728, 729, 730, 731, 732, 733, 734, 735, 736, 737, 738, 739, 740, 741, 742, 743, 744, 745, 746, 747, 748, 749, 750, 751, 752, 753, 754, 755, 756, 757, 758, 759, 760, 761, 762, 763, 764, 765, 766, 767, 768, 769, 770, 771, 772, 773, 774, 775, 776, 777, 778, 779, 780, 781, 782, 783, 784, 785, 786, 787, 788, 789, 790, 791, 792, 793, 794, 795, 796, 797, 798, 799, 800, 801, 802, 803, 804, 805, 806, 807, 808, 809, 810, 811, 812, 813, 814, 815, 816, 817, 818, 819, 820, 821, 822, 823, 824, 825, 826, 827, 828, 829, 830, 831, 832, 833, 834, 835, 836, 837, 838, 839, 840, 841, 842, 843, 844, 845, 846, 847, 848, 849, 850, 851, 852, 853, 854, 855, 856, 857, 858, 859, 860, 861, 862, 863, 864, 865, 866, 867, 868, 869, 870, 871, 872],
      "AcquisitionTime": ["162007.625000", "162008.085000", "162008.545000", "162009.005000", "162009.465000", "162009.925000", "162010.385000", "162010.845000", "162011.305000", "162011.765000", "162012.225000", "162012.685000", "162013.145000", "162013.605000", "162014.065000", "162014.525000", "162014.985000", "162015.445000", "162015.905000", "162016.365000", "162016.825000", "162017.285000", "162017.745000", "162018.205000", "162018.665000", "162019.125000", "162019.585000", "162020.045000", "162020.505000", "162020.965000", "162021.425000", "162021.885000", "162022.345000", "162022.805000", "162023.265000", "162023.725000", "162024.185000", "162024.645000", "162025.105000", "162025.565000", "162026.025000", "162026.485000", "162026.945000", "162027.405000", "162027.865000", "162028.325000", "162028.785000", "162029.245000", "162029.705000", "162030.165000", "162030.625000", "162031.085000", "162031.545000", "162032.005000", "162032.465000", "162032.925000", "162033.385000", "162033.845000", "162034.305000", "162034.765000", "162035.225000", "162035.685000", "162036.145000", "162036.605000", "162037.065000", "162037.525000", "162037.985000", "162038.445000", "162038.905000", "162039.365000", "162039.825000", "162040.285000", "162040.745000", "162041.205000", "162041.665000", "162042.125000", "162042.585000", "162043.045000", "162043.505000", "162043.965000", "162044.425000", "162044.885000", "162045.345000", "162045.805000", "162046.265000", "162046.725000", "162047.185000", "162047.645000", "162048.105000", "162048.565000", "162049.025000", "162049.485000", "162049.945000", "162050.405000", "162050.865000", "162051.325000", "162051.785000", "162052.245000", "162052.705000", "162053.165000", "162053.625000", "162054.085000", "162054.545000", "162055.005000", "162055.465000", "162055.925000", "162056.385000", "162056.845000", "162057.305000", "162057.765000", "162058.225000", "162058.685000", "162059.145000", "162059.605000", "162100.065000", "162100.525000", "162100.985000", "162101.445000", "162101.905000", "162102.365000", "162102.825000", "162103.285000", "162103.745000", "162104.205000", "162104.665000", "162105.125000", "162105.585000", "162106.045000", "162106.505000", "162106.965000", "162107.425000", "162107.885000", "162108.345000", "162108.805000", "162109.265000", "162109.725000", "162110.185000", "162110.645000", "162111.105000", "162111.565000", "162112.025000", "162112.485000", "162112.945000", "162113.405000", "162113.865000", "162114.325000", "162114.785000", "162115.245000", "162115.705000", "162116.165000", "162116.625000", "162117.085000", "162117.545000", "162118.005000", "162118.465000", "162118.925000", "162119.385000", "162119.845000", "162120.305000", "162120.765000", "162121.225000", "162121.685000", "162122.145000", "162122.605000", "162123.065000", "162123.525000", "162123.985000", "162124.445000", "162124.905000", "162125.365000", "162125.825000", "162126.285000", "162126.745000", "162127.205000", "162127.665000", "162128.125000", "162128.585000", "162129.045000", "162129.505000", "162129.965000", "162130.425000", "162130.885000", "162131.345000", "162131.805000", "162132.265000", "162132.725000", "162133.185000", "162133.645000", "162134.105000", "162134.565000", "162135.025000", "162135.485000", "162135.945000", "162136.405000", "162136.865000", "162137.325000", "162137.785000", "162138.245000", "162138.705000", "162139.165000", "162139.625000", "162140.085000", "162140.545000", "162141.005000", "162141.465000", "162141.925000", "162142.385000", "162142.845000", "162143.305000", "162143.765000", "162144.225000", "162144.685000", "162145.145000", "162145.605000", "162146.065000", "162146.525000", "162146.985000", "162147.445000", "162147.905000", "162148.365000", "162148.825000", "162149.285000", "162149.745000", "162150.205000", "162150.665000", "162151.125000", "162151.585000", "162152.045000", "162152.505000", "162152.965000", "162153.425000", "162153.885000", "162154.345000", "162154.805000", "162155.265000", "162155.725000", "162156.185000", "162156.645000", "162157.105000", "162157.565000", "162158.025000", "162158.485000", "162158.945000", "162159.405000", "162159.865000", "162200.325000", "162200.785000", "162201.245000", "162201.705000", "162202.165000", "162202.625000", "162203.085000", "162203.545000", "162204.005000", "162204.465000", "162204.925000", "162205.385000", "162205.845000", "162206.305000", "162206.765000", "162207.225000", "162207.685000", "162208.145000", "162208.605000", "162209.065000", "162209.525000", "162209.985000", "162210.445000", "162210.905000", "162211.365000", "162211.825000", "162212.285000", "162212.745000", "162213.205000", "162213.665000", "162214.125000", "162214.585000", "162215.045000", "162215.505000", "162215.965000", "162216.425000", "162216.885000", "162217.345000", "162217.805000", "162218.265000", "162218.725000", "162219.185000", "162219.645000", "162220.105000", "162220.565000", "162221.025000", "162221.485000", "162221.945000", "162222.405000", "162222.865000", "162223.325000", "162223.785000", "162224.245000", "162224.705000", "162225.165000", "162225.625000", "162226.085000", "162226.545000", "162227.005000", "162227.465000", "162227.925000", "162228.385000", "162228.845000", "162229.305000", "162229.765000", "162230.225000", "162230.685000", "162231.145000", "162231.605000", "162232.065000", "162232.525000", "162232.985000", "162233.445000", "162233.905000", "162234.365000", "162234.825000", "162235.285000", "162235.745000", "162236.205000", "162236.665000", "162237.125000", "162237.585000", "162238.045000", "162238.505000", "162238.965000", "162239.425000", "162239.885000", "162240.345000", "162240.805000", "162241.265000", "162241.725000", "162242.185000", "162242.645000", "162243.105000", "162243.565000", "162244.025000", "162244.485000", "162244.945000", "162245.405000", "162245.865000", "162246.325000", "162246.785000", "162247.245000", "162247.705000", "162248.165000", "162248.625000", "162249.085000", "162249.545000", "162250.005000", "162250.465000", "162250.925000", "162251.385000", "162251.845000", "162252.305000", "162252.765000", "162253.225000", "162253.685000", "162254.145000", "162254.605000", "162255.065000", "162255.525000", "162255.985000", "162256.445000", "162256.905000", "162257.365000", "162257.825000", "162258.285000", "162258.745000", "162259.205000", "162259.665000", "162300.125000", "162300.585000", "162301.045000", "162301.505000", "162301.965000", "162302.425000", "162302.885000", "162303.345000", "162303.805000", "162304.265000", "162304.725000", "162305.185000", "162305.645000", "162306.105000", "162306.565000", "162307.025000", "162307.485000", "162307.945000", "162308.405000", "162308.865000", "162309.325000", "162309.785000", "162310.245000", "162310.705000", "162311.165000", "162311.625000", "162312.085000", "162312.545000", "162313.005000", "162313.465000", "162313.925000", "162314.385000", "162314.845000", "162315.305000", "162315.765000", "162316.225000", "162316.685000", "162317.145000", "162317.605000", "162318.065000", "162318.525000", "162318.985000", "162319.445000", "162319.905000", "162320.365000", "162320.825000", "162321.285000", "162321.745000", "162322.205000", "162322.665000", "162323.125000", "162323.585000", "162324.045000", "162324.505000", "162324.965000", "162325.425000", "162325.885000", "162326.345000", "162326.805000", "162327.265000", "162327.725000", "162328.185000", "162328.645000", "162329.105000", "162329.565000", "162330.025000", "162330.485000", "162330.945000", "162331.405000", "162331.865000", "162332.325000", "162332.785000", "162333.245000", "162333.705000", "162334.165000", "162334.625000", "162335.085000", "162335.545000", "162336.005000", "162336.465000", "162336.925000", "162337.385000", "162337.845000", "162338.305000", "162338.765000", "162339.225000", "162339.685000", "162340.145000", "162340.605000", "162341.065000", "162341.525000", "162341.985000", "162342.445000", "162342.905000", "162343.365000", "162343.825000", "162344.285000", "162344.745000", "162345.205000", "162345.665000", "162346.125000", "162346.585000", "162347.045000", "162347.505000", "162347.965000", "162348.425000", "162348.885000", "162349.345000", "162349.805000", "162350.265000", "162350.725000", "162351.185000", "162351.645000", "162352.105000", "162352.565000", "162353.025000", "162353.485000", "162353.945000", "162354.405000", "162354.865000", "162355.325000", "162355.785000", "162356.245000", "162356.705000", "162357.165000", "162357.625000", "162358.085000", "162358.545000", "162359.005000", "162359.465000", "162359.925000", "162400.385000", "162400.845000", "162401.305000", "162401.765000", "162402.225000", "162402.685000", "162403.145000", "162403.605000", "162404.065000", "162404.525000", "162404.985000", "162405.445000", "162405.905000", "162406.365000", "162406.825000", "162407.285000", "162407.745000", "162408.205000", "162408.665000", "162409.125000", "162409.585000", "162410.045000", "162410.505000", "162410.965000", "162411.425000", "162411.885000", "162412.345000", "162412.805000", "162413.265000", "162413.725000", "162414.185000", "162414.645000", "162415.105000", "162415.565000", "162416.025000", "162416.485000", "162416.945000", "162417.405000", "162417.865000", "162418.325000", "162418.785000", "162419.245000", "162419.705000", "162420.165000", "162420.625000", "162421.085000", "162421.545000", "162422.005000", "162422.465000", "162422.925000", "162423.385000", "162423.845000", "162424.305000", "162424.765000", "162425.225000", "162425.685000", "162426.145000", "162426.605000", "162427.065000", "162427.525000", "162427.985000", "162428.445000", "162428.905000", "162429.365000", "162429.825000", "162430.285000", "162430.745000", "162431.205000", "162431.665000", "162432.125000", "162432.585000", "162433.045000", "162433.505000", "162433.965000", "162434.425000", "162434.885000", "162435.345000", "162435.805000", "162436.265000", "162436.725000", "162437.185000", "162437.645000", "162438.105000", "162438.565000", "162439.025000", "162439.485000", "162439.945000", "162440.405000", "162440.865000", "162441.325000", "162441.785000", "162442.245000", "162442.705000", "162443.165000", "162443.625000", "162444.085000", "162444.545000", "162445.005000", "162445.465000", "162445.925000", "162446.385000", "162446.845000", "162447.305000", "162447.765000", "162448.225000", "162448.685000", "162449.145000", "162449.605000", "162450.065000", "162450.525000", "162450.985000", "162451.445000", "162451.905000", "162452.365000", "162452.825000", "162453.285000", "162453.745000", "162454.205000", "162454.665000", "162455.125000", "162455.585000", "162456.045000", "162456.505000", "162456.965000", "162457.425000", "162457.885000", "162458.345000", "162458.805000", "162459.265000", "162459.725000", "162500.185000", "162500.645000", "162501.105000", "162501.565000", "162502.025000", "162502.485000", "162502.945000", "162503.405000", "162503.865000", "162504.325000", "162504.785000", "162505.245000", "162505.705000", "162506.165000", "162506.625000", "162507.085000", "162507.545000", "162508.005000", "162508.465000", "162508.925000", "162509.385000", "162509.845000", "162510.305000", "162510.765000", "162511.225000", "162511.685000", "162512.145000", "162512.605000", "162513.065000", "162513.525000", "162513.985000", "162514.445000", "162514.905000", "162515.365000", "162515.825000", "162516.285000", "162516.745000", "162517.205000", "162517.665000", "162518.125000", "162518.585000", "162519.045000", "162519.505000", "162519.965000", "162520.425000", "162520.885000", "162521.345000", "162521.805000", "162522.265000", "162522.725000", "162523.185000", "162523.645000", "162524.105000", "162524.565000", "162525.025000", "162525.485000", "162525.945000", "162526.405000", "162526.865000", "162527.325000", "162527.785000", "162528.245000", "162528.705000", "162529.165000", "162529.625000", "162530.085000", "162530.545000", "162531.005000", "162531.465000", "162531.925000", "162532.385000", "162532.845000", "162533.305000", "162533.765000", "162534.225000", "162534.685000", "162535.145000", "162535.605000", "162536.065000", "162536.525000", "162536.985000", "162537.445000", "162537.905000", "162538.365000", "162538.825000", "162539.285000", "162539.745000", "162540.205000", "162540.665000", "162541.125000", "162541.585000", "162542.045000", "162542.505000", "162542.965000", "162543.425000", "162543.885000", "162544.345000", "162544.805000", "162545.265000", "162545.725000", "162546.185000", "162546.645000", "162547.105000", "162547.565000", "162548.025000", "162548.485000", "162548.945000", "162549.405000", "162549.865000", "162550.325000", "162550.785000", "162551.245000", "162551.705000", "162552.165000", "162552.625000", "162553.085000", "162553.545000", "162554.005000", "162554.465000", "162554.925000", "162555.385000", "162555.845000", "162556.305000", "162556.765000", "162557.225000", "162557.685000", "162558.145000", "162558.605000", "162559.065000", "162559.525000", "162559.985000", "162600.445000", "162600.905000", "162601.365000", "162601.825000", "162602.285000", "162602.745000", "162603.205000", "162603.665000", "162604.125000", "162604.585000", "162605.045000", "162605.505000", "162605.965000", "162606.425000", "162606.885000", "162607.345000", "162607.805000", "162608.265000", "162608.725000", "162609.185000", "162609.645000", "162610.105000", "162610.565000", "162611.025000", "162611.485000", "162611.945000", "162612.405000", "162612.865000", "162613.325000", "162613.785000", "162614.245000", "162614.705000", "162615.165000", "162615.625000", "162616.085000", "162616.545000", "162617.005000", "162617.465000", "162617.925000", "162618.385000", "162618.845000", "162619.305000", "162619.765000", "162620.225000", "162620.685000", "162621.145000", "162621.605000", "162622.065000", "162622.525000", "162622.985000", "162623.445000", "162623.905000", "162624.365000", "162624.825000", "162625.285000", "162625.745000", "162626.205000", "162626.665000", "162627.125000", "162627.585000", "162628.045000", "162628.505000", "162628.965000", "162629.425000", "162629.885000", "162630.345000", "162630.805000", "162631.265000", "162631.725000", "162632.185000", "162632.645000", "162633.105000", "162633.565000", "162634.025000", "162634.485000", "162634.945000", "162635.405000", "162635.865000", "162636.325000", "162636.785000", "162637.245000", "162637.705000", "162638.165000", "162638.625000", "162639.085000", "162639.545000", "162640.005000", "162640.465000", "162640.925000", "162641.385000", "162641.845000", "162642.305000", "162642.765000", "162643.225000", "162643.685000", "162644.145000", "162644.605000", "162645.065000", "162645.525000", "162645.985000", "162646.445000", "162646.905000", "162647.365000", "162647.825000", "162648.285000"],
