{
  "AcquisitionMatrixPE": 82,
  "AcquisitionNumber": 1,
  "AcquisitionTime": "16:47:49.625000",
  "BandwidthPerPixelPhaseEncode": 24.888,
  "BaseResolution": 82,
  "BodyPartExamined": "BRAIN",
  "ConsistencyInfo": "N4_VE11E_LATEST_20181129",
  "ConversionSoftware": "dcm2niix",
  "ConversionSoftwareVersion": "v1.0.20201102",
  "DerivedVendorReportedEchoSpacing": 0.00049,
  "DeviceSerialNumber": "66112",
  "DwellTime": 2e-06,
  "EchoTime": 0.0272,
  "EchoTrainLength": 82,
  "EffectiveEchoSpacing": 0.00049,
  "FlipAngle": 44,
  "ImageComments": "Unaliased MB8/PE3",
  "ImageOrientationPatientDICOM": [0.999952, -0.00334601, -0.00916788, 0.00541033, 0.971883, 0.235403],
  "ImageType": [
    "ORIGINAL",
    "PRIMARY",
    "M",
    "MB",
    "ND",
    "NORM",
    "MOSAIC"
],
  "ImagingFrequency": 123.259,
  "InPlanePhaseEncodingDirectionDICOM": "COL",
  "InstitutionAddress": "Maynard 3,Hanover,NH,US,03755",
  "InstitutionName": "Dartmouth College - PBS",
  "InstitutionalDepartmentName": "Department",
  "MRAcquisitionType": "2D",
  "MagneticFieldStrength": 3,
  "Manufacturer": "Siemens",
  "ManufacturersModelName": "Prisma",
  "Modality": "MR",
  "MultibandAccelerationFactor": 8,
  "PartialFourier": 1,
  "PatientPosition": "HFS",
  "PercentPhaseFOV": 100,
  "PercentSampling": 100,
  "PhaseEncodingDirection": "j-",
  "PhaseEncodingSteps": 82,
  "PhaseResolution": 1,
  "PixelBandwidth": 3050,
  "ProcedureStepDescription": "Wager_Wager^1076_spacetop",
  "ProtocolName": "func_run-02_task-alignvideo_acq-ap-mb8",
  "PulseSequenceDetails": "%CustomerSeq%\\cmrr_mbep2d_bold",
  "ReceiveCoilActiveElements": "HEA;HEP",
  "ReceiveCoilName": "Head_32",
  "ReconMatrixPE": 82,
  "RepetitionTime": 0.46,
  "SAR": 0.102868,
  "ScanOptions": "FS",
  "ScanningSequence": "EP",
  "SequenceName": "epfid2d1_82",
  "SequenceVariant": "SK\\SS",
  "SeriesDescription": "func_run-02_task-alignvideo_acq-ap-mb8",
  "SeriesNumber": 36,
  "ShimSetting": [4243, -7854, -7181, 374, -75, -265, 19, 67],
  "SliceThickness": 2.7,
  "SliceTiming": [0, 0.2525, 0.0625, 0.315, 0.125, 0.3775, 0.19, 0, 0.2525, 0.0625, 0.315, 0.125, 0.3775, 0.19, 0, 0.2525, 0.0625, 0.315, 0.125, 0.3775, 0.19, 0, 0.2525, 0.0625, 0.315, 0.125, 0.3775, 0.19, 0, 0.2525, 0.0625, 0.315, 0.125, 0.3775, 0.19, 0, 0.2525, 0.0625, 0.315, 0.125, 0.3775, 0.19, 0, 0.2525, 0.0625, 0.315, 0.125, 0.3775, 0.19, 0, 0.2525, 0.0625, 0.315, 0.125, 0.3775, 0.19],
  "SoftwareVersions": "syngo MR E11",
  "SpacingBetweenSlices": 2.7,
  "StationName": "AWP66112",
  "TaskName": "alignvideo",
  "TotalReadoutTime": 0.03969,
  "TxRefAmp": 222.861,
  "WipMemBlock": "ac2d2fe0-6ad0-4956-8979-4f9c4d4bcc97||Sequence: R016 ve11e/master r/434b28f1; Aug  7 2019 18:53:46 by eja",
  "dcmmeta_affine": [
    [-2.6827991008758545, 0.0145155293866992, -0.021930603310465813, 113.03199005126953],
    [0.008977105841040611, 2.6074905395507812, 0.6356909871101379, -104.07601165771484],
    [-0.02459675259888172, -0.6315683126449585, 2.6240077018737793, -22.23416519165039],
    [0.0, 0.0, 0.0, 1.0]
],
  "dcmmeta_reorient_transform": [
    [0.0, -1.0, 0.0, 81.0],
    [1.0, 0.0, 0.0, 0.0],
    [0.0, 0.0, 1.0, 0.0],
    [0.0, 0.0, 0.0, 1.0]
],
  "dcmmeta_shape": [82, 82, 56, 926],
  "dcmmeta_slice_dim": 2,
  "dcmmeta_version": 0.6,
  "global": {
    "const": {
      "AccessionNumber": "A004353",
      "AcquisitionMatrix": [82, 0, 0, 82],
      "AngioFlag": "N",
      "BitsAllocated": 16,
      "BitsStored": 16,
      "BodyPartExamined": "BRAIN",
      "Columns": 656,
      "EchoNumbers": 1,
      "EchoTime": 27.2,
      "EchoTrainLength": 82,
      "FlipAngle": 44.0,
      "HighBit": 15,
      "ImageOrientationPatient": [0.99995237595161, -0.0033460121084, -0.0091678804371, 0.00541033352015, 0.97188285527248, 0.23540272708407],
      "ImagePositionPatient": [-888.3370538248, -852.90411490441, -247.59203326031],
      "ImageType": [
        "ORIGINAL",
        "PRIMARY",
        "M",
        "MB",
        "ND",
        "NORM",
        "MOSAIC"
],
      "ImagedNucleus": "1H",
      "ImagingFrequency": 123.259074,
      "InPlanePhaseEncodingDirection": "COL",
      "MRAcquisitionType": "2D",
      "MagneticFieldStrength": 3.0,
      "Manufacturer": "SIEMENS",
      "ManufacturerModelName": "Prisma",
      "Modality": "MR",
      "NumberOfAverages": 1.0,
      "NumberOfPhaseEncodingSteps": 82,
      "PercentPhaseFieldOfView": 100.0,
      "PercentSampling": 100.0,
      "PerformedProcedureStepStartTime": "150924.669000",
      "PhotometricInterpretation": "MONOCHROME2",
      "PixelBandwidth": 3050.0,
      "PixelRepresentation": 0,
      "PixelSpacing": [2.6829268932343, 2.6829268932343],
      "ProtocolName": "func_run-02_task-alignvideo_acq-ap-mb8",
      "RepetitionTime": 460.0,
      "Rows": 656,
      "SAR": 0.10286834430439,
      "SamplesPerPixel": 1,
      "ScanOptions": "FS",
      "ScanningSequence": "EP",
      "SequenceName": "epfid2d1_82",
      "SequenceVariant": [
        "SK",
        "SS"
],
      "SeriesDescription": "func_run-02_task-alignvideo_acq-ap-mb8",
      "SeriesNumber": 36,
      "SeriesTime": "164811.714000",
      "SliceLocation": -47.030245882022,
      "SliceThickness": 2.7000000476837,
      "SmallestImagePixelValue": 0,
      "SoftwareVersions": "syngo MR E11",
      "SpacingBetweenSlices": 2.6999999950327,
      "SpecificCharacterSet": "ISO_IR 100",
      "StudyID": "1",
      "StudyTime": "150924.610000",
      "TransmitCoilName": "Body",
      "VariableFlipAngleFlag": "N",
      "WindowCenterWidthExplanation": "Algo1"
    },
    "slices": {}
  },
  "time": {
    "samples": {
      "AcquisitionNumber": [1, 2, 3, 4, 5, 6, 7, 8, 9, 10, 11, 12, 13, 14, 15, 16, 17, 18, 19, 20, 21, 22, 23, 24, 25, 26, 27, 28, 29, 30, 31, 32, 33, 34, 35, 36, 37, 38, 39, 40, 41, 42, 43, 44, 45, 46, 47, 48, 49, 50, 51, 52, 53, 54, 55, 56, 57, 58, 59, 60, 61, 62, 63, 64, 65, 66, 67, 68, 69, 70, 71, 72, 73, 74, 75, 76, 77, 78, 79, 80, 81, 82, 83, 84, 85, 86, 87, 88, 89, 90, 91, 92, 93, 94, 95, 96, 97, 98, 99, 100, 101, 102, 103, 104, 105, 106, 107, 108, 109, 110, 111, 112, 113, 114, 115, 116, 117, 118, 119, 120, 121, 122, 123, 124, 125, 126, 127, 128, 129, 130, 131, 132, 133, 134, 135, 136, 137, 138, 139, 140, 141, 142, 143, 144, 145, 146, 147, 148, 149, 150, 151, 152, 153, 154, 155, 156, 157, 158, 159, 160, 161, 162, 163, 164, 165, 166, 167, 168, 169, 170, 171, 172, 173, 174, 175, 176, 177, 178, 179, 180, 181, 182, 183, 184, 185, 186, 187, 188, 189, 190, 191, 192, 193, 194, 195, 196, 197, 198, 199, 200, 201, 202, 203, 204, 205, 206, 207, 208, 209, 210, 211, 212, 213, 214, 215, 216, 217, 218, 219, 220, 221, 222, 223, 224, 225, 226, 227, 228, 229, 230, 231, 232, 233, 234, 235, 236, 237, 238, 239, 240, 241, 242, 243, 244, 245, 246, 247, 248, 249, 250, 251, 252, 253, 254, 255, 256, 257, 258, 259, 260, 261, 262, 263, 264, 265, 266, 267, 268, 269, 270, 271, 272, 273, 274, 275, 276, 277, 278, 279, 280, 281, 282, 283, 284, 285, 286, 287, 288, 289, 290, 291, 292, 293, 294, 295, 296, 297, 298, 299, 300, 301, 302, 303, 304, 305, 306, 307, 308, 309, 310, 311, 312, 313, 314, 315, 316, 317, 318, 319, 320, 321, 322, 323, 324, 325, 326, 327, 328, 329, 330, 331, 332, 333, 334, 335, 336, 337, 338, 339, 340, 341, 342, 343, 344, 345, 346, 347, 348, 349, 350, 351, 352, 353, 354, 355, 356, 357, 358, 359, 360, 361, 362, 363, 364, 365, 366, 367, 368, 369, 370, 371, 372, 373, 374, 375, 376, 377, 378, 379, 380, 381, 382, 383, 384, 385, 386, 387, 388, 389, 390, 391, 392, 393, 394, 395, 396, 397, 398, 399, 400, 401, 402, 403, 404, 405, 406, 407, 408, 409, 410, 411, 412, 413, 414, 415, 416, 417, 418, 419, 420, 421, 422, 423, 424, 425, 426, 427, 428, 429, 430, 431, 432, 433, 434, 435, 436, 437, 438, 439, 440, 441, 442, 443, 444, 445, 446, 447, 448, 449, 450, 451, 452, 453, 454, 455, 456, 457, 458, 459, 460, 461, 462, 463, 464, 465, 466, 467, 468, 469, 470, 471, 472, 473, 474, 475, 476, 477, 478, 479, 480, 481, 482, 483, 484, 485, 486, 487, 488, 489, 490, 491, 492, 493, 494, 495, 496, 497, 498, 499, 500, 501, 502, 503, 504, 505, 506, 507, 508, 509, 510, 511, 512, 513, 514, 515, 516, 517, 518, 519, 520, 521, 522, 523, 524, 525, 526, 527, 528, 529, 530, 531, 532, 533, 534, 535, 536, 537, 538, 539, 540, 541, 542, 543, 544, 545, 546, 547, 548, 549, 550, 551, 552, 553, 554, 555, 556, 557, 558, 559, 560, 561, 562, 563, 564, 565, 566, 567, 568, 569, 570, 571, 572, 573, 574, 575, 576, 577, 578, 579, 580, 581, 582, 583, 584, 585, 586, 587, 588, 589, 590, 591, 592, 593, 594, 595, 596, 597, 598, 599, 600, 601, 602, 603, 604, 605, 606, 607, 608, 609, 610, 611, 612, 613, 614, 615, 616, 617, 618, 619, 620, 621, 622, 623, 624, 625, 626, 627, 628, 629, 630, 631, 632, 633, 634, 635, 636, 637, 638, 639, 640, 641, 642, 643, 644, 645, 646, 647, 648, 649, 650, 651, 652, 653, 654, 655, 656, 657, 658, 659, 660, 661, 662, 663, 664, 665, 666, 667, 668, 669, 670, 671, 672, 673, 674, 675, 676, 677, 678, 679, 680, 681, 682, 683, 684, 685, 686, 687, 688, 689, 690, 691, 692, 693, 694, 695, 696, 697, 698, 699, 700, 701, 702, 703, 704, 705, 706, 707, 708, 709, 710, 711, 712, 713, 714, 715, 716, 717, 718, 719, 720, 721, 722, 723, 724, 725, 726, 727, 728, 729, 730, 731, 732, 733, 734, 735, 736, 737, 738, 739, 740, 741, 742, 743, 744, 745, 746, 747, 748, 749, 750, 751, 752, 753, 754, 755, 756, 757, 758, 759, 760, 761, 762, 763, 764, 765, 766, 767, 768, 769, 770, 771, 772, 773, 774, 775, 776, 777, 778, 779, 780, 781, 782, 783, 784, 785, 786, 787, 788, 789, 790, 791, 792, 793, 794, 795, 796, 797, 798, 799, 800, 801, 802, 803, 804, 805, 806, 807, 808, 809, 810, 811, 812, 813, 814, 815, 816, 817, 818, 819, 820, 821, 822, 823, 824, 825, 826, 827, 828, 829, 830, 831, 832, 833, 834, 835, 836, 837, 838, 839, 840, 841, 842, 843, 844, 845, 846, 847, 848, 849, 850, 851, 852, 853, 854, 855, 856, 857, 858, 859, 860, 861, 862, 863, 864, 865, 866, 867, 868, 869, 870, 871, 872, 873, 874, 875, 876, 877, 878, 879, 880, 881, 882, 883, 884, 885, 886, 887, 888, 889, 890, 891, 892, 893, 894, 895, 896, 897, 898, 899, 900, 901, 902, 903, 904, 905, 906, 907, 908, 909, 910, 911, 912, 913, 914, 915, 916, 917, 918, 919, 920, 921, 922, 923, 924, 925, 926],
      "AcquisitionTime": ["164749.625000", "164750.085000", "164750.545000", "164751.005000", "164751.465000", "164751.925000", "164752.385000", "164752.845000", "164753.305000", "164753.765000", "164754.225000", "164754.685000", "164755.145000", "164755.605000", "164756.065000", "164756.525000", "164756.985000", "164757.445000", "164757.905000", "164758.365000", "164758.825000", "164759.285000", "164759.745000", "164800.205000", "164800.665000", "164801.125000", "164801.585000", "164802.045000", "164802.505000", "164802.965000", "164803.425000", "164803.885000", "164804.345000", "164804.805000", "164805.265000", "164805.725000", "164806.185000", "164806.645000", "164807.105000", "164807.565000", "164808.025000", "164808.485000", "164808.945000", "164809.405000", "164809.865000", "164810.325000", "164810.785000", "164811.245000", "164811.705000", "164812.165000", "164812.625000", "164813.085000", "164813.545000", "164814.005000", "164814.465000", "164814.925000", "164815.385000", "164815.845000", "164816.305000", "164816.765000", "164817.225000", "164817.685000", "164818.145000", "164818.605000", "164819.065000", "164819.525000", "164819.985000", "164820.445000", "164820.905000", "164821.365000", "164821.825000", "164822.285000", "164822.745000", "164823.205000", "164823.665000", "164824.125000", "164824.585000", "164825.045000", "164825.505000", "164825.965000", "164826.425000", "164826.885000", "164827.345000", "164827.805000", "164828.265000", "164828.725000", "164829.185000", "164829.645000", "164830.105000", "164830.565000", "164831.025000", "164831.485000", "164831.945000", "164832.405000", "164832.865000", "164833.325000", "164833.785000", "164834.245000", "164834.705000", "164835.165000", "164835.625000", "164836.085000", "164836.545000", "164837.005000", "164837.465000", "164837.925000", "164838.385000", "164838.845000", "164839.305000", "164839.765000", "164840.225000", "164840.685000", "164841.145000", "164841.605000", "164842.065000", "164842.525000", "164842.985000", "164843.445000", "164843.905000", "164844.365000", "164844.825000", "164845.285000", "164845.745000", "164846.205000", "164846.665000", "164847.125000", "164847.585000", "164848.045000", "164848.505000", "164848.965000", "164849.425000", "164849.885000", "164850.345000", "164850.805000", "164851.265000", "164851.725000", "164852.185000", "164852.645000", "164853.105000", "164853.565000", "164854.025000", "164854.485000", "164854.945000", "164855.405000", "164855.865000", "164856.325000", "164856.785000", "164857.245000", "164857.705000", "164858.165000", "164858.625000", "164859.085000", "164859.545000", "164900.005000", "164900.465000", "164900.925000", "164901.385000", "164901.845000", "164902.305000", "164902.765000", "164903.225000", "164903.685000", "164904.145000", "164904.605000", "164905.065000", "164905.525000", "164905.985000", "164906.445000", "164906.905000", "164907.365000", "164907.825000", "164908.285000", "164908.745000", "164909.205000", "164909.665000", "164910.125000", "164910.585000", "164911.045000", "164911.505000", "164911.965000", "164912.425000", "164912.885000", "164913.345000", "164913.805000", "164914.265000", "164914.725000", "164915.185000", "164915.645000", "164916.105000", "164916.565000", "164917.025000", "164917.485000", "164917.945000", "164918.405000", "164918.865000", "164919.325000", "164919.785000", "164920.245000", "164920.705000", "164921.165000", "164921.625000", "164922.085000", "164922.545000", "164923.005000", "164923.465000", "164923.925000", "164924.385000", "164924.845000", "164925.305000", "164925.765000", "164926.225000", "164926.685000", "164927.145000", "164927.605000", "164928.065000", "164928.525000", "164928.985000", "164929.445000", "164929.905000", "164930.365000", "164930.825000", "164931.285000", "164931.745000", "164932.205000", "164932.665000", "164933.125000", "164933.585000", "164934.045000", "164934.505000", "164934.965000", "164935.425000", "164935.885000", "164936.345000", "164936.805000", "164937.265000", "164937.725000", "164938.185000", "164938.645000", "164939.105000", "164939.565000", "164940.025000", "164940.485000", "164940.945000", "164941.405000", "164941.865000", "164942.325000", "164942.785000", "164943.245000", "164943.705000", "164944.165000", "164944.625000", "164945.085000", "164945.545000", "164946.005000", "164946.465000", "164946.925000", "164947.385000", "164947.845000", "164948.305000", "164948.765000", "164949.225000", "164949.685000", "164950.145000", "164950.605000", "164951.065000", "164951.525000", "164951.985000", "164952.445000", "164952.905000", "164953.365000", "164953.825000", "164954.285000", "164954.745000", "164955.205000", "164955.665000", "164956.125000", "164956.585000", "164957.045000", "164957.505000", "164957.965000", "164958.425000", "164958.885000", "164959.345000", "164959.805000", "165000.265000", "165000.725000", "165001.185000", "165001.645000", "165002.105000", "165002.565000", "165003.025000", "165003.485000", "165003.945000", "165004.405000", "165004.865000", "165005.325000", "165005.785000", "165006.245000", "165006.705000", "165007.165000", "165007.625000", "165008.085000", "165008.545000", "165009.005000", "165009.465000", "165009.925000", "165010.385000", "165010.845000", "165011.305000", "165011.765000", "165012.225000", "165012.685000", "165013.145000", "165013.605000", "165014.065000", "165014.525000", "165014.985000", "165015.445000", "165015.905000", "165016.365000", "165016.825000", "165017.285000", "165017.745000", "165018.205000", "165018.665000", "165019.125000", "165019.585000", "165020.045000", "165020.505000", "165020.965000", "165021.425000", "165021.885000", "165022.345000", "165022.805000", "165023.265000", "165023.725000", "165024.185000", "165024.645000", "165025.105000", "165025.565000", "165026.025000", "165026.485000", "165026.945000", "165027.405000", "165027.865000", "165028.325000", "165028.785000", "165029.245000", "165029.705000", "165030.165000", "165030.625000", "165031.085000", "165031.545000", "165032.005000", "165032.465000", "165032.925000", "165033.385000", "165033.845000", "165034.305000", "165034.765000", "165035.225000", "165035.685000", "165036.145000", "165036.605000", "165037.065000", "165037.525000", "165037.985000", "165038.445000", "165038.905000", "165039.365000", "165039.825000", "165040.285000", "165040.745000", "165041.205000", "165041.665000", "165042.125000", "165042.585000", "165043.045000", "165043.505000", "165043.965000", "165044.425000", "165044.885000", "165045.345000", "165045.805000", "165046.265000", "165046.725000", "165047.185000", "165047.645000", "165048.105000", "165048.565000", "165049.025000", "165049.485000", "165049.945000", "165050.405000", "165050.865000", "165051.325000", "165051.785000", "165052.245000", "165052.705000", "165053.165000", "165053.625000", "165054.085000", "165054.545000", "165055.005000", "165055.465000", "165055.925000", "165056.385000", "165056.845000", "165057.305000", "165057.765000", "165058.225000", "165058.685000", "165059.145000", "165059.605000", "165100.065000", "165100.525000", "165100.985000", "165101.445000", "165101.905000", "165102.365000", "165102.825000", "165103.285000", "165103.745000", "165104.205000", "165104.665000", "165105.125000", "165105.585000", "165106.045000", "165106.505000", "165106.965000", "165107.425000", "165107.885000", "165108.345000", "165108.805000", "165109.265000", "165109.725000", "165110.185000", "165110.645000", "165111.105000", "165111.565000", "165112.025000", "165112.485000", "165112.945000", "165113.405000", "165113.865000", "165114.325000", "165114.785000", "165115.245000", "165115.705000", "165116.165000", "165116.625000", "165117.085000", "165117.545000", "165118.005000", "165118.465000", "165118.925000", "165119.385000", "165119.845000", "165120.305000", "165120.765000", "165121.225000", "165121.685000", "165122.145000", "165122.605000", "165123.065000", "165123.525000", "165123.985000", "165124.445000", "165124.905000", "165125.365000", "165125.825000", "165126.285000", "165126.745000", "165127.205000", "165127.665000", "165128.125000", "165128.585000", "165129.045000", "165129.505000", "165129.965000", "165130.425000", "165130.885000", "165131.345000", "165131.805000", "165132.265000", "165132.725000", "165133.185000", "165133.645000", "165134.105000", "165134.565000", "165135.025000", "165135.485000", "165135.945000", "165136.405000", "165136.865000", "165137.325000", "165137.785000", "165138.245000", "165138.705000", "165139.165000", "165139.625000", "165140.085000", "165140.545000", "165141.005000", "165141.465000", "165141.925000", "165142.385000", "165142.845000", "165143.305000", "165143.765000", "165144.225000", "165144.685000", "165145.145000", "165145.605000", "165146.065000", "165146.525000", "165146.985000", "165147.445000", "165147.905000", "165148.365000", "165148.825000", "165149.285000", "165149.745000", "165150.205000", "165150.665000", "165151.125000", "165151.585000", "165152.045000", "165152.505000", "165152.965000", "165153.425000", "165153.885000", "165154.345000", "165154.805000", "165155.265000", "165155.725000", "165156.185000", "165156.645000", "165157.105000", "165157.565000", "165158.025000", "165158.485000", "165158.945000", "165159.405000", "165159.865000", "165200.325000", "165200.785000", "165201.245000", "165201.705000", "165202.165000", "165202.625000", "165203.085000", "165203.545000", "165204.005000", "165204.465000", "165204.925000", "165205.385000", "165205.845000", "165206.305000", "165206.765000", "165207.225000", "165207.685000", "165208.145000", "165208.605000", "165209.065000", "165209.525000", "165209.985000", "165210.445000", "165210.905000", "165211.365000", "165211.825000", "165212.285000", "165212.745000", "165213.205000", "165213.665000", "165214.125000", "165214.585000", "165215.045000", "165215.505000", "165215.965000", "165216.425000", "165216.885000", "165217.345000", "165217.805000", "165218.265000", "165218.725000", "165219.185000", "165219.645000", "165220.105000", "165220.565000", "165221.025000", "165221.485000", "165221.945000", "165222.405000", "165222.865000", "165223.325000", "165223.785000", "165224.245000", "165224.705000", "165225.165000", "165225.625000", "165226.085000", "165226.545000", "165227.005000", "165227.465000", "165227.925000", "165228.385000", "165228.845000", "165229.305000", "165229.765000", "165230.225000", "165230.685000", "165231.145000", "165231.605000", "165232.065000", "165232.525000", "165232.985000", "165233.445000", "165233.905000", "165234.365000", "165234.825000", "165235.285000", "165235.745000", "165236.205000", "165236.665000", "165237.125000", "165237.585000", "165238.045000", "165238.505000", "165238.965000", "165239.425000", "165239.885000", "165240.345000", "165240.805000", "165241.265000", "165241.725000", "165242.185000", "165242.645000", "165243.105000", "165243.565000", "165244.025000", "165244.485000", "165244.945000", "165245.405000", "165245.865000", "165246.325000", "165246.785000", "165247.245000", "165247.705000", "165248.165000", "165248.625000", "165249.085000", "165249.545000", "165250.005000", "165250.465000", "165250.925000", "165251.385000", "165251.845000", "165252.305000", "165252.765000", "165253.225000", "165253.685000", "165254.145000", "165254.605000", "165255.065000", "165255.525000", "165255.985000", "165256.445000", "165256.905000", "165257.365000", "165257.825000", "165258.285000", "165258.745000", "165259.205000", "165259.665000", "165300.125000", "165300.585000", "165301.045000", "165301.505000", "165301.965000", "165302.425000", "165302.885000", "165303.345000", "165303.805000", "165304.265000", "165304.725000", "165305.185000", "165305.645000", "165306.105000", "165306.565000", "165307.025000", "165307.485000", "165307.945000", "165308.405000", "165308.865000", "165309.325000", "165309.785000", "165310.245000", "165310.705000", "165311.165000", "165311.625000", "165312.085000", "165312.545000", "165313.005000", "165313.465000", "165313.925000", "165314.385000", "165314.845000", "165315.305000", "165315.765000", "165316.225000", "165316.685000", "165317.145000", "165317.605000", "165318.065000", "165318.525000", "165318.985000", "165319.445000", "165319.905000", "165320.365000", "165320.825000", "165321.285000", "165321.745000", "165322.205000", "165322.665000", "165323.125000", "165323.585000", "165324.045000", "165324.505000", "165324.965000", "165325.425000", "165325.885000", "165326.345000", "165326.805000", "165327.265000", "165327.725000", "165328.185000", "165328.645000", "165329.105000", "165329.565000", "165330.025000", "165330.485000", "165330.945000", "165331.405000", "165331.865000", "165332.325000", "165332.785000", "165333.245000", "165333.705000", "165334.165000", "165334.625000", "165335.085000", "165335.545000", "165336.005000", "165336.465000", "165336.925000", "165337.385000", "165337.845000", "165338.305000", "165338.765000", "165339.225000", "165339.685000", "165340.145000", "165340.605000", "165341.065000", "165341.525000", "165341.985000", "165342.445000", "165342.905000", "165343.365000", "165343.825000", "165344.285000", "165344.745000", "165345.205000", "165345.665000", "165346.125000", "165346.585000", "165347.045000", "165347.505000", "165347.965000", "165348.425000", "165348.885000", "165349.345000", "165349.805000", "165350.265000", "165350.725000", "165351.185000", "165351.645000", "165352.105000", "165352.565000", "165353.025000", "165353.485000", "165353.945000", "165354.405000", "165354.865000", "165355.325000", "165355.785000", "165356.245000", "165356.705000", "165357.165000", "165357.625000", "165358.085000", "165358.545000", "165359.005000", "165359.465000", "165359.925000", "165400.385000", "165400.845000", "165401.305000", "165401.765000", "165402.225000", "165402.685000", "165403.145000", "165403.605000", "165404.065000", "165404.525000", "165404.985000", "165405.445000", "165405.905000", "165406.365000", "165406.825000", "165407.285000", "165407.745000", "165408.205000", "165408.665000", "165409.125000", "165409.585000", "165410.045000", "165410.505000", "165410.965000", "165411.425000", "165411.885000", "165412.345000", "165412.805000", "165413.265000", "165413.725000", "165414.185000", "165414.645000", "165415.105000", "165415.565000", "165416.025000", "165416.485000", "165416.945000", "165417.405000", "165417.865000", "165418.325000", "165418.785000", "165419.245000", "165419.705000", "165420.165000", "165420.625000", "165421.085000", "165421.545000", "165422.005000", "165422.465000", "165422.925000", "165423.385000", "165423.845000", "165424.305000", "165424.765000", "165425.225000", "165425.685000", "165426.145000", "165426.605000", "165427.065000", "165427.525000", "165427.985000", "165428.445000", "165428.905000", "165429.365000", "165429.825000", "165430.285000", "165430.745000", "165431.205000", "165431.665000", "165432.125000", "165432.585000", "165433.045000", "165433.505000", "165433.965000", "165434.425000", "165434.885000", "165435.345000", "165435.805000", "165436.265000", "165436.725000", "165437.185000", "165437.645000", "165438.105000", "165438.565000", "165439.025000", "165439.485000", "165439.945000", "165440.405000", "165440.865000", "165441.325000", "165441.785000", "165442.245000", "165442.705000", "165443.165000", "165443.625000", "165444.085000", "165444.545000", "165445.005000", "165445.465000", "165445.925000", "165446.385000", "165446.845000", "165447.305000", "165447.765000", "165448.225000", "165448.685000", "165449.145000", "165449.605000", "165450.065000", "165450.525000", "165450.985000", "165451.445000", "165451.905000", "165452.365000", "165452.825000", "165453.285000", "165453.745000", "165454.205000", "165454.665000", "165455.125000"],
