{
  "AcquisitionMatrixPE": 82,
  "AcquisitionNumber": 1,
  "AcquisitionTime": "10:19:40.122500",
  "BandwidthPerPixelPhaseEncode": 24.888,
  "BaseResolution": 82,
  "BodyPartExamined": "BRAIN",
  "ConsistencyInfo": "N4_VE11C_LATEST_20160120",
  "ConversionSoftware": "dcm2niix",
  "ConversionSoftwareVersion": "v1.0.20201102",
  "DerivedVendorReportedEchoSpacing": 0.00049,
  "DeviceSerialNumber": "66112",
  "DwellTime": 2e-06,
  "EchoTime": 0.0272,
  "EchoTrainLength": 82,
  "EffectiveEchoSpacing": 0.00049,
  "FlipAngle": 44,
  "ImageComments": "Unaliased MB8/PE3",
  "ImageOrientationPatientDICOM": [0.997105, -0.0299901, -0.0698788, 0.0372592, 0.993757, 0.10516],
  "ImageType": [
    "ORIGINAL",
    "PRIMARY",
    "M",
    "MB",
    "ND",
    "NORM",
    "MOSAIC"
],
  "ImagingFrequency": 123.252,
  "InPlanePhaseEncodingDirectionDICOM": "COL",
  "InstitutionAddress": "Maynard 3,Hanover,NH,US,03755",
  "InstitutionName": "Dartmouth College - PBS",
  "InstitutionalDepartmentName": "Department",
  "MRAcquisitionType": "2D",
  "MagneticFieldStrength": 3,
  "Manufacturer": "Siemens",
  "ManufacturersModelName": "Prisma",
  "Modality": "MR",
  "MultibandAccelerationFactor": 8,
  "PartialFourier": 1,
  "PatientPosition": "HFS",
  "PercentPhaseFOV": 100,
  "PercentSampling": 100,
  "PhaseEncodingDirection": "j-",
  "PhaseEncodingSteps": 82,
  "PhaseResolution": 1,
  "PixelBandwidth": 3050,
  "ProcedureStepDescription": "Wager_Wager^1076_spacetop",
  "ProtocolName": "func_run-04_task-social_acq-ap-mb8",
  "PulseSequenceDetails": "%CustomerSeq%\\cmrr_mbep2d_bold",
  "ReceiveCoilActiveElements": "HEA;HEP",
  "ReceiveCoilName": "Head_32",
  "ReconMatrixPE": 82,
  "RepetitionTime": 0.46,
  "SAR": 0.0699966,
  "ScanOptions": "FS",
  "ScanningSequence": "EP",
  "SequenceName": "epfid2d1_82",
  "SequenceVariant": "SK\\SS",
  "SeriesDescription": "func_run-04_task-social_acq-ap-mb8",
  "SeriesNumber": 14,
  "ShimSetting": [4118, -7783, -7263, 633, -97, -236, 34, 77],
  "SliceThickness": 2.7,
  "SliceTiming": [0, 0.25, 0.0625, 0.315, 0.125, 0.3775, 0.1875, 0, 0.25, 0.0625, 0.315, 0.125, 0.3775, 0.1875, 0, 0.25, 0.0625, 0.315, 0.125, 0.3775, 0.1875, 0, 0.25, 0.0625, 0.315, 0.125, 0.3775, 0.1875, 0, 0.25, 0.0625, 0.315, 0.125, 0.3775, 0.1875, 0, 0.25, 0.0625, 0.315, 0.125, 0.3775, 0.1875, 0, 0.25, 0.0625, 0.315, 0.125, 0.3775, 0.1875, 0, 0.25, 0.0625, 0.315, 0.125, 0.3775, 0.1875],
  "SoftwareVersions": "syngo MR E11",
  "SpacingBetweenSlices": 2.7,
  "StationName": "AWP66112",
  "TaskName": "social",
  "TotalReadoutTime": 0.03969,
  "TxRefAmp": 234.271,
  "WipMemBlock": "ce3b12e5-3afb-4d6b-98e1-21062c4da6ce||Sequence: R016 ve11c/master r/e634e98; Dec 19 2017 11:00:25 by eja",
  "dcmmeta_affine": [
    [-2.675158739089966, 0.09996367990970612, -0.17897962033748627, 107.92984771728516],
    [0.08046118915081024, 2.66617751121521, 0.2901398539543152, -107.77104187011719],
    [-0.18747960031032562, -0.2821367681026459, 2.678392171859741, -39.465614318847656],
    [0.0, 0.0, 0.0, 1.0]
],
  "dcmmeta_reorient_transform": [
    [0.0, -1.0, 0.0, 81.0],
    [1.0, 0.0, 0.0, 0.0],
    [0.0, 0.0, 1.0, 0.0],
    [0.0, 0.0, 0.0, 1.0]
],
  "dcmmeta_shape": [82, 82, 56, 560],
  "dcmmeta_slice_dim": 2,
  "dcmmeta_version": 0.6,
  "global": {
    "const": {
      "AccessionNumber": "A003481",
      "AcquisitionMatrix": [82, 0, 0, 82],
      "AngioFlag": "N",
      "BitsAllocated": 16,
      "BitsStored": 16,
      "BodyPartExamined": "BRAIN",
      "Columns": 656,
      "EchoNumbers": 1,
      "EchoTime": 27.2,
      "EchoTrainLength": 82,
      "FlipAngle": 44.0,
      "HighBit": 15,
      "ImageOrientationPatient": [0.99710458552462, -0.0299900782268, -0.0698787573853, 0.03725918780418, 0.99375706960458, 0.10516006625661],
      "ImagePositionPatient": [-912.48703277605, -850.28993920678, -89.485300502287],
      "ImageType": [
        "ORIGINAL",
        "PRIMARY",
        "M",
        "MB",
        "ND",
        "NORM",
        "MOSAIC"
],
      "ImagedNucleus": "1H",
      "ImagingFrequency": 123.252131,
      "InPlanePhaseEncodingDirection": "COL",
      "MRAcquisitionType": "2D",
      "MagneticFieldStrength": 3.0,
      "Manufacturer": "SIEMENS",
      "ManufacturerModelName": "Prisma",
      "Modality": "MR",
      "NumberOfAverages": 1.0,
      "NumberOfPhaseEncodingSteps": 82,
      "PercentPhaseFieldOfView": 100.0,
      "PercentSampling": 100.0,
      "PerformedProcedureStepStartTime": "085840.521000",
      "PhotometricInterpretation": "MONOCHROME2",
      "PixelBandwidth": 3050.0,
      "PixelRepresentation": 0,
      "PixelSpacing": [2.6829268932343, 2.6829268932343],
      "ProtocolName": "func_run-04_task-social_acq-ap-mb8",
      "RepetitionTime": 460.0,
      "Rows": 656,
      "SAR": 0.06999660694677,
      "SamplesPerPixel": 1,
      "ScanOptions": "FS",
      "ScanningSequence": "EP",
      "SequenceName": "epfid2d1_82",
      "SequenceVariant": [
        "SK",
        "SS"
],
      "SeriesDescription": "func_run-04_task-social_acq-ap-mb8",
      "SeriesNumber": 14,
      "SeriesTime": "102007.296000",
      "SliceLocation": -57.885302038916,
      "SliceThickness": 2.7000000476837,
      "SmallestImagePixelValue": 0,
      "SoftwareVersions": "syngo MR E11",
      "SpacingBetweenSlices": 2.6999999683494,
      "SpecificCharacterSet": "ISO_IR 100",
      "StudyID": "4",
      "StudyTime": "085840.413000",
      "TransmitCoilName": "Body",
      "VariableFlipAngleFlag": "N",
      "WindowCenterWidthExplanation": "Algo1",
      "dBdt": 0.0},
    "slices": {}
  },
  "time": {
    "samples": {
      "AcquisitionNumber": [1, 2, 3, 4, 5, 6, 7, 8, 9, 10, 11, 12, 13, 14, 15, 16, 17, 18, 19, 20, 21, 22, 23, 24, 25, 26, 27, 28, 29, 30, 31, 32, 33, 34, 35, 36, 37, 38, 39, 40, 41, 42, 43, 44, 45, 46, 47, 48, 49, 50, 51, 52, 53, 54, 55, 56, 57, 58, 59, 60, 61, 62, 63, 64, 65, 66, 67, 68, 69, 70, 71, 72, 73, 74, 75, 76, 77, 78, 79, 80, 81, 82, 83, 84, 85, 86, 87, 88, 89, 90, 91, 92, 93, 94, 95, 96, 97, 98, 99, 100, 101, 102, 103, 104, 105, 106, 107, 108, 109, 110, 111, 112, 113, 114, 115, 116, 117, 118, 119, 120, 121, 122, 123, 124, 125, 126, 127, 128, 129, 130, 131, 132, 133, 134, 135, 136, 137, 138, 139, 140, 141, 142, 143, 144, 145, 146, 147, 148, 149, 150, 151, 152, 153, 154, 155, 156, 157, 158, 159, 160, 161, 162, 163, 164, 165, 166, 167, 168, 169, 170, 171, 172, 173, 174, 175, 176, 177, 178, 179, 180, 181, 182, 183, 184, 185, 186, 187, 188, 189, 190, 191, 192, 193, 194, 195, 196, 197, 198, 199, 200, 201, 202, 203, 204, 205, 206, 207, 208, 209, 210, 211, 212, 213, 214, 215, 216, 217, 218, 219, 220, 221, 222, 223, 224, 225, 226, 227, 228, 229, 230, 231, 232, 233, 234, 235, 236, 237, 238, 239, 240, 241, 242, 243, 244, 245, 246, 247, 248, 249, 250, 251, 252, 253, 254, 255, 256, 257, 258, 259, 260, 261, 262, 263, 264, 265, 266, 267, 268, 269, 270, 271, 272, 273, 274, 275, 276, 277, 278, 279, 280, 281, 282, 283, 284, 285, 286, 287, 288, 289, 290, 291, 292, 293, 294, 295, 296, 297, 298, 299, 300, 301, 302, 303, 304, 305, 306, 307, 308, 309, 310, 311, 312, 313, 314, 315, 316, 317, 318, 319, 320, 321, 322, 323, 324, 325, 326, 327, 328, 329, 330, 331, 332, 333, 334, 335, 336, 337, 338, 339, 340, 341, 342, 343, 344, 345, 346, 347, 348, 349, 350, 351, 352, 353, 354, 355, 356, 357, 358, 359, 360, 361, 362, 363, 364, 365, 366, 367, 368, 369, 370, 371, 372, 373, 374, 375, 376, 377, 378, 379, 380, 381, 382, 383, 384, 385, 386, 387, 388, 389, 390, 391, 392, 393, 394, 395, 396, 397, 398, 399, 400, 401, 402, 403, 404, 405, 406, 407, 408, 409, 410, 411, 412, 413, 414, 415, 416, 417, 418, 419, 420, 421, 422, 423, 424, 425, 426, 427, 428, 429, 430, 431, 432, 433, 434, 435, 436, 437, 438, 439, 440, 441, 442, 443, 444, 445, 446, 447, 448, 449, 450, 451, 452, 453, 454, 455, 456, 457, 458, 459, 460, 461, 462, 463, 464, 465, 466, 467, 468, 469, 470, 471, 472, 473, 474, 475, 476, 477, 478, 479, 480, 481, 482, 483, 484, 485, 486, 487, 488, 489, 490, 491, 492, 493, 494, 495, 496, 497, 498, 499, 500, 501, 502, 503, 504, 505, 506, 507, 508, 509, 510, 511, 512, 513, 514, 515, 516, 517, 518, 519, 520, 521, 522, 523, 524, 525, 526, 527, 528, 529, 530, 531, 532, 533, 534, 535, 536, 537, 538, 539, 540, 541, 542, 543, 544, 545, 546, 547, 548, 549, 550, 551, 552, 553, 554, 555, 556, 557, 558, 559, 560],
      "AcquisitionTime": ["101940.122500", "101940.582500", "101941.042500", "101941.502500", "101941.962500", "101942.422500", "101942.882500", "101943.342500", "101943.802500", "101944.262500", "101944.722500", "101945.182500", "101945.642500", "101946.102500", "101946.562500", "101947.022500", "101947.482500", "101947.942500", "101948.402500", "101948.862500", "101949.322500", "101949.782500", "101950.242500", "101950.702500", "101951.162500", "101951.622500", "101952.082500", "101952.542500", "101953.002500", "101953.462500", "101953.922500", "101954.382500", "101954.842500", "101955.302500", "101955.762500", "101956.222500", "101956.682500", "101957.142500", "101957.602500", "101958.062500", "101958.522500", "101958.982500", "101959.442500", "101959.902500", "102000.362500", "102000.822500", "102001.282500", "102001.742500", "102002.202500", "102002.662500", "102003.122500", "102003.582500", "102004.042500", "102004.502500", "102004.962500", "102005.422500", "102005.882500", "102006.342500", "102006.802500", "102007.262500", "102007.722500", "102008.182500", "102008.642500", "102009.102500", "102009.562500", "102010.022500", "102010.482500", "102010.942500", "102011.402500", "102011.862500", "102012.322500", "102012.782500", "102013.242500", "102013.702500", "102014.162500", "102014.622500", "102015.082500", "102015.542500", "102016.002500", "102016.462500", "102016.922500", "102017.382500", "102017.842500", "102018.302500", "102018.762500", "102019.222500", "102019.682500", "102020.142500", "102020.602500", "102021.062500", "102021.522500", "102021.982500", "102022.442500", "102022.902500", "102023.362500", "102023.822500", "102024.282500", "102024.742500", "102025.202500", "102025.662500", "102026.122500", "102026.582500", "102027.042500", "102027.502500", "102027.962500", "102028.422500", "102028.882500", "102029.342500", "102029.802500", "102030.262500", "102030.722500", "102031.182500", "102031.642500", "102032.102500", "102032.562500", "102033.022500", "102033.482500", "102033.942500", "102034.402500", "102034.862500", "102035.322500", "102035.782500", "102036.242500", "102036.702500", "102037.162500", "102037.622500", "102038.082500", "102038.542500", "102039.002500", "102039.462500", "102039.922500", "102040.382500", "102040.842500", "102041.302500", "102041.762500", "102042.222500", "102042.682500", "102043.142500", "102043.602500", "102044.062500", "102044.522500", "102044.982500", "102045.442500", "102045.902500", "102046.362500", "102046.822500", "102047.282500", "102047.742500", "102048.202500", "102048.662500", "102049.122500", "102049.582500", "102050.042500", "102050.502500", "102050.962500", "102051.422500", "102051.882500", "102052.342500", "102052.802500", "102053.262500", "102053.722500", "102054.182500", "102054.642500", "102055.102500", "102055.562500", "102056.022500", "102056.482500", "102056.942500", "102057.402500", "102057.862500", "102058.322500", "102058.782500", "102059.242500", "102059.702500", "102100.162500", "102100.622500", "102101.082500", "102101.542500", "102102.002500", "102102.462500", "102102.922500", "102103.382500", "102103.842500", "102104.302500", "102104.762500", "102105.222500", "102105.682500", "102106.142500", "102106.602500", "102107.062500", "102107.522500", "102107.982500", "102108.442500", "102108.902500", "102109.362500", "102109.822500", "102110.282500", "102110.742500", "102111.202500", "102111.662500", "102112.122500", "102112.582500", "102113.042500", "102113.502500", "102113.962500", "102114.422500", "102114.882500", "102115.342500", "102115.802500", "102116.262500", "102116.722500", "102117.182500", "102117.642500", "102118.102500", "102118.562500", "102119.022500", "102119.482500", "102119.942500", "102120.402500", "102120.862500", "102121.322500", "102121.782500", "102122.242500", "102122.702500", "102123.162500", "102123.622500", "102124.082500", "102124.542500", "102125.002500", "102125.462500", "102125.922500", "102126.382500", "102126.842500", "102127.302500", "102127.762500", "102128.222500", "102128.682500", "102129.142500", "102129.602500", "102130.062500", "102130.522500", "102130.982500", "102131.442500", "102131.902500", "102132.362500", "102132.822500", "102133.282500", "102133.742500", "102134.202500", "102134.662500", "102135.122500", "102135.582500", "102136.042500", "102136.502500", "102136.962500", "102137.422500", "102137.882500", "102138.342500", "102138.802500", "102139.262500", "102139.722500", "102140.182500", "102140.642500", "102141.102500", "102141.562500", "102142.022500", "102142.482500", "102142.942500", "102143.402500", "102143.862500", "102144.322500", "102144.782500", "102145.242500", "102145.702500", "102146.162500", "102146.622500", "102147.082500", "102147.542500", "102148.002500", "102148.462500", "102148.922500", "102149.382500", "102149.842500", "102150.302500", "102150.762500", "102151.222500", "102151.682500", "102152.142500", "102152.602500", "102153.062500", "102153.522500", "102153.982500", "102154.442500", "102154.902500", "102155.362500", "102155.822500", "102156.282500", "102156.742500", "102157.202500", "102157.662500", "102158.122500", "102158.582500", "102159.042500", "102159.502500", "102159.962500", "102200.422500", "102200.882500", "102201.342500", "102201.802500", "102202.262500", "102202.722500", "102203.182500", "102203.642500", "102204.102500", "102204.562500", "102205.022500", "102205.482500", "102205.942500", "102206.402500", "102206.862500", "102207.322500", "102207.782500", "102208.242500", "102208.702500", "102209.162500", "102209.622500", "102210.082500", "102210.542500", "102211.002500", "102211.462500", "102211.922500", "102212.382500", "102212.842500", "102213.302500", "102213.762500", "102214.222500", "102214.682500", "102215.142500", "102215.602500", "102216.062500", "102216.522500", "102216.982500", "102217.442500", "102217.902500", "102218.362500", "102218.822500", "102219.282500", "102219.742500", "102220.202500", "102220.662500", "102221.122500", "102221.582500", "102222.042500", "102222.502500", "102222.962500", "102223.422500", "102223.882500", "102224.342500", "102224.802500", "102225.262500", "102225.722500", "102226.182500", "102226.642500", "102227.102500", "102227.562500", "102228.022500", "102228.482500", "102228.942500", "102229.402500", "102229.862500", "102230.322500", "102230.782500", "102231.242500", "102231.702500", "102232.162500", "102232.622500", "102233.082500", "102233.542500", "102234.002500", "102234.462500", "102234.922500", "102235.382500", "102235.842500", "102236.302500", "102236.762500", "102237.222500", "102237.682500", "102238.142500", "102238.602500", "102239.062500", "102239.522500", "102239.982500", "102240.442500", "102240.902500", "102241.362500", "102241.822500", "102242.282500", "102242.742500", "102243.202500", "102243.662500", "102244.122500", "102244.582500", "102245.042500", "102245.502500", "102245.962500", "102246.422500", "102246.882500", "102247.342500", "102247.802500", "102248.262500", "102248.722500", "102249.182500", "102249.642500", "102250.102500", "102250.562500", "102251.022500", "102251.482500", "102251.942500", "102252.402500", "102252.862500", "102253.322500", "102253.782500", "102254.242500", "102254.702500", "102255.162500", "102255.622500", "102256.082500", "102256.542500", "102257.002500", "102257.462500", "102257.922500", "102258.382500", "102258.842500", "102259.302500", "102259.762500", "102300.222500", "102300.682500", "102301.142500", "102301.602500", "102302.062500", "102302.522500", "102302.982500", "102303.442500", "102303.902500", "102304.362500", "102304.822500", "102305.282500", "102305.742500", "102306.202500", "102306.662500", "102307.122500", "102307.582500", "102308.042500", "102308.502500", "102308.962500", "102309.422500", "102309.882500", "102310.342500", "102310.802500", "102311.262500", "102311.722500", "102312.182500", "102312.642500", "102313.102500", "102313.562500", "102314.022500", "102314.482500", "102314.942500", "102315.402500", "102315.862500", "102316.322500", "102316.782500", "102317.242500", "102317.702500", "102318.162500", "102318.622500", "102319.082500", "102319.542500", "102320.002500", "102320.462500", "102320.922500", "102321.382500", "102321.842500", "102322.302500", "102322.762500", "102323.222500", "102323.682500", "102324.142500", "102324.602500", "102325.062500", "102325.522500", "102325.982500", "102326.442500", "102326.902500", "102327.362500", "102327.822500", "102328.282500", "102328.742500", "102329.202500", "102329.662500", "102330.122500", "102330.582500", "102331.042500", "102331.502500", "102331.962500", "102332.422500", "102332.882500", "102333.342500", "102333.802500", "102334.262500", "102334.722500", "102335.182500", "102335.642500", "102336.102500", "102336.562500", "102337.022500", "102337.482500", "102337.942500", "102338.402500", "102338.862500", "102339.322500", "102339.782500", "102340.242500", "102340.702500", "102341.162500", "102341.622500", "102342.082500", "102342.542500", "102343.002500", "102343.462500", "102343.922500", "102344.382500", "102344.842500", "102345.302500", "102345.762500", "102346.222500", "102346.682500", "102347.142500", "102347.602500", "102348.062500", "102348.522500", "102348.982500", "102349.442500", "102349.902500", "102350.362500", "102350.822500", "102351.282500", "102351.742500", "102352.202500", "102352.662500", "102353.122500", "102353.582500", "102354.042500", "102354.502500", "102354.962500", "102355.422500", "102355.882500", "102356.342500", "102356.802500", "102357.262500"],
      "ContentTime": ["102007.298000", "102007.302000", "102007.305000", "102007.307000", "102007.310000", "102007.313000", "102007.316000", "102007.319000", "102007.323000", "102007.326000", "102007.329000", "102007.332000", "102007.334000", "102007.337000", "102007.340000", "102007.343000", "102007.348000", "102007.351000", "102007.354000", "102007.356000", "102007.359000", "102007.362000", "102007.365000", "102007.368000", "102007.371000", "102007.374000", "102007.377000", "102007.380000", "102007.383000", "102007.386000", "102007.389000", "102007.391000", "102007.394000", "102007.397000", "102007.400000", "102007.403000", "102007.406000", "102007.408000", "102007.411000", "102007.414000", "102007.417000", "102007.420000", "102007.423000", "102007.425000", "102007.428000", "102007.431000", "102007.434000", "102007.437000", "102007.440000", "102007.443000", "102007.445000", "102007.448000", "102007.451000", "102007.454000", "102007.457000", "102007.460000", "102027.261000", "102027.264000", "102027.267000", "102027.276000", "102027.279000", "102027.281000", "102027.284000", "102027.287000", "102027.290000", "102027.293000", "102027.296000", "102027.298000", "102027.301000", "102027.304000", "102027.307000", "102027.310000", "102027.313000", "102027.315000", "102027.318000", "102027.321000", "102027.324000", "102027.327000", "102027.330000", "102027.332000", "102027.335000", "102027.338000", "102027.341000", "102027.344000", "102027.347000", "102027.350000", "102027.353000", "102027.355000", "102027.358000", "102027.361000", "102027.364000", "102027.367000", "102027.370000", "102027.372000", "102027.375000", "102027.378000", "102027.381000", "102027.384000", "102027.387000", "102027.390000", "102047.262000", "102047.265000", "102047.268000", "102047.271000", "102047.274000", "102047.277000", "102047.279000", "102047.282000", "102047.285000", "102047.288000", "102047.291000", "102047.293000", "102047.308000", "102047.311000", "102047.313000", "102047.316000", "102047.319000", "102047.322000", "102047.325000", "102047.328000", "102047.330000", "102047.333000", "102047.336000", "102047.339000", "102047.342000", "102047.345000", "102047.347000", "102047.350000", "102047.353000", "102047.356000", "102047.359000", "102047.362000", "102047.365000", "102047.367000", "102047.370000", "102047.373000", "102047.376000", "102047.379000", "102047.382000", "102047.385000", "102047.388000", "102047.390000", "102047.393000", "102107.262000", "102107.265000", "102107.268000", "102107.271000", "102107.274000", "102107.276000", "102107.281000", "102107.284000", "102107.287000", "102107.290000", "102107.293000", "102107.296000", "102107.299000", "102107.302000", "102107.304000", "102107.307000", "102107.310000", "102107.313000", "102107.316000", "102107.319000", "102107.322000", "102107.325000", "102107.328000", "102107.330000", "102107.333000", "102107.336000", "102107.339000", "102107.342000", "102107.345000", "102107.348000", "102107.351000", "102107.354000", "102107.357000", "102107.359000", "102107.362000", "102107.365000", "102107.368000", "102107.371000", "102107.374000", "102107.377000", "102107.380000", "102107.383000", "102107.385000", "102107.388000", "102127.262000", "102127.265000", "102127.268000", "102127.271000", "102127.274000", "102127.277000", "102127.287000", "102127.290000", "102127.293000", "102127.296000", "102127.299000", "102127.302000", "102127.305000", "102127.308000", "102127.311000", "102127.314000", "102127.316000", "102127.319000", "102127.322000", "102127.325000", "102127.328000", "102127.331000", "102127.334000", "102127.337000", "102127.340000", "102127.342000", "102127.345000", "102127.348000", "102127.351000", "102127.354000", "102127.357000", "102127.361000", "102127.364000", "102127.367000", "102127.370000", "102127.373000", "102127.376000", "102127.378000", "102127.381000", "102127.384000", "102127.387000", "102127.390000", "102127.393000", "102147.262000", "102147.265000", "102147.268000", "102147.271000", "102147.274000", "102147.277000", "102147.280000", "102147.283000", "102147.286000", "102147.288000", "102147.293000", "102147.296000", "102147.299000", "102147.302000", "102147.304000", "102147.308000", "102147.310000", "102147.313000", "102147.316000", "102147.319000", "102147.322000", "102147.325000", "102147.328000", "102147.331000", "102147.334000", "102147.337000", "102147.339000", "102147.342000", "102147.345000", "102147.348000", "102147.351000", "102147.354000", "102147.357000", "102147.360000", "102147.362000", "102147.365000", "102147.368000", "102147.371000", "102147.374000", "102147.377000", "102147.380000", "102147.383000", "102147.386000", "102147.389000", "102207.262000", "102207.265000", "102207.268000", "102207.271000", "102207.274000", "102207.277000", "102207.280000", "102207.282000", "102207.285000", "102207.288000", "102207.291000", "102207.294000", "102207.297000", "102207.300000", "102207.303000", "102207.306000", "102207.309000", "102207.312000", "102207.314000", "102207.317000", "102207.320000", "102207.323000", "102207.326000", "102207.329000", "102207.332000", "102207.335000", "102207.338000", "102207.341000", "102207.344000", "102207.347000", "102207.350000", "102207.352000", "102207.355000", "102207.358000", "102207.361000", "102207.364000", "102207.367000", "102207.384000", "102207.387000", "102207.390000", "102207.392000", "102207.395000", "102207.398000", "102227.261000", "102227.264000", "102227.267000", "102227.270000", "102227.272000", "102227.275000", "102227.278000", "102227.281000", "102227.284000", "102227.287000", "102227.290000", "102227.293000", "102227.295000", "102227.298000", "102227.301000", "102227.304000", "102227.307000", "102227.310000", "102227.312000", "102227.315000", "102227.318000", "102227.321000", "102227.326000", "102227.329000", "102227.332000", "102227.335000", "102227.338000", "102227.341000", "102227.344000", "102227.346000", "102227.349000", "102227.352000", "102227.355000", "102227.358000", "102227.361000", "102227.363000", "102227.366000", "102227.369000", "102227.372000", "102227.375000", "102227.378000", "102227.380000", "102227.383000", "102227.386000", "102247.261000", "102247.264000", "102247.267000", "102247.270000", "102247.272000", "102247.275000", "102247.278000", "102247.281000", "102247.284000", "102247.287000", "102247.290000", "102247.293000", "102247.295000", "102247.298000", "102247.301000", "102247.304000", "102247.307000", "102247.310000", "102247.312000", "102247.315000", "102247.318000", "102247.321000", "102247.324000", "102247.327000", "102247.329000", "102247.332000", "102247.335000", "102247.338000", "102247.341000", "102247.344000", "102247.347000", "102247.349000", "102247.352000", "102247.355000", "102247.358000", "102247.361000", "102247.364000", "102247.367000", "102247.369000", "102247.372000", "102247.375000", "102247.378000", "102247.381000", "102307.262000", "102307.265000", "102307.268000", "102307.271000", "102307.274000", "102307.277000", "102307.280000", "102307.282000", "102307.285000", "102307.288000", "102307.291000", "102307.294000", "102307.297000", "102307.299000", "102307.302000", "102307.305000", "102307.308000", "102307.311000", "102307.314000", "102307.317000", "102307.320000", "102307.323000", "102307.326000", "102307.328000", "102307.331000", "102307.334000", "102307.337000", "102307.340000", "102307.343000", "102307.346000", "102307.348000", "102307.351000", "102307.354000", "102307.357000", "102307.360000", "102307.363000", "102307.366000", "102307.369000", "102307.372000", "102307.374000", "102307.377000", "102307.380000", "102307.383000", "102327.262000", "102327.265000", "102327.268000", "102327.271000", "102327.274000", "102327.276000", "102327.279000", "102327.282000", "102327.285000", "102327.288000", "102327.291000", "102327.294000", "102327.296000", "102327.299000", "102327.302000", "102327.305000", "102327.308000", "102327.311000", "102327.314000", "102327.317000", "102327.320000", "102327.322000", "102327.325000", "102327.328000", "102327.331000", "102327.334000", "102327.337000", "102327.340000", "102327.343000", "102327.345000", "102327.348000", "102327.351000", "102327.354000", "102327.357000", "102327.360000", "102327.363000", "102327.366000", "102327.368000", "102327.371000", "102327.374000", "102327.377000", "102327.380000", "102327.383000", "102327.386000", "102347.262000", "102347.265000", "102347.269000", "102347.271000", "102347.274000", "102347.277000", "102347.280000", "102347.283000", "102347.286000", "102347.289000", "102347.292000", "102347.295000", "102347.298000", "102347.300000", "102347.303000", "102347.306000", "102347.309000", "102347.312000", "102347.315000", "102347.318000", "102347.321000", "102347.323000", "102347.326000", "102347.329000", "102347.332000", "102347.335000", "102347.338000", "102347.341000", "102347.343000", "102347.346000", "102347.349000", "102347.352000", "102347.355000", "102347.374000", "102347.377000", "102347.380000", "102347.383000", "102347.386000", "102347.389000", "102347.391000", "102347.394000", "102347.397000", "102347.400000", "102358.993000", "102358.997000", "102359.002000", "102359.006000", "102359.009000", "102359.012000", "102359.015000", "102359.018000", "102359.021000", "102359.024000", "102359.027000", "102359.030000", "102359.032000", "102359.035000", "102359.038000", "102359.041000", "102359.044000", "102359.047000", "102359.050000", "102359.053000", "102359.056000", "102359.059000", "102359.061000", "102359.064000", "102359.067000", "102359.070000"],
