{
  "AcquisitionMatrixPE": 82,
  "AcquisitionNumber": 1,
  "AcquisitionTime": "15:32:31.522500",
  "BandwidthPerPixelPhaseEncode": 24.888,
  "BaseResolution": 82,
  "BodyPartExamined": "BRAIN",
  "ConsistencyInfo": "N4_VE11C_LATEST_20160120",
  "ConversionSoftware": "dcm2niix",
  "ConversionSoftwareVersion": "v1.0.20201102",
  "DerivedVendorReportedEchoSpacing": 0.00049,
  "DeviceSerialNumber": "66112",
  "DwellTime": 2e-06,
  "EchoTime": 0.0272,
  "EchoTrainLength": 82,
  "EffectiveEchoSpacing": 0.00049,
  "FlipAngle": 44,
  "ImageComments": "Unaliased MB8/PE3",
  "ImageOrientationPatientDICOM": [0.99818, 0.031205, 0.0516067, -0.0413126, 0.977218, 0.208177],
  "ImageType": [
    "ORIGINAL",
    "PRIMARY",
    "M",
    "MB",
    "ND",
    "NORM",
    "MOSAIC"
],
  "ImagingFrequency": 123.252,
  "InPlanePhaseEncodingDirectionDICOM": "COL",
  "InstitutionAddress": "Maynard 3,Hanover,NH,US,03755",
  "InstitutionName": "Dartmouth College - PBS",
  "InstitutionalDepartmentName": "Department",
  "MRAcquisitionType": "2D",
  "MagneticFieldStrength": 3,
  "Manufacturer": "Siemens",
  "ManufacturersModelName": "Prisma",
  "Modality": "MR",
  "MultibandAccelerationFactor": 8,
  "PartialFourier": 1,
  "PatientPosition": "HFS",
  "PercentPhaseFOV": 100,
  "PercentSampling": 100,
  "PhaseEncodingDirection": "j-",
  "PhaseEncodingSteps": 82,
  "PhaseResolution": 1,
  "PixelBandwidth": 3050,
  "ProcedureStepDescription": "Wager_Wager^1076_spacetop",
  "ProtocolName": "func_run-03_task-alignvideo_acq-ap-mb8",
  "PulseSequenceDetails": "%CustomerSeq%\\cmrr_mbep2d_bold",
  "ReceiveCoilActiveElements": "HEA;HEP",
  "ReceiveCoilName": "Head_32",
  "ReconMatrixPE": 82,
  "RepetitionTime": 0.46,
  "SAR": 0.0823735,
  "ScanOptions": "FS",
  "ScanningSequence": "EP",
  "SequenceName": "epfid2d1_82",
  "SequenceVariant": "SK\\SS",
  "SeriesDescription": "func_run-03_task-alignvideo_acq-ap-mb8",
  "SeriesNumber": 30,
  "ShimSetting": [4161, -7762, -7267, 497, -47, -273, 3, 64],
  "SliceThickness": 2.7,
  "SliceTiming": [0, 0.25, 0.0625, 0.3125, 0.125, 0.375, 0.1875, 0, 0.25, 0.0625, 0.3125, 0.125, 0.375, 0.1875, 0, 0.25, 0.0625, 0.3125, 0.125, 0.375, 0.1875, 0, 0.25, 0.0625, 0.3125, 0.125, 0.375, 0.1875, 0, 0.25, 0.0625, 0.3125, 0.125, 0.375, 0.1875, 0, 0.25, 0.0625, 0.3125, 0.125, 0.375, 0.1875, 0, 0.25, 0.0625, 0.3125, 0.125, 0.375, 0.1875, 0, 0.25, 0.0625, 0.3125, 0.125, 0.375, 0.1875],
  "SoftwareVersions": "syngo MR E11",
  "SpacingBetweenSlices": 2.7,
  "StationName": "AWP66112",
  "TaskName": "alignvideo",
  "TotalReadoutTime": 0.03969,
  "TxRefAmp": 236.07,
  "WipMemBlock": "11d8444e-8c82-4c56-aa2a-05dbc5696295||Sequence: R016 ve11c/master r/e634e98; Dec 19 2017 11:00:25 by eja",
  "dcmmeta_affine": [
    [-2.6780436038970947, -0.11083874106407166, 0.1186240091919899, 112.30502319335938],
    [-0.08372076600790024, 2.621805429458618, 0.5668109655380249, -102.55542755126953],
    [0.13845692574977875, -0.558523416519165, 2.6371676921844482, -51.59519577026367],
    [0.0, 0.0, 0.0, 1.0]
],
  "dcmmeta_reorient_transform": [
    [0.0, -1.0, 0.0, 81.0],
    [1.0, 0.0, 0.0, 0.0],
    [0.0, 0.0, 1.0, 0.0],
    [0.0, 0.0, 0.0, 1.0]
],
  "dcmmeta_shape": [82, 82, 56, 1016],
  "dcmmeta_slice_dim": 2,
  "dcmmeta_version": 0.6,
  "global": {
    "const": {
      "AccessionNumber": "A003437",
      "AcquisitionMatrix": [82, 0, 0, 82],
      "AngioFlag": "N",
      "BitsAllocated": 16,
      "BitsStored": 16,
      "BodyPartExamined": "BRAIN",
      "Columns": 656,
      "EchoNumbers": 1,
      "EchoTime": 27.2,
      "EchoTrainLength": 82,
      "FlipAngle": 44.0,
      "HighBit": 15,
      "ImageOrientationPatient": [0.9981798429791, 0.0312050109017, 0.05160666977097, -0.0413126204384, 0.97721831986999, 0.20817690242432],
      "ImagePositionPatient": [-840.11486110667, -886.29678785715, -296.86894839639],
      "ImageType": [
        "ORIGINAL",
        "PRIMARY",
        "M",
        "MB",
        "ND",
        "NORM",
        "MOSAIC"
],
      "ImagedNucleus": "1H",
      "ImagingFrequency": 123.252178,
      "InPlanePhaseEncodingDirection": "COL",
      "MRAcquisitionType": "2D",
      "MagneticFieldStrength": 3.0,
      "Manufacturer": "SIEMENS",
      "ManufacturerModelName": "Prisma",
      "Modality": "MR",
      "NumberOfAverages": 1.0,
      "NumberOfPhaseEncodingSteps": 82,
      "PercentPhaseFieldOfView": 100.0,
      "PercentSampling": 100.0,
      "PerformedProcedureStepStartTime": "134540.224000",
      "PhotometricInterpretation": "MONOCHROME2",
      "PixelBandwidth": 3050.0,
      "PixelRepresentation": 0,
      "PixelSpacing": [2.6829268932343, 2.6829268932343],
      "ProtocolName": "func_run-03_task-alignvideo_acq-ap-mb8",
      "RepetitionTime": 460.0,
      "Rows": 656,
      "SAR": 0.08237352854717,
      "SamplesPerPixel": 1,
      "ScanOptions": "FS",
      "ScanningSequence": "EP",
      "SequenceName": "epfid2d1_82",
      "SequenceVariant": [
        "SK",
        "SS"
],
      "SeriesDescription": "func_run-03_task-alignvideo_acq-ap-mb8",
      "SeriesNumber": 30,
      "SeriesTime": "153241.811000",
      "SliceLocation": -66.98987316109,
      "SliceThickness": 2.7000000476837,
      "SmallestImagePixelValue": 0,
      "SoftwareVersions": "syngo MR E11",
      "SpacingBetweenSlices": 2.6999999057014,
      "SpecificCharacterSet": "ISO_IR 100",
      "StudyID": "1",
      "StudyTime": "134540.145000",
      "TransmitCoilName": "Body",
      "VariableFlipAngleFlag": "N",
      "WindowCenterWidthExplanation": "Algo1",
      "dBdt": 0.0},
    "slices": {}
  },
  "time": {
    "samples": {
      "AcquisitionNumber": [1, 2, 3, 4, 5, 6, 7, 8, 9, 10, 11, 12, 13, 14, 15, 16, 17, 18, 19, 20, 21, 22, 23, 24, 25, 26, 27, 28, 29, 30, 31, 32, 33, 34, 35, 36, 37, 38, 39, 40, 41, 42, 43, 44, 45, 46, 47, 48, 49, 50, 51, 52, 53, 54, 55, 56, 57, 58, 59, 60, 61, 62, 63, 64, 65, 66, 67, 68, 69, 70, 71, 72, 73, 74, 75, 76, 77, 78, 79, 80, 81, 82, 83, 84, 85, 86, 87, 88, 89, 90, 91, 92, 93, 94, 95, 96, 97, 98, 99, 100, 101, 102, 103, 104, 105, 106, 107, 108, 109, 110, 111, 112, 113, 114, 115, 116, 117, 118, 119, 120, 121, 122, 123, 124, 125, 126, 127, 128, 129, 130, 131, 132, 133, 134, 135, 136, 137, 138, 139, 140, 141, 142, 143, 144, 145, 146, 147, 148, 149, 150, 151, 152, 153, 154, 155, 156, 157, 158, 159, 160, 161, 162, 163, 164, 165, 166, 167, 168, 169, 170, 171, 172, 173, 174, 175, 176, 177, 178, 179, 180, 181, 182, 183, 184, 185, 186, 187, 188, 189, 190, 191, 192, 193, 194, 195, 196, 197, 198, 199, 200, 201, 202, 203, 204, 205, 206, 207, 208, 209, 210, 211, 212, 213, 214, 215, 216, 217, 218, 219, 220, 221, 222, 223, 224, 225, 226, 227, 228, 229, 230, 231, 232, 233, 234, 235, 236, 237, 238, 239, 240, 241, 242, 243, 244, 245, 246, 247, 248, 249, 250, 251, 252, 253, 254, 255, 256, 257, 258, 259, 260, 261, 262, 263, 264, 265, 266, 267, 268, 269, 270, 271, 272, 273, 274, 275, 276, 277, 278, 279, 280, 281, 282, 283, 284, 285, 286, 287, 288, 289, 290, 291, 292, 293, 294, 295, 296, 297, 298, 299, 300, 301, 302, 303, 304, 305, 306, 307, 308, 309, 310, 311, 312, 313, 314, 315, 316, 317, 318, 319, 320, 321, 322, 323, 324, 325, 326, 327, 328, 329, 330, 331, 332, 333, 334, 335, 336, 337, 338, 339, 340, 341, 342, 343, 344, 345, 346, 347, 348, 349, 350, 351, 352, 353, 354, 355, 356, 357, 358, 359, 360, 361, 362, 363, 364, 365, 366, 367, 368, 369, 370, 371, 372, 373, 374, 375, 376, 377, 378, 379, 380, 381, 382, 383, 384, 385, 386, 387, 388, 389, 390, 391, 392, 393, 394, 395, 396, 397, 398, 399, 400, 401, 402, 403, 404, 405, 406, 407, 408, 409, 410, 411, 412, 413, 414, 415, 416, 417, 418, 419, 420, 421, 422, 423, 424, 425, 426, 427, 428, 429, 430, 431, 432, 433, 434, 435, 436, 437, 438, 439, 440, 441, 442, 443, 444, 445, 446, 447, 448, 449, 450, 451, 452, 453, 454, 455, 456, 457, 458, 459, 460, 461, 462, 463, 464, 465, 466, 467, 468, 469, 470, 471, 472, 473, 474, 475, 476, 477, 478, 479, 480, 481, 482, 483, 484, 485, 486, 487, 488, 489, 490, 491, 492, 493, 494, 495, 496, 497, 498, 499, 500, 501, 502, 503, 504, 505, 506, 507, 508, 509, 510, 511, 512, 513, 514, 515, 516, 517, 518, 519, 520, 521, 522, 523, 524, 525, 526, 527, 528, 529, 530, 531, 532, 533, 534, 535, 536, 537, 538, 539, 540, 541, 542, 543, 544, 545, 546, 547, 548, 549, 550, 551, 552, 553, 554, 555, 556, 557, 558, 559, 560, 561, 562, 563, 564, 565, 566, 567, 568, 569, 570, 571, 572, 573, 574, 575, 576, 577, 578, 579, 580, 581, 582, 583, 584, 585, 586, 587, 588, 589, 590, 591, 592, 593, 594, 595, 596, 597, 598, 599, 600, 601, 602, 603, 604, 605, 606, 607, 608, 609, 610, 611, 612, 613, 614, 615, 616, 617, 618, 619, 620, 621, 622, 623, 624, 625, 626, 627, 628, 629, 630, 631, 632, 633, 634, 635, 636, 637, 638, 639, 640, 641, 642, 643, 644, 645, 646, 647, 648, 649, 650, 651, 652, 653, 654, 655, 656, 657, 658, 659, 660, 661, 662, 663, 664, 665, 666, 667, 668, 669, 670, 671, 672, 673, 674, 675, 676, 677, 678, 679, 680, 681, 682, 683, 684, 685, 686, 687, 688, 689, 690, 691, 692, 693, 694, 695, 696, 697, 698, 699, 700, 701, 702, 703, 704, 705, 706, 707, 708, 709, 710, 711, 712, 713, 714, 715, 716, 717, 718, 719, 720, 721, 722, 723, 724, 725, 726, 727, 728, 729, 730, 731, 732, 733, 734, 735, 736, 737, 738, 739, 740, 741, 742, 743, 744, 745, 746, 747, 748, 749, 750, 751, 752, 753, 754, 755, 756, 757, 758, 759, 760, 761, 762, 763, 764, 765, 766, 767, 768, 769, 770, 771, 772, 773, 774, 775, 776, 777, 778, 779, 780, 781, 782, 783, 784, 785, 786, 787, 788, 789, 790, 791, 792, 793, 794, 795, 796, 797, 798, 799, 800, 801, 802, 803, 804, 805, 806, 807, 808, 809, 810, 811, 812, 813, 814, 815, 816, 817, 818, 819, 820, 821, 822, 823, 824, 825, 826, 827, 828, 829, 830, 831, 832, 833, 834, 835, 836, 837, 838, 839, 840, 841, 842, 843, 844, 845, 846, 847, 848, 849, 850, 851, 852, 853, 854, 855, 856, 857, 858, 859, 860, 861, 862, 863, 864, 865, 866, 867, 868, 869, 870, 871, 872, 873, 874, 875, 876, 877, 878, 879, 880, 881, 882, 883, 884, 885, 886, 887, 888, 889, 890, 891, 892, 893, 894, 895, 896, 897, 898, 899, 900, 901, 902, 903, 904, 905, 906, 907, 908, 909, 910, 911, 912, 913, 914, 915, 916, 917, 918, 919, 920, 921, 922, 923, 924, 925, 926, 927, 928, 929, 930, 931, 932, 933, 934, 935, 936, 937, 938, 939, 940, 941, 942, 943, 944, 945, 946, 947, 948, 949, 950, 951, 952, 953, 954, 955, 956, 957, 958, 959, 960, 961, 962, 963, 964, 965, 966, 967, 968, 969, 970, 971, 972, 973, 974, 975, 976, 977, 978, 979, 980, 981, 982, 983, 984, 985, 986, 987, 988, 989, 990, 991, 992, 993, 994, 995, 996, 997, 998, 999, 1000, 1001, 1002, 1003, 1004, 1005, 1006, 1007, 1008, 1009, 1010, 1011, 1012, 1013, 1014, 1015, 1016],
      "AcquisitionTime": ["153231.522500", "153231.982500", "153232.442500", "153232.902500", "153233.362500", "153233.822500", "153234.282500", "153234.742500", "153235.202500", "153235.662500", "153236.122500", "153236.582500", "153237.042500", "153237.502500", "153237.962500", "153238.422500", "153238.882500", "153239.342500", "153239.802500", "153240.262500", "153240.722500", "153241.182500", "153241.642500", "153242.102500", "153242.562500", "153243.022500", "153243.482500", "153243.942500", "153244.402500", "153244.862500", "153245.322500", "153245.782500", "153246.242500", "153246.702500", "153247.162500", "153247.622500", "153248.082500", "153248.542500", "153249.002500", "153249.462500", "153249.922500", "153250.382500", "153250.842500", "153251.302500", "153251.762500", "153252.222500", "153252.682500", "153253.142500", "153253.602500", "153254.062500", "153254.522500", "153254.982500", "153255.442500", "153255.902500", "153256.362500", "153256.822500", "153257.282500", "153257.742500", "153258.202500", "153258.662500", "153259.122500", "153259.582500", "153300.042500", "153300.502500", "153300.962500", "153301.422500", "153301.882500", "153302.342500", "153302.802500", "153303.262500", "153303.722500", "153304.182500", "153304.642500", "153305.102500", "153305.562500", "153306.022500", "153306.482500", "153306.942500", "153307.402500", "153307.862500", "153308.322500", "153308.782500", "153309.242500", "153309.702500", "153310.162500", "153310.622500", "153311.082500", "153311.542500", "153312.002500", "153312.462500", "153312.922500", "153313.382500", "153313.842500", "153314.302500", "153314.762500", "153315.222500", "153315.682500", "153316.142500", "153316.602500", "153317.062500", "153317.522500", "153317.982500", "153318.442500", "153318.902500", "153319.362500", "153319.822500", "153320.282500", "153320.742500", "153321.202500", "153321.662500", "153322.122500", "153322.582500", "153323.042500", "153323.502500", "153323.962500", "153324.422500", "153324.882500", "153325.342500", "153325.802500", "153326.262500", "153326.722500", "153327.182500", "153327.642500", "153328.102500", "153328.562500", "153329.022500", "153329.482500", "153329.942500", "153330.402500", "153330.862500", "153331.322500", "153331.782500", "153332.242500", "153332.702500", "153333.162500", "153333.622500", "153334.082500", "153334.542500", "153335.002500", "153335.462500", "153335.922500", "153336.382500", "153336.842500", "153337.302500", "153337.762500", "153338.222500", "153338.682500", "153339.142500", "153339.602500", "153340.062500", "153340.522500", "153340.982500", "153341.442500", "153341.902500", "153342.362500", "153342.822500", "153343.282500", "153343.742500", "153344.202500", "153344.662500", "153345.122500", "153345.582500", "153346.042500", "153346.502500", "153346.962500", "153347.422500", "153347.882500", "153348.342500", "153348.802500", "153349.262500", "153349.722500", "153350.182500", "153350.642500", "153351.102500", "153351.562500", "153352.022500", "153352.482500", "153352.942500", "153353.402500", "153353.862500", "153354.322500", "153354.782500", "153355.242500", "153355.702500", "153356.162500", "153356.622500", "153357.082500", "153357.542500", "153358.002500", "153358.462500", "153358.922500", "153359.382500", "153359.842500", "153400.302500", "153400.762500", "153401.222500", "153401.682500", "153402.142500", "153402.602500", "153403.062500", "153403.522500", "153403.982500", "153404.442500", "153404.902500", "153405.362500", "153405.822500", "153406.282500", "153406.742500", "153407.202500", "153407.662500", "153408.122500", "153408.582500", "153409.042500", "153409.502500", "153409.962500", "153410.422500", "153410.882500", "153411.342500", "153411.802500", "153412.262500", "153412.722500", "153413.182500", "153413.642500", "153414.102500", "153414.562500", "153415.022500", "153415.482500", "153415.942500", "153416.402500", "153416.862500", "153417.322500", "153417.782500", "153418.242500", "153418.702500", "153419.162500", "153419.622500", "153420.082500", "153420.542500", "153421.002500", "153421.462500", "153421.922500", "153422.382500", "153422.842500", "153423.302500", "153423.762500", "153424.222500", "153424.682500", "153425.142500", "153425.602500", "153426.062500", "153426.522500", "153426.982500", "153427.442500", "153427.902500", "153428.362500", "153428.822500", "153429.282500", "153429.742500", "153430.202500", "153430.662500", "153431.122500", "153431.582500", "153432.042500", "153432.502500", "153432.962500", "153433.422500", "153433.882500", "153434.342500", "153434.802500", "153435.262500", "153435.722500", "153436.182500", "153436.642500", "153437.102500", "153437.562500", "153438.022500", "153438.482500", "153438.942500", "153439.402500", "153439.862500", "153440.322500", "153440.782500", "153441.242500", "153441.702500", "153442.162500", "153442.622500", "153443.082500", "153443.542500", "153444.002500", "153444.462500", "153444.922500", "153445.382500", "153445.842500", "153446.302500", "153446.762500", "153447.222500", "153447.682500", "153448.142500", "153448.602500", "153449.062500", "153449.522500", "153449.982500", "153450.442500", "153450.902500", "153451.362500", "153451.822500", "153452.282500", "153452.742500", "153453.202500", "153453.662500", "153454.122500", "153454.582500", "153455.042500", "153455.502500", "153455.962500", "153456.422500", "153456.882500", "153457.342500", "153457.802500", "153458.262500", "153458.722500", "153459.182500", "153459.642500", "153500.102500", "153500.562500", "153501.022500", "153501.482500", "153501.942500", "153502.402500", "153502.862500", "153503.322500", "153503.782500", "153504.242500", "153504.702500", "153505.162500", "153505.622500", "153506.082500", "153506.542500", "153507.002500", "153507.462500", "153507.922500", "153508.382500", "153508.842500", "153509.302500", "153509.762500", "153510.222500", "153510.682500", "153511.142500", "153511.602500", "153512.062500", "153512.522500", "153512.982500", "153513.442500", "153513.902500", "153514.362500", "153514.822500", "153515.282500", "153515.742500", "153516.202500", "153516.662500", "153517.122500", "153517.582500", "153518.042500", "153518.502500", "153518.962500", "153519.422500", "153519.882500", "153520.342500", "153520.802500", "153521.262500", "153521.722500", "153522.182500", "153522.642500", "153523.102500", "153523.562500", "153524.022500", "153524.482500", "153524.942500", "153525.402500", "153525.862500", "153526.322500", "153526.782500", "153527.242500", "153527.702500", "153528.162500", "153528.622500", "153529.082500", "153529.542500", "153530.002500", "153530.462500", "153530.922500", "153531.382500", "153531.842500", "153532.302500", "153532.762500", "153533.222500", "153533.682500", "153534.142500", "153534.602500", "153535.062500", "153535.522500", "153535.982500", "153536.442500", "153536.902500", "153537.362500", "153537.822500", "153538.282500", "153538.742500", "153539.202500", "153539.662500", "153540.122500", "153540.582500", "153541.042500", "153541.502500", "153541.962500", "153542.422500", "153542.882500", "153543.342500", "153543.802500", "153544.262500", "153544.722500", "153545.182500", "153545.642500", "153546.102500", "153546.562500", "153547.022500", "153547.482500", "153547.942500", "153548.402500", "153548.862500", "153549.322500", "153549.782500", "153550.242500", "153550.702500", "153551.162500", "153551.622500", "153552.082500", "153552.542500", "153553.002500", "153553.462500", "153553.922500", "153554.382500", "153554.842500", "153555.302500", "153555.762500", "153556.222500", "153556.682500", "153557.142500", "153557.602500", "153558.062500", "153558.522500", "153558.982500", "153559.442500", "153559.902500", "153600.362500", "153600.822500", "153601.282500", "153601.742500", "153602.202500", "153602.662500", "153603.122500", "153603.582500", "153604.042500", "153604.502500", "153604.962500", "153605.422500", "153605.882500", "153606.342500", "153606.802500", "153607.262500", "153607.722500", "153608.182500", "153608.642500", "153609.102500", "153609.562500", "153610.022500", "153610.482500", "153610.942500", "153611.402500", "153611.862500", "153612.322500", "153612.782500", "153613.242500", "153613.702500", "153614.162500", "153614.622500", "153615.082500", "153615.542500", "153616.002500", "153616.462500", "153616.922500", "153617.382500", "153617.842500", "153618.302500", "153618.762500", "153619.222500", "153619.682500", "153620.142500", "153620.602500", "153621.062500", "153621.522500", "153621.982500", "153622.442500", "153622.902500", "153623.362500", "153623.822500", "153624.282500", "153624.742500", "153625.202500", "153625.662500", "153626.122500", "153626.582500", "153627.042500", "153627.502500", "153627.962500", "153628.422500", "153628.882500", "153629.342500", "153629.802500", "153630.262500", "153630.722500", "153631.182500", "153631.642500", "153632.102500", "153632.562500", "153633.022500", "153633.482500", "153633.942500", "153634.402500", "153634.862500", "153635.322500", "153635.782500", "153636.242500", "153636.702500", "153637.162500", "153637.622500", "153638.082500", "153638.542500", "153639.002500", "153639.462500", "153639.922500", "153640.382500", "153640.842500", "153641.302500", "153641.762500", "153642.222500", "153642.682500", "153643.142500", "153643.602500", "153644.062500", "153644.522500", "153644.982500", "153645.442500", "153645.902500", "153646.362500", "153646.822500", "153647.282500", "153647.742500", "153648.202500", "153648.662500", "153649.122500", "153649.582500", "153650.042500", "153650.502500", "153650.962500", "153651.422500", "153651.882500", "153652.342500", "153652.802500", "153653.262500", "153653.722500", "153654.182500", "153654.642500", "153655.102500", "153655.562500", "153656.022500", "153656.482500", "153656.942500", "153657.402500", "153657.862500", "153658.322500", "153658.782500", "153659.242500", "153659.702500", "153700.162500", "153700.622500", "153701.082500", "153701.542500", "153702.002500", "153702.462500", "153702.922500", "153703.382500", "153703.842500", "153704.302500", "153704.762500", "153705.222500", "153705.682500", "153706.142500", "153706.602500", "153707.062500", "153707.522500", "153707.982500", "153708.442500", "153708.902500", "153709.362500", "153709.822500", "153710.282500", "153710.742500", "153711.202500", "153711.662500", "153712.122500", "153712.582500", "153713.042500", "153713.502500", "153713.962500", "153714.422500", "153714.882500", "153715.342500", "153715.802500", "153716.262500", "153716.722500", "153717.182500", "153717.642500", "153718.102500", "153718.562500", "153719.022500", "153719.482500", "153719.942500", "153720.402500", "153720.862500", "153721.322500", "153721.782500", "153722.242500", "153722.702500", "153723.162500", "153723.622500", "153724.082500", "153724.542500", "153725.002500", "153725.462500", "153725.922500", "153726.382500", "153726.842500", "153727.302500", "153727.762500", "153728.222500", "153728.682500", "153729.142500", "153729.602500", "153730.062500", "153730.522500", "153730.982500", "153731.442500", "153731.902500", "153732.362500", "153732.822500", "153733.282500", "153733.742500", "153734.202500", "153734.662500", "153735.122500", "153735.582500", "153736.042500", "153736.502500", "153736.962500", "153737.422500", "153737.882500", "153738.342500", "153738.802500", "153739.262500", "153739.722500", "153740.182500", "153740.642500", "153741.102500", "153741.562500", "153742.022500", "153742.482500", "153742.942500", "153743.402500", "153743.862500", "153744.322500", "153744.782500", "153745.242500", "153745.702500", "153746.162500", "153746.622500", "153747.082500", "153747.542500", "153748.002500", "153748.462500", "153748.922500", "153749.382500", "153749.842500", "153750.302500", "153750.762500", "153751.222500", "153751.682500", "153752.142500", "153752.602500", "153753.062500", "153753.522500", "153753.982500", "153754.442500", "153754.902500", "153755.362500", "153755.822500", "153756.282500", "153756.742500", "153757.202500", "153757.662500", "153758.122500", "153758.582500", "153759.042500", "153759.502500", "153759.962500", "153800.422500", "153800.882500", "153801.342500", "153801.802500", "153802.262500", "153802.722500", "153803.182500", "153803.642500", "153804.102500", "153804.562500", "153805.022500", "153805.482500", "153805.942500", "153806.402500", "153806.862500", "153807.322500", "153807.782500", "153808.242500", "153808.702500", "153809.162500", "153809.622500", "153810.082500", "153810.542500", "153811.002500", "153811.462500", "153811.922500", "153812.382500", "153812.842500", "153813.302500", "153813.762500", "153814.222500", "153814.682500", "153815.142500", "153815.602500", "153816.062500", "153816.522500", "153816.982500", "153817.442500", "153817.902500", "153818.362500", "153818.822500", "153819.282500", "153819.742500", "153820.202500", "153820.662500", "153821.122500", "153821.582500", "153822.042500", "153822.502500", "153822.962500", "153823.422500", "153823.882500", "153824.342500", "153824.802500", "153825.262500", "153825.722500", "153826.182500", "153826.642500", "153827.102500", "153827.562500", "153828.022500", "153828.482500", "153828.942500", "153829.402500", "153829.862500", "153830.322500", "153830.782500", "153831.242500", "153831.702500", "153832.162500", "153832.622500", "153833.082500", "153833.542500", "153834.002500", "153834.462500", "153834.922500", "153835.382500", "153835.842500", "153836.302500", "153836.762500", "153837.222500", "153837.682500", "153838.142500", "153838.602500", "153839.062500", "153839.522500", "153839.982500", "153840.442500", "153840.902500", "153841.362500", "153841.822500", "153842.282500", "153842.742500", "153843.202500", "153843.662500", "153844.122500", "153844.582500", "153845.042500", "153845.502500", "153845.962500", "153846.422500", "153846.882500", "153847.342500", "153847.802500", "153848.262500", "153848.722500", "153849.182500", "153849.642500", "153850.102500", "153850.562500", "153851.022500", "153851.482500", "153851.942500", "153852.402500", "153852.862500", "153853.322500", "153853.782500", "153854.242500", "153854.702500", "153855.162500", "153855.622500", "153856.082500", "153856.542500", "153857.002500", "153857.462500", "153857.922500", "153858.382500", "153858.842500", "153859.302500", "153859.762500", "153900.222500", "153900.682500", "153901.142500", "153901.602500", "153902.062500", "153902.522500", "153902.982500", "153903.442500", "153903.902500", "153904.362500", "153904.822500", "153905.282500", "153905.742500", "153906.202500", "153906.662500", "153907.122500", "153907.582500", "153908.042500", "153908.502500", "153908.962500", "153909.422500", "153909.882500", "153910.342500", "153910.802500", "153911.262500", "153911.722500", "153912.182500", "153912.642500", "153913.102500", "153913.562500", "153914.022500", "153914.482500", "153914.942500", "153915.402500", "153915.862500", "153916.322500", "153916.782500", "153917.242500", "153917.702500", "153918.162500", "153918.622500", "153919.082500", "153919.542500", "153920.002500", "153920.462500", "153920.922500", "153921.382500", "153921.842500", "153922.302500", "153922.762500", "153923.222500", "153923.682500", "153924.142500", "153924.602500", "153925.062500", "153925.522500", "153925.982500", "153926.442500", "153926.902500", "153927.362500", "153927.822500", "153928.282500", "153928.742500", "153929.202500", "153929.662500", "153930.122500", "153930.582500", "153931.042500", "153931.502500", "153931.962500", "153932.422500", "153932.882500", "153933.342500", "153933.802500", "153934.262500", "153934.722500", "153935.182500", "153935.642500", "153936.102500", "153936.562500", "153937.022500", "153937.482500", "153937.942500", "153938.402500", "153938.862500", "153939.322500", "153939.782500", "153940.242500", "153940.702500", "153941.162500", "153941.622500", "153942.082500", "153942.542500", "153943.002500", "153943.462500", "153943.922500", "153944.382500", "153944.842500", "153945.302500", "153945.762500", "153946.222500", "153946.682500", "153947.142500", "153947.602500", "153948.062500", "153948.522500", "153948.982500", "153949.442500", "153949.902500", "153950.362500", "153950.822500", "153951.282500", "153951.742500", "153952.202500", "153952.662500", "153953.122500", "153953.582500", "153954.042500", "153954.502500", "153954.962500", "153955.422500", "153955.882500", "153956.342500", "153956.802500", "153957.262500", "153957.722500", "153958.182500", "153958.642500", "153959.102500", "153959.562500", "154000.022500", "154000.482500", "154000.942500", "154001.402500", "154001.862500", "154002.322500", "154002.782500", "154003.242500", "154003.702500", "154004.162500", "154004.622500", "154005.082500", "154005.542500", "154006.002500", "154006.462500", "154006.922500", "154007.382500", "154007.842500", "154008.302500", "154008.762500", "154009.222500", "154009.682500", "154010.142500", "154010.602500", "154011.062500", "154011.522500", "154011.982500", "154012.442500", "154012.902500", "154013.362500", "154013.822500", "154014.282500", "154014.742500", "154015.202500", "154015.662500", "154016.122500", "154016.582500", "154017.042500", "154017.502500", "154017.962500", "154018.422500"],
