{
  "AcquisitionMatrixPE": 82,
  "AcquisitionNumber": 1,
  "AcquisitionTime": "21:08:56.880000",
  "BandwidthPerPixelPhaseEncode": 24.888,
  "BaseResolution": 82,
  "BodyPartExamined": "BRAIN",
  "ConsistencyInfo": "N4_VE11E_LATEST_20181129",
  "ConversionSoftware": "dcm2niix",
  "ConversionSoftwareVersion": "v1.0.20201102",
  "DerivedVendorReportedEchoSpacing": 0.00049,
  "DeviceSerialNumber": "66112",
  "DwellTime": 2e-06,
  "EchoTime": 0.0272,
  "EchoTrainLength": 82,
  "EffectiveEchoSpacing": 0.00049,
  "FlipAngle": 44,
  "ImageComments": "Unaliased MB8/PE3",
  "ImageOrientationPatientDICOM": [0.998195, 0.0408599, 0.0440112, -0.0336367, 0.987513, -0.153908],
  "ImageType": [
    "ORIGINAL",
    "PRIMARY",
    "M",
    "MB",
    "ND",
    "NORM",
    "MOSAIC"
],
  "ImagingFrequency": 123.259,
  "InPlanePhaseEncodingDirectionDICOM": "COL",
  "InstitutionAddress": "Maynard 3,Hanover,NH,US,03755",
  "InstitutionName": "Dartmouth College - PBS",
  "InstitutionalDepartmentName": "Department",
  "MRAcquisitionType": "2D",
  "MagneticFieldStrength": 3,
  "Manufacturer": "Siemens",
  "ManufacturersModelName": "Prisma",
  "Modality": "MR",
  "MultibandAccelerationFactor": 8,
  "PartialFourier": 1,
  "PatientPosition": "HFS",
  "PercentPhaseFOV": 100,
  "PercentSampling": 100,
  "PhaseEncodingDirection": "j-",
  "PhaseEncodingSteps": 82,
  "PhaseResolution": 1,
  "PixelBandwidth": 3050,
  "ProcedureStepDescription": "Wager_Wager^1076_spacetop",
  "ProtocolName": "func_run-05_task-social_acq-ap-mb8",
  "PulseSequenceDetails": "%CustomerSeq%\\cmrr_mbep2d_bold",
  "ReceiveCoilActiveElements": "HEA;HEP",
  "ReceiveCoilName": "Head_32",
  "ReconMatrixPE": 82,
  "RepetitionTime": 0.46,
  "SAR": 0.0820545,
  "ScanOptions": "FS",
  "ScanningSequence": "EP",
  "SequenceName": "epfid2d1_82",
  "SequenceVariant": "SK\\SS",
  "SeriesDescription": "func_run-05_task-social_acq-ap-mb8",
  "SeriesNumber": 16,
  "ShimSetting": [4227, -7721, -7273, 230, -173, -190, -146, 81],
  "SliceThickness": 2.7,
  "SliceTiming": [0, 0.25, 0.0625, 0.3125, 0.125, 0.375, 0.1875, 0, 0.25, 0.0625, 0.3125, 0.125, 0.375, 0.1875, 0, 0.25, 0.0625, 0.3125, 0.125, 0.375, 0.1875, 0, 0.25, 0.0625, 0.3125, 0.125, 0.375, 0.1875, 0, 0.25, 0.0625, 0.3125, 0.125, 0.375, 0.1875, 0, 0.25, 0.0625, 0.3125, 0.125, 0.375, 0.1875, 0, 0.25, 0.0625, 0.3125, 0.125, 0.375, 0.1875, 0, 0.25, 0.0625, 0.3125, 0.125, 0.375, 0.1875],
  "SoftwareVersions": "syngo MR E11",
  "SpacingBetweenSlices": 2.7,
  "StationName": "AWP66112",
  "TaskName": "social",
  "TotalReadoutTime": 0.03969,
  "TxRefAmp": 241.318,
  "WipMemBlock": "8bc1308f-f6c3-431c-a723-5341ddbfdac9||Sequence: R016 ve11e/master r/434b28f1; Aug  7 2019 18:53:46 by eja",
  "dcmmeta_affine": [
    [-2.6780846118927, -0.09024490416049957, 0.13432583212852478, 109.98057556152344],
    [-0.1096242144703865, 2.649423837661743, -0.41080376505851746, -92.1328125],
    [0.11807893961668015, 0.4129231572151184, 2.66518235206604, -113.23271942138672],
    [0.0, 0.0, 0.0, 1.0]
],
  "dcmmeta_reorient_transform": [
    [0.0, -1.0, 0.0, 81.0],
    [1.0, 0.0, 0.0, 0.0],
    [0.0, 0.0, 1.0, 0.0],
    [0.0, 0.0, 0.0, 1.0]
],
  "dcmmeta_shape": [82, 82, 56, 872],
  "dcmmeta_slice_dim": 2,
  "dcmmeta_version": 0.6,
  "global": {
    "const": {
      "AccessionNumber": "A004526",
      "AcquisitionMatrix": [82, 0, 0, 82],
      "AngioFlag": "N",
      "BitsAllocated": 16,
      "BitsStored": 16,
      "BodyPartExamined": "BRAIN",
      "Columns": 656,
      "EchoNumbers": 1,
      "EchoTime": 27.2,
      "EchoTrainLength": 82,
      "FlipAngle": 44.0,
      "HighBit": 15,
      "ImageOrientationPatient": [0.99819510952398, 0.04085993368415, 0.04401123881175, -0.0336367372995, 0.98751252290311, -0.1539077223968],
      "ImagePositionPatient": [-845.38070060567, -914.31733648112, 4.8343503654538],
      "ImageType": [
        "ORIGINAL",
        "PRIMARY",
        "M",
        "MB",
        "ND",
        "NORM",
        "MOSAIC"
],
      "ImagedNucleus": "1H",
      "ImagingFrequency": 123.259118,
      "InPlanePhaseEncodingDirection": "COL",
      "MRAcquisitionType": "2D",
      "MagneticFieldStrength": 3.0,
      "Manufacturer": "SIEMENS",
      "ManufacturerModelName": "Prisma",
      "Modality": "MR",
      "NumberOfAverages": 1.0,
      "NumberOfPhaseEncodingSteps": 82,
      "PercentPhaseFieldOfView": 100.0,
      "PercentSampling": 100.0,
      "PerformedProcedureStepStartTime": "202633.439000",
      "PhotometricInterpretation": "MONOCHROME2",
      "PixelBandwidth": 3050.0,
      "PixelRepresentation": 0,
      "PixelSpacing": [2.6829268932343, 2.6829268932343],
      "ProtocolName": "func_run-05_task-social_acq-ap-mb8",
      "RepetitionTime": 460.0,
      "Rows": 656,
      "SAR": 0.08205448827536,
      "SamplesPerPixel": 1,
      "ScanOptions": "FS",
      "ScanningSequence": "EP",
      "SequenceName": "epfid2d1_82",
      "SequenceVariant": [
        "SK",
        "SS"
],
      "SeriesDescription": "func_run-05_task-social_acq-ap-mb8",
      "SeriesNumber": 16,
      "SeriesTime": "210912.088000",
      "SliceLocation": -92.283003149482,
      "SliceThickness": 2.7000000476837,
      "SmallestImagePixelValue": 0,
      "SoftwareVersions": "syngo MR E11",
      "SpacingBetweenSlices": 2.7000000285543,
      "SpecificCharacterSet": "ISO_IR 100",
      "StudyID": "1",
      "StudyTime": "202633.330000",
      "TransmitCoilName": "Body",
      "VariableFlipAngleFlag": "N",
      "WindowCenterWidthExplanation": "Algo1"
    },
    "slices": {}
  },
  "time": {
    "samples": {
      "AcquisitionNumber": [1, 2, 3, 4, 5, 6, 7, 8, 9, 10, 11, 12, 13, 14, 15, 16, 17, 18, 19, 20, 21, 22, 23, 24, 25, 26, 27, 28, 29, 30, 31, 32, 33, 34, 35, 36, 37, 38, 39, 40, 41, 42, 43, 44, 45, 46, 47, 48, 49, 50, 51, 52, 53, 54, 55, 56, 57, 58, 59, 60, 61, 62, 63, 64, 65, 66, 67, 68, 69, 70, 71, 72, 73, 74, 75, 76, 77, 78, 79, 80, 81, 82, 83, 84, 85, 86, 87, 88, 89, 90, 91, 92, 93, 94, 95, 96, 97, 98, 99, 100, 101, 102, 103, 104, 105, 106, 107, 108, 109, 110, 111, 112, 113, 114, 115, 116, 117, 118, 119, 120, 121, 122, 123, 124, 125, 126, 127, 128, 129, 130, 131, 132, 133, 134, 135, 136, 137, 138, 139, 140, 141, 142, 143, 144, 145, 146, 147, 148, 149, 150, 151, 152, 153, 154, 155, 156, 157, 158, 159, 160, 161, 162, 163, 164, 165, 166, 167, 168, 169, 170, 171, 172, 173, 174, 175, 176, 177, 178, 179, 180, 181, 182, 183, 184, 185, 186, 187, 188, 189, 190, 191, 192, 193, 194, 195, 196, 197, 198, 199, 200, 201, 202, 203, 204, 205, 206, 207, 208, 209, 210, 211, 212, 213, 214, 215, 216, 217, 218, 219, 220, 221, 222, 223, 224, 225, 226, 227, 228, 229, 230, 231, 232, 233, 234, 235, 236, 237, 238, 239, 240, 241, 242, 243, 244, 245, 246, 247, 248, 249, 250, 251, 252, 253, 254, 255, 256, 257, 258, 259, 260, 261, 262, 263, 264, 265, 266, 267, 268, 269, 270, 271, 272, 273, 274, 275, 276, 277, 278, 279, 280, 281, 282, 283, 284, 285, 286, 287, 288, 289, 290, 291, 292, 293, 294, 295, 296, 297, 298, 299, 300, 301, 302, 303, 304, 305, 306, 307, 308, 309, 310, 311, 312, 313, 314, 315, 316, 317, 318, 319, 320, 321, 322, 323, 324, 325, 326, 327, 328, 329, 330, 331, 332, 333, 334, 335, 336, 337, 338, 339, 340, 341, 342, 343, 344, 345, 346, 347, 348, 349, 350, 351, 352, 353, 354, 355, 356, 357, 358, 359, 360, 361, 362, 363, 364, 365, 366, 367, 368, 369, 370, 371, 372, 373, 374, 375, 376, 377, 378, 379, 380, 381, 382, 383, 384, 385, 386, 387, 388, 389, 390, 391, 392, 393, 394, 395, 396, 397, 398, 399, 400, 401, 402, 403, 404, 405, 406, 407, 408, 409, 410, 411, 412, 413, 414, 415, 416, 417, 418, 419, 420, 421, 422, 423, 424, 425, 426, 427, 428, 429, 430, 431, 432, 433, 434, 435, 436, 437, 438, 439, 440, 441, 442, 443, 444, 445, 446, 447, 448, 449, 450, 451, 452, 453, 454, 455, 456, 457, 458, 459, 460, 461, 462, 463, 464, 465, 466, 467, 468, 469, 470, 471, 472, 473, 474, 475, 476, 477, 478, 479, 480, 481, 482, 483, 484, 485, 486, 487, 488, 489, 490, 491, 492, 493, 494, 495, 496, 497, 498, 499, 500, 501, 502, 503, 504, 505, 506, 507, 508, 509, 510, 511, 512, 513, 514, 515, 516, 517, 518, 519, 520, 521, 522, 523, 524, 525, 526, 527, 528, 529, 530, 531, 532, 533, 534, 535, 536, 537, 538, 539, 540, 541, 542, 543, 544, 545, 546, 547, 548, 549, 550, 551, 552, 553, 554, 555, 556, 557, 558, 559, 560, 561, 562, 563, 564, 565, 566, 567, 568, 569, 570, 571, 572, 573, 574, 575, 576, 577, 578, 579, 580, 581, 582, 583, 584, 585, 586, 587, 588, 589, 590, 591, 592, 593, 594, 595, 596, 597, 598, 599, 600, 601, 602, 603, 604, 605, 606, 607, 608, 609, 610, 611, 612, 613, 614, 615, 616, 617, 618, 619, 620, 621, 622, 623, 624, 625, 626, 627, 628, 629, 630, 631, 632, 633, 634, 635, 636, 637, 638, 639, 640, 641, 642, 643, 644, 645, 646, 647, 648, 649, 650, 651, 652, 653, 654, 655, 656, 657, 658, 659, 660, 661, 662, 663, 664, 665, 666, 667, 668, 669, 670, 671, 672, 673, 674, 675, 676, 677, 678, 679, 680, 681, 682, 683, 684, 685, 686, 687, 688, 689, 690, 691, 692, 693, 694, 695, 696, 697, 698, 699, 700, 701, 702, 703, 704, 705, 706, 707, 708, 709, 710, 711, 712, 713, 714, 715, 716, 717, 718, 719, 720, 721, 722, 723, 724, 725, 726, 727, 728, 729, 730, 731, 732, 733, 734, 735, 736, 737, 738, 739, 740, 741, 742, 743, 744, 745, 746, 747, 748, 749, 750, 751, 752, 753, 754, 755, 756, 757, 758, 759, 760, 761, 762, 763, 764, 765, 766, 767, 768, 769, 770, 771, 772, 773, 774, 775, 776, 777, 778, 779, 780, 781, 782, 783, 784, 785, 786, 787, 788, 789, 790, 791, 792, 793, 794, 795, 796, 797, 798, 799, 800, 801, 802, 803, 804, 805, 806, 807, 808, 809, 810, 811, 812, 813, 814, 815, 816, 817, 818, 819, 820, 821, 822, 823, 824, 825, 826, 827, 828, 829, 830, 831, 832, 833, 834, 835, 836, 837, 838, 839, 840, 841, 842, 843, 844, 845, 846, 847, 848, 849, 850, 851, 852, 853, 854, 855, 856, 857, 858, 859, 860, 861, 862, 863, 864, 865, 866, 867, 868, 869, 870, 871, 872],
      "AcquisitionTime": ["210856.880000", "210857.340000", "210857.800000", "210858.260000", "210858.720000", "210859.180000", "210859.640000", "210900.100000", "210900.560000", "210901.020000", "210901.480000", "210901.940000", "210902.400000", "210902.860000", "210903.320000", "210903.780000", "210904.240000", "210904.700000", "210905.160000", "210905.620000", "210906.080000", "210906.540000", "210907.000000", "210907.460000", "210907.920000", "210908.380000", "210908.840000", "210909.300000", "210909.760000", "210910.220000", "210910.680000", "210911.140000", "210911.600000", "210912.060000", "210912.520000", "210912.980000", "210913.440000", "210913.900000", "210914.360000", "210914.820000", "210915.280000", "210915.740000", "210916.200000", "210916.660000", "210917.120000", "210917.580000", "210918.040000", "210918.500000", "210918.960000", "210919.420000", "210919.880000", "210920.340000", "210920.800000", "210921.260000", "210921.720000", "210922.180000", "210922.640000", "210923.100000", "210923.560000", "210924.020000", "210924.480000", "210924.940000", "210925.400000", "210925.860000", "210926.320000", "210926.780000", "210927.240000", "210927.700000", "210928.160000", "210928.620000", "210929.080000", "210929.540000", "210930.000000", "210930.460000", "210930.920000", "210931.380000", "210931.840000", "210932.300000", "210932.760000", "210933.220000", "210933.680000", "210934.140000", "210934.600000", "210935.060000", "210935.520000", "210935.980000", "210936.440000", "210936.900000", "210937.360000", "210937.820000", "210938.280000", "210938.740000", "210939.200000", "210939.660000", "210940.120000", "210940.580000", "210941.040000", "210941.500000", "210941.960000", "210942.420000", "210942.880000", "210943.340000", "210943.800000", "210944.260000", "210944.720000", "210945.180000", "210945.640000", "210946.100000", "210946.560000", "210947.020000", "210947.480000", "210947.940000", "210948.400000", "210948.860000", "210949.320000", "210949.780000", "210950.240000", "210950.700000", "210951.160000", "210951.620000", "210952.080000", "210952.540000", "210953.000000", "210953.460000", "210953.920000", "210954.380000", "210954.840000", "210955.300000", "210955.760000", "210956.220000", "210956.680000", "210957.140000", "210957.600000", "210958.060000", "210958.520000", "210958.980000", "210959.440000", "210959.900000", "211000.360000", "211000.820000", "211001.280000", "211001.740000", "211002.200000", "211002.660000", "211003.120000", "211003.580000", "211004.040000", "211004.500000", "211004.960000", "211005.420000", "211005.880000", "211006.340000", "211006.800000", "211007.260000", "211007.720000", "211008.180000", "211008.640000", "211009.100000", "211009.560000", "211010.020000", "211010.480000", "211010.940000", "211011.400000", "211011.860000", "211012.320000", "211012.780000", "211013.240000", "211013.700000", "211014.160000", "211014.620000", "211015.080000", "211015.540000", "211016.000000", "211016.460000", "211016.920000", "211017.380000", "211017.840000", "211018.300000", "211018.760000", "211019.220000", "211019.680000", "211020.140000", "211020.600000", "211021.060000", "211021.520000", "211021.980000", "211022.440000", "211022.900000", "211023.360000", "211023.820000", "211024.280000", "211024.740000", "211025.200000", "211025.660000", "211026.120000", "211026.580000", "211027.040000", "211027.500000", "211027.960000", "211028.420000", "211028.880000", "211029.340000", "211029.800000", "211030.260000", "211030.720000", "211031.180000", "211031.640000", "211032.100000", "211032.560000", "211033.020000", "211033.480000", "211033.940000", "211034.400000", "211034.860000", "211035.320000", "211035.780000", "211036.240000", "211036.700000", "211037.160000", "211037.620000", "211038.080000", "211038.540000", "211039.000000", "211039.460000", "211039.920000", "211040.380000", "211040.840000", "211041.300000", "211041.760000", "211042.220000", "211042.680000", "211043.140000", "211043.600000", "211044.060000", "211044.520000", "211044.980000", "211045.440000", "211045.900000", "211046.360000", "211046.820000", "211047.280000", "211047.740000", "211048.200000", "211048.660000", "211049.120000", "211049.580000", "211050.040000", "211050.500000", "211050.960000", "211051.420000", "211051.880000", "211052.340000", "211052.800000", "211053.260000", "211053.720000", "211054.180000", "211054.640000", "211055.100000", "211055.560000", "211056.020000", "211056.480000", "211056.940000", "211057.400000", "211057.860000", "211058.320000", "211058.780000", "211059.240000", "211059.700000", "211100.160000", "211100.620000", "211101.080000", "211101.540000", "211102.000000", "211102.460000", "211102.920000", "211103.380000", "211103.840000", "211104.300000", "211104.760000", "211105.220000", "211105.680000", "211106.140000", "211106.600000", "211107.060000", "211107.520000", "211107.980000", "211108.440000", "211108.900000", "211109.360000", "211109.820000", "211110.280000", "211110.740000", "211111.200000", "211111.660000", "211112.120000", "211112.580000", "211113.040000", "211113.500000", "211113.960000", "211114.420000", "211114.880000", "211115.340000", "211115.800000", "211116.260000", "211116.720000", "211117.180000", "211117.640000", "211118.100000", "211118.560000", "211119.020000", "211119.480000", "211119.940000", "211120.400000", "211120.860000", "211121.320000", "211121.780000", "211122.240000", "211122.700000", "211123.160000", "211123.620000", "211124.080000", "211124.540000", "211125.000000", "211125.460000", "211125.920000", "211126.380000", "211126.840000", "211127.300000", "211127.760000", "211128.220000", "211128.680000", "211129.140000", "211129.600000", "211130.060000", "211130.520000", "211130.980000", "211131.440000", "211131.900000", "211132.360000", "211132.820000", "211133.280000", "211133.740000", "211134.200000", "211134.660000", "211135.120000", "211135.580000", "211136.040000", "211136.500000", "211136.960000", "211137.420000", "211137.880000", "211138.340000", "211138.800000", "211139.260000", "211139.720000", "211140.180000", "211140.640000", "211141.100000", "211141.560000", "211142.020000", "211142.480000", "211142.940000", "211143.400000", "211143.860000", "211144.320000", "211144.780000", "211145.240000", "211145.700000", "211146.160000", "211146.620000", "211147.080000", "211147.540000", "211148.000000", "211148.460000", "211148.920000", "211149.380000", "211149.840000", "211150.300000", "211150.760000", "211151.220000", "211151.680000", "211152.140000", "211152.600000", "211153.060000", "211153.520000", "211153.980000", "211154.440000", "211154.900000", "211155.360000", "211155.820000", "211156.280000", "211156.740000", "211157.200000", "211157.660000", "211158.120000", "211158.580000", "211159.040000", "211159.500000", "211159.960000", "211200.420000", "211200.880000", "211201.340000", "211201.800000", "211202.260000", "211202.720000", "211203.180000", "211203.640000", "211204.100000", "211204.560000", "211205.020000", "211205.480000", "211205.940000", "211206.400000", "211206.860000", "211207.320000", "211207.780000", "211208.240000", "211208.700000", "211209.160000", "211209.620000", "211210.080000", "211210.540000", "211211.000000", "211211.460000", "211211.920000", "211212.380000", "211212.840000", "211213.300000", "211213.760000", "211214.220000", "211214.680000", "211215.140000", "211215.600000", "211216.060000", "211216.520000", "211216.980000", "211217.440000", "211217.900000", "211218.360000", "211218.820000", "211219.280000", "211219.740000", "211220.200000", "211220.660000", "211221.120000", "211221.580000", "211222.040000", "211222.500000", "211222.960000", "211223.420000", "211223.880000", "211224.340000", "211224.800000", "211225.260000", "211225.720000", "211226.180000", "211226.640000", "211227.100000", "211227.560000", "211228.020000", "211228.480000", "211228.940000", "211229.400000", "211229.860000", "211230.320000", "211230.780000", "211231.240000", "211231.700000", "211232.160000", "211232.620000", "211233.080000", "211233.540000", "211234.000000", "211234.460000", "211234.920000", "211235.380000", "211235.840000", "211236.300000", "211236.760000", "211237.220000", "211237.680000", "211238.140000", "211238.600000", "211239.060000", "211239.520000", "211239.980000", "211240.440000", "211240.900000", "211241.360000", "211241.820000", "211242.280000", "211242.740000", "211243.200000", "211243.660000", "211244.120000", "211244.580000", "211245.040000", "211245.500000", "211245.960000", "211246.420000", "211246.880000", "211247.340000", "211247.800000", "211248.260000", "211248.720000", "211249.180000", "211249.640000", "211250.100000", "211250.560000", "211251.020000", "211251.480000", "211251.940000", "211252.400000", "211252.860000", "211253.320000", "211253.780000", "211254.240000", "211254.700000", "211255.160000", "211255.620000", "211256.080000", "211256.540000", "211257.000000", "211257.460000", "211257.920000", "211258.380000", "211258.840000", "211259.300000", "211259.760000", "211300.220000", "211300.680000", "211301.140000", "211301.600000", "211302.060000", "211302.520000", "211302.980000", "211303.440000", "211303.900000", "211304.360000", "211304.820000", "211305.280000", "211305.740000", "211306.200000", "211306.660000", "211307.120000", "211307.580000", "211308.040000", "211308.500000", "211308.960000", "211309.420000", "211309.880000", "211310.340000", "211310.800000", "211311.260000", "211311.720000", "211312.180000", "211312.640000", "211313.100000", "211313.560000", "211314.020000", "211314.480000", "211314.940000", "211315.400000", "211315.860000", "211316.320000", "211316.780000", "211317.240000", "211317.700000", "211318.160000", "211318.620000", "211319.080000", "211319.540000", "211320.000000", "211320.460000", "211320.920000", "211321.380000", "211321.840000", "211322.300000", "211322.760000", "211323.220000", "211323.680000", "211324.140000", "211324.600000", "211325.060000", "211325.520000", "211325.980000", "211326.440000", "211326.900000", "211327.360000", "211327.820000", "211328.280000", "211328.740000", "211329.200000", "211329.660000", "211330.120000", "211330.580000", "211331.040000", "211331.500000", "211331.960000", "211332.420000", "211332.880000", "211333.340000", "211333.800000", "211334.260000", "211334.720000", "211335.180000", "211335.640000", "211336.100000", "211336.560000", "211337.020000", "211337.480000", "211337.940000", "211338.400000", "211338.860000", "211339.320000", "211339.780000", "211340.240000", "211340.700000", "211341.160000", "211341.620000", "211342.080000", "211342.540000", "211343.000000", "211343.460000", "211343.920000", "211344.380000", "211344.840000", "211345.300000", "211345.760000", "211346.220000", "211346.680000", "211347.140000", "211347.600000", "211348.060000", "211348.520000", "211348.980000", "211349.440000", "211349.900000", "211350.360000", "211350.820000", "211351.280000", "211351.740000", "211352.200000", "211352.660000", "211353.120000", "211353.580000", "211354.040000", "211354.500000", "211354.960000", "211355.420000", "211355.880000", "211356.340000", "211356.800000", "211357.260000", "211357.720000", "211358.180000", "211358.640000", "211359.100000", "211359.560000", "211400.020000", "211400.480000", "211400.940000", "211401.400000", "211401.860000", "211402.320000", "211402.780000", "211403.240000", "211403.700000", "211404.160000", "211404.620000", "211405.080000", "211405.540000", "211406.000000", "211406.460000", "211406.920000", "211407.380000", "211407.840000", "211408.300000", "211408.760000", "211409.220000", "211409.680000", "211410.140000", "211410.600000", "211411.060000", "211411.520000", "211411.980000", "211412.440000", "211412.900000", "211413.360000", "211413.820000", "211414.280000", "211414.740000", "211415.200000", "211415.660000", "211416.120000", "211416.580000", "211417.040000", "211417.500000", "211417.960000", "211418.420000", "211418.880000", "211419.340000", "211419.800000", "211420.260000", "211420.720000", "211421.180000", "211421.640000", "211422.100000", "211422.560000", "211423.020000", "211423.480000", "211423.940000", "211424.400000", "211424.860000", "211425.320000", "211425.780000", "211426.240000", "211426.700000", "211427.160000", "211427.620000", "211428.080000", "211428.540000", "211429.000000", "211429.460000", "211429.920000", "211430.380000", "211430.840000", "211431.300000", "211431.760000", "211432.220000", "211432.680000", "211433.140000", "211433.600000", "211434.060000", "211434.520000", "211434.980000", "211435.440000", "211435.900000", "211436.360000", "211436.820000", "211437.280000", "211437.740000", "211438.200000", "211438.660000", "211439.120000", "211439.580000", "211440.040000", "211440.500000", "211440.960000", "211441.420000", "211441.880000", "211442.340000", "211442.800000", "211443.260000", "211443.720000", "211444.180000", "211444.640000", "211445.100000", "211445.560000", "211446.020000", "211446.480000", "211446.940000", "211447.400000", "211447.860000", "211448.320000", "211448.780000", "211449.240000", "211449.700000", "211450.160000", "211450.620000", "211451.080000", "211451.540000", "211452.000000", "211452.460000", "211452.920000", "211453.380000", "211453.840000", "211454.300000", "211454.760000", "211455.220000", "211455.680000", "211456.140000", "211456.600000", "211457.060000", "211457.520000", "211457.980000", "211458.440000", "211458.900000", "211459.360000", "211459.820000", "211500.280000", "211500.740000", "211501.200000", "211501.660000", "211502.120000", "211502.580000", "211503.040000", "211503.500000", "211503.960000", "211504.420000", "211504.880000", "211505.340000", "211505.800000", "211506.260000", "211506.720000", "211507.180000", "211507.640000", "211508.100000", "211508.560000", "211509.020000", "211509.480000", "211509.940000", "211510.400000", "211510.860000", "211511.320000", "211511.780000", "211512.240000", "211512.700000", "211513.160000", "211513.620000", "211514.080000", "211514.540000", "211515.000000", "211515.460000", "211515.920000", "211516.380000", "211516.840000", "211517.300000", "211517.760000", "211518.220000", "211518.680000", "211519.140000", "211519.600000", "211520.060000", "211520.520000", "211520.980000", "211521.440000", "211521.900000", "211522.360000", "211522.820000", "211523.280000", "211523.740000", "211524.200000", "211524.660000", "211525.120000", "211525.580000", "211526.040000", "211526.500000", "211526.960000", "211527.420000", "211527.880000", "211528.340000", "211528.800000", "211529.260000", "211529.720000", "211530.180000", "211530.640000", "211531.100000", "211531.560000", "211532.020000", "211532.480000", "211532.940000", "211533.400000", "211533.860000", "211534.320000", "211534.780000", "211535.240000", "211535.700000", "211536.160000", "211536.620000", "211537.080000", "211537.540000"],
