{
  "AcquisitionMatrixPE": 82,
  "AcquisitionNumber": 1,
  "AcquisitionTime": "21:01:24.960000",
  "BandwidthPerPixelPhaseEncode": 24.888,
  "BaseResolution": 82,
  "BodyPartExamined": "BRAIN",
  "ConsistencyInfo": "N4_VE11E_LATEST_20181129",
  "ConversionSoftware": "dcm2niix",
  "ConversionSoftwareVersion": "v1.0.20201102",
  "DerivedVendorReportedEchoSpacing": 0.00049,
  "DeviceSerialNumber": "66112",
  "DwellTime": 2e-06,
  "EchoTime": 0.0272,
  "EchoTrainLength": 82,
  "EffectiveEchoSpacing": 0.00049,
  "FlipAngle": 44,
  "ImageComments": "Unaliased MB8/PE3",
  "ImageOrientationPatientDICOM": [0.998195, 0.0408599, 0.0440112, -0.0336367, 0.987513, -0.153908],
  "ImageType": [
    "ORIGINAL",
    "PRIMARY",
    "M",
    "MB",
    "ND",
    "NORM",
    "MOSAIC"
],
  "ImagingFrequency": 123.259,
  "InPlanePhaseEncodingDirectionDICOM": "COL",
  "InstitutionAddress": "Maynard 3,Hanover,NH,US,03755",
  "InstitutionName": "Dartmouth College - PBS",
  "InstitutionalDepartmentName": "Department",
  "MRAcquisitionType": "2D",
  "MagneticFieldStrength": 3,
  "Manufacturer": "Siemens",
  "ManufacturersModelName": "Prisma",
  "Modality": "MR",
  "MultibandAccelerationFactor": 8,
  "PartialFourier": 1,
  "PatientPosition": "HFS",
  "PercentPhaseFOV": 100,
  "PercentSampling": 100,
  "PhaseEncodingDirection": "j-",
  "PhaseEncodingSteps": 82,
  "PhaseResolution": 1,
  "PixelBandwidth": 3050,
  "ProcedureStepDescription": "Wager_Wager^1076_spacetop",
  "ProtocolName": "func_run-04_task-social_acq-ap-mb8",
  "PulseSequenceDetails": "%CustomerSeq%\\cmrr_mbep2d_bold",
  "ReceiveCoilActiveElements": "HEA;HEP",
  "ReceiveCoilName": "Head_32",
  "ReconMatrixPE": 82,
  "RepetitionTime": 0.46,
  "SAR": 0.0820545,
  "ScanOptions": "FS",
  "ScanningSequence": "EP",
  "SequenceName": "epfid2d1_82",
  "SequenceVariant": "SK\\SS",
  "SeriesDescription": "func_run-04_task-social_acq-ap-mb8",
  "SeriesNumber": 14,
  "ShimSetting": [4227, -7721, -7273, 230, -173, -190, -146, 81],
  "SliceThickness": 2.7,
  "SliceTiming": [0, 0.2525, 0.0625, 0.315, 0.125, 0.3775, 0.1875, 0, 0.2525, 0.0625, 0.315, 0.125, 0.3775, 0.1875, 0, 0.2525, 0.0625, 0.315, 0.125, 0.3775, 0.1875, 0, 0.2525, 0.0625, 0.315, 0.125, 0.3775, 0.1875, 0, 0.2525, 0.0625, 0.315, 0.125, 0.3775, 0.1875, 0, 0.2525, 0.0625, 0.315, 0.125, 0.3775, 0.1875, 0, 0.2525, 0.0625, 0.315, 0.125, 0.3775, 0.1875, 0, 0.2525, 0.0625, 0.315, 0.125, 0.3775, 0.1875],
  "SoftwareVersions": "syngo MR E11",
  "SpacingBetweenSlices": 2.7,
  "StationName": "AWP66112",
  "TaskName": "social",
  "TotalReadoutTime": 0.03969,
  "TxRefAmp": 241.318,
  "WipMemBlock": "9dab8484-d9a0-4ed2-9e82-b8177046c2a2||Sequence: R016 ve11e/master r/434b28f1; Aug  7 2019 18:53:46 by eja",
  "dcmmeta_affine": [
    [-2.6780846118927, -0.09024490416049957, 0.13432583212852478, 109.98057556152344],
    [-0.1096242144703865, 2.649423837661743, -0.41080376505851746, -92.1328125],
    [0.11807893961668015, 0.4129231572151184, 2.66518235206604, -113.23271942138672],
    [0.0, 0.0, 0.0, 1.0]
],
  "dcmmeta_reorient_transform": [
    [0.0, -1.0, 0.0, 81.0],
    [1.0, 0.0, 0.0, 0.0],
    [0.0, 0.0, 1.0, 0.0],
    [0.0, 0.0, 0.0, 1.0]
],
  "dcmmeta_shape": [82, 82, 56, 872],
  "dcmmeta_slice_dim": 2,
  "dcmmeta_version": 0.6,
  "global": {
    "const": {
      "AccessionNumber": "A004526",
      "AcquisitionMatrix": [82, 0, 0, 82],
      "AngioFlag": "N",
      "BitsAllocated": 16,
      "BitsStored": 16,
      "BodyPartExamined": "BRAIN",
      "Columns": 656,
      "EchoNumbers": 1,
      "EchoTime": 27.2,
      "EchoTrainLength": 82,
      "FlipAngle": 44.0,
      "HighBit": 15,
      "ImageOrientationPatient": [0.99819510952398, 0.04085993368415, 0.04401123881175, -0.0336367372995, 0.98751252290311, -0.1539077223968],
      "ImagePositionPatient": [-845.38070060567, -914.31733648112, 4.8343503654538],
      "ImageType": [
        "ORIGINAL",
        "PRIMARY",
        "M",
        "MB",
        "ND",
        "NORM",
        "MOSAIC"
],
      "ImagedNucleus": "1H",
      "ImagingFrequency": 123.259118,
      "InPlanePhaseEncodingDirection": "COL",
      "MRAcquisitionType": "2D",
      "MagneticFieldStrength": 3.0,
      "Manufacturer": "SIEMENS",
      "ManufacturerModelName": "Prisma",
      "Modality": "MR",
      "NumberOfAverages": 1.0,
      "NumberOfPhaseEncodingSteps": 82,
      "PercentPhaseFieldOfView": 100.0,
      "PercentSampling": 100.0,
      "PerformedProcedureStepStartTime": "202633.439000",
      "PhotometricInterpretation": "MONOCHROME2",
      "PixelBandwidth": 3050.0,
      "PixelRepresentation": 0,
      "PixelSpacing": [2.6829268932343, 2.6829268932343],
      "ProtocolName": "func_run-04_task-social_acq-ap-mb8",
      "RepetitionTime": 460.0,
      "Rows": 656,
      "SAR": 0.08205448827536,
      "SamplesPerPixel": 1,
      "ScanOptions": "FS",
      "ScanningSequence": "EP",
      "SequenceName": "epfid2d1_82",
      "SequenceVariant": [
        "SK",
        "SS"
],
      "SeriesDescription": "func_run-04_task-social_acq-ap-mb8",
      "SeriesNumber": 14,
      "SeriesTime": "210151.961000",
      "SliceLocation": -92.283003149482,
      "SliceThickness": 2.7000000476837,
      "SmallestImagePixelValue": 0,
      "SoftwareVersions": "syngo MR E11",
      "SpacingBetweenSlices": 2.7000000285543,
      "SpecificCharacterSet": "ISO_IR 100",
      "StudyID": "1",
      "StudyTime": "202633.330000",
      "TransmitCoilName": "Body",
      "VariableFlipAngleFlag": "N",
      "WindowCenterWidthExplanation": "Algo1"
    },
    "slices": {}
  },
  "time": {
    "samples": {
      "AcquisitionNumber": [1, 2, 3, 4, 5, 6, 7, 8, 9, 10, 11, 12, 13, 14, 15, 16, 17, 18, 19, 20, 21, 22, 23, 24, 25, 26, 27, 28, 29, 30, 31, 32, 33, 34, 35, 36, 37, 38, 39, 40, 41, 42, 43, 44, 45, 46, 47, 48, 49, 50, 51, 52, 53, 54, 55, 56, 57, 58, 59, 60, 61, 62, 63, 64, 65, 66, 67, 68, 69, 70, 71, 72, 73, 74, 75, 76, 77, 78, 79, 80, 81, 82, 83, 84, 85, 86, 87, 88, 89, 90, 91, 92, 93, 94, 95, 96, 97, 98, 99, 100, 101, 102, 103, 104, 105, 106, 107, 108, 109, 110, 111, 112, 113, 114, 115, 116, 117, 118, 119, 120, 121, 122, 123, 124, 125, 126, 127, 128, 129, 130, 131, 132, 133, 134, 135, 136, 137, 138, 139, 140, 141, 142, 143, 144, 145, 146, 147, 148, 149, 150, 151, 152, 153, 154, 155, 156, 157, 158, 159, 160, 161, 162, 163, 164, 165, 166, 167, 168, 169, 170, 171, 172, 173, 174, 175, 176, 177, 178, 179, 180, 181, 182, 183, 184, 185, 186, 187, 188, 189, 190, 191, 192, 193, 194, 195, 196, 197, 198, 199, 200, 201, 202, 203, 204, 205, 206, 207, 208, 209, 210, 211, 212, 213, 214, 215, 216, 217, 218, 219, 220, 221, 222, 223, 224, 225, 226, 227, 228, 229, 230, 231, 232, 233, 234, 235, 236, 237, 238, 239, 240, 241, 242, 243, 244, 245, 246, 247, 248, 249, 250, 251, 252, 253, 254, 255, 256, 257, 258, 259, 260, 261, 262, 263, 264, 265, 266, 267, 268, 269, 270, 271, 272, 273, 274, 275, 276, 277, 278, 279, 280, 281, 282, 283, 284, 285, 286, 287, 288, 289, 290, 291, 292, 293, 294, 295, 296, 297, 298, 299, 300, 301, 302, 303, 304, 305, 306, 307, 308, 309, 310, 311, 312, 313, 314, 315, 316, 317, 318, 319, 320, 321, 322, 323, 324, 325, 326, 327, 328, 329, 330, 331, 332, 333, 334, 335, 336, 337, 338, 339, 340, 341, 342, 343, 344, 345, 346, 347, 348, 349, 350, 351, 352, 353, 354, 355, 356, 357, 358, 359, 360, 361, 362, 363, 364, 365, 366, 367, 368, 369, 370, 371, 372, 373, 374, 375, 376, 377, 378, 379, 380, 381, 382, 383, 384, 385, 386, 387, 388, 389, 390, 391, 392, 393, 394, 395, 396, 397, 398, 399, 400, 401, 402, 403, 404, 405, 406, 407, 408, 409, 410, 411, 412, 413, 414, 415, 416, 417, 418, 419, 420, 421, 422, 423, 424, 425, 426, 427, 428, 429, 430, 431, 432, 433, 434, 435, 436, 437, 438, 439, 440, 441, 442, 443, 444, 445, 446, 447, 448, 449, 450, 451, 452, 453, 454, 455, 456, 457, 458, 459, 460, 461, 462, 463, 464, 465, 466, 467, 468, 469, 470, 471, 472, 473, 474, 475, 476, 477, 478, 479, 480, 481, 482, 483, 484, 485, 486, 487, 488, 489, 490, 491, 492, 493, 494, 495, 496, 497, 498, 499, 500, 501, 502, 503, 504, 505, 506, 507, 508, 509, 510, 511, 512, 513, 514, 515, 516, 517, 518, 519, 520, 521, 522, 523, 524, 525, 526, 527, 528, 529, 530, 531, 532, 533, 534, 535, 536, 537, 538, 539, 540, 541, 542, 543, 544, 545, 546, 547, 548, 549, 550, 551, 552, 553, 554, 555, 556, 557, 558, 559, 560, 561, 562, 563, 564, 565, 566, 567, 568, 569, 570, 571, 572, 573, 574, 575, 576, 577, 578, 579, 580, 581, 582, 583, 584, 585, 586, 587, 588, 589, 590, 591, 592, 593, 594, 595, 596, 597, 598, 599, 600, 601, 602, 603, 604, 605, 606, 607, 608, 609, 610, 611, 612, 613, 614, 615, 616, 617, 618, 619, 620, 621, 622, 623, 624, 625, 626, 627, 628, 629, 630, 631, 632, 633, 634, 635, 636, 637, 638, 639, 640, 641, 642, 643, 644, 645, 646, 647, 648, 649, 650, 651, 652, 653, 654, 655, 656, 657, 658, 659, 660, 661, 662, 663, 664, 665, 666, 667, 668, 669, 670, 671, 672, 673, 674, 675, 676, 677, 678, 679, 680, 681, 682, 683, 684, 685, 686, 687, 688, 689, 690, 691, 692, 693, 694, 695, 696, 697, 698, 699, 700, 701, 702, 703, 704, 705, 706, 707, 708, 709, 710, 711, 712, 713, 714, 715, 716, 717, 718, 719, 720, 721, 722, 723, 724, 725, 726, 727, 728, 729, 730, 731, 732, 733, 734, 735, 736, 737, 738, 739, 740, 741, 742, 743, 744, 745, 746, 747, 748, 749, 750, 751, 752, 753, 754, 755, 756, 757, 758, 759, 760, 761, 762, 763, 764, 765, 766, 767, 768, 769, 770, 771, 772, 773, 774, 775, 776, 777, 778, 779, 780, 781, 782, 783, 784, 785, 786, 787, 788, 789, 790, 791, 792, 793, 794, 795, 796, 797, 798, 799, 800, 801, 802, 803, 804, 805, 806, 807, 808, 809, 810, 811, 812, 813, 814, 815, 816, 817, 818, 819, 820, 821, 822, 823, 824, 825, 826, 827, 828, 829, 830, 831, 832, 833, 834, 835, 836, 837, 838, 839, 840, 841, 842, 843, 844, 845, 846, 847, 848, 849, 850, 851, 852, 853, 854, 855, 856, 857, 858, 859, 860, 861, 862, 863, 864, 865, 866, 867, 868, 869, 870, 871, 872],
      "AcquisitionTime": ["210124.960000", "210125.420000", "210125.880000", "210126.340000", "210126.800000", "210127.260000", "210127.720000", "210128.180000", "210128.640000", "210129.100000", "210129.560000", "210130.020000", "210130.480000", "210130.940000", "210131.400000", "210131.860000", "210132.320000", "210132.780000", "210133.240000", "210133.700000", "210134.160000", "210134.620000", "210135.080000", "210135.540000", "210136.000000", "210136.460000", "210136.920000", "210137.380000", "210137.840000", "210138.300000", "210138.760000", "210139.220000", "210139.680000", "210140.140000", "210140.600000", "210141.060000", "210141.520000", "210141.980000", "210142.440000", "210142.900000", "210143.360000", "210143.820000", "210144.280000", "210144.740000", "210145.200000", "210145.660000", "210146.120000", "210146.580000", "210147.040000", "210147.500000", "210147.960000", "210148.420000", "210148.880000", "210149.340000", "210149.800000", "210150.260000", "210150.720000", "210151.180000", "210151.640000", "210152.100000", "210152.560000", "210153.020000", "210153.480000", "210153.940000", "210154.400000", "210154.860000", "210155.320000", "210155.780000", "210156.240000", "210156.700000", "210157.160000", "210157.620000", "210158.080000", "210158.540000", "210159.000000", "210159.460000", "210159.920000", "210200.380000", "210200.840000", "210201.300000", "210201.760000", "210202.220000", "210202.680000", "210203.140000", "210203.600000", "210204.060000", "210204.520000", "210204.980000", "210205.440000", "210205.900000", "210206.360000", "210206.820000", "210207.280000", "210207.740000", "210208.200000", "210208.660000", "210209.120000", "210209.580000", "210210.040000", "210210.500000", "210210.960000", "210211.420000", "210211.880000", "210212.340000", "210212.800000", "210213.260000", "210213.720000", "210214.180000", "210214.640000", "210215.100000", "210215.560000", "210216.020000", "210216.480000", "210216.940000", "210217.400000", "210217.860000", "210218.320000", "210218.780000", "210219.240000", "210219.700000", "210220.160000", "210220.620000", "210221.080000", "210221.540000", "210222.000000", "210222.460000", "210222.920000", "210223.380000", "210223.840000", "210224.300000", "210224.760000", "210225.220000", "210225.680000", "210226.140000", "210226.600000", "210227.060000", "210227.520000", "210227.980000", "210228.440000", "210228.900000", "210229.360000", "210229.820000", "210230.280000", "210230.740000", "210231.200000", "210231.660000", "210232.120000", "210232.580000", "210233.040000", "210233.500000", "210233.960000", "210234.420000", "210234.880000", "210235.340000", "210235.800000", "210236.260000", "210236.720000", "210237.180000", "210237.640000", "210238.100000", "210238.560000", "210239.020000", "210239.480000", "210239.940000", "210240.400000", "210240.860000", "210241.320000", "210241.780000", "210242.240000", "210242.700000", "210243.160000", "210243.620000", "210244.080000", "210244.540000", "210245.000000", "210245.460000", "210245.920000", "210246.380000", "210246.840000", "210247.300000", "210247.760000", "210248.220000", "210248.680000", "210249.140000", "210249.600000", "210250.060000", "210250.520000", "210250.980000", "210251.440000", "210251.900000", "210252.360000", "210252.820000", "210253.280000", "210253.740000", "210254.200000", "210254.660000", "210255.120000", "210255.580000", "210256.040000", "210256.500000", "210256.960000", "210257.420000", "210257.880000", "210258.340000", "210258.800000", "210259.260000", "210259.720000", "210300.180000", "210300.640000", "210301.100000", "210301.560000", "210302.020000", "210302.480000", "210302.940000", "210303.400000", "210303.860000", "210304.320000", "210304.780000", "210305.240000", "210305.700000", "210306.160000", "210306.620000", "210307.080000", "210307.540000", "210308.000000", "210308.460000", "210308.920000", "210309.380000", "210309.840000", "210310.300000", "210310.760000", "210311.220000", "210311.680000", "210312.140000", "210312.600000", "210313.060000", "210313.520000", "210313.980000", "210314.440000", "210314.900000", "210315.360000", "210315.820000", "210316.280000", "210316.740000", "210317.200000", "210317.660000", "210318.120000", "210318.580000", "210319.040000", "210319.500000", "210319.960000", "210320.420000", "210320.880000", "210321.340000", "210321.800000", "210322.260000", "210322.720000", "210323.180000", "210323.640000", "210324.100000", "210324.560000", "210325.020000", "210325.480000", "210325.940000", "210326.400000", "210326.860000", "210327.320000", "210327.780000", "210328.240000", "210328.700000", "210329.160000", "210329.620000", "210330.080000", "210330.540000", "210331.000000", "210331.460000", "210331.920000", "210332.380000", "210332.840000", "210333.300000", "210333.760000", "210334.220000", "210334.680000", "210335.140000", "210335.600000", "210336.060000", "210336.520000", "210336.980000", "210337.440000", "210337.900000", "210338.360000", "210338.820000", "210339.280000", "210339.740000", "210340.200000", "210340.660000", "210341.120000", "210341.580000", "210342.040000", "210342.500000", "210342.960000", "210343.420000", "210343.880000", "210344.340000", "210344.800000", "210345.260000", "210345.720000", "210346.180000", "210346.640000", "210347.100000", "210347.560000", "210348.020000", "210348.480000", "210348.940000", "210349.400000", "210349.860000", "210350.320000", "210350.780000", "210351.240000", "210351.700000", "210352.160000", "210352.620000", "210353.080000", "210353.540000", "210354.000000", "210354.460000", "210354.920000", "210355.380000", "210355.840000", "210356.300000", "210356.760000", "210357.220000", "210357.680000", "210358.140000", "210358.600000", "210359.060000", "210359.520000", "210359.980000", "210400.440000", "210400.900000", "210401.360000", "210401.820000", "210402.280000", "210402.740000", "210403.200000", "210403.660000", "210404.120000", "210404.580000", "210405.040000", "210405.500000", "210405.960000", "210406.420000", "210406.880000", "210407.340000", "210407.800000", "210408.260000", "210408.720000", "210409.180000", "210409.640000", "210410.100000", "210410.560000", "210411.020000", "210411.480000", "210411.940000", "210412.400000", "210412.860000", "210413.320000", "210413.780000", "210414.240000", "210414.700000", "210415.160000", "210415.620000", "210416.080000", "210416.540000", "210417.000000", "210417.460000", "210417.920000", "210418.380000", "210418.840000", "210419.300000", "210419.760000", "210420.220000", "210420.680000", "210421.140000", "210421.600000", "210422.060000", "210422.520000", "210422.980000", "210423.440000", "210423.900000", "210424.360000", "210424.820000", "210425.280000", "210425.740000", "210426.200000", "210426.660000", "210427.120000", "210427.580000", "210428.040000", "210428.500000", "210428.960000", "210429.420000", "210429.880000", "210430.340000", "210430.800000", "210431.260000", "210431.720000", "210432.180000", "210432.640000", "210433.100000", "210433.560000", "210434.020000", "210434.480000", "210434.940000", "210435.400000", "210435.860000", "210436.320000", "210436.780000", "210437.240000", "210437.700000", "210438.160000", "210438.620000", "210439.080000", "210439.540000", "210440.000000", "210440.460000", "210440.920000", "210441.380000", "210441.840000", "210442.300000", "210442.760000", "210443.220000", "210443.680000", "210444.140000", "210444.600000", "210445.060000", "210445.520000", "210445.980000", "210446.440000", "210446.900000", "210447.360000", "210447.820000", "210448.280000", "210448.740000", "210449.200000", "210449.660000", "210450.120000", "210450.580000", "210451.040000", "210451.500000", "210451.960000", "210452.420000", "210452.880000", "210453.340000", "210453.800000", "210454.260000", "210454.720000", "210455.180000", "210455.640000", "210456.100000", "210456.560000", "210457.020000", "210457.480000", "210457.940000", "210458.400000", "210458.860000", "210459.320000", "210459.780000", "210500.240000", "210500.700000", "210501.160000", "210501.620000", "210502.080000", "210502.540000", "210503.000000", "210503.460000", "210503.920000", "210504.380000", "210504.840000", "210505.300000", "210505.760000", "210506.220000", "210506.680000", "210507.140000", "210507.600000", "210508.060000", "210508.520000", "210508.980000", "210509.440000", "210509.900000", "210510.360000", "210510.820000", "210511.280000", "210511.740000", "210512.200000", "210512.660000", "210513.120000", "210513.580000", "210514.040000", "210514.500000", "210514.960000", "210515.420000", "210515.880000", "210516.340000", "210516.800000", "210517.260000", "210517.720000", "210518.180000", "210518.640000", "210519.100000", "210519.560000", "210520.020000", "210520.480000", "210520.940000", "210521.400000", "210521.860000", "210522.320000", "210522.780000", "210523.240000", "210523.700000", "210524.160000", "210524.620000", "210525.080000", "210525.540000", "210526.000000", "210526.460000", "210526.920000", "210527.380000", "210527.840000", "210528.300000", "210528.760000", "210529.220000", "210529.680000", "210530.140000", "210530.600000", "210531.060000", "210531.520000", "210531.980000", "210532.440000", "210532.900000", "210533.360000", "210533.820000", "210534.280000", "210534.740000", "210535.200000", "210535.660000", "210536.120000", "210536.580000", "210537.040000", "210537.500000", "210537.960000", "210538.420000", "210538.880000", "210539.340000", "210539.800000", "210540.260000", "210540.720000", "210541.180000", "210541.640000", "210542.100000", "210542.560000", "210543.020000", "210543.480000", "210543.940000", "210544.400000", "210544.860000", "210545.320000", "210545.780000", "210546.240000", "210546.700000", "210547.160000", "210547.620000", "210548.080000", "210548.540000", "210549.000000", "210549.460000", "210549.920000", "210550.380000", "210550.840000", "210551.300000", "210551.760000", "210552.220000", "210552.680000", "210553.140000", "210553.600000", "210554.060000", "210554.520000", "210554.980000", "210555.440000", "210555.900000", "210556.360000", "210556.820000", "210557.280000", "210557.740000", "210558.200000", "210558.660000", "210559.120000", "210559.580000", "210600.040000", "210600.500000", "210600.960000", "210601.420000", "210601.880000", "210602.340000", "210602.800000", "210603.260000", "210603.720000", "210604.180000", "210604.640000", "210605.100000", "210605.560000", "210606.020000", "210606.480000", "210606.940000", "210607.400000", "210607.860000", "210608.320000", "210608.780000", "210609.240000", "210609.700000", "210610.160000", "210610.620000", "210611.080000", "210611.540000", "210612.000000", "210612.460000", "210612.920000", "210613.380000", "210613.840000", "210614.300000", "210614.760000", "210615.220000", "210615.680000", "210616.140000", "210616.600000", "210617.060000", "210617.520000", "210617.980000", "210618.440000", "210618.900000", "210619.360000", "210619.820000", "210620.280000", "210620.740000", "210621.200000", "210621.660000", "210622.120000", "210622.580000", "210623.040000", "210623.500000", "210623.960000", "210624.420000", "210624.880000", "210625.340000", "210625.800000", "210626.260000", "210626.720000", "210627.180000", "210627.640000", "210628.100000", "210628.560000", "210629.020000", "210629.480000", "210629.940000", "210630.400000", "210630.860000", "210631.320000", "210631.780000", "210632.240000", "210632.700000", "210633.160000", "210633.620000", "210634.080000", "210634.540000", "210635.000000", "210635.460000", "210635.920000", "210636.380000", "210636.840000", "210637.300000", "210637.760000", "210638.220000", "210638.680000", "210639.140000", "210639.600000", "210640.060000", "210640.520000", "210640.980000", "210641.440000", "210641.900000", "210642.360000", "210642.820000", "210643.280000", "210643.740000", "210644.200000", "210644.660000", "210645.120000", "210645.580000", "210646.040000", "210646.500000", "210646.960000", "210647.420000", "210647.880000", "210648.340000", "210648.800000", "210649.260000", "210649.720000", "210650.180000", "210650.640000", "210651.100000", "210651.560000", "210652.020000", "210652.480000", "210652.940000", "210653.400000", "210653.860000", "210654.320000", "210654.780000", "210655.240000", "210655.700000", "210656.160000", "210656.620000", "210657.080000", "210657.540000", "210658.000000", "210658.460000", "210658.920000", "210659.380000", "210659.840000", "210700.300000", "210700.760000", "210701.220000", "210701.680000", "210702.140000", "210702.600000", "210703.060000", "210703.520000", "210703.980000", "210704.440000", "210704.900000", "210705.360000", "210705.820000", "210706.280000", "210706.740000", "210707.200000", "210707.660000", "210708.120000", "210708.580000", "210709.040000", "210709.500000", "210709.960000", "210710.420000", "210710.880000", "210711.340000", "210711.800000", "210712.260000", "210712.720000", "210713.180000", "210713.640000", "210714.100000", "210714.560000", "210715.020000", "210715.480000", "210715.940000", "210716.400000", "210716.860000", "210717.320000", "210717.780000", "210718.240000", "210718.700000", "210719.160000", "210719.620000", "210720.080000", "210720.540000", "210721.000000", "210721.460000", "210721.920000", "210722.380000", "210722.840000", "210723.300000", "210723.760000", "210724.220000", "210724.680000", "210725.140000", "210725.600000", "210726.060000", "210726.520000", "210726.980000", "210727.440000", "210727.900000", "210728.360000", "210728.820000", "210729.280000", "210729.740000", "210730.200000", "210730.660000", "210731.120000", "210731.580000", "210732.040000", "210732.500000", "210732.960000", "210733.420000", "210733.880000", "210734.340000", "210734.800000", "210735.260000", "210735.720000", "210736.180000", "210736.640000", "210737.100000", "210737.560000", "210738.020000", "210738.480000", "210738.940000", "210739.400000", "210739.860000", "210740.320000", "210740.780000", "210741.240000", "210741.700000", "210742.160000", "210742.620000", "210743.080000", "210743.540000", "210744.000000", "210744.460000", "210744.920000", "210745.380000", "210745.840000", "210746.300000", "210746.760000", "210747.220000", "210747.680000", "210748.140000", "210748.600000", "210749.060000", "210749.520000", "210749.980000", "210750.440000", "210750.900000", "210751.360000", "210751.820000", "210752.280000", "210752.740000", "210753.200000", "210753.660000", "210754.120000", "210754.580000", "210755.040000", "210755.500000", "210755.960000", "210756.420000", "210756.880000", "210757.340000", "210757.800000", "210758.260000", "210758.720000", "210759.180000", "210759.640000", "210800.100000", "210800.560000", "210801.020000", "210801.480000", "210801.940000", "210802.400000", "210802.860000", "210803.320000", "210803.780000", "210804.240000", "210804.700000", "210805.160000", "210805.620000"],
