{
  "AcquisitionMatrixPE": 82,
  "AcquisitionNumber": 1,
  "AcquisitionTime": "20:44:30.640000",
  "BandwidthPerPixelPhaseEncode": 24.888,
  "BaseResolution": 82,
  "BodyPartExamined": "BRAIN",
  "ConsistencyInfo": "N4_VE11E_LATEST_20181129",
  "ConversionSoftware": "dcm2niix",
  "ConversionSoftwareVersion": "v1.0.20201102",
  "DerivedVendorReportedEchoSpacing": 0.00049,
  "DeviceSerialNumber": "66112",
  "DwellTime": 2e-06,
  "EchoTime": 0.0272,
  "EchoTrainLength": 82,
  "EffectiveEchoSpacing": 0.00049,
  "FlipAngle": 44,
  "ImageComments": "Unaliased MB8/PE3",
  "ImageOrientationPatientDICOM": [0.998195, 0.0408599, 0.0440112, -0.0336367, 0.987513, -0.153908],
  "ImageType": [
    "ORIGINAL",
    "PRIMARY",
    "M",
    "MB",
    "ND",
    "NORM",
    "MOSAIC"
],
  "ImagingFrequency": 123.259,
  "InPlanePhaseEncodingDirectionDICOM": "COL",
  "InstitutionAddress": "Maynard 3,Hanover,NH,US,03755",
  "InstitutionName": "Dartmouth College - PBS",
  "InstitutionalDepartmentName": "Department",
  "MRAcquisitionType": "2D",
  "MagneticFieldStrength": 3,
  "Manufacturer": "Siemens",
  "ManufacturersModelName": "Prisma",
  "Modality": "MR",
  "MultibandAccelerationFactor": 8,
  "PartialFourier": 1,
  "PatientPosition": "HFS",
  "PercentPhaseFOV": 100,
  "PercentSampling": 100,
  "PhaseEncodingDirection": "j-",
  "PhaseEncodingSteps": 82,
  "PhaseResolution": 1,
  "PixelBandwidth": 3050,
  "ProcedureStepDescription": "Wager_Wager^1076_spacetop",
  "ProtocolName": "func_run-02_task-social_acq-ap-mb8",
  "PulseSequenceDetails": "%CustomerSeq%\\cmrr_mbep2d_bold",
  "ReceiveCoilActiveElements": "HEA;HEP",
  "ReceiveCoilName": "Head_32",
  "ReconMatrixPE": 82,
  "RepetitionTime": 0.46,
  "SAR": 0.0820545,
  "ScanOptions": "FS",
  "ScanningSequence": "EP",
  "SequenceName": "epfid2d1_82",
  "SequenceVariant": "SK\\SS",
  "SeriesDescription": "func_run-02_task-social_acq-ap-mb8",
  "SeriesNumber": 10,
  "ShimSetting": [4227, -7721, -7273, 230, -173, -190, -146, 81],
  "SliceThickness": 2.7,
  "SliceTiming": [0, 0.25, 0.0625, 0.3125, 0.125, 0.375, 0.1875, 0, 0.25, 0.0625, 0.3125, 0.125, 0.375, 0.1875, 0, 0.25, 0.0625, 0.3125, 0.125, 0.375, 0.1875, 0, 0.25, 0.0625, 0.3125, 0.125, 0.375, 0.1875, 0, 0.25, 0.0625, 0.3125, 0.125, 0.375, 0.1875, 0, 0.25, 0.0625, 0.3125, 0.125, 0.375, 0.1875, 0, 0.25, 0.0625, 0.3125, 0.125, 0.375, 0.1875, 0, 0.25, 0.0625, 0.3125, 0.125, 0.375, 0.1875],
  "SoftwareVersions": "syngo MR E11",
  "SpacingBetweenSlices": 2.7,
  "StationName": "AWP66112",
  "TaskName": "social",
  "TotalReadoutTime": 0.03969,
  "TxRefAmp": 241.318,
  "WipMemBlock": "94f055cd-d1f5-495d-a867-647878e19181||Sequence: R016 ve11e/master r/434b28f1; Aug  7 2019 18:53:46 by eja",
  "dcmmeta_affine": [
    [-2.6780846118927, -0.09024490416049957, 0.13432583212852478, 109.98057556152344],
    [-0.1096242144703865, 2.649423837661743, -0.41080376505851746, -92.1328125],
    [0.11807893961668015, 0.4129231572151184, 2.66518235206604, -113.23271942138672],
    [0.0, 0.0, 0.0, 1.0]
],
  "dcmmeta_reorient_transform": [
    [0.0, -1.0, 0.0, 81.0],
    [1.0, 0.0, 0.0, 0.0],
    [0.0, 0.0, 1.0, 0.0],
    [0.0, 0.0, 0.0, 1.0]
],
  "dcmmeta_shape": [82, 82, 56, 872],
  "dcmmeta_slice_dim": 2,
  "dcmmeta_version": 0.6,
  "global": {
    "const": {
      "AccessionNumber": "A004526",
      "AcquisitionMatrix": [82, 0, 0, 82],
      "AngioFlag": "N",
      "BitsAllocated": 16,
      "BitsStored": 16,
      "BodyPartExamined": "BRAIN",
      "Columns": 656,
      "EchoNumbers": 1,
      "EchoTime": 27.2,
      "EchoTrainLength": 82,
      "FlipAngle": 44.0,
      "HighBit": 15,
      "ImageOrientationPatient": [0.99819510952398, 0.04085993368415, 0.04401123881175, -0.0336367372995, 0.98751252290311, -0.1539077223968],
      "ImagePositionPatient": [-845.38070060567, -914.31733648112, 4.8343503654538],
      "ImageType": [
        "ORIGINAL",
        "PRIMARY",
        "M",
        "MB",
        "ND",
        "NORM",
        "MOSAIC"
],
      "ImagedNucleus": "1H",
      "ImagingFrequency": 123.259116,
      "InPlanePhaseEncodingDirection": "COL",
      "MRAcquisitionType": "2D",
      "MagneticFieldStrength": 3.0,
      "Manufacturer": "SIEMENS",
      "ManufacturerModelName": "Prisma",
      "Modality": "MR",
      "NumberOfAverages": 1.0,
      "NumberOfPhaseEncodingSteps": 82,
      "PercentPhaseFieldOfView": 100.0,
      "PercentSampling": 100.0,
      "PerformedProcedureStepStartTime": "202633.439000",
      "PhotometricInterpretation": "MONOCHROME2",
      "PixelBandwidth": 3050.0,
      "PixelRepresentation": 0,
      "PixelSpacing": [2.6829268932343, 2.6829268932343],
      "ProtocolName": "func_run-02_task-social_acq-ap-mb8",
      "RepetitionTime": 460.0,
      "Rows": 656,
      "SAR": 0.08205448827536,
      "SamplesPerPixel": 1,
      "ScanOptions": "FS",
      "ScanningSequence": "EP",
      "SequenceName": "epfid2d1_82",
      "SequenceVariant": [
        "SK",
        "SS"
],
      "SeriesDescription": "func_run-02_task-social_acq-ap-mb8",
      "SeriesNumber": 10,
      "SeriesTime": "204452.059000",
      "SliceLocation": -92.283003149482,
      "SliceThickness": 2.7000000476837,
      "SmallestImagePixelValue": 0,
      "SoftwareVersions": "syngo MR E11",
      "SpacingBetweenSlices": 2.7000000285543,
      "SpecificCharacterSet": "ISO_IR 100",
      "StudyID": "1",
      "StudyTime": "202633.330000",
      "TransmitCoilName": "Body",
      "VariableFlipAngleFlag": "N",
      "WindowCenterWidthExplanation": "Algo1"
    },
    "slices": {}
  },
  "time": {
    "samples": {
      "AcquisitionNumber": [1, 2, 3, 4, 5, 6, 7, 8, 9, 10, 11, 12, 13, 14, 15, 16, 17, 18, 19, 20, 21, 22, 23, 24, 25, 26, 27, 28, 29, 30, 31, 32, 33, 34, 35, 36, 37, 38, 39, 40, 41, 42, 43, 44, 45, 46, 47, 48, 49, 50, 51, 52, 53, 54, 55, 56, 57, 58, 59, 60, 61, 62, 63, 64, 65, 66, 67, 68, 69, 70, 71, 72, 73, 74, 75, 76, 77, 78, 79, 80, 81, 82, 83, 84, 85, 86, 87, 88, 89, 90, 91, 92, 93, 94, 95, 96, 97, 98, 99, 100, 101, 102, 103, 104, 105, 106, 107, 108, 109, 110, 111, 112, 113, 114, 115, 116, 117, 118, 119, 120, 121, 122, 123, 124, 125, 126, 127, 128, 129, 130, 131, 132, 133, 134, 135, 136, 137, 138, 139, 140, 141, 142, 143, 144, 145, 146, 147, 148, 149, 150, 151, 152, 153, 154, 155, 156, 157, 158, 159, 160, 161, 162, 163, 164, 165, 166, 167, 168, 169, 170, 171, 172, 173, 174, 175, 176, 177, 178, 179, 180, 181, 182, 183, 184, 185, 186, 187, 188, 189, 190, 191, 192, 193, 194, 195, 196, 197, 198, 199, 200, 201, 202, 203, 204, 205, 206, 207, 208, 209, 210, 211, 212, 213, 214, 215, 216, 217, 218, 219, 220, 221, 222, 223, 224, 225, 226, 227, 228, 229, 230, 231, 232, 233, 234, 235, 236, 237, 238, 239, 240, 241, 242, 243, 244, 245, 246, 247, 248, 249, 250, 251, 252, 253, 254, 255, 256, 257, 258, 259, 260, 261, 262, 263, 264, 265, 266, 267, 268, 269, 270, 271, 272, 273, 274, 275, 276, 277, 278, 279, 280, 281, 282, 283, 284, 285, 286, 287, 288, 289, 290, 291, 292, 293, 294, 295, 296, 297, 298, 299, 300, 301, 302, 303, 304, 305, 306, 307, 308, 309, 310, 311, 312, 313, 314, 315, 316, 317, 318, 319, 320, 321, 322, 323, 324, 325, 326, 327, 328, 329, 330, 331, 332, 333, 334, 335, 336, 337, 338, 339, 340, 341, 342, 343, 344, 345, 346, 347, 348, 349, 350, 351, 352, 353, 354, 355, 356, 357, 358, 359, 360, 361, 362, 363, 364, 365, 366, 367, 368, 369, 370, 371, 372, 373, 374, 375, 376, 377, 378, 379, 380, 381, 382, 383, 384, 385, 386, 387, 388, 389, 390, 391, 392, 393, 394, 395, 396, 397, 398, 399, 400, 401, 402, 403, 404, 405, 406, 407, 408, 409, 410, 411, 412, 413, 414, 415, 416, 417, 418, 419, 420, 421, 422, 423, 424, 425, 426, 427, 428, 429, 430, 431, 432, 433, 434, 435, 436, 437, 438, 439, 440, 441, 442, 443, 444, 445, 446, 447, 448, 449, 450, 451, 452, 453, 454, 455, 456, 457, 458, 459, 460, 461, 462, 463, 464, 465, 466, 467, 468, 469, 470, 471, 472, 473, 474, 475, 476, 477, 478, 479, 480, 481, 482, 483, 484, 485, 486, 487, 488, 489, 490, 491, 492, 493, 494, 495, 496, 497, 498, 499, 500, 501, 502, 503, 504, 505, 506, 507, 508, 509, 510, 511, 512, 513, 514, 515, 516, 517, 518, 519, 520, 521, 522, 523, 524, 525, 526, 527, 528, 529, 530, 531, 532, 533, 534, 535, 536, 537, 538, 539, 540, 541, 542, 543, 544, 545, 546, 547, 548, 549, 550, 551, 552, 553, 554, 555, 556, 557, 558, 559, 560, 561, 562, 563, 564, 565, 566, 567, 568, 569, 570, 571, 572, 573, 574, 575, 576, 577, 578, 579, 580, 581, 582, 583, 584, 585, 586, 587, 588, 589, 590, 591, 592, 593, 594, 595, 596, 597, 598, 599, 600, 601, 602, 603, 604, 605, 606, 607, 608, 609, 610, 611, 612, 613, 614, 615, 616, 617, 618, 619, 620, 621, 622, 623, 624, 625, 626, 627, 628, 629, 630, 631, 632, 633, 634, 635, 636, 637, 638, 639, 640, 641, 642, 643, 644, 645, 646, 647, 648, 649, 650, 651, 652, 653, 654, 655, 656, 657, 658, 659, 660, 661, 662, 663, 664, 665, 666, 667, 668, 669, 670, 671, 672, 673, 674, 675, 676, 677, 678, 679, 680, 681, 682, 683, 684, 685, 686, 687, 688, 689, 690, 691, 692, 693, 694, 695, 696, 697, 698, 699, 700, 701, 702, 703, 704, 705, 706, 707, 708, 709, 710, 711, 712, 713, 714, 715, 716, 717, 718, 719, 720, 721, 722, 723, 724, 725, 726, 727, 728, 729, 730, 731, 732, 733, 734, 735, 736, 737, 738, 739, 740, 741, 742, 743, 744, 745, 746, 747, 748, 749, 750, 751, 752, 753, 754, 755, 756, 757, 758, 759, 760, 761, 762, 763, 764, 765, 766, 767, 768, 769, 770, 771, 772, 773, 774, 775, 776, 777, 778, 779, 780, 781, 782, 783, 784, 785, 786, 787, 788, 789, 790, 791, 792, 793, 794, 795, 796, 797, 798, 799, 800, 801, 802, 803, 804, 805, 806, 807, 808, 809, 810, 811, 812, 813, 814, 815, 816, 817, 818, 819, 820, 821, 822, 823, 824, 825, 826, 827, 828, 829, 830, 831, 832, 833, 834, 835, 836, 837, 838, 839, 840, 841, 842, 843, 844, 845, 846, 847, 848, 849, 850, 851, 852, 853, 854, 855, 856, 857, 858, 859, 860, 861, 862, 863, 864, 865, 866, 867, 868, 869, 870, 871, 872],
      "AcquisitionTime": ["204430.640000", "204431.100000", "204431.560000", "204432.020000", "204432.480000", "204432.940000", "204433.400000", "204433.860000", "204434.320000", "204434.780000", "204435.240000", "204435.700000", "204436.160000", "204436.620000", "204437.080000", "204437.540000", "204438.000000", "204438.460000", "204438.920000", "204439.380000", "204439.840000", "204440.300000", "204440.760000", "204441.220000", "204441.680000", "204442.140000", "204442.600000", "204443.060000", "204443.520000", "204443.980000", "204444.440000", "204444.900000", "204445.360000", "204445.820000", "204446.280000", "204446.740000", "204447.200000", "204447.660000", "204448.120000", "204448.580000", "204449.040000", "204449.500000", "204449.960000", "204450.420000", "204450.880000", "204451.340000", "204451.800000", "204452.260000", "204452.720000", "204453.180000", "204453.640000", "204454.100000", "204454.560000", "204455.020000", "204455.480000", "204455.940000", "204456.400000", "204456.860000", "204457.320000", "204457.780000", "204458.240000", "204458.700000", "204459.160000", "204459.620000", "204500.080000", "204500.540000", "204501.000000", "204501.460000", "204501.920000", "204502.380000", "204502.840000", "204503.300000", "204503.760000", "204504.220000", "204504.680000", "204505.140000", "204505.600000", "204506.060000", "204506.520000", "204506.980000", "204507.440000", "204507.900000", "204508.360000", "204508.820000", "204509.280000", "204509.740000", "204510.200000", "204510.660000", "204511.120000", "204511.580000", "204512.040000", "204512.500000", "204512.960000", "204513.420000", "204513.880000", "204514.340000", "204514.800000", "204515.260000", "204515.720000", "204516.180000", "204516.640000", "204517.100000", "204517.560000", "204518.020000", "204518.480000", "204518.940000", "204519.400000", "204519.860000", "204520.320000", "204520.780000", "204521.240000", "204521.700000", "204522.160000", "204522.620000", "204523.080000", "204523.540000", "204524.000000", "204524.460000", "204524.920000", "204525.380000", "204525.840000", "204526.300000", "204526.760000", "204527.220000", "204527.680000", "204528.140000", "204528.600000", "204529.060000", "204529.520000", "204529.980000", "204530.440000", "204530.900000", "204531.360000", "204531.820000", "204532.280000", "204532.740000", "204533.200000", "204533.660000", "204534.120000", "204534.580000", "204535.040000", "204535.500000", "204535.960000", "204536.420000", "204536.880000", "204537.340000", "204537.800000", "204538.260000", "204538.720000", "204539.180000", "204539.640000", "204540.100000", "204540.560000", "204541.020000", "204541.480000", "204541.940000", "204542.400000", "204542.860000", "204543.320000", "204543.780000", "204544.240000", "204544.700000", "204545.160000", "204545.620000", "204546.080000", "204546.540000", "204547.000000", "204547.460000", "204547.920000", "204548.380000", "204548.840000", "204549.300000", "204549.760000", "204550.220000", "204550.680000", "204551.140000", "204551.600000", "204552.060000", "204552.520000", "204552.980000", "204553.440000", "204553.900000", "204554.360000", "204554.820000", "204555.280000", "204555.740000", "204556.200000", "204556.660000", "204557.120000", "204557.580000", "204558.040000", "204558.500000", "204558.960000", "204559.420000", "204559.880000", "204600.340000", "204600.800000", "204601.260000", "204601.720000", "204602.180000", "204602.640000", "204603.100000", "204603.560000", "204604.020000", "204604.480000", "204604.940000", "204605.400000", "204605.860000", "204606.320000", "204606.780000", "204607.240000", "204607.700000", "204608.160000", "204608.620000", "204609.080000", "204609.540000", "204610.000000", "204610.460000", "204610.920000", "204611.380000", "204611.840000", "204612.300000", "204612.760000", "204613.220000", "204613.680000", "204614.140000", "204614.600000", "204615.060000", "204615.520000", "204615.980000", "204616.440000", "204616.900000", "204617.360000", "204617.820000", "204618.280000", "204618.740000", "204619.200000", "204619.660000", "204620.120000", "204620.580000", "204621.040000", "204621.500000", "204621.960000", "204622.420000", "204622.880000", "204623.340000", "204623.800000", "204624.260000", "204624.720000", "204625.180000", "204625.640000", "204626.100000", "204626.560000", "204627.020000", "204627.480000", "204627.940000", "204628.400000", "204628.860000", "204629.320000", "204629.780000", "204630.240000", "204630.700000", "204631.160000", "204631.620000", "204632.080000", "204632.540000", "204633.000000", "204633.460000", "204633.920000", "204634.380000", "204634.840000", "204635.300000", "204635.760000", "204636.220000", "204636.680000", "204637.140000", "204637.600000", "204638.060000", "204638.520000", "204638.980000", "204639.440000", "204639.900000", "204640.360000", "204640.820000", "204641.280000", "204641.740000", "204642.200000", "204642.660000", "204643.120000", "204643.580000", "204644.040000", "204644.500000", "204644.960000", "204645.420000", "204645.880000", "204646.340000", "204646.800000", "204647.260000", "204647.720000", "204648.180000", "204648.640000", "204649.100000", "204649.560000", "204650.020000", "204650.480000", "204650.940000", "204651.400000", "204651.860000", "204652.320000", "204652.780000", "204653.240000", "204653.700000", "204654.160000", "204654.620000", "204655.080000", "204655.540000", "204656.000000", "204656.460000", "204656.920000", "204657.380000", "204657.840000", "204658.300000", "204658.760000", "204659.220000", "204659.680000", "204700.140000", "204700.600000", "204701.060000", "204701.520000", "204701.980000", "204702.440000", "204702.900000", "204703.360000", "204703.820000", "204704.280000", "204704.740000", "204705.200000", "204705.660000", "204706.120000", "204706.580000", "204707.040000", "204707.500000", "204707.960000", "204708.420000", "204708.880000", "204709.340000", "204709.800000", "204710.260000", "204710.720000", "204711.180000", "204711.640000", "204712.100000", "204712.560000", "204713.020000", "204713.480000", "204713.940000", "204714.400000", "204714.860000", "204715.320000", "204715.780000", "204716.240000", "204716.700000", "204717.160000", "204717.620000", "204718.080000", "204718.540000", "204719.000000", "204719.460000", "204719.920000", "204720.380000", "204720.840000", "204721.300000", "204721.760000", "204722.220000", "204722.680000", "204723.140000", "204723.600000", "204724.060000", "204724.520000", "204724.980000", "204725.440000", "204725.900000", "204726.360000", "204726.820000", "204727.280000", "204727.740000", "204728.200000", "204728.660000", "204729.120000", "204729.580000", "204730.040000", "204730.500000", "204730.960000", "204731.420000", "204731.880000", "204732.340000", "204732.800000", "204733.260000", "204733.720000", "204734.180000", "204734.640000", "204735.100000", "204735.560000", "204736.020000", "204736.480000", "204736.940000", "204737.400000", "204737.860000", "204738.320000", "204738.780000", "204739.240000", "204739.700000", "204740.160000", "204740.620000", "204741.080000", "204741.540000", "204742.000000", "204742.460000", "204742.920000", "204743.380000", "204743.840000", "204744.300000", "204744.760000", "204745.220000", "204745.680000", "204746.140000", "204746.600000", "204747.060000", "204747.520000", "204747.980000", "204748.440000", "204748.900000", "204749.360000", "204749.820000", "204750.280000", "204750.740000", "204751.200000", "204751.660000", "204752.120000", "204752.580000", "204753.040000", "204753.500000", "204753.960000", "204754.420000", "204754.880000", "204755.340000", "204755.800000", "204756.260000", "204756.720000", "204757.180000", "204757.640000", "204758.100000", "204758.560000", "204759.020000", "204759.480000", "204759.940000", "204800.400000", "204800.860000", "204801.320000", "204801.780000", "204802.240000", "204802.700000", "204803.160000", "204803.620000", "204804.080000", "204804.540000", "204805.000000", "204805.460000", "204805.920000", "204806.380000", "204806.840000", "204807.300000", "204807.760000", "204808.220000", "204808.680000", "204809.140000", "204809.600000", "204810.060000", "204810.520000", "204810.980000", "204811.440000", "204811.900000", "204812.360000", "204812.820000", "204813.280000", "204813.740000", "204814.200000", "204814.660000", "204815.120000", "204815.580000", "204816.040000", "204816.500000", "204816.960000", "204817.420000", "204817.880000", "204818.340000", "204818.800000", "204819.260000", "204819.720000", "204820.180000", "204820.640000", "204821.100000", "204821.560000", "204822.020000", "204822.480000", "204822.940000", "204823.400000", "204823.860000", "204824.320000", "204824.780000", "204825.240000", "204825.700000", "204826.160000", "204826.620000", "204827.080000", "204827.540000", "204828.000000", "204828.460000", "204828.920000", "204829.380000", "204829.840000", "204830.300000", "204830.760000", "204831.220000", "204831.680000", "204832.140000", "204832.600000", "204833.060000", "204833.520000", "204833.980000", "204834.440000", "204834.900000", "204835.360000", "204835.820000", "204836.280000", "204836.740000", "204837.200000", "204837.660000", "204838.120000", "204838.580000", "204839.040000", "204839.500000", "204839.960000", "204840.420000", "204840.880000", "204841.340000", "204841.800000", "204842.260000", "204842.720000", "204843.180000", "204843.640000", "204844.100000", "204844.560000", "204845.020000", "204845.480000", "204845.940000", "204846.400000", "204846.860000", "204847.320000", "204847.780000", "204848.240000", "204848.700000", "204849.160000", "204849.620000", "204850.080000", "204850.540000", "204851.000000", "204851.460000", "204851.920000", "204852.380000", "204852.840000", "204853.300000", "204853.760000", "204854.220000", "204854.680000", "204855.140000", "204855.600000", "204856.060000", "204856.520000", "204856.980000", "204857.440000", "204857.900000", "204858.360000", "204858.820000", "204859.280000", "204859.740000", "204900.200000", "204900.660000", "204901.120000", "204901.580000", "204902.040000", "204902.500000", "204902.960000", "204903.420000", "204903.880000", "204904.340000", "204904.800000", "204905.260000", "204905.720000", "204906.180000", "204906.640000", "204907.100000", "204907.560000", "204908.020000", "204908.480000", "204908.940000", "204909.400000", "204909.860000", "204910.320000", "204910.780000", "204911.240000", "204911.700000", "204912.160000", "204912.620000", "204913.080000", "204913.540000", "204914.000000", "204914.460000", "204914.920000", "204915.380000", "204915.840000", "204916.300000", "204916.760000", "204917.220000", "204917.680000", "204918.140000", "204918.600000", "204919.060000", "204919.520000", "204919.980000", "204920.440000", "204920.900000", "204921.360000", "204921.820000", "204922.280000", "204922.740000", "204923.200000", "204923.660000", "204924.120000", "204924.580000", "204925.040000", "204925.500000", "204925.960000", "204926.420000", "204926.880000", "204927.340000", "204927.800000", "204928.260000", "204928.720000", "204929.180000", "204929.640000", "204930.100000", "204930.560000", "204931.020000", "204931.480000", "204931.940000", "204932.400000", "204932.860000", "204933.320000", "204933.780000", "204934.240000", "204934.700000", "204935.160000", "204935.620000", "204936.080000", "204936.540000", "204937.000000", "204937.460000", "204937.920000", "204938.380000", "204938.840000", "204939.300000", "204939.760000", "204940.220000", "204940.680000", "204941.140000", "204941.600000", "204942.060000", "204942.520000", "204942.980000", "204943.440000", "204943.900000", "204944.360000", "204944.820000", "204945.280000", "204945.740000", "204946.200000", "204946.660000", "204947.120000", "204947.580000", "204948.040000", "204948.500000", "204948.960000", "204949.420000", "204949.880000", "204950.340000", "204950.800000", "204951.260000", "204951.720000", "204952.180000", "204952.640000", "204953.100000", "204953.560000", "204954.020000", "204954.480000", "204954.940000", "204955.400000", "204955.860000", "204956.320000", "204956.780000", "204957.240000", "204957.700000", "204958.160000", "204958.620000", "204959.080000", "204959.540000", "205000.000000", "205000.460000", "205000.920000", "205001.380000", "205001.840000", "205002.300000", "205002.760000", "205003.220000", "205003.680000", "205004.140000", "205004.600000", "205005.060000", "205005.520000", "205005.980000", "205006.440000", "205006.900000", "205007.360000", "205007.820000", "205008.280000", "205008.740000", "205009.200000", "205009.660000", "205010.120000", "205010.580000", "205011.040000", "205011.500000", "205011.960000", "205012.420000", "205012.880000", "205013.340000", "205013.800000", "205014.260000", "205014.720000", "205015.180000", "205015.640000", "205016.100000", "205016.560000", "205017.020000", "205017.480000", "205017.940000", "205018.400000", "205018.860000", "205019.320000", "205019.780000", "205020.240000", "205020.700000", "205021.160000", "205021.620000", "205022.080000", "205022.540000", "205023.000000", "205023.460000", "205023.920000", "205024.380000", "205024.840000", "205025.300000", "205025.760000", "205026.220000", "205026.680000", "205027.140000", "205027.600000", "205028.060000", "205028.520000", "205028.980000", "205029.440000", "205029.900000", "205030.360000", "205030.820000", "205031.280000", "205031.740000", "205032.200000", "205032.660000", "205033.120000", "205033.580000", "205034.040000", "205034.500000", "205034.960000", "205035.420000", "205035.880000", "205036.340000", "205036.800000", "205037.260000", "205037.720000", "205038.180000", "205038.640000", "205039.100000", "205039.560000", "205040.020000", "205040.480000", "205040.940000", "205041.400000", "205041.860000", "205042.320000", "205042.780000", "205043.240000", "205043.700000", "205044.160000", "205044.620000", "205045.080000", "205045.540000", "205046.000000", "205046.460000", "205046.920000", "205047.380000", "205047.840000", "205048.300000", "205048.760000", "205049.220000", "205049.680000", "205050.140000", "205050.600000", "205051.060000", "205051.520000", "205051.980000", "205052.440000", "205052.900000", "205053.360000", "205053.820000", "205054.280000", "205054.740000", "205055.200000", "205055.660000", "205056.120000", "205056.580000", "205057.040000", "205057.500000", "205057.960000", "205058.420000", "205058.880000", "205059.340000", "205059.800000", "205100.260000", "205100.720000", "205101.180000", "205101.640000", "205102.100000", "205102.560000", "205103.020000", "205103.480000", "205103.940000", "205104.400000", "205104.860000", "205105.320000", "205105.780000", "205106.240000", "205106.700000", "205107.160000", "205107.620000", "205108.080000", "205108.540000", "205109.000000", "205109.460000", "205109.920000", "205110.380000", "205110.840000", "205111.300000"],
