{
  "AcquisitionMatrixPE": 82,
  "AcquisitionNumber": 1,
  "AcquisitionTime": "09:20:4.852500",
  "BandwidthPerPixelPhaseEncode": 24.888,
  "BaseResolution": 82,
  "BodyPartExamined": "BRAIN",
  "ConsistencyInfo": "N4_VE11E_LATEST_20181129",
  "ConversionSoftware": "dcm2niix",
  "ConversionSoftwareVersion": "v1.0.20201102",
  "DerivedVendorReportedEchoSpacing": 0.00049,
  "DeviceSerialNumber": "66112",
  "DwellTime": 2e-06,
  "EchoTime": 0.0272,
  "EchoTrainLength": 82,
  "EffectiveEchoSpacing": 0.00049,
  "FlipAngle": 44,
  "ImageComments": "Unaliased MB8/PE3",
  "ImageOrientationPatientDICOM": [0.999527, -0.0237818, -0.0195236, 0.0266973, 0.98576, 0.166027],
  "ImageType": [
    "ORIGINAL",
    "PRIMARY",
    "M",
    "MB",
    "ND",
    "NORM",
    "MOSAIC"
],
  "ImagingFrequency": 123.259,
  "InPlanePhaseEncodingDirectionDICOM": "COL",
  "InstitutionAddress": "Maynard 3,Hanover,NH,US,03755",
  "InstitutionName": "Dartmouth College - PBS",
  "InstitutionalDepartmentName": "Department",
  "MRAcquisitionType": "2D",
  "MagneticFieldStrength": 3,
  "Manufacturer": "Siemens",
  "ManufacturersModelName": "Prisma",
  "Modality": "MR",
  "MultibandAccelerationFactor": 8,
  "PartialFourier": 1,
  "PatientPosition": "HFS",
  "PercentPhaseFOV": 100,
  "PercentSampling": 100,
  "PhaseEncodingDirection": "j-",
  "PhaseEncodingSteps": 82,
  "PhaseResolution": 1,
  "PixelBandwidth": 3050,
  "ProcedureStepDescription": "Wager_Wager^1076_spacetop",
  "ProtocolName": "func_run-01_task-faces_acq-ap-mb8",
  "PulseSequenceDetails": "%CustomerSeq%\\cmrr_mbep2d_bold",
  "ReceiveCoilActiveElements": "HEA;HEP",
  "ReceiveCoilName": "Head_32",
  "ReconMatrixPE": 82,
  "RepetitionTime": 0.46,
  "SAR": 0.0976415,
  "ScanOptions": "FS",
  "ScanningSequence": "EP",
  "SequenceName": "epfid2d1_82",
  "SequenceVariant": "SK\\SS",
  "SeriesDescription": "func_run-01_task-faces_acq-ap-mb8",
  "SeriesNumber": 16,
  "ShimSetting": [4248, -7901, -7246, 455, -99, -405, 249, 172],
  "SliceThickness": 2.7,
  "SliceTiming": [0, 0.2525, 0.0625, 0.315, 0.1275, 0.3775, 0.19, 0, 0.2525, 0.0625, 0.315, 0.1275, 0.3775, 0.19, 0, 0.2525, 0.0625, 0.315, 0.1275, 0.3775, 0.19, 0, 0.2525, 0.0625, 0.315, 0.1275, 0.3775, 0.19, 0, 0.2525, 0.0625, 0.315, 0.1275, 0.3775, 0.19, 0, 0.2525, 0.0625, 0.315, 0.1275, 0.3775, 0.19, 0, 0.2525, 0.0625, 0.315, 0.1275, 0.3775, 0.19, 0, 0.2525, 0.0625, 0.315, 0.1275, 0.3775, 0.19],
  "SoftwareVersions": "syngo MR E11",
  "SpacingBetweenSlices": 2.7,
  "StationName": "AWP66112",
  "TaskName": "faces",
  "TotalReadoutTime": 0.03969,
  "TxRefAmp": 246.769,
  "WipMemBlock": "7bdfdb9d-28af-4c13-a878-62319cb00773||Sequence: R016 ve11e/master r/434b28f1; Aug  7 2019 18:53:46 by eja",
  "dcmmeta_affine": [
    [-2.6816565990448, 0.07162676751613617, -0.04130241647362709, 109.97234344482422],
    [0.06380488723516464, 2.644721508026123, 0.44946756958961487, -109.01071166992188],
    [-0.052380479872226715, -0.4454379081726074, 2.6620054244995117, -47.80448532104492],
    [0.0, 0.0, 0.0, 1.0]
],
  "dcmmeta_reorient_transform": [
    [0.0, -1.0, 0.0, 81.0],
    [1.0, 0.0, 0.0, 0.0],
    [0.0, 0.0, 1.0, 0.0],
    [0.0, 0.0, 0.0, 1.0]
],
  "dcmmeta_shape": [82, 82, 56, 914],
  "dcmmeta_slice_dim": 2,
  "dcmmeta_version": 0.6,
  "global": {
    "const": {
      "AccessionNumber": "A004619",
      "AcquisitionMatrix": [82, 0, 0, 82],
      "AngioFlag": "N",
      "BitsAllocated": 16,
      "BitsStored": 16,
      "BodyPartExamined": "BRAIN",
      "Columns": 656,
      "EchoNumbers": 1,
      "EchoTime": 27.2,
      "EchoTrainLength": 82,
      "FlipAngle": 44.0,
      "HighBit": 15,
      "ImageOrientationPatient": [0.99952651429879, -0.0237818204998, -0.0195236325367, 0.02669725011253, 0.9857597788443, 0.16602685098886],
      "ImagePositionPatient": [-905.96643101627, -845.93476543872, -196.6924352262],
      "ImageType": [
        "ORIGINAL",
        "PRIMARY",
        "M",
        "MB",
        "ND",
        "NORM",
        "MOSAIC"
],
      "ImagedNucleus": "1H",
      "ImagingFrequency": 123.259117,
      "InPlanePhaseEncodingDirection": "COL",
      "MRAcquisitionType": "2D",
      "MagneticFieldStrength": 3.0,
      "Manufacturer": "SIEMENS",
      "ManufacturerModelName": "Prisma",
      "Modality": "MR",
      "NumberOfAverages": 1.0,
      "NumberOfPhaseEncodingSteps": 82,
      "PercentPhaseFieldOfView": 100.0,
      "PercentSampling": 100.0,
      "PerformedProcedureStepStartTime": "083352.655000",
      "PhotometricInterpretation": "MONOCHROME2",
      "PixelBandwidth": 3050.0,
      "PixelRepresentation": 0,
      "PixelSpacing": [2.6829268932343, 2.6829268932343],
      "ProtocolName": "func_run-01_task-faces_acq-ap-mb8",
      "RepetitionTime": 460.0,
      "Rows": 656,
      "SAR": 0.09764153298834,
      "SamplesPerPixel": 1,
      "ScanOptions": "FS",
      "ScanningSequence": "EP",
      "SequenceName": "epfid2d1_82",
      "SequenceVariant": [
        "SK",
        "SS"
],
      "SeriesDescription": "func_run-01_task-faces_acq-ap-mb8",
      "SeriesNumber": 16,
      "SeriesTime": "092026.462000",
      "SliceLocation": -66.961000427207,
      "SliceThickness": 2.7000000476837,
      "SmallestImagePixelValue": 0,
      "SoftwareVersions": "syngo MR E11",
      "SpacingBetweenSlices": 2.7000000278376,
      "SpecificCharacterSet": "ISO_IR 100",
      "StudyID": "1",
      "StudyTime": "083352.453000",
      "TransmitCoilName": "Body",
      "VariableFlipAngleFlag": "N",
      "WindowCenterWidthExplanation": "Algo1"
    },
    "slices": {}
  },
  "time": {
    "samples": {
      "AcquisitionNumber": [1, 2, 3, 4, 5, 6, 7, 8, 9, 10, 11, 12, 13, 14, 15, 16, 17, 18, 19, 20, 21, 22, 23, 24, 25, 26, 27, 28, 29, 30, 31, 32, 33, 34, 35, 36, 37, 38, 39, 40, 41, 42, 43, 44, 45, 46, 47, 48, 49, 50, 51, 52, 53, 54, 55, 56, 57, 58, 59, 60, 61, 62, 63, 64, 65, 66, 67, 68, 69, 70, 71, 72, 73, 74, 75, 76, 77, 78, 79, 80, 81, 82, 83, 84, 85, 86, 87, 88, 89, 90, 91, 92, 93, 94, 95, 96, 97, 98, 99, 100, 101, 102, 103, 104, 105, 106, 107, 108, 109, 110, 111, 112, 113, 114, 115, 116, 117, 118, 119, 120, 121, 122, 123, 124, 125, 126, 127, 128, 129, 130, 131, 132, 133, 134, 135, 136, 137, 138, 139, 140, 141, 142, 143, 144, 145, 146, 147, 148, 149, 150, 151, 152, 153, 154, 155, 156, 157, 158, 159, 160, 161, 162, 163, 164, 165, 166, 167, 168, 169, 170, 171, 172, 173, 174, 175, 176, 177, 178, 179, 180, 181, 182, 183, 184, 185, 186, 187, 188, 189, 190, 191, 192, 193, 194, 195, 196, 197, 198, 199, 200, 201, 202, 203, 204, 205, 206, 207, 208, 209, 210, 211, 212, 213, 214, 215, 216, 217, 218, 219, 220, 221, 222, 223, 224, 225, 226, 227, 228, 229, 230, 231, 232, 233, 234, 235, 236, 237, 238, 239, 240, 241, 242, 243, 244, 245, 246, 247, 248, 249, 250, 251, 252, 253, 254, 255, 256, 257, 258, 259, 260, 261, 262, 263, 264, 265, 266, 267, 268, 269, 270, 271, 272, 273, 274, 275, 276, 277, 278, 279, 280, 281, 282, 283, 284, 285, 286, 287, 288, 289, 290, 291, 292, 293, 294, 295, 296, 297, 298, 299, 300, 301, 302, 303, 304, 305, 306, 307, 308, 309, 310, 311, 312, 313, 314, 315, 316, 317, 318, 319, 320, 321, 322, 323, 324, 325, 326, 327, 328, 329, 330, 331, 332, 333, 334, 335, 336, 337, 338, 339, 340, 341, 342, 343, 344, 345, 346, 347, 348, 349, 350, 351, 352, 353, 354, 355, 356, 357, 358, 359, 360, 361, 362, 363, 364, 365, 366, 367, 368, 369, 370, 371, 372, 373, 374, 375, 376, 377, 378, 379, 380, 381, 382, 383, 384, 385, 386, 387, 388, 389, 390, 391, 392, 393, 394, 395, 396, 397, 398, 399, 400, 401, 402, 403, 404, 405, 406, 407, 408, 409, 410, 411, 412, 413, 414, 415, 416, 417, 418, 419, 420, 421, 422, 423, 424, 425, 426, 427, 428, 429, 430, 431, 432, 433, 434, 435, 436, 437, 438, 439, 440, 441, 442, 443, 444, 445, 446, 447, 448, 449, 450, 451, 452, 453, 454, 455, 456, 457, 458, 459, 460, 461, 462, 463, 464, 465, 466, 467, 468, 469, 470, 471, 472, 473, 474, 475, 476, 477, 478, 479, 480, 481, 482, 483, 484, 485, 486, 487, 488, 489, 490, 491, 492, 493, 494, 495, 496, 497, 498, 499, 500, 501, 502, 503, 504, 505, 506, 507, 508, 509, 510, 511, 512, 513, 514, 515, 516, 517, 518, 519, 520, 521, 522, 523, 524, 525, 526, 527, 528, 529, 530, 531, 532, 533, 534, 535, 536, 537, 538, 539, 540, 541, 542, 543, 544, 545, 546, 547, 548, 549, 550, 551, 552, 553, 554, 555, 556, 557, 558, 559, 560, 561, 562, 563, 564, 565, 566, 567, 568, 569, 570, 571, 572, 573, 574, 575, 576, 577, 578, 579, 580, 581, 582, 583, 584, 585, 586, 587, 588, 589, 590, 591, 592, 593, 594, 595, 596, 597, 598, 599, 600, 601, 602, 603, 604, 605, 606, 607, 608, 609, 610, 611, 612, 613, 614, 615, 616, 617, 618, 619, 620, 621, 622, 623, 624, 625, 626, 627, 628, 629, 630, 631, 632, 633, 634, 635, 636, 637, 638, 639, 640, 641, 642, 643, 644, 645, 646, 647, 648, 649, 650, 651, 652, 653, 654, 655, 656, 657, 658, 659, 660, 661, 662, 663, 664, 665, 666, 667, 668, 669, 670, 671, 672, 673, 674, 675, 676, 677, 678, 679, 680, 681, 682, 683, 684, 685, 686, 687, 688, 689, 690, 691, 692, 693, 694, 695, 696, 697, 698, 699, 700, 701, 702, 703, 704, 705, 706, 707, 708, 709, 710, 711, 712, 713, 714, 715, 716, 717, 718, 719, 720, 721, 722, 723, 724, 725, 726, 727, 728, 729, 730, 731, 732, 733, 734, 735, 736, 737, 738, 739, 740, 741, 742, 743, 744, 745, 746, 747, 748, 749, 750, 751, 752, 753, 754, 755, 756, 757, 758, 759, 760, 761, 762, 763, 764, 765, 766, 767, 768, 769, 770, 771, 772, 773, 774, 775, 776, 777, 778, 779, 780, 781, 782, 783, 784, 785, 786, 787, 788, 789, 790, 791, 792, 793, 794, 795, 796, 797, 798, 799, 800, 801, 802, 803, 804, 805, 806, 807, 808, 809, 810, 811, 812, 813, 814, 815, 816, 817, 818, 819, 820, 821, 822, 823, 824, 825, 826, 827, 828, 829, 830, 831, 832, 833, 834, 835, 836, 837, 838, 839, 840, 841, 842, 843, 844, 845, 846, 847, 848, 849, 850, 851, 852, 853, 854, 855, 856, 857, 858, 859, 860, 861, 862, 863, 864, 865, 866, 867, 868, 869, 870, 871, 872, 873, 874, 875, 876, 877, 878, 879, 880, 881, 882, 883, 884, 885, 886, 887, 888, 889, 890, 891, 892, 893, 894, 895, 896, 897, 898, 899, 900, 901, 902, 903, 904, 905, 906, 907, 908, 909, 910, 911, 912, 913, 914],
      "AcquisitionTime": ["092004.852500", "092005.312500", "092005.772500", "092006.232500", "092006.692500", "092007.152500", "092007.612500", "092008.072500", "092008.532500", "092008.992500", "092009.452500", "092009.912500", "092010.372500", "092010.832500", "092011.292500", "092011.752500", "092012.212500", "092012.672500", "092013.132500", "092013.592500", "092014.052500", "092014.512500", "092014.972500", "092015.432500", "092015.892500", "092016.352500", "092016.812500", "092017.272500", "092017.732500", "092018.192500", "092018.652500", "092019.112500", "092019.572500", "092020.032500", "092020.492500", "092020.952500", "092021.412500", "092021.872500", "092022.332500", "092022.792500", "092023.252500", "092023.712500", "092024.172500", "092024.632500", "092025.092500", "092025.552500", "092026.012500", "092026.472500", "092026.932500", "092027.392500", "092027.852500", "092028.312500", "092028.772500", "092029.232500", "092029.692500", "092030.152500", "092030.612500", "092031.072500", "092031.532500", "092031.992500", "092032.452500", "092032.912500", "092033.372500", "092033.832500", "092034.292500", "092034.752500", "092035.212500", "092035.672500", "092036.132500", "092036.592500", "092037.052500", "092037.512500", "092037.972500", "092038.432500", "092038.892500", "092039.352500", "092039.812500", "092040.272500", "092040.732500", "092041.192500", "092041.652500", "092042.112500", "092042.572500", "092043.032500", "092043.492500", "092043.952500", "092044.412500", "092044.872500", "092045.332500", "092045.792500", "092046.252500", "092046.712500", "092047.172500", "092047.632500", "092048.092500", "092048.552500", "092049.012500", "092049.472500", "092049.932500", "092050.392500", "092050.852500", "092051.312500", "092051.772500", "092052.232500", "092052.692500", "092053.152500", "092053.612500", "092054.072500", "092054.532500", "092054.992500", "092055.452500", "092055.912500", "092056.372500", "092056.832500", "092057.292500", "092057.752500", "092058.212500", "092058.672500", "092059.132500", "092059.592500", "092100.052500", "092100.512500", "092100.972500", "092101.432500", "092101.892500", "092102.352500", "092102.812500", "092103.272500", "092103.732500", "092104.192500", "092104.652500", "092105.112500", "092105.572500", "092106.032500", "092106.492500", "092106.952500", "092107.412500", "092107.872500", "092108.332500", "092108.792500", "092109.252500", "092109.712500", "092110.172500", "092110.632500", "092111.092500", "092111.552500", "092112.012500", "092112.472500", "092112.932500", "092113.392500", "092113.852500", "092114.312500", "092114.772500", "092115.232500", "092115.692500", "092116.152500", "092116.612500", "092117.072500", "092117.532500", "092117.992500", "092118.452500", "092118.912500", "092119.372500", "092119.832500", "092120.292500", "092120.752500", "092121.212500", "092121.672500", "092122.132500", "092122.592500", "092123.052500", "092123.512500", "092123.972500", "092124.432500", "092124.892500", "092125.352500", "092125.812500", "092126.272500", "092126.732500", "092127.192500", "092127.652500", "092128.112500", "092128.572500", "092129.032500", "092129.492500", "092129.952500", "092130.412500", "092130.872500", "092131.332500", "092131.792500", "092132.252500", "092132.712500", "092133.172500", "092133.632500", "092134.092500", "092134.552500", "092135.012500", "092135.472500", "092135.932500", "092136.392500", "092136.852500", "092137.312500", "092137.772500", "092138.232500", "092138.692500", "092139.152500", "092139.612500", "092140.072500", "092140.532500", "092140.992500", "092141.452500", "092141.912500", "092142.372500", "092142.832500", "092143.292500", "092143.752500", "092144.212500", "092144.672500", "092145.132500", "092145.592500", "092146.052500", "092146.512500", "092146.972500", "092147.432500", "092147.892500", "092148.352500", "092148.812500", "092149.272500", "092149.732500", "092150.192500", "092150.652500", "092151.112500", "092151.572500", "092152.032500", "092152.492500", "092152.952500", "092153.412500", "092153.872500", "092154.332500", "092154.792500", "092155.252500", "092155.712500", "092156.172500", "092156.632500", "092157.092500", "092157.552500", "092158.012500", "092158.472500", "092158.932500", "092159.392500", "092159.852500", "092200.312500", "092200.772500", "092201.232500", "092201.692500", "092202.152500", "092202.612500", "092203.072500", "092203.532500", "092203.992500", "092204.452500", "092204.912500", "092205.372500", "092205.832500", "092206.292500", "092206.752500", "092207.212500", "092207.672500", "092208.132500", "092208.592500", "092209.052500", "092209.512500", "092209.972500", "092210.432500", "092210.892500", "092211.352500", "092211.812500", "092212.272500", "092212.732500", "092213.192500", "092213.652500", "092214.112500", "092214.572500", "092215.032500", "092215.492500", "092215.952500", "092216.412500", "092216.872500", "092217.332500", "092217.792500", "092218.252500", "092218.712500", "092219.172500", "092219.632500", "092220.092500", "092220.552500", "092221.012500", "092221.472500", "092221.932500", "092222.392500", "092222.852500", "092223.312500", "092223.772500", "092224.232500", "092224.692500", "092225.152500", "092225.612500", "092226.072500", "092226.532500", "092226.992500", "092227.452500", "092227.912500", "092228.372500", "092228.832500", "092229.292500", "092229.752500", "092230.212500", "092230.672500", "092231.132500", "092231.592500", "092232.052500", "092232.512500", "092232.972500", "092233.432500", "092233.892500", "092234.352500", "092234.812500", "092235.272500", "092235.732500", "092236.192500", "092236.652500", "092237.112500", "092237.572500", "092238.032500", "092238.492500", "092238.952500", "092239.412500", "092239.872500", "092240.332500", "092240.792500", "092241.252500", "092241.712500", "092242.172500", "092242.632500", "092243.092500", "092243.552500", "092244.012500", "092244.472500", "092244.932500", "092245.392500", "092245.852500", "092246.312500", "092246.772500", "092247.232500", "092247.692500", "092248.152500", "092248.612500", "092249.072500", "092249.532500", "092249.992500", "092250.452500", "092250.912500", "092251.372500", "092251.832500", "092252.292500", "092252.752500", "092253.212500", "092253.672500", "092254.132500", "092254.592500", "092255.052500", "092255.512500", "092255.972500", "092256.432500", "092256.892500", "092257.352500", "092257.812500", "092258.272500", "092258.732500", "092259.192500", "092259.652500", "092300.112500", "092300.572500", "092301.032500", "092301.492500", "092301.952500", "092302.412500", "092302.872500", "092303.332500", "092303.792500", "092304.252500", "092304.712500", "092305.172500", "092305.632500", "092306.092500", "092306.552500", "092307.012500", "092307.472500", "092307.932500", "092308.392500", "092308.852500", "092309.312500", "092309.772500", "092310.232500", "092310.692500", "092311.152500", "092311.612500", "092312.072500", "092312.532500", "092312.992500", "092313.452500", "092313.912500", "092314.372500", "092314.832500", "092315.292500", "092315.752500", "092316.212500", "092316.672500", "092317.132500", "092317.592500", "092318.052500", "092318.512500", "092318.972500", "092319.432500", "092319.892500", "092320.352500", "092320.812500", "092321.272500", "092321.732500", "092322.192500", "092322.652500", "092323.112500", "092323.572500", "092324.032500", "092324.492500", "092324.952500", "092325.412500", "092325.872500", "092326.332500", "092326.792500", "092327.252500", "092327.712500", "092328.172500", "092328.632500", "092329.092500", "092329.552500", "092330.012500", "092330.472500", "092330.932500", "092331.392500", "092331.852500", "092332.312500", "092332.772500", "092333.232500", "092333.692500", "092334.152500", "092334.612500", "092335.072500", "092335.532500", "092335.992500", "092336.452500", "092336.912500", "092337.372500", "092337.832500", "092338.292500", "092338.752500", "092339.212500", "092339.672500", "092340.132500", "092340.592500", "092341.052500", "092341.512500", "092341.972500", "092342.432500", "092342.892500", "092343.352500", "092343.812500", "092344.272500", "092344.732500", "092345.192500", "092345.652500", "092346.112500", "092346.572500", "092347.032500", "092347.492500", "092347.952500", "092348.412500", "092348.872500", "092349.332500", "092349.792500", "092350.252500", "092350.712500", "092351.172500", "092351.632500", "092352.092500", "092352.552500", "092353.012500", "092353.472500", "092353.932500", "092354.392500", "092354.852500", "092355.312500", "092355.772500", "092356.232500", "092356.692500", "092357.152500", "092357.612500", "092358.072500", "092358.532500", "092358.992500", "092359.452500", "092359.912500", "092400.372500", "092400.832500", "092401.292500", "092401.752500", "092402.212500", "092402.672500", "092403.132500", "092403.592500", "092404.052500", "092404.512500", "092404.972500", "092405.432500", "092405.892500", "092406.352500", "092406.812500", "092407.272500", "092407.732500", "092408.192500", "092408.652500", "092409.112500", "092409.572500", "092410.032500", "092410.492500", "092410.952500", "092411.412500", "092411.872500", "092412.332500", "092412.792500", "092413.252500", "092413.712500", "092414.172500", "092414.632500", "092415.092500", "092415.552500", "092416.012500", "092416.472500", "092416.932500", "092417.392500", "092417.852500", "092418.312500", "092418.772500", "092419.232500", "092419.692500", "092420.152500", "092420.612500", "092421.072500", "092421.532500", "092421.992500", "092422.452500", "092422.912500", "092423.372500", "092423.832500", "092424.292500", "092424.752500", "092425.212500", "092425.672500", "092426.132500", "092426.592500", "092427.052500", "092427.512500", "092427.972500", "092428.432500", "092428.892500", "092429.352500", "092429.812500", "092430.272500", "092430.732500", "092431.192500", "092431.652500", "092432.112500", "092432.572500", "092433.032500", "092433.492500", "092433.952500", "092434.412500", "092434.872500", "092435.332500", "092435.792500", "092436.252500", "092436.712500", "092437.172500", "092437.632500", "092438.092500", "092438.552500", "092439.012500", "092439.472500", "092439.932500", "092440.392500", "092440.852500", "092441.312500", "092441.772500", "092442.232500", "092442.692500", "092443.152500", "092443.612500", "092444.072500", "092444.532500", "092444.992500", "092445.452500", "092445.912500", "092446.372500", "092446.832500", "092447.292500", "092447.752500", "092448.212500", "092448.672500", "092449.132500", "092449.592500", "092450.052500", "092450.512500", "092450.972500", "092451.432500", "092451.892500", "092452.352500", "092452.812500", "092453.272500", "092453.732500", "092454.192500", "092454.652500", "092455.112500", "092455.572500", "092456.032500", "092456.492500", "092456.952500", "092457.412500", "092457.872500", "092458.332500", "092458.792500", "092459.252500", "092459.712500", "092500.172500", "092500.632500", "092501.092500", "092501.552500", "092502.012500", "092502.472500", "092502.932500", "092503.392500", "092503.852500", "092504.312500", "092504.772500", "092505.232500", "092505.692500", "092506.152500", "092506.612500", "092507.072500", "092507.532500", "092507.992500", "092508.452500", "092508.912500", "092509.372500", "092509.832500", "092510.292500", "092510.752500", "092511.212500", "092511.672500", "092512.132500", "092512.592500", "092513.052500", "092513.512500", "092513.972500", "092514.432500", "092514.892500", "092515.352500", "092515.812500", "092516.272500", "092516.732500", "092517.192500", "092517.652500", "092518.112500", "092518.572500", "092519.032500", "092519.492500", "092519.952500", "092520.412500", "092520.872500", "092521.332500", "092521.792500", "092522.252500", "092522.712500", "092523.172500", "092523.632500", "092524.092500", "092524.552500", "092525.012500", "092525.472500", "092525.932500", "092526.392500", "092526.852500", "092527.312500", "092527.772500", "092528.232500", "092528.692500", "092529.152500", "092529.612500", "092530.072500", "092530.532500", "092530.992500", "092531.452500", "092531.912500", "092532.372500", "092532.832500", "092533.292500", "092533.752500", "092534.212500", "092534.672500", "092535.132500", "092535.592500", "092536.052500", "092536.512500", "092536.972500", "092537.432500", "092537.892500", "092538.352500", "092538.812500", "092539.272500", "092539.732500", "092540.192500", "092540.652500", "092541.112500", "092541.572500", "092542.032500", "092542.492500", "092542.952500", "092543.412500", "092543.872500", "092544.332500", "092544.792500", "092545.252500", "092545.712500", "092546.172500", "092546.632500", "092547.092500", "092547.552500", "092548.012500", "092548.472500", "092548.932500", "092549.392500", "092549.852500", "092550.312500", "092550.772500", "092551.232500", "092551.692500", "092552.152500", "092552.612500", "092553.072500", "092553.532500", "092553.992500", "092554.452500", "092554.912500", "092555.372500", "092555.832500", "092556.292500", "092556.752500", "092557.212500", "092557.672500", "092558.132500", "092558.592500", "092559.052500", "092559.512500", "092559.972500", "092600.432500", "092600.892500", "092601.352500", "092601.812500", "092602.272500", "092602.732500", "092603.192500", "092603.652500", "092604.112500", "092604.572500", "092605.032500", "092605.492500", "092605.952500", "092606.412500", "092606.872500", "092607.332500", "092607.792500", "092608.252500", "092608.712500", "092609.172500", "092609.632500", "092610.092500", "092610.552500", "092611.012500", "092611.472500", "092611.932500", "092612.392500", "092612.852500", "092613.312500", "092613.772500", "092614.232500", "092614.692500", "092615.152500", "092615.612500", "092616.072500", "092616.532500", "092616.992500", "092617.452500", "092617.912500", "092618.372500", "092618.832500", "092619.292500", "092619.752500", "092620.212500", "092620.672500", "092621.132500", "092621.592500", "092622.052500", "092622.512500", "092622.972500", "092623.432500", "092623.892500", "092624.352500", "092624.812500", "092625.272500", "092625.732500", "092626.192500", "092626.652500", "092627.112500", "092627.572500", "092628.032500", "092628.492500", "092628.952500", "092629.412500", "092629.872500", "092630.332500", "092630.792500", "092631.252500", "092631.712500", "092632.172500", "092632.632500", "092633.092500", "092633.552500", "092634.012500", "092634.472500", "092634.932500", "092635.392500", "092635.852500", "092636.312500", "092636.772500", "092637.232500", "092637.692500", "092638.152500", "092638.612500", "092639.072500", "092639.532500", "092639.992500", "092640.452500", "092640.912500", "092641.372500", "092641.832500", "092642.292500", "092642.752500", "092643.212500", "092643.672500", "092644.132500", "092644.592500", "092645.052500", "092645.512500", "092645.972500", "092646.432500", "092646.892500", "092647.352500", "092647.812500", "092648.272500", "092648.732500", "092649.192500", "092649.652500", "092650.112500", "092650.572500", "092651.032500", "092651.492500", "092651.952500", "092652.412500", "092652.872500", "092653.332500", "092653.792500", "092654.252500", "092654.712500", "092655.172500", "092655.632500", "092656.092500", "092656.552500", "092657.012500", "092657.472500", "092657.932500", "092658.392500", "092658.852500", "092659.312500", "092659.772500", "092700.232500", "092700.692500", "092701.152500", "092701.612500", "092702.072500", "092702.532500", "092702.992500", "092703.452500", "092703.912500", "092704.372500", "092704.832500"],
