{
  "AcquisitionMatrixPE": 82,
  "AcquisitionNumber": 1,
  "AcquisitionTime": "09:27:31.157500",
  "BandwidthPerPixelPhaseEncode": 24.888,
  "BaseResolution": 82,
  "BodyPartExamined": "BRAIN",
  "ConsistencyInfo": "N4_VE11E_LATEST_20181129",
  "ConversionSoftware": "dcm2niix",
  "ConversionSoftwareVersion": "v1.0.20201102",
  "DerivedVendorReportedEchoSpacing": 0.00049,
  "DeviceSerialNumber": "66112",
  "DwellTime": 2e-06,
  "EchoTime": 0.0272,
  "EchoTrainLength": 82,
  "EffectiveEchoSpacing": 0.00049,
  "FlipAngle": 44,
  "ImageComments": "Unaliased MB8/PE3",
  "ImageOrientationPatientDICOM": [0.999527, -0.0237818, -0.0195236, 0.0266973, 0.98576, 0.166027],
  "ImageType": [
    "ORIGINAL",
    "PRIMARY",
    "M",
    "MB",
    "ND",
    "NORM",
    "MOSAIC"
],
  "ImagingFrequency": 123.259,
  "InPlanePhaseEncodingDirectionDICOM": "COL",
  "InstitutionAddress": "Maynard 3,Hanover,NH,US,03755",
  "InstitutionName": "Dartmouth College - PBS",
  "InstitutionalDepartmentName": "Department",
  "MRAcquisitionType": "2D",
  "MagneticFieldStrength": 3,
  "Manufacturer": "Siemens",
  "ManufacturersModelName": "Prisma",
  "Modality": "MR",
  "MultibandAccelerationFactor": 8,
  "PartialFourier": 1,
  "PatientPosition": "HFS",
  "PercentPhaseFOV": 100,
  "PercentSampling": 100,
  "PhaseEncodingDirection": "j-",
  "PhaseEncodingSteps": 82,
  "PhaseResolution": 1,
  "PixelBandwidth": 3050,
  "ProcedureStepDescription": "Wager_Wager^1076_spacetop",
  "ProtocolName": "func_run-02_task-faces_acq-ap-mb8",
  "PulseSequenceDetails": "%CustomerSeq%\\cmrr_mbep2d_bold",
  "ReceiveCoilActiveElements": "HEA;HEP",
  "ReceiveCoilName": "Head_32",
  "ReconMatrixPE": 82,
  "RepetitionTime": 0.46,
  "SAR": 0.0976415,
  "ScanOptions": "FS",
  "ScanningSequence": "EP",
  "SequenceName": "epfid2d1_82",
  "SequenceVariant": "SK\\SS",
  "SeriesDescription": "func_run-02_task-faces_acq-ap-mb8",
  "SeriesNumber": 18,
  "ShimSetting": [4248, -7901, -7246, 455, -99, -405, 249, 172],
  "SliceThickness": 2.7,
  "SliceTiming": [0, 0.2525, 0.065, 0.315, 0.1275, 0.3775, 0.19, 0, 0.2525, 0.065, 0.315, 0.1275, 0.3775, 0.19, 0, 0.2525, 0.065, 0.315, 0.1275, 0.3775, 0.19, 0, 0.2525, 0.065, 0.315, 0.1275, 0.3775, 0.19, 0, 0.2525, 0.065, 0.315, 0.1275, 0.3775, 0.19, 0, 0.2525, 0.065, 0.315, 0.1275, 0.3775, 0.19, 0, 0.2525, 0.065, 0.315, 0.1275, 0.3775, 0.19, 0, 0.2525, 0.065, 0.315, 0.1275, 0.3775, 0.19],
  "SoftwareVersions": "syngo MR E11",
  "SpacingBetweenSlices": 2.7,
  "StationName": "AWP66112",
  "TaskName": "faces",
  "TotalReadoutTime": 0.03969,
  "TxRefAmp": 246.769,
  "WipMemBlock": "a7ae22d0-7993-4071-8cd6-69ae07a06075||Sequence: R016 ve11e/master r/434b28f1; Aug  7 2019 18:53:46 by eja",
  "dcmmeta_affine": [
    [-2.6816565990448, 0.07162676751613617, -0.04130241647362709, 109.97234344482422],
    [0.06380488723516464, 2.644721508026123, 0.44946756958961487, -109.01071166992188],
    [-0.052380479872226715, -0.4454379081726074, 2.6620054244995117, -47.80448532104492],
    [0.0, 0.0, 0.0, 1.0]
],
  "dcmmeta_reorient_transform": [
    [0.0, -1.0, 0.0, 81.0],
    [1.0, 0.0, 0.0, 0.0],
    [0.0, 0.0, 1.0, 0.0],
    [0.0, 0.0, 0.0, 1.0]
],
  "dcmmeta_shape": [82, 82, 56, 914],
  "dcmmeta_slice_dim": 2,
  "dcmmeta_version": 0.6,
  "global": {
    "const": {
      "AccessionNumber": "A004619",
      "AcquisitionMatrix": [82, 0, 0, 82],
      "AngioFlag": "N",
      "BitsAllocated": 16,
      "BitsStored": 16,
      "BodyPartExamined": "BRAIN",
      "Columns": 656,
      "EchoNumbers": 1,
      "EchoTime": 27.2,
      "EchoTrainLength": 82,
      "FlipAngle": 44.0,
      "HighBit": 15,
      "ImageOrientationPatient": [0.99952651429879, -0.0237818204998, -0.0195236325367, 0.02669725011253, 0.9857597788443, 0.16602685098886],
      "ImagePositionPatient": [-905.96643101627, -845.93476543872, -196.6924352262],
      "ImageType": [
        "ORIGINAL",
        "PRIMARY",
        "M",
        "MB",
        "ND",
        "NORM",
        "MOSAIC"
],
      "ImagedNucleus": "1H",
      "ImagingFrequency": 123.259121,
      "InPlanePhaseEncodingDirection": "COL",
      "MRAcquisitionType": "2D",
      "MagneticFieldStrength": 3.0,
      "Manufacturer": "SIEMENS",
      "ManufacturerModelName": "Prisma",
      "Modality": "MR",
      "NumberOfAverages": 1.0,
      "NumberOfPhaseEncodingSteps": 82,
      "PercentPhaseFieldOfView": 100.0,
      "PercentSampling": 100.0,
      "PerformedProcedureStepStartTime": "083352.655000",
      "PhotometricInterpretation": "MONOCHROME2",
      "PixelBandwidth": 3050.0,
      "PixelRepresentation": 0,
      "PixelSpacing": [2.6829268932343, 2.6829268932343],
      "ProtocolName": "func_run-02_task-faces_acq-ap-mb8",
      "RepetitionTime": 460.0,
      "Rows": 656,
      "SAR": 0.09764153298834,
      "SamplesPerPixel": 1,
      "ScanOptions": "FS",
      "ScanningSequence": "EP",
      "SequenceName": "epfid2d1_82",
      "SequenceVariant": [
        "SK",
        "SS"
],
      "SeriesDescription": "func_run-02_task-faces_acq-ap-mb8",
      "SeriesNumber": 18,
      "SeriesTime": "092746.312000",
      "SliceLocation": -66.961000427207,
      "SliceThickness": 2.7000000476837,
      "SmallestImagePixelValue": 0,
      "SoftwareVersions": "syngo MR E11",
      "SpacingBetweenSlices": 2.7000000278376,
      "SpecificCharacterSet": "ISO_IR 100",
      "StudyID": "1",
      "StudyTime": "083352.453000",
      "TransmitCoilName": "Body",
      "VariableFlipAngleFlag": "N",
      "WindowCenterWidthExplanation": "Algo1"
    },
    "slices": {}
  },
  "time": {
    "samples": {
      "AcquisitionNumber": [1, 2, 3, 4, 5, 6, 7, 8, 9, 10, 11, 12, 13, 14, 15, 16, 17, 18, 19, 20, 21, 22, 23, 24, 25, 26, 27, 28, 29, 30, 31, 32, 33, 34, 35, 36, 37, 38, 39, 40, 41, 42, 43, 44, 45, 46, 47, 48, 49, 50, 51, 52, 53, 54, 55, 56, 57, 58, 59, 60, 61, 62, 63, 64, 65, 66, 67, 68, 69, 70, 71, 72, 73, 74, 75, 76, 77, 78, 79, 80, 81, 82, 83, 84, 85, 86, 87, 88, 89, 90, 91, 92, 93, 94, 95, 96, 97, 98, 99, 100, 101, 102, 103, 104, 105, 106, 107, 108, 109, 110, 111, 112, 113, 114, 115, 116, 117, 118, 119, 120, 121, 122, 123, 124, 125, 126, 127, 128, 129, 130, 131, 132, 133, 134, 135, 136, 137, 138, 139, 140, 141, 142, 143, 144, 145, 146, 147, 148, 149, 150, 151, 152, 153, 154, 155, 156, 157, 158, 159, 160, 161, 162, 163, 164, 165, 166, 167, 168, 169, 170, 171, 172, 173, 174, 175, 176, 177, 178, 179, 180, 181, 182, 183, 184, 185, 186, 187, 188, 189, 190, 191, 192, 193, 194, 195, 196, 197, 198, 199, 200, 201, 202, 203, 204, 205, 206, 207, 208, 209, 210, 211, 212, 213, 214, 215, 216, 217, 218, 219, 220, 221, 222, 223, 224, 225, 226, 227, 228, 229, 230, 231, 232, 233, 234, 235, 236, 237, 238, 239, 240, 241, 242, 243, 244, 245, 246, 247, 248, 249, 250, 251, 252, 253, 254, 255, 256, 257, 258, 259, 260, 261, 262, 263, 264, 265, 266, 267, 268, 269, 270, 271, 272, 273, 274, 275, 276, 277, 278, 279, 280, 281, 282, 283, 284, 285, 286, 287, 288, 289, 290, 291, 292, 293, 294, 295, 296, 297, 298, 299, 300, 301, 302, 303, 304, 305, 306, 307, 308, 309, 310, 311, 312, 313, 314, 315, 316, 317, 318, 319, 320, 321, 322, 323, 324, 325, 326, 327, 328, 329, 330, 331, 332, 333, 334, 335, 336, 337, 338, 339, 340, 341, 342, 343, 344, 345, 346, 347, 348, 349, 350, 351, 352, 353, 354, 355, 356, 357, 358, 359, 360, 361, 362, 363, 364, 365, 366, 367, 368, 369, 370, 371, 372, 373, 374, 375, 376, 377, 378, 379, 380, 381, 382, 383, 384, 385, 386, 387, 388, 389, 390, 391, 392, 393, 394, 395, 396, 397, 398, 399, 400, 401, 402, 403, 404, 405, 406, 407, 408, 409, 410, 411, 412, 413, 414, 415, 416, 417, 418, 419, 420, 421, 422, 423, 424, 425, 426, 427, 428, 429, 430, 431, 432, 433, 434, 435, 436, 437, 438, 439, 440, 441, 442, 443, 444, 445, 446, 447, 448, 449, 450, 451, 452, 453, 454, 455, 456, 457, 458, 459, 460, 461, 462, 463, 464, 465, 466, 467, 468, 469, 470, 471, 472, 473, 474, 475, 476, 477, 478, 479, 480, 481, 482, 483, 484, 485, 486, 487, 488, 489, 490, 491, 492, 493, 494, 495, 496, 497, 498, 499, 500, 501, 502, 503, 504, 505, 506, 507, 508, 509, 510, 511, 512, 513, 514, 515, 516, 517, 518, 519, 520, 521, 522, 523, 524, 525, 526, 527, 528, 529, 530, 531, 532, 533, 534, 535, 536, 537, 538, 539, 540, 541, 542, 543, 544, 545, 546, 547, 548, 549, 550, 551, 552, 553, 554, 555, 556, 557, 558, 559, 560, 561, 562, 563, 564, 565, 566, 567, 568, 569, 570, 571, 572, 573, 574, 575, 576, 577, 578, 579, 580, 581, 582, 583, 584, 585, 586, 587, 588, 589, 590, 591, 592, 593, 594, 595, 596, 597, 598, 599, 600, 601, 602, 603, 604, 605, 606, 607, 608, 609, 610, 611, 612, 613, 614, 615, 616, 617, 618, 619, 620, 621, 622, 623, 624, 625, 626, 627, 628, 629, 630, 631, 632, 633, 634, 635, 636, 637, 638, 639, 640, 641, 642, 643, 644, 645, 646, 647, 648, 649, 650, 651, 652, 653, 654, 655, 656, 657, 658, 659, 660, 661, 662, 663, 664, 665, 666, 667, 668, 669, 670, 671, 672, 673, 674, 675, 676, 677, 678, 679, 680, 681, 682, 683, 684, 685, 686, 687, 688, 689, 690, 691, 692, 693, 694, 695, 696, 697, 698, 699, 700, 701, 702, 703, 704, 705, 706, 707, 708, 709, 710, 711, 712, 713, 714, 715, 716, 717, 718, 719, 720, 721, 722, 723, 724, 725, 726, 727, 728, 729, 730, 731, 732, 733, 734, 735, 736, 737, 738, 739, 740, 741, 742, 743, 744, 745, 746, 747, 748, 749, 750, 751, 752, 753, 754, 755, 756, 757, 758, 759, 760, 761, 762, 763, 764, 765, 766, 767, 768, 769, 770, 771, 772, 773, 774, 775, 776, 777, 778, 779, 780, 781, 782, 783, 784, 785, 786, 787, 788, 789, 790, 791, 792, 793, 794, 795, 796, 797, 798, 799, 800, 801, 802, 803, 804, 805, 806, 807, 808, 809, 810, 811, 812, 813, 814, 815, 816, 817, 818, 819, 820, 821, 822, 823, 824, 825, 826, 827, 828, 829, 830, 831, 832, 833, 834, 835, 836, 837, 838, 839, 840, 841, 842, 843, 844, 845, 846, 847, 848, 849, 850, 851, 852, 853, 854, 855, 856, 857, 858, 859, 860, 861, 862, 863, 864, 865, 866, 867, 868, 869, 870, 871, 872, 873, 874, 875, 876, 877, 878, 879, 880, 881, 882, 883, 884, 885, 886, 887, 888, 889, 890, 891, 892, 893, 894, 895, 896, 897, 898, 899, 900, 901, 902, 903, 904, 905, 906, 907, 908, 909, 910, 911, 912, 913, 914],
      "AcquisitionTime": ["092731.157500", "092731.617500", "092732.077500", "092732.537500", "092732.997500", "092733.457500", "092733.917500", "092734.377500", "092734.837500", "092735.297500", "092735.757500", "092736.217500", "092736.677500", "092737.137500", "092737.597500", "092738.057500", "092738.517500", "092738.977500", "092739.437500", "092739.897500", "092740.357500", "092740.817500", "092741.277500", "092741.737500", "092742.197500", "092742.657500", "092743.117500", "092743.577500", "092744.037500", "092744.497500", "092744.957500", "092745.417500", "092745.877500", "092746.337500", "092746.797500", "092747.257500", "092747.717500", "092748.177500", "092748.637500", "092749.097500", "092749.557500", "092750.017500", "092750.477500", "092750.937500", "092751.397500", "092751.857500", "092752.317500", "092752.777500", "092753.237500", "092753.697500", "092754.157500", "092754.617500", "092755.077500", "092755.537500", "092755.997500", "092756.457500", "092756.917500", "092757.377500", "092757.837500", "092758.297500", "092758.757500", "092759.217500", "092759.677500", "092800.137500", "092800.597500", "092801.057500", "092801.517500", "092801.977500", "092802.437500", "092802.897500", "092803.357500", "092803.817500", "092804.277500", "092804.737500", "092805.197500", "092805.657500", "092806.117500", "092806.577500", "092807.037500", "092807.497500", "092807.957500", "092808.417500", "092808.877500", "092809.337500", "092809.797500", "092810.257500", "092810.717500", "092811.177500", "092811.637500", "092812.097500", "092812.557500", "092813.017500", "092813.477500", "092813.937500", "092814.397500", "092814.857500", "092815.317500", "092815.777500", "092816.237500", "092816.697500", "092817.157500", "092817.617500", "092818.077500", "092818.537500", "092818.997500", "092819.457500", "092819.917500", "092820.377500", "092820.837500", "092821.297500", "092821.757500", "092822.217500", "092822.677500", "092823.137500", "092823.597500", "092824.057500", "092824.517500", "092824.977500", "092825.437500", "092825.897500", "092826.357500", "092826.817500", "092827.277500", "092827.737500", "092828.197500", "092828.657500", "092829.117500", "092829.577500", "092830.037500", "092830.497500", "092830.957500", "092831.417500", "092831.877500", "092832.337500", "092832.797500", "092833.257500", "092833.717500", "092834.177500", "092834.637500", "092835.097500", "092835.557500", "092836.017500", "092836.477500", "092836.937500", "092837.397500", "092837.857500", "092838.317500", "092838.777500", "092839.237500", "092839.697500", "092840.157500", "092840.617500", "092841.077500", "092841.537500", "092841.997500", "092842.457500", "092842.917500", "092843.377500", "092843.837500", "092844.297500", "092844.757500", "092845.217500", "092845.677500", "092846.137500", "092846.597500", "092847.057500", "092847.517500", "092847.977500", "092848.437500", "092848.897500", "092849.357500", "092849.817500", "092850.277500", "092850.737500", "092851.197500", "092851.657500", "092852.117500", "092852.577500", "092853.037500", "092853.497500", "092853.957500", "092854.417500", "092854.877500", "092855.337500", "092855.797500", "092856.257500", "092856.717500", "092857.177500", "092857.637500", "092858.097500", "092858.557500", "092859.017500", "092859.477500", "092859.937500", "092900.397500", "092900.857500", "092901.317500", "092901.777500", "092902.237500", "092902.697500", "092903.157500", "092903.617500", "092904.077500", "092904.537500", "092904.997500", "092905.457500", "092905.917500", "092906.377500", "092906.837500", "092907.297500", "092907.757500", "092908.217500", "092908.677500", "092909.137500", "092909.597500", "092910.057500", "092910.517500", "092910.977500", "092911.437500", "092911.897500", "092912.357500", "092912.817500", "092913.277500", "092913.737500", "092914.197500", "092914.657500", "092915.117500", "092915.577500", "092916.037500", "092916.497500", "092916.957500", "092917.417500", "092917.877500", "092918.337500", "092918.797500", "092919.257500", "092919.717500", "092920.177500", "092920.637500", "092921.097500", "092921.557500", "092922.017500", "092922.477500", "092922.937500", "092923.397500", "092923.857500", "092924.317500", "092924.777500", "092925.237500", "092925.697500", "092926.157500", "092926.617500", "092927.077500", "092927.537500", "092927.997500", "092928.457500", "092928.917500", "092929.377500", "092929.837500", "092930.297500", "092930.757500", "092931.217500", "092931.677500", "092932.137500", "092932.597500", "092933.057500", "092933.517500", "092933.977500", "092934.437500", "092934.897500", "092935.357500", "092935.817500", "092936.277500", "092936.737500", "092937.197500", "092937.657500", "092938.117500", "092938.577500", "092939.037500", "092939.497500", "092939.957500", "092940.417500", "092940.877500", "092941.337500", "092941.797500", "092942.257500", "092942.717500", "092943.177500", "092943.637500", "092944.097500", "092944.557500", "092945.017500", "092945.477500", "092945.937500", "092946.397500", "092946.857500", "092947.317500", "092947.777500", "092948.237500", "092948.697500", "092949.157500", "092949.617500", "092950.077500", "092950.537500", "092950.997500", "092951.457500", "092951.917500", "092952.377500", "092952.837500", "092953.297500", "092953.757500", "092954.217500", "092954.677500", "092955.137500", "092955.597500", "092956.057500", "092956.517500", "092956.977500", "092957.437500", "092957.897500", "092958.357500", "092958.817500", "092959.277500", "092959.737500", "093000.197500", "093000.657500", "093001.117500", "093001.577500", "093002.037500", "093002.497500", "093002.957500", "093003.417500", "093003.877500", "093004.337500", "093004.797500", "093005.257500", "093005.717500", "093006.177500", "093006.637500", "093007.097500", "093007.557500", "093008.017500", "093008.477500", "093008.937500", "093009.397500", "093009.857500", "093010.317500", "093010.777500", "093011.237500", "093011.697500", "093012.157500", "093012.617500", "093013.077500", "093013.537500", "093013.997500", "093014.457500", "093014.917500", "093015.377500", "093015.837500", "093016.297500", "093016.757500", "093017.217500", "093017.677500", "093018.137500", "093018.597500", "093019.057500", "093019.517500", "093019.977500", "093020.437500", "093020.897500", "093021.357500", "093021.817500", "093022.277500", "093022.737500", "093023.197500", "093023.657500", "093024.117500", "093024.577500", "093025.037500", "093025.497500", "093025.957500", "093026.417500", "093026.877500", "093027.337500", "093027.797500", "093028.257500", "093028.717500", "093029.177500", "093029.637500", "093030.097500", "093030.557500", "093031.017500", "093031.477500", "093031.937500", "093032.397500", "093032.857500", "093033.317500", "093033.777500", "093034.237500", "093034.697500", "093035.157500", "093035.617500", "093036.077500", "093036.537500", "093036.997500", "093037.457500", "093037.917500", "093038.377500", "093038.837500", "093039.297500", "093039.757500", "093040.217500", "093040.677500", "093041.137500", "093041.597500", "093042.057500", "093042.517500", "093042.977500", "093043.437500", "093043.897500", "093044.357500", "093044.817500", "093045.277500", "093045.737500", "093046.197500", "093046.657500", "093047.117500", "093047.577500", "093048.037500", "093048.497500", "093048.957500", "093049.417500", "093049.877500", "093050.337500", "093050.797500", "093051.257500", "093051.717500", "093052.177500", "093052.637500", "093053.097500", "093053.557500", "093054.017500", "093054.477500", "093054.937500", "093055.397500", "093055.857500", "093056.317500", "093056.777500", "093057.237500", "093057.697500", "093058.157500", "093058.617500", "093059.077500", "093059.537500", "093059.997500", "093100.457500", "093100.917500", "093101.377500", "093101.837500", "093102.297500", "093102.757500", "093103.217500", "093103.677500", "093104.137500", "093104.597500", "093105.057500", "093105.517500", "093105.977500", "093106.437500", "093106.897500", "093107.357500", "093107.817500", "093108.277500", "093108.737500", "093109.197500", "093109.657500", "093110.117500", "093110.577500", "093111.037500", "093111.497500", "093111.957500", "093112.417500", "093112.877500", "093113.337500", "093113.797500", "093114.257500", "093114.717500", "093115.177500", "093115.637500", "093116.097500", "093116.557500", "093117.017500", "093117.477500", "093117.937500", "093118.397500", "093118.857500", "093119.317500", "093119.777500", "093120.237500", "093120.697500", "093121.157500", "093121.617500", "093122.077500", "093122.537500", "093122.997500", "093123.457500", "093123.917500", "093124.377500", "093124.837500", "093125.297500", "093125.757500", "093126.217500", "093126.677500", "093127.137500", "093127.597500", "093128.057500", "093128.517500", "093128.977500", "093129.437500", "093129.897500", "093130.357500", "093130.817500", "093131.277500", "093131.737500", "093132.197500", "093132.657500", "093133.117500", "093133.577500", "093134.037500", "093134.497500", "093134.957500", "093135.417500", "093135.877500", "093136.337500", "093136.797500", "093137.257500", "093137.717500", "093138.177500", "093138.637500", "093139.097500", "093139.557500", "093140.017500", "093140.477500", "093140.937500", "093141.397500", "093141.857500", "093142.317500", "093142.777500", "093143.237500", "093143.697500", "093144.157500", "093144.617500", "093145.077500", "093145.537500", "093145.997500", "093146.457500", "093146.917500", "093147.377500", "093147.837500", "093148.297500", "093148.757500", "093149.217500", "093149.677500", "093150.137500", "093150.597500", "093151.057500", "093151.517500", "093151.977500", "093152.437500", "093152.897500", "093153.357500", "093153.817500", "093154.277500", "093154.737500", "093155.197500", "093155.657500", "093156.117500", "093156.577500", "093157.037500", "093157.497500", "093157.957500", "093158.417500", "093158.877500", "093159.337500", "093159.797500", "093200.257500", "093200.717500", "093201.177500", "093201.637500", "093202.097500", "093202.557500", "093203.017500", "093203.477500", "093203.937500", "093204.397500", "093204.857500", "093205.317500", "093205.777500", "093206.237500", "093206.697500", "093207.157500", "093207.617500", "093208.077500", "093208.537500", "093208.997500", "093209.457500", "093209.917500", "093210.377500", "093210.837500", "093211.297500", "093211.757500", "093212.217500", "093212.677500", "093213.137500", "093213.597500", "093214.057500", "093214.517500", "093214.977500", "093215.437500", "093215.897500", "093216.357500", "093216.817500", "093217.277500", "093217.737500", "093218.197500", "093218.657500", "093219.117500", "093219.577500", "093220.037500", "093220.497500", "093220.957500", "093221.417500", "093221.877500", "093222.337500", "093222.797500", "093223.257500", "093223.717500", "093224.177500", "093224.637500", "093225.097500", "093225.557500", "093226.017500", "093226.477500", "093226.937500", "093227.397500", "093227.857500", "093228.317500", "093228.777500", "093229.237500", "093229.697500", "093230.157500", "093230.617500", "093231.077500", "093231.537500", "093231.997500", "093232.457500", "093232.917500", "093233.377500", "093233.837500", "093234.297500", "093234.757500", "093235.217500", "093235.677500", "093236.137500", "093236.597500", "093237.057500", "093237.517500", "093237.977500", "093238.437500", "093238.897500", "093239.357500", "093239.817500", "093240.277500", "093240.737500", "093241.197500", "093241.657500", "093242.117500", "093242.577500", "093243.037500", "093243.497500", "093243.957500", "093244.417500", "093244.877500", "093245.337500", "093245.797500", "093246.257500", "093246.717500", "093247.177500", "093247.637500", "093248.097500", "093248.557500", "093249.017500", "093249.477500", "093249.937500", "093250.397500", "093250.857500", "093251.317500", "093251.777500", "093252.237500", "093252.697500", "093253.157500", "093253.617500", "093254.077500", "093254.537500", "093254.997500", "093255.457500", "093255.917500", "093256.377500", "093256.837500", "093257.297500", "093257.757500", "093258.217500", "093258.677500", "093259.137500", "093259.597500", "093300.057500", "093300.517500", "093300.977500", "093301.437500", "093301.897500", "093302.357500", "093302.817500", "093303.277500", "093303.737500", "093304.197500", "093304.657500", "093305.117500", "093305.577500", "093306.037500", "093306.497500", "093306.957500", "093307.417500", "093307.877500", "093308.337500", "093308.797500", "093309.257500", "093309.717500", "093310.177500", "093310.637500", "093311.097500", "093311.557500", "093312.017500", "093312.477500", "093312.937500", "093313.397500", "093313.857500", "093314.317500", "093314.777500", "093315.237500", "093315.697500", "093316.157500", "093316.617500", "093317.077500", "093317.537500", "093317.997500", "093318.457500", "093318.917500", "093319.377500", "093319.837500", "093320.297500", "093320.757500", "093321.217500", "093321.677500", "093322.137500", "093322.597500", "093323.057500", "093323.517500", "093323.977500", "093324.437500", "093324.897500", "093325.357500", "093325.817500", "093326.277500", "093326.737500", "093327.197500", "093327.657500", "093328.117500", "093328.577500", "093329.037500", "093329.497500", "093329.957500", "093330.417500", "093330.877500", "093331.337500", "093331.797500", "093332.257500", "093332.717500", "093333.177500", "093333.637500", "093334.097500", "093334.557500", "093335.017500", "093335.477500", "093335.937500", "093336.397500", "093336.857500", "093337.317500", "093337.777500", "093338.237500", "093338.697500", "093339.157500", "093339.617500", "093340.077500", "093340.537500", "093340.997500", "093341.457500", "093341.917500", "093342.377500", "093342.837500", "093343.297500", "093343.757500", "093344.217500", "093344.677500", "093345.137500", "093345.597500", "093346.057500", "093346.517500", "093346.977500", "093347.437500", "093347.897500", "093348.357500", "093348.817500", "093349.277500", "093349.737500", "093350.197500", "093350.657500", "093351.117500", "093351.577500", "093352.037500", "093352.497500", "093352.957500", "093353.417500", "093353.877500", "093354.337500", "093354.797500", "093355.257500", "093355.717500", "093356.177500", "093356.637500", "093357.097500", "093357.557500", "093358.017500", "093358.477500", "093358.937500", "093359.397500", "093359.857500", "093400.317500", "093400.777500", "093401.237500", "093401.697500", "093402.157500", "093402.617500", "093403.077500", "093403.537500", "093403.997500", "093404.457500", "093404.917500", "093405.377500", "093405.837500", "093406.297500", "093406.757500", "093407.217500", "093407.677500", "093408.137500", "093408.597500", "093409.057500", "093409.517500", "093409.977500", "093410.437500", "093410.897500", "093411.357500", "093411.817500", "093412.277500", "093412.737500", "093413.197500", "093413.657500", "093414.117500", "093414.577500", "093415.037500", "093415.497500", "093415.957500", "093416.417500", "093416.877500", "093417.337500", "093417.797500", "093418.257500", "093418.717500", "093419.177500", "093419.637500", "093420.097500", "093420.557500", "093421.017500", "093421.477500", "093421.937500", "093422.397500", "093422.857500", "093423.317500", "093423.777500", "093424.237500", "093424.697500", "093425.157500", "093425.617500", "093426.077500", "093426.537500", "093426.997500", "093427.457500", "093427.917500", "093428.377500", "093428.837500", "093429.297500", "093429.757500", "093430.217500", "093430.677500", "093431.137500"],
