{
  "AcquisitionMatrixPE": 82,
  "AcquisitionNumber": 1,
  "AcquisitionTime": "08:49:58.902500",
  "BandwidthPerPixelPhaseEncode": 24.888,
  "BaseResolution": 82,
  "BodyPartExamined": "BRAIN",
  "ConsistencyInfo": "N4_VE11E_LATEST_20181129",
  "ConversionSoftware": "dcm2niix",
  "ConversionSoftwareVersion": "v1.0.20201102",
  "DerivedVendorReportedEchoSpacing": 0.00049,
  "DeviceSerialNumber": "66112",
  "DwellTime": 2e-06,
  "EchoTime": 0.0272,
  "EchoTrainLength": 82,
  "EffectiveEchoSpacing": 0.00049,
  "FlipAngle": 44,
  "ImageComments": "Unaliased MB8/PE3",
  "ImageOrientationPatientDICOM": [0.999527, -0.0237818, -0.0195236, 0.0266973, 0.98576, 0.166027],
  "ImageType": [
    "ORIGINAL",
    "PRIMARY",
    "M",
    "MB",
    "ND",
    "NORM",
    "MOSAIC"
],
  "ImagingFrequency": 123.259,
  "InPlanePhaseEncodingDirectionDICOM": "COL",
  "InstitutionAddress": "Maynard 3,Hanover,NH,US,03755",
  "InstitutionName": "Dartmouth College - PBS",
  "InstitutionalDepartmentName": "Department",
  "MRAcquisitionType": "2D",
  "MagneticFieldStrength": 3,
  "Manufacturer": "Siemens",
  "ManufacturersModelName": "Prisma",
  "Modality": "MR",
  "MultibandAccelerationFactor": 8,
  "PartialFourier": 1,
  "PatientPosition": "HFS",
  "PercentPhaseFOV": 100,
  "PercentSampling": 100,
  "PhaseEncodingDirection": "j-",
  "PhaseEncodingSteps": 82,
  "PhaseResolution": 1,
  "PixelBandwidth": 3050,
  "ProcedureStepDescription": "Wager_Wager^1076_spacetop",
  "ProtocolName": "func_run-02_task-narratives_acq-ap-mb8",
  "PulseSequenceDetails": "%CustomerSeq%\\cmrr_mbep2d_bold",
  "ReceiveCoilActiveElements": "HEA;HEP",
  "ReceiveCoilName": "Head_32",
  "ReconMatrixPE": 82,
  "RepetitionTime": 0.46,
  "SAR": 0.0977388,
  "ScanOptions": "FS",
  "ScanningSequence": "EP",
  "SequenceName": "epfid2d1_82",
  "SequenceVariant": "SK\\SS",
  "SeriesDescription": "func_run-02_task-narratives_acq-ap-mb8",
  "SeriesNumber": 10,
  "ShimSetting": [4248, -7901, -7246, 455, -99, -405, 249, 172],
  "SliceThickness": 2.7,
  "SliceTiming": [0, 0.2525, 0.065, 0.315, 0.1275, 0.3775, 0.19, 0, 0.2525, 0.065, 0.315, 0.1275, 0.3775, 0.19, 0, 0.2525, 0.065, 0.315, 0.1275, 0.3775, 0.19, 0, 0.2525, 0.065, 0.315, 0.1275, 0.3775, 0.19, 0, 0.2525, 0.065, 0.315, 0.1275, 0.3775, 0.19, 0, 0.2525, 0.065, 0.315, 0.1275, 0.3775, 0.19, 0, 0.2525, 0.065, 0.315, 0.1275, 0.3775, 0.19, 0, 0.2525, 0.065, 0.315, 0.1275, 0.3775, 0.19],
  "SoftwareVersions": "syngo MR E11",
  "SpacingBetweenSlices": 2.7,
  "StationName": "AWP66112",
  "TaskName": "narratives",
  "TotalReadoutTime": 0.03969,
  "TxRefAmp": 246.769,
  "WipMemBlock": "ddf05cde-5da6-4073-97e9-d26055ecd154||Sequence: R016 ve11e/master r/434b28f1; Aug  7 2019 18:53:46 by eja",
  "dcmmeta_affine": [
    [-2.6816565990448, 0.07162676751613617, -0.04130241647362709, 109.97234344482422],
    [0.06380488723516464, 2.644721508026123, 0.44946756958961487, -109.01071166992188],
    [-0.052380479872226715, -0.4454379081726074, 2.6620054244995117, -47.80448532104492],
    [0.0, 0.0, 0.0, 1.0]
],
  "dcmmeta_reorient_transform": [
    [0.0, -1.0, 0.0, 81.0],
    [1.0, 0.0, 0.0, 0.0],
    [0.0, 0.0, 1.0, 0.0],
    [0.0, 0.0, 0.0, 1.0]
],
  "dcmmeta_shape": [82, 82, 56, 1098],
  "dcmmeta_slice_dim": 2,
  "dcmmeta_version": 0.6,
  "global": {
    "const": {
      "AccessionNumber": "A004619",
      "AcquisitionMatrix": [82, 0, 0, 82],
      "AngioFlag": "N",
      "BitsAllocated": 16,
      "BitsStored": 16,
      "BodyPartExamined": "BRAIN",
      "Columns": 656,
      "EchoNumbers": 1,
      "EchoTime": 27.2,
      "EchoTrainLength": 82,
      "FlipAngle": 44.0,
      "HighBit": 15,
      "ImageOrientationPatient": [0.99952651429879, -0.0237818204998, -0.0195236325367, 0.02669725011253, 0.9857597788443, 0.16602685098886],
      "ImagePositionPatient": [-905.96643101627, -845.93476543872, -196.6924352262],
      "ImageType": [
        "ORIGINAL",
        "PRIMARY",
        "M",
        "MB",
        "ND",
        "NORM",
        "MOSAIC"
],
      "ImagedNucleus": "1H",
      "ImagingFrequency": 123.259103,
      "InPlanePhaseEncodingDirection": "COL",
      "MRAcquisitionType": "2D",
      "MagneticFieldStrength": 3.0,
      "Manufacturer": "SIEMENS",
      "ManufacturerModelName": "Prisma",
      "Modality": "MR",
      "NumberOfAverages": 1.0,
      "NumberOfPhaseEncodingSteps": 82,
      "PercentPhaseFieldOfView": 100.0,
      "PercentSampling": 100.0,
      "PerformedProcedureStepStartTime": "083352.655000",
      "PhotometricInterpretation": "MONOCHROME2",
      "PixelBandwidth": 3050.0,
      "PixelRepresentation": 0,
      "PixelSpacing": [2.6829268932343, 2.6829268932343],
      "ProtocolName": "func_run-02_task-narratives_acq-ap-mb8",
      "RepetitionTime": 460.0,
      "Rows": 656,
      "SAR": 0.09773879177512,
      "SamplesPerPixel": 1,
      "ScanOptions": "FS",
      "ScanningSequence": "EP",
      "SequenceName": "epfid2d1_82",
      "SequenceVariant": [
        "SK",
        "SS"
],
      "SeriesDescription": "func_run-02_task-narratives_acq-ap-mb8",
      "SeriesNumber": 10,
      "SeriesTime": "085026.453000",
      "SliceLocation": -66.961000427207,
      "SliceThickness": 2.7000000476837,
      "SmallestImagePixelValue": 0,
      "SoftwareVersions": "syngo MR E11",
      "SpacingBetweenSlices": 2.7000000278376,
      "SpecificCharacterSet": "ISO_IR 100",
      "StudyID": "1",
      "StudyTime": "083352.453000",
      "TransmitCoilName": "Body",
      "VariableFlipAngleFlag": "N",
      "WindowCenterWidthExplanation": "Algo1"
    },
    "slices": {}
  },
  "time": {
    "samples": {
      "AcquisitionNumber": [1, 2, 3, 4, 5, 6, 7, 8, 9, 10, 11, 12, 13, 14, 15, 16, 17, 18, 19, 20, 21, 22, 23, 24, 25, 26, 27, 28, 29, 30, 31, 32, 33, 34, 35, 36, 37, 38, 39, 40, 41, 42, 43, 44, 45, 46, 47, 48, 49, 50, 51, 52, 53, 54, 55, 56, 57, 58, 59, 60, 61, 62, 63, 64, 65, 66, 67, 68, 69, 70, 71, 72, 73, 74, 75, 76, 77, 78, 79, 80, 81, 82, 83, 84, 85, 86, 87, 88, 89, 90, 91, 92, 93, 94, 95, 96, 97, 98, 99, 100, 101, 102, 103, 104, 105, 106, 107, 108, 109, 110, 111, 112, 113, 114, 115, 116, 117, 118, 119, 120, 121, 122, 123, 124, 125, 126, 127, 128, 129, 130, 131, 132, 133, 134, 135, 136, 137, 138, 139, 140, 141, 142, 143, 144, 145, 146, 147, 148, 149, 150, 151, 152, 153, 154, 155, 156, 157, 158, 159, 160, 161, 162, 163, 164, 165, 166, 167, 168, 169, 170, 171, 172, 173, 174, 175, 176, 177, 178, 179, 180, 181, 182, 183, 184, 185, 186, 187, 188, 189, 190, 191, 192, 193, 194, 195, 196, 197, 198, 199, 200, 201, 202, 203, 204, 205, 206, 207, 208, 209, 210, 211, 212, 213, 214, 215, 216, 217, 218, 219, 220, 221, 222, 223, 224, 225, 226, 227, 228, 229, 230, 231, 232, 233, 234, 235, 236, 237, 238, 239, 240, 241, 242, 243, 244, 245, 246, 247, 248, 249, 250, 251, 252, 253, 254, 255, 256, 257, 258, 259, 260, 261, 262, 263, 264, 265, 266, 267, 268, 269, 270, 271, 272, 273, 274, 275, 276, 277, 278, 279, 280, 281, 282, 283, 284, 285, 286, 287, 288, 289, 290, 291, 292, 293, 294, 295, 296, 297, 298, 299, 300, 301, 302, 303, 304, 305, 306, 307, 308, 309, 310, 311, 312, 313, 314, 315, 316, 317, 318, 319, 320, 321, 322, 323, 324, 325, 326, 327, 328, 329, 330, 331, 332, 333, 334, 335, 336, 337, 338, 339, 340, 341, 342, 343, 344, 345, 346, 347, 348, 349, 350, 351, 352, 353, 354, 355, 356, 357, 358, 359, 360, 361, 362, 363, 364, 365, 366, 367, 368, 369, 370, 371, 372, 373, 374, 375, 376, 377, 378, 379, 380, 381, 382, 383, 384, 385, 386, 387, 388, 389, 390, 391, 392, 393, 394, 395, 396, 397, 398, 399, 400, 401, 402, 403, 404, 405, 406, 407, 408, 409, 410, 411, 412, 413, 414, 415, 416, 417, 418, 419, 420, 421, 422, 423, 424, 425, 426, 427, 428, 429, 430, 431, 432, 433, 434, 435, 436, 437, 438, 439, 440, 441, 442, 443, 444, 445, 446, 447, 448, 449, 450, 451, 452, 453, 454, 455, 456, 457, 458, 459, 460, 461, 462, 463, 464, 465, 466, 467, 468, 469, 470, 471, 472, 473, 474, 475, 476, 477, 478, 479, 480, 481, 482, 483, 484, 485, 486, 487, 488, 489, 490, 491, 492, 493, 494, 495, 496, 497, 498, 499, 500, 501, 502, 503, 504, 505, 506, 507, 508, 509, 510, 511, 512, 513, 514, 515, 516, 517, 518, 519, 520, 521, 522, 523, 524, 525, 526, 527, 528, 529, 530, 531, 532, 533, 534, 535, 536, 537, 538, 539, 540, 541, 542, 543, 544, 545, 546, 547, 548, 549, 550, 551, 552, 553, 554, 555, 556, 557, 558, 559, 560, 561, 562, 563, 564, 565, 566, 567, 568, 569, 570, 571, 572, 573, 574, 575, 576, 577, 578, 579, 580, 581, 582, 583, 584, 585, 586, 587, 588, 589, 590, 591, 592, 593, 594, 595, 596, 597, 598, 599, 600, 601, 602, 603, 604, 605, 606, 607, 608, 609, 610, 611, 612, 613, 614, 615, 616, 617, 618, 619, 620, 621, 622, 623, 624, 625, 626, 627, 628, 629, 630, 631, 632, 633, 634, 635, 636, 637, 638, 639, 640, 641, 642, 643, 644, 645, 646, 647, 648, 649, 650, 651, 652, 653, 654, 655, 656, 657, 658, 659, 660, 661, 662, 663, 664, 665, 666, 667, 668, 669, 670, 671, 672, 673, 674, 675, 676, 677, 678, 679, 680, 681, 682, 683, 684, 685, 686, 687, 688, 689, 690, 691, 692, 693, 694, 695, 696, 697, 698, 699, 700, 701, 702, 703, 704, 705, 706, 707, 708, 709, 710, 711, 712, 713, 714, 715, 716, 717, 718, 719, 720, 721, 722, 723, 724, 725, 726, 727, 728, 729, 730, 731, 732, 733, 734, 735, 736, 737, 738, 739, 740, 741, 742, 743, 744, 745, 746, 747, 748, 749, 750, 751, 752, 753, 754, 755, 756, 757, 758, 759, 760, 761, 762, 763, 764, 765, 766, 767, 768, 769, 770, 771, 772, 773, 774, 775, 776, 777, 778, 779, 780, 781, 782, 783, 784, 785, 786, 787, 788, 789, 790, 791, 792, 793, 794, 795, 796, 797, 798, 799, 800, 801, 802, 803, 804, 805, 806, 807, 808, 809, 810, 811, 812, 813, 814, 815, 816, 817, 818, 819, 820, 821, 822, 823, 824, 825, 826, 827, 828, 829, 830, 831, 832, 833, 834, 835, 836, 837, 838, 839, 840, 841, 842, 843, 844, 845, 846, 847, 848, 849, 850, 851, 852, 853, 854, 855, 856, 857, 858, 859, 860, 861, 862, 863, 864, 865, 866, 867, 868, 869, 870, 871, 872, 873, 874, 875, 876, 877, 878, 879, 880, 881, 882, 883, 884, 885, 886, 887, 888, 889, 890, 891, 892, 893, 894, 895, 896, 897, 898, 899, 900, 901, 902, 903, 904, 905, 906, 907, 908, 909, 910, 911, 912, 913, 914, 915, 916, 917, 918, 919, 920, 921, 922, 923, 924, 925, 926, 927, 928, 929, 930, 931, 932, 933, 934, 935, 936, 937, 938, 939, 940, 941, 942, 943, 944, 945, 946, 947, 948, 949, 950, 951, 952, 953, 954, 955, 956, 957, 958, 959, 960, 961, 962, 963, 964, 965, 966, 967, 968, 969, 970, 971, 972, 973, 974, 975, 976, 977, 978, 979, 980, 981, 982, 983, 984, 985, 986, 987, 988, 989, 990, 991, 992, 993, 994, 995, 996, 997, 998, 999, 1000, 1001, 1002, 1003, 1004, 1005, 1006, 1007, 1008, 1009, 1010, 1011, 1012, 1013, 1014, 1015, 1016, 1017, 1018, 1019, 1020, 1021, 1022, 1023, 1024, 1025, 1026, 1027, 1028, 1029, 1030, 1031, 1032, 1033, 1034, 1035, 1036, 1037, 1038, 1039, 1040, 1041, 1042, 1043, 1044, 1045, 1046, 1047, 1048, 1049, 1050, 1051, 1052, 1053, 1054, 1055, 1056, 1057, 1058, 1059, 1060, 1061, 1062, 1063, 1064, 1065, 1066, 1067, 1068, 1069, 1070, 1071, 1072, 1073, 1074, 1075, 1076, 1077, 1078, 1079, 1080, 1081, 1082, 1083, 1084, 1085, 1086, 1087, 1088, 1089, 1090, 1091, 1092, 1093, 1094, 1095, 1096, 1097, 1098],
      "AcquisitionTime": ["084958.902500", "084959.362500", "084959.822500", "085000.282500", "085000.742500", "085001.202500", "085001.662500", "085002.122500", "085002.582500", "085003.042500", "085003.502500", "085003.962500", "085004.422500", "085004.882500", "085005.342500", "085005.802500", "085006.262500", "085006.722500", "085007.182500", "085007.642500", "085008.102500", "085008.562500", "085009.022500", "085009.482500", "085009.942500", "085010.402500", "085010.862500", "085011.322500", "085011.782500", "085012.242500", "085012.702500", "085013.162500", "085013.622500", "085014.082500", "085014.542500", "085015.002500", "085015.462500", "085015.922500", "085016.382500", "085016.842500", "085017.302500", "085017.762500", "085018.222500", "085018.682500", "085019.142500", "085019.602500", "085020.062500", "085020.522500", "085020.982500", "085021.442500", "085021.902500", "085022.362500", "085022.822500", "085023.282500", "085023.742500", "085024.202500", "085024.662500", "085025.122500", "085025.582500", "085026.042500", "085026.502500", "085026.962500", "085027.422500", "085027.882500", "085028.342500", "085028.802500", "085029.262500", "085029.722500", "085030.182500", "085030.642500", "085031.102500", "085031.562500", "085032.022500", "085032.482500", "085032.942500", "085033.402500", "085033.862500", "085034.322500", "085034.782500", "085035.242500", "085035.702500", "085036.162500", "085036.622500", "085037.082500", "085037.542500", "085038.002500", "085038.462500", "085038.922500", "085039.382500", "085039.842500", "085040.302500", "085040.762500", "085041.222500", "085041.682500", "085042.142500", "085042.602500", "085043.062500", "085043.522500", "085043.982500", "085044.442500", "085044.902500", "085045.362500", "085045.822500", "085046.282500", "085046.742500", "085047.202500", "085047.662500", "085048.122500", "085048.582500", "085049.042500", "085049.502500", "085049.962500", "085050.422500", "085050.882500", "085051.342500", "085051.802500", "085052.262500", "085052.722500", "085053.182500", "085053.642500", "085054.102500", "085054.562500", "085055.022500", "085055.482500", "085055.942500", "085056.402500", "085056.862500", "085057.322500", "085057.782500", "085058.242500", "085058.702500", "085059.162500", "085059.622500", "085100.082500", "085100.542500", "085101.002500", "085101.462500", "085101.922500", "085102.382500", "085102.842500", "085103.302500", "085103.762500", "085104.222500", "085104.682500", "085105.142500", "085105.602500", "085106.062500", "085106.522500", "085106.982500", "085107.442500", "085107.902500", "085108.362500", "085108.822500", "085109.282500", "085109.742500", "085110.202500", "085110.662500", "085111.122500", "085111.582500", "085112.042500", "085112.502500", "085112.962500", "085113.422500", "085113.882500", "085114.342500", "085114.802500", "085115.262500", "085115.722500", "085116.182500", "085116.642500", "085117.102500", "085117.562500", "085118.022500", "085118.482500", "085118.942500", "085119.402500", "085119.862500", "085120.322500", "085120.782500", "085121.242500", "085121.702500", "085122.162500", "085122.622500", "085123.082500", "085123.542500", "085124.002500", "085124.462500", "085124.922500", "085125.382500", "085125.842500", "085126.302500", "085126.762500", "085127.222500", "085127.682500", "085128.142500", "085128.602500", "085129.062500", "085129.522500", "085129.982500", "085130.442500", "085130.902500", "085131.362500", "085131.822500", "085132.282500", "085132.742500", "085133.202500", "085133.662500", "085134.122500", "085134.582500", "085135.042500", "085135.502500", "085135.962500", "085136.422500", "085136.882500", "085137.342500", "085137.802500", "085138.262500", "085138.722500", "085139.182500", "085139.642500", "085140.102500", "085140.562500", "085141.022500", "085141.482500", "085141.942500", "085142.402500", "085142.862500", "085143.322500", "085143.782500", "085144.242500", "085144.702500", "085145.162500", "085145.622500", "085146.082500", "085146.542500", "085147.002500", "085147.462500", "085147.922500", "085148.382500", "085148.842500", "085149.302500", "085149.762500", "085150.222500", "085150.682500", "085151.142500", "085151.602500", "085152.062500", "085152.522500", "085152.982500", "085153.442500", "085153.902500", "085154.362500", "085154.822500", "085155.282500", "085155.742500", "085156.202500", "085156.662500", "085157.122500", "085157.582500", "085158.042500", "085158.502500", "085158.962500", "085159.422500", "085159.882500", "085200.342500", "085200.802500", "085201.262500", "085201.722500", "085202.182500", "085202.642500", "085203.102500", "085203.562500", "085204.022500", "085204.482500", "085204.942500", "085205.402500", "085205.862500", "085206.322500", "085206.782500", "085207.242500", "085207.702500", "085208.162500", "085208.622500", "085209.082500", "085209.542500", "085210.002500", "085210.462500", "085210.922500", "085211.382500", "085211.842500", "085212.302500", "085212.762500", "085213.222500", "085213.682500", "085214.142500", "085214.602500", "085215.062500", "085215.522500", "085215.982500", "085216.442500", "085216.902500", "085217.362500", "085217.822500", "085218.282500", "085218.742500", "085219.202500", "085219.662500", "085220.122500", "085220.582500", "085221.042500", "085221.502500", "085221.962500", "085222.422500", "085222.882500", "085223.342500", "085223.802500", "085224.262500", "085224.722500", "085225.182500", "085225.642500", "085226.102500", "085226.562500", "085227.022500", "085227.482500", "085227.942500", "085228.402500", "085228.862500", "085229.322500", "085229.782500", "085230.242500", "085230.702500", "085231.162500", "085231.622500", "085232.082500", "085232.542500", "085233.002500", "085233.462500", "085233.922500", "085234.382500", "085234.842500", "085235.302500", "085235.762500", "085236.222500", "085236.682500", "085237.142500", "085237.602500", "085238.062500", "085238.522500", "085238.982500", "085239.442500", "085239.902500", "085240.362500", "085240.822500", "085241.282500", "085241.742500", "085242.202500", "085242.662500", "085243.122500", "085243.582500", "085244.042500", "085244.502500", "085244.962500", "085245.422500", "085245.882500", "085246.342500", "085246.802500", "085247.262500", "085247.722500", "085248.182500", "085248.642500", "085249.102500", "085249.562500", "085250.022500", "085250.482500", "085250.942500", "085251.402500", "085251.862500", "085252.322500", "085252.782500", "085253.242500", "085253.702500", "085254.162500", "085254.622500", "085255.082500", "085255.542500", "085256.002500", "085256.462500", "085256.922500", "085257.382500", "085257.842500", "085258.302500", "085258.762500", "085259.222500", "085259.682500", "085300.142500", "085300.602500", "085301.062500", "085301.522500", "085301.982500", "085302.442500", "085302.902500", "085303.362500", "085303.822500", "085304.282500", "085304.742500", "085305.202500", "085305.662500", "085306.122500", "085306.582500", "085307.042500", "085307.502500", "085307.962500", "085308.422500", "085308.882500", "085309.342500", "085309.802500", "085310.262500", "085310.722500", "085311.182500", "085311.642500", "085312.102500", "085312.562500", "085313.022500", "085313.482500", "085313.942500", "085314.402500", "085314.862500", "085315.322500", "085315.782500", "085316.242500", "085316.702500", "085317.162500", "085317.622500", "085318.082500", "085318.542500", "085319.002500", "085319.462500", "085319.922500", "085320.382500", "085320.842500", "085321.302500", "085321.762500", "085322.222500", "085322.682500", "085323.142500", "085323.602500", "085324.062500", "085324.522500", "085324.982500", "085325.442500", "085325.902500", "085326.362500", "085326.822500", "085327.282500", "085327.742500", "085328.202500", "085328.662500", "085329.122500", "085329.582500", "085330.042500", "085330.502500", "085330.962500", "085331.422500", "085331.882500", "085332.342500", "085332.802500", "085333.262500", "085333.722500", "085334.182500", "085334.642500", "085335.102500", "085335.562500", "085336.022500", "085336.482500", "085336.942500", "085337.402500", "085337.862500", "085338.322500", "085338.782500", "085339.242500", "085339.702500", "085340.162500", "085340.622500", "085341.082500", "085341.542500", "085342.002500", "085342.462500", "085342.922500", "085343.382500", "085343.842500", "085344.302500", "085344.762500", "085345.222500", "085345.682500", "085346.142500", "085346.602500", "085347.062500", "085347.522500", "085347.982500", "085348.442500", "085348.902500", "085349.362500", "085349.822500", "085350.282500", "085350.742500", "085351.202500", "085351.662500", "085352.122500", "085352.582500", "085353.042500", "085353.502500", "085353.962500", "085354.422500", "085354.882500", "085355.342500", "085355.802500", "085356.262500", "085356.722500", "085357.182500", "085357.642500", "085358.102500", "085358.562500", "085359.022500", "085359.482500", "085359.942500", "085400.402500", "085400.862500", "085401.322500", "085401.782500", "085402.242500", "085402.702500", "085403.162500", "085403.622500", "085404.082500", "085404.542500", "085405.002500", "085405.462500", "085405.922500", "085406.382500", "085406.842500", "085407.302500", "085407.762500", "085408.222500", "085408.682500", "085409.142500", "085409.602500", "085410.062500", "085410.522500", "085410.982500", "085411.442500", "085411.902500", "085412.362500", "085412.822500", "085413.282500", "085413.742500", "085414.202500", "085414.662500", "085415.122500", "085415.582500", "085416.042500", "085416.502500", "085416.962500", "085417.422500", "085417.882500", "085418.342500", "085418.802500", "085419.262500", "085419.722500", "085420.182500", "085420.642500", "085421.102500", "085421.562500", "085422.022500", "085422.482500", "085422.942500", "085423.402500", "085423.862500", "085424.322500", "085424.782500", "085425.242500", "085425.702500", "085426.162500", "085426.622500", "085427.082500", "085427.542500", "085428.002500", "085428.462500", "085428.922500", "085429.382500", "085429.842500", "085430.302500", "085430.762500", "085431.222500", "085431.682500", "085432.142500", "085432.602500", "085433.062500", "085433.522500", "085433.982500", "085434.442500", "085434.902500", "085435.362500", "085435.822500", "085436.282500", "085436.742500", "085437.202500", "085437.662500", "085438.122500", "085438.582500", "085439.042500", "085439.502500", "085439.962500", "085440.422500", "085440.882500", "085441.342500", "085441.802500", "085442.262500", "085442.722500", "085443.182500", "085443.642500", "085444.102500", "085444.562500", "085445.022500", "085445.482500", "085445.942500", "085446.402500", "085446.862500", "085447.322500", "085447.782500", "085448.242500", "085448.702500", "085449.162500", "085449.622500", "085450.082500", "085450.542500", "085451.002500", "085451.462500", "085451.922500", "085452.382500", "085452.842500", "085453.302500", "085453.762500", "085454.222500", "085454.682500", "085455.142500", "085455.602500", "085456.062500", "085456.522500", "085456.982500", "085457.442500", "085457.902500", "085458.362500", "085458.822500", "085459.282500", "085459.742500", "085500.202500", "085500.662500", "085501.122500", "085501.582500", "085502.042500", "085502.502500", "085502.962500", "085503.422500", "085503.882500", "085504.342500", "085504.802500", "085505.262500", "085505.722500", "085506.182500", "085506.642500", "085507.102500", "085507.562500", "085508.022500", "085508.482500", "085508.942500", "085509.402500", "085509.862500", "085510.322500", "085510.782500", "085511.242500", "085511.702500", "085512.162500", "085512.622500", "085513.082500", "085513.542500", "085514.002500", "085514.462500", "085514.922500", "085515.382500", "085515.842500", "085516.302500", "085516.762500", "085517.222500", "085517.682500", "085518.142500", "085518.602500", "085519.062500", "085519.522500", "085519.982500", "085520.442500", "085520.902500", "085521.362500", "085521.822500", "085522.282500", "085522.742500", "085523.202500", "085523.662500", "085524.122500", "085524.582500", "085525.042500", "085525.502500", "085525.962500", "085526.422500", "085526.882500", "085527.342500", "085527.802500", "085528.262500", "085528.722500", "085529.182500", "085529.642500", "085530.102500", "085530.562500", "085531.022500", "085531.482500", "085531.942500", "085532.402500", "085532.862500", "085533.322500", "085533.782500", "085534.242500", "085534.702500", "085535.162500", "085535.622500", "085536.082500", "085536.542500", "085537.002500", "085537.462500", "085537.922500", "085538.382500", "085538.842500", "085539.302500", "085539.762500", "085540.222500", "085540.682500", "085541.142500", "085541.602500", "085542.062500", "085542.522500", "085542.982500", "085543.442500", "085543.902500", "085544.362500", "085544.822500", "085545.282500", "085545.742500", "085546.202500", "085546.662500", "085547.122500", "085547.582500", "085548.042500", "085548.502500", "085548.962500", "085549.422500", "085549.882500", "085550.342500", "085550.802500", "085551.262500", "085551.722500", "085552.182500", "085552.642500", "085553.102500", "085553.562500", "085554.022500", "085554.482500", "085554.942500", "085555.402500", "085555.862500", "085556.322500", "085556.782500", "085557.242500", "085557.702500", "085558.162500", "085558.622500", "085559.082500", "085559.542500", "085600.002500", "085600.462500", "085600.922500", "085601.382500", "085601.842500", "085602.302500", "085602.762500", "085603.222500", "085603.682500", "085604.142500", "085604.602500", "085605.062500", "085605.522500", "085605.982500", "085606.442500", "085606.902500", "085607.362500", "085607.822500", "085608.282500", "085608.742500", "085609.202500", "085609.662500", "085610.122500", "085610.582500", "085611.042500", "085611.502500", "085611.962500", "085612.422500", "085612.882500", "085613.342500", "085613.802500", "085614.262500", "085614.722500", "085615.182500", "085615.642500", "085616.102500", "085616.562500", "085617.022500", "085617.482500", "085617.942500", "085618.402500", "085618.862500", "085619.322500", "085619.782500", "085620.242500", "085620.702500", "085621.162500", "085621.622500", "085622.082500", "085622.542500", "085623.002500", "085623.462500", "085623.922500", "085624.382500", "085624.842500", "085625.302500", "085625.762500", "085626.222500", "085626.682500", "085627.142500", "085627.602500", "085628.062500", "085628.522500", "085628.982500", "085629.442500", "085629.902500", "085630.362500", "085630.822500", "085631.282500", "085631.742500", "085632.202500", "085632.662500", "085633.122500", "085633.582500", "085634.042500", "085634.502500", "085634.962500", "085635.422500", "085635.882500", "085636.342500", "085636.802500", "085637.262500", "085637.722500", "085638.182500", "085638.642500", "085639.102500", "085639.562500", "085640.022500", "085640.482500", "085640.942500", "085641.402500", "085641.862500", "085642.322500", "085642.782500", "085643.242500", "085643.702500", "085644.162500", "085644.622500", "085645.082500", "085645.542500", "085646.002500", "085646.462500", "085646.922500", "085647.382500", "085647.842500", "085648.302500", "085648.762500", "085649.222500", "085649.682500", "085650.142500", "085650.602500", "085651.062500", "085651.522500", "085651.982500", "085652.442500", "085652.902500", "085653.362500", "085653.822500", "085654.282500", "085654.742500", "085655.202500", "085655.662500", "085656.122500", "085656.582500", "085657.042500", "085657.502500", "085657.962500", "085658.422500", "085658.882500", "085659.342500", "085659.802500", "085700.262500", "085700.722500", "085701.182500", "085701.642500", "085702.102500", "085702.562500", "085703.022500", "085703.482500", "085703.942500", "085704.402500", "085704.862500", "085705.322500", "085705.782500", "085706.242500", "085706.702500", "085707.162500", "085707.622500", "085708.082500", "085708.542500", "085709.002500", "085709.462500", "085709.922500", "085710.382500", "085710.842500", "085711.302500", "085711.762500", "085712.222500", "085712.682500", "085713.142500", "085713.602500", "085714.062500", "085714.522500", "085714.982500", "085715.442500", "085715.902500", "085716.362500", "085716.822500", "085717.282500", "085717.742500", "085718.202500", "085718.662500", "085719.122500", "085719.582500", "085720.042500", "085720.502500", "085720.962500", "085721.422500", "085721.882500", "085722.342500", "085722.802500", "085723.262500", "085723.722500", "085724.182500", "085724.642500", "085725.102500", "085725.562500", "085726.022500", "085726.482500", "085726.942500", "085727.402500", "085727.862500", "085728.322500", "085728.782500", "085729.242500", "085729.702500", "085730.162500", "085730.622500", "085731.082500", "085731.542500", "085732.002500", "085732.462500", "085732.922500", "085733.382500", "085733.842500", "085734.302500", "085734.762500", "085735.222500", "085735.682500", "085736.142500", "085736.602500", "085737.062500", "085737.522500", "085737.982500", "085738.442500", "085738.902500", "085739.362500", "085739.822500", "085740.282500", "085740.742500", "085741.202500", "085741.662500", "085742.122500", "085742.582500", "085743.042500", "085743.502500", "085743.962500", "085744.422500", "085744.882500", "085745.342500", "085745.802500", "085746.262500", "085746.722500", "085747.182500", "085747.642500", "085748.102500", "085748.562500", "085749.022500", "085749.482500", "085749.942500", "085750.402500", "085750.862500", "085751.322500", "085751.782500", "085752.242500", "085752.702500", "085753.162500", "085753.622500", "085754.082500", "085754.542500", "085755.002500", "085755.462500", "085755.922500", "085756.382500", "085756.842500", "085757.302500", "085757.762500", "085758.222500", "085758.682500", "085759.142500", "085759.602500", "085800.062500", "085800.522500", "085800.982500", "085801.442500", "085801.902500", "085802.362500", "085802.822500", "085803.282500", "085803.742500", "085804.202500", "085804.662500", "085805.122500", "085805.582500", "085806.042500", "085806.502500", "085806.962500", "085807.422500", "085807.882500", "085808.342500", "085808.802500", "085809.262500", "085809.722500", "085810.182500", "085810.642500", "085811.102500", "085811.562500", "085812.022500", "085812.482500", "085812.942500", "085813.402500", "085813.862500", "085814.322500", "085814.782500", "085815.242500", "085815.702500", "085816.162500", "085816.622500", "085817.082500", "085817.542500", "085818.002500", "085818.462500", "085818.922500", "085819.382500", "085819.842500", "085820.302500", "085820.762500", "085821.222500", "085821.682500", "085822.142500", "085822.602500", "085823.062500", "085823.522500"],
