{
  "AcquisitionMatrixPE": 82,
  "AcquisitionNumber": 1,
  "AcquisitionTime": "09:45:16.370000",
  "BandwidthPerPixelPhaseEncode": 24.888,
  "BaseResolution": 82,
  "BodyPartExamined": "BRAIN",
  "ConsistencyInfo": "N4_VE11E_LATEST_20181129",
  "ConversionSoftware": "dcm2niix",
  "ConversionSoftwareVersion": "v1.0.20201102",
  "DerivedVendorReportedEchoSpacing": 0.00049,
  "DeviceSerialNumber": "66112",
  "DwellTime": 2e-06,
  "EchoTime": 0.0272,
  "EchoTrainLength": 82,
  "EffectiveEchoSpacing": 0.00049,
  "FlipAngle": 44,
  "ImageComments": "Unaliased MB8/PE3",
  "ImageOrientationPatientDICOM": [0.999168, -0.0406831, 0.0029094, 0.0390828, 0.975383, 0.217026],
  "ImageType": [
    "ORIGINAL",
    "PRIMARY",
    "M",
    "MB",
    "ND",
    "NORM",
    "MOSAIC"
],
  "ImagingFrequency": 123.259,
  "InPlanePhaseEncodingDirectionDICOM": "COL",
  "InstitutionAddress": "Maynard 3,Hanover,NH,US,03755",
  "InstitutionName": "Dartmouth College - PBS",
  "InstitutionalDepartmentName": "Department",
  "MRAcquisitionType": "2D",
  "MagneticFieldStrength": 3,
  "Manufacturer": "Siemens",
  "ManufacturersModelName": "Prisma",
  "Modality": "MR",
  "MultibandAccelerationFactor": 8,
  "PartialFourier": 1,
  "PatientPosition": "HFS",
  "PercentPhaseFOV": 100,
  "PercentSampling": 100,
  "PhaseEncodingDirection": "j-",
  "PhaseEncodingSteps": 82,
  "PhaseResolution": 1,
  "PixelBandwidth": 3050,
  "ProcedureStepDescription": "Wager_Wager^1076_spacetop",
  "ProtocolName": "func_run-01_task-alignvideo_acq-ap-mb8",
  "PulseSequenceDetails": "%CustomerSeq%\\cmrr_mbep2d_bold",
  "ReceiveCoilActiveElements": "HEA;HEP",
  "ReceiveCoilName": "Head_32",
  "ReconMatrixPE": 82,
  "RepetitionTime": 0.46,
  "SAR": 0.0975899,
  "ScanOptions": "FS",
  "ScanningSequence": "EP",
  "SequenceName": "epfid2d1_82",
  "SequenceVariant": "SK\\SS",
  "SeriesDescription": "func_run-01_task-alignvideo_acq-ap-mb8",
  "SeriesNumber": 28,
  "ShimSetting": [4248, -7900, -7245, 463, -101, -401, 243, 171],
  "SliceThickness": 2.7,
  "SliceTiming": [0, 0.25, 0.0625, 0.3125, 0.125, 0.3775, 0.1875, 0, 0.25, 0.0625, 0.3125, 0.125, 0.3775, 0.1875, 0, 0.25, 0.0625, 0.3125, 0.125, 0.3775, 0.1875, 0, 0.25, 0.0625, 0.3125, 0.125, 0.3775, 0.1875, 0, 0.25, 0.0625, 0.3125, 0.125, 0.3775, 0.1875, 0, 0.25, 0.0625, 0.3125, 0.125, 0.3775, 0.1875, 0, 0.25, 0.0625, 0.3125, 0.125, 0.3775, 0.1875, 0, 0.25, 0.0625, 0.3125, 0.125, 0.3775, 0.1875],
  "SoftwareVersions": "syngo MR E11",
  "SpacingBetweenSlices": 2.7,
  "StationName": "AWP66112",
  "TaskName": "alignvideo",
  "TotalReadoutTime": 0.03969,
  "TxRefAmp": 246.769,
  "WipMemBlock": "6f700d2c-2f0b-42ed-86fc-d3664223db5f||Sequence: R016 ve11e/master r/434b28f1; Aug  7 2019 18:53:46 by eja",
  "dcmmeta_affine": [
    [-2.680694341659546, 0.10485620051622391, 0.03150107339024544, 107.20270538330078],
    [0.10914991050958633, 2.616881847381592, 0.5851747989654541, -115.46586608886719],
    [0.007805697154253721, -0.5822641253471375, 2.6356360912323, -46.68244552612305],
    [0.0, 0.0, 0.0, 1.0]
],
  "dcmmeta_reorient_transform": [
    [0.0, -1.0, 0.0, 81.0],
    [1.0, 0.0, 0.0, 0.0],
    [0.0, 0.0, 1.0, 0.0],
    [0.0, 0.0, 0.0, 1.0]
],
  "dcmmeta_shape": [82, 82, 56, 839],
  "dcmmeta_slice_dim": 2,
  "dcmmeta_version": 0.6,
  "global": {
    "const": {
      "AccessionNumber": "A004619",
      "AcquisitionMatrix": [82, 0, 0, 82],
      "AngioFlag": "N",
      "BitsAllocated": 16,
      "BitsStored": 16,
      "BodyPartExamined": "BRAIN",
      "Columns": 656,
      "EchoNumbers": 1,
      "EchoTime": 27.2,
      "EchoTrainLength": 82,
      "FlipAngle": 44.0,
      "HighBit": 15,
      "ImageOrientationPatient": [0.99916786229079, -0.04068314613, 0.00290939619433, 0.03908276563335, 0.97538319723967, 0.21702570348456],
      "ImagePositionPatient": [-915.14906350761, -816.22061534945, -263.19586932159],
      "ImageType": [
        "ORIGINAL",
        "PRIMARY",
        "M",
        "MB",
        "ND",
        "NORM",
        "MOSAIC"
],
      "ImagedNucleus": "1H",
      "ImagingFrequency": 123.259121,
      "InPlanePhaseEncodingDirection": "COL",
      "MRAcquisitionType": "2D",
      "MagneticFieldStrength": 3.0,
      "Manufacturer": "SIEMENS",
      "ManufacturerModelName": "Prisma",
      "Modality": "MR",
      "NumberOfAverages": 1.0,
      "NumberOfPhaseEncodingSteps": 82,
      "PercentPhaseFieldOfView": 100.0,
      "PercentSampling": 100.0,
      "PerformedProcedureStepStartTime": "083352.655000",
      "PhotometricInterpretation": "MONOCHROME2",
      "PixelBandwidth": 3050.0,
      "PixelRepresentation": 0,
      "PixelSpacing": [2.6829268932343, 2.6829268932343],
      "ProtocolName": "func_run-01_task-alignvideo_acq-ap-mb8",
      "RepetitionTime": 460.0,
      "Rows": 656,
      "SAR": 0.09758986679086,
      "SamplesPerPixel": 1,
      "ScanOptions": "FS",
      "ScanningSequence": "EP",
      "SequenceName": "epfid2d1_82",
      "SequenceVariant": [
        "SK",
        "SS"
],
      "SeriesDescription": "func_run-01_task-alignvideo_acq-ap-mb8",
      "SeriesNumber": 28,
      "SeriesTime": "094546.472000",
      "SliceLocation": -69.343948118639,
      "SliceThickness": 2.7000000476837,
      "SmallestImagePixelValue": 0,
      "SoftwareVersions": "syngo MR E11",
      "SpacingBetweenSlices": 2.7000000035236,
      "SpecificCharacterSet": "ISO_IR 100",
      "StudyID": "1",
      "StudyTime": "083352.453000",
      "TransmitCoilName": "Body",
      "VariableFlipAngleFlag": "N",
      "WindowCenterWidthExplanation": "Algo1"
    },
    "slices": {}
  },
  "time": {
    "samples": {
      "AcquisitionNumber": [1, 2, 3, 4, 5, 6, 7, 8, 9, 10, 11, 12, 13, 14, 15, 16, 17, 18, 19, 20, 21, 22, 23, 24, 25, 26, 27, 28, 29, 30, 31, 32, 33, 34, 35, 36, 37, 38, 39, 40, 41, 42, 43, 44, 45, 46, 47, 48, 49, 50, 51, 52, 53, 54, 55, 56, 57, 58, 59, 60, 61, 62, 63, 64, 65, 66, 67, 68, 69, 70, 71, 72, 73, 74, 75, 76, 77, 78, 79, 80, 81, 82, 83, 84, 85, 86, 87, 88, 89, 90, 91, 92, 93, 94, 95, 96, 97, 98, 99, 100, 101, 102, 103, 104, 105, 106, 107, 108, 109, 110, 111, 112, 113, 114, 115, 116, 117, 118, 119, 120, 121, 122, 123, 124, 125, 126, 127, 128, 129, 130, 131, 132, 133, 134, 135, 136, 137, 138, 139, 140, 141, 142, 143, 144, 145, 146, 147, 148, 149, 150, 151, 152, 153, 154, 155, 156, 157, 158, 159, 160, 161, 162, 163, 164, 165, 166, 167, 168, 169, 170, 171, 172, 173, 174, 175, 176, 177, 178, 179, 180, 181, 182, 183, 184, 185, 186, 187, 188, 189, 190, 191, 192, 193, 194, 195, 196, 197, 198, 199, 200, 201, 202, 203, 204, 205, 206, 207, 208, 209, 210, 211, 212, 213, 214, 215, 216, 217, 218, 219, 220, 221, 222, 223, 224, 225, 226, 227, 228, 229, 230, 231, 232, 233, 234, 235, 236, 237, 238, 239, 240, 241, 242, 243, 244, 245, 246, 247, 248, 249, 250, 251, 252, 253, 254, 255, 256, 257, 258, 259, 260, 261, 262, 263, 264, 265, 266, 267, 268, 269, 270, 271, 272, 273, 274, 275, 276, 277, 278, 279, 280, 281, 282, 283, 284, 285, 286, 287, 288, 289, 290, 291, 292, 293, 294, 295, 296, 297, 298, 299, 300, 301, 302, 303, 304, 305, 306, 307, 308, 309, 310, 311, 312, 313, 314, 315, 316, 317, 318, 319, 320, 321, 322, 323, 324, 325, 326, 327, 328, 329, 330, 331, 332, 333, 334, 335, 336, 337, 338, 339, 340, 341, 342, 343, 344, 345, 346, 347, 348, 349, 350, 351, 352, 353, 354, 355, 356, 357, 358, 359, 360, 361, 362, 363, 364, 365, 366, 367, 368, 369, 370, 371, 372, 373, 374, 375, 376, 377, 378, 379, 380, 381, 382, 383, 384, 385, 386, 387, 388, 389, 390, 391, 392, 393, 394, 395, 396, 397, 398, 399, 400, 401, 402, 403, 404, 405, 406, 407, 408, 409, 410, 411, 412, 413, 414, 415, 416, 417, 418, 419, 420, 421, 422, 423, 424, 425, 426, 427, 428, 429, 430, 431, 432, 433, 434, 435, 436, 437, 438, 439, 440, 441, 442, 443, 444, 445, 446, 447, 448, 449, 450, 451, 452, 453, 454, 455, 456, 457, 458, 459, 460, 461, 462, 463, 464, 465, 466, 467, 468, 469, 470, 471, 472, 473, 474, 475, 476, 477, 478, 479, 480, 481, 482, 483, 484, 485, 486, 487, 488, 489, 490, 491, 492, 493, 494, 495, 496, 497, 498, 499, 500, 501, 502, 503, 504, 505, 506, 507, 508, 509, 510, 511, 512, 513, 514, 515, 516, 517, 518, 519, 520, 521, 522, 523, 524, 525, 526, 527, 528, 529, 530, 531, 532, 533, 534, 535, 536, 537, 538, 539, 540, 541, 542, 543, 544, 545, 546, 547, 548, 549, 550, 551, 552, 553, 554, 555, 556, 557, 558, 559, 560, 561, 562, 563, 564, 565, 566, 567, 568, 569, 570, 571, 572, 573, 574, 575, 576, 577, 578, 579, 580, 581, 582, 583, 584, 585, 586, 587, 588, 589, 590, 591, 592, 593, 594, 595, 596, 597, 598, 599, 600, 601, 602, 603, 604, 605, 606, 607, 608, 609, 610, 611, 612, 613, 614, 615, 616, 617, 618, 619, 620, 621, 622, 623, 624, 625, 626, 627, 628, 629, 630, 631, 632, 633, 634, 635, 636, 637, 638, 639, 640, 641, 642, 643, 644, 645, 646, 647, 648, 649, 650, 651, 652, 653, 654, 655, 656, 657, 658, 659, 660, 661, 662, 663, 664, 665, 666, 667, 668, 669, 670, 671, 672, 673, 674, 675, 676, 677, 678, 679, 680, 681, 682, 683, 684, 685, 686, 687, 688, 689, 690, 691, 692, 693, 694, 695, 696, 697, 698, 699, 700, 701, 702, 703, 704, 705, 706, 707, 708, 709, 710, 711, 712, 713, 714, 715, 716, 717, 718, 719, 720, 721, 722, 723, 724, 725, 726, 727, 728, 729, 730, 731, 732, 733, 734, 735, 736, 737, 738, 739, 740, 741, 742, 743, 744, 745, 746, 747, 748, 749, 750, 751, 752, 753, 754, 755, 756, 757, 758, 759, 760, 761, 762, 763, 764, 765, 766, 767, 768, 769, 770, 771, 772, 773, 774, 775, 776, 777, 778, 779, 780, 781, 782, 783, 784, 785, 786, 787, 788, 789, 790, 791, 792, 793, 794, 795, 796, 797, 798, 799, 800, 801, 802, 803, 804, 805, 806, 807, 808, 809, 810, 811, 812, 813, 814, 815, 816, 817, 818, 819, 820, 821, 822, 823, 824, 825, 826, 827, 828, 829, 830, 831, 832, 833, 834, 835, 836, 837, 838, 839],
      "AcquisitionTime": ["094516.370000", "094516.830000", "094517.290000", "094517.750000", "094518.210000", "094518.670000", "094519.130000", "094519.590000", "094520.050000", "094520.510000", "094520.970000", "094521.430000", "094521.890000", "094522.350000", "094522.810000", "094523.270000", "094523.730000", "094524.190000", "094524.650000", "094525.110000", "094525.570000", "094526.030000", "094526.490000", "094526.950000", "094527.410000", "094527.870000", "094528.330000", "094528.790000", "094529.250000", "094529.710000", "094530.170000", "094530.630000", "094531.090000", "094531.550000", "094532.010000", "094532.470000", "094532.930000", "094533.390000", "094533.850000", "094534.310000", "094534.770000", "094535.230000", "094535.690000", "094536.150000", "094536.610000", "094537.070000", "094537.530000", "094537.990000", "094538.450000", "094538.910000", "094539.370000", "094539.830000", "094540.290000", "094540.750000", "094541.210000", "094541.670000", "094542.130000", "094542.590000", "094543.050000", "094543.510000", "094543.970000", "094544.430000", "094544.890000", "094545.350000", "094545.810000", "094546.270000", "094546.730000", "094547.190000", "094547.650000", "094548.110000", "094548.570000", "094549.030000", "094549.490000", "094549.950000", "094550.410000", "094550.870000", "094551.330000", "094551.790000", "094552.250000", "094552.710000", "094553.170000", "094553.630000", "094554.090000", "094554.550000", "094555.010000", "094555.470000", "094555.930000", "094556.390000", "094556.850000", "094557.310000", "094557.770000", "094558.230000", "094558.690000", "094559.150000", "094559.610000", "094600.070000", "094600.530000", "094600.990000", "094601.450000", "094601.910000", "094602.370000", "094602.830000", "094603.290000", "094603.750000", "094604.210000", "094604.670000", "094605.130000", "094605.590000", "094606.050000", "094606.510000", "094606.970000", "094607.430000", "094607.890000", "094608.350000", "094608.810000", "094609.270000", "094609.730000", "094610.190000", "094610.650000", "094611.110000", "094611.570000", "094612.030000", "094612.490000", "094612.950000", "094613.410000", "094613.870000", "094614.330000", "094614.790000", "094615.250000", "094615.710000", "094616.170000", "094616.630000", "094617.090000", "094617.550000", "094618.010000", "094618.470000", "094618.930000", "094619.390000", "094619.850000", "094620.310000", "094620.770000", "094621.230000", "094621.690000", "094622.150000", "094622.610000", "094623.070000", "094623.530000", "094623.990000", "094624.450000", "094624.910000", "094625.370000", "094625.830000", "094626.290000", "094626.750000", "094627.210000", "094627.670000", "094628.130000", "094628.590000", "094629.050000", "094629.510000", "094629.970000", "094630.430000", "094630.890000", "094631.350000", "094631.810000", "094632.270000", "094632.730000", "094633.190000", "094633.650000", "094634.110000", "094634.570000", "094635.030000", "094635.490000", "094635.950000", "094636.410000", "094636.870000", "094637.330000", "094637.790000", "094638.250000", "094638.710000", "094639.170000", "094639.630000", "094640.090000", "094640.550000", "094641.010000", "094641.470000", "094641.930000", "094642.390000", "094642.850000", "094643.310000", "094643.770000", "094644.230000", "094644.690000", "094645.150000", "094645.610000", "094646.070000", "094646.530000", "094646.990000", "094647.450000", "094647.910000", "094648.370000", "094648.830000", "094649.290000", "094649.750000", "094650.210000", "094650.670000", "094651.130000", "094651.590000", "094652.050000", "094652.510000", "094652.970000", "094653.430000", "094653.890000", "094654.350000", "094654.810000", "094655.270000", "094655.730000", "094656.190000", "094656.650000", "094657.110000", "094657.570000", "094658.030000", "094658.490000", "094658.950000", "094659.410000", "094659.870000", "094700.330000", "094700.790000", "094701.250000", "094701.710000", "094702.170000", "094702.630000", "094703.090000", "094703.550000", "094704.010000", "094704.470000", "094704.930000", "094705.390000", "094705.850000", "094706.310000", "094706.770000", "094707.230000", "094707.690000", "094708.150000", "094708.610000", "094709.070000", "094709.530000", "094709.990000", "094710.450000", "094710.910000", "094711.370000", "094711.830000", "094712.290000", "094712.750000", "094713.210000", "094713.670000", "094714.130000", "094714.590000", "094715.050000", "094715.510000", "094715.970000", "094716.430000", "094716.890000", "094717.350000", "094717.810000", "094718.270000", "094718.730000", "094719.190000", "094719.650000", "094720.110000", "094720.570000", "094721.030000", "094721.490000", "094721.950000", "094722.410000", "094722.870000", "094723.330000", "094723.790000", "094724.250000", "094724.710000", "094725.170000", "094725.630000", "094726.090000", "094726.550000", "094727.010000", "094727.470000", "094727.930000", "094728.390000", "094728.850000", "094729.310000", "094729.770000", "094730.230000", "094730.690000", "094731.150000", "094731.610000", "094732.070000", "094732.530000", "094732.990000", "094733.450000", "094733.910000", "094734.370000", "094734.830000", "094735.290000", "094735.750000", "094736.210000", "094736.670000", "094737.130000", "094737.590000", "094738.050000", "094738.510000", "094738.970000", "094739.430000", "094739.890000", "094740.350000", "094740.810000", "094741.270000", "094741.730000", "094742.190000", "094742.650000", "094743.110000", "094743.570000", "094744.030000", "094744.490000", "094744.950000", "094745.410000", "094745.870000", "094746.330000", "094746.790000", "094747.250000", "094747.710000", "094748.170000", "094748.630000", "094749.090000", "094749.550000", "094750.010000", "094750.470000", "094750.930000", "094751.390000", "094751.850000", "094752.310000", "094752.770000", "094753.230000", "094753.690000", "094754.150000", "094754.610000", "094755.070000", "094755.530000", "094755.990000", "094756.450000", "094756.910000", "094757.370000", "094757.830000", "094758.290000", "094758.750000", "094759.210000", "094759.670000", "094800.130000", "094800.590000", "094801.050000", "094801.510000", "094801.970000", "094802.430000", "094802.890000", "094803.350000", "094803.810000", "094804.270000", "094804.730000", "094805.190000", "094805.650000", "094806.110000", "094806.570000", "094807.030000", "094807.490000", "094807.950000", "094808.410000", "094808.870000", "094809.330000", "094809.790000", "094810.250000", "094810.710000", "094811.170000", "094811.630000", "094812.090000", "094812.550000", "094813.010000", "094813.470000", "094813.930000", "094814.390000", "094814.850000", "094815.310000", "094815.770000", "094816.230000", "094816.690000", "094817.150000", "094817.610000", "094818.070000", "094818.530000", "094818.990000", "094819.450000", "094819.910000", "094820.370000", "094820.830000", "094821.290000", "094821.750000", "094822.210000", "094822.670000", "094823.130000", "094823.590000", "094824.050000", "094824.510000", "094824.970000", "094825.430000", "094825.890000", "094826.350000", "094826.810000", "094827.270000", "094827.730000", "094828.190000", "094828.650000", "094829.110000", "094829.570000", "094830.030000", "094830.490000", "094830.950000", "094831.410000", "094831.870000", "094832.330000", "094832.790000", "094833.250000", "094833.710000", "094834.170000", "094834.630000", "094835.090000", "094835.550000", "094836.010000", "094836.470000", "094836.930000", "094837.390000", "094837.850000", "094838.310000", "094838.770000", "094839.230000", "094839.690000", "094840.150000", "094840.610000", "094841.070000", "094841.530000", "094841.990000", "094842.450000", "094842.910000", "094843.370000", "094843.830000", "094844.290000", "094844.750000", "094845.210000", "094845.670000", "094846.130000", "094846.590000", "094847.050000", "094847.510000", "094847.970000", "094848.430000", "094848.890000", "094849.350000", "094849.810000", "094850.270000", "094850.730000", "094851.190000", "094851.650000", "094852.110000", "094852.570000", "094853.030000", "094853.490000", "094853.950000", "094854.410000", "094854.870000", "094855.330000", "094855.790000", "094856.250000", "094856.710000", "094857.170000", "094857.630000", "094858.090000", "094858.550000", "094859.010000", "094859.470000", "094859.930000", "094900.390000", "094900.850000", "094901.310000", "094901.770000", "094902.230000", "094902.690000", "094903.150000", "094903.610000", "094904.070000", "094904.530000", "094904.990000", "094905.450000", "094905.910000", "094906.370000", "094906.830000", "094907.290000", "094907.750000", "094908.210000", "094908.670000", "094909.130000", "094909.590000", "094910.050000", "094910.510000", "094910.970000", "094911.430000", "094911.890000", "094912.350000", "094912.810000", "094913.270000", "094913.730000", "094914.190000", "094914.650000", "094915.110000", "094915.570000", "094916.030000", "094916.490000", "094916.950000", "094917.410000", "094917.870000", "094918.330000", "094918.790000", "094919.250000", "094919.710000", "094920.170000", "094920.630000", "094921.090000", "094921.550000", "094922.010000", "094922.470000", "094922.930000", "094923.390000", "094923.850000", "094924.310000", "094924.770000", "094925.230000", "094925.690000", "094926.150000", "094926.610000", "094927.070000", "094927.530000", "094927.990000", "094928.450000", "094928.910000", "094929.370000", "094929.830000", "094930.290000", "094930.750000", "094931.210000", "094931.670000", "094932.130000", "094932.590000", "094933.050000", "094933.510000", "094933.970000", "094934.430000", "094934.890000", "094935.350000", "094935.810000", "094936.270000", "094936.730000", "094937.190000", "094937.650000", "094938.110000", "094938.570000", "094939.030000", "094939.490000", "094939.950000", "094940.410000", "094940.870000", "094941.330000", "094941.790000", "094942.250000", "094942.710000", "094943.170000", "094943.630000", "094944.090000", "094944.550000", "094945.010000", "094945.470000", "094945.930000", "094946.390000", "094946.850000", "094947.310000", "094947.770000", "094948.230000", "094948.690000", "094949.150000", "094949.610000", "094950.070000", "094950.530000", "094950.990000", "094951.450000", "094951.910000", "094952.370000", "094952.830000", "094953.290000", "094953.750000", "094954.210000", "094954.670000", "094955.130000", "094955.590000", "094956.050000", "094956.510000", "094956.970000", "094957.430000", "094957.890000", "094958.350000", "094958.810000", "094959.270000", "094959.730000", "095000.190000", "095000.650000", "095001.110000", "095001.570000", "095002.030000", "095002.490000", "095002.950000", "095003.410000", "095003.870000", "095004.330000", "095004.790000", "095005.250000", "095005.710000", "095006.170000", "095006.630000", "095007.090000", "095007.550000", "095008.010000", "095008.470000", "095008.930000", "095009.390000", "095009.850000", "095010.310000", "095010.770000", "095011.230000", "095011.690000", "095012.150000", "095012.610000", "095013.070000", "095013.530000", "095013.990000", "095014.450000", "095014.910000", "095015.370000", "095015.830000", "095016.290000", "095016.750000", "095017.210000", "095017.670000", "095018.130000", "095018.590000", "095019.050000", "095019.510000", "095019.970000", "095020.430000", "095020.890000", "095021.350000", "095021.810000", "095022.270000", "095022.730000", "095023.190000", "095023.650000", "095024.110000", "095024.570000", "095025.030000", "095025.490000", "095025.950000", "095026.410000", "095026.870000", "095027.330000", "095027.790000", "095028.250000", "095028.710000", "095029.170000", "095029.630000", "095030.090000", "095030.550000", "095031.010000", "095031.470000", "095031.930000", "095032.390000", "095032.850000", "095033.310000", "095033.770000", "095034.230000", "095034.690000", "095035.150000", "095035.610000", "095036.070000", "095036.530000", "095036.990000", "095037.450000", "095037.910000", "095038.370000", "095038.830000", "095039.290000", "095039.750000", "095040.210000", "095040.670000", "095041.130000", "095041.590000", "095042.050000", "095042.510000", "095042.970000", "095043.430000", "095043.890000", "095044.350000", "095044.810000", "095045.270000", "095045.730000", "095046.190000", "095046.650000", "095047.110000", "095047.570000", "095048.030000", "095048.490000", "095048.950000", "095049.410000", "095049.870000", "095050.330000", "095050.790000", "095051.250000", "095051.710000", "095052.170000", "095052.630000", "095053.090000", "095053.550000", "095054.010000", "095054.470000", "095054.930000", "095055.390000", "095055.850000", "095056.310000", "095056.770000", "095057.230000", "095057.690000", "095058.150000", "095058.610000", "095059.070000", "095059.530000", "095059.990000", "095100.450000", "095100.910000", "095101.370000", "095101.830000", "095102.290000", "095102.750000", "095103.210000", "095103.670000", "095104.130000", "095104.590000", "095105.050000", "095105.510000", "095105.970000", "095106.430000", "095106.890000", "095107.350000", "095107.810000", "095108.270000", "095108.730000", "095109.190000", "095109.650000", "095110.110000", "095110.570000", "095111.030000", "095111.490000", "095111.950000", "095112.410000", "095112.870000", "095113.330000", "095113.790000", "095114.250000", "095114.710000", "095115.170000", "095115.630000", "095116.090000", "095116.550000", "095117.010000", "095117.470000", "095117.930000", "095118.390000", "095118.850000", "095119.310000", "095119.770000", "095120.230000", "095120.690000", "095121.150000", "095121.610000", "095122.070000", "095122.530000", "095122.990000", "095123.450000", "095123.910000", "095124.370000", "095124.830000", "095125.290000", "095125.750000", "095126.210000", "095126.670000", "095127.130000", "095127.590000", "095128.050000", "095128.510000", "095128.970000", "095129.430000", "095129.890000", "095130.350000", "095130.810000", "095131.270000", "095131.730000", "095132.190000", "095132.650000", "095133.110000", "095133.570000", "095134.030000", "095134.490000", "095134.950000", "095135.410000", "095135.870000", "095136.330000", "095136.790000", "095137.250000", "095137.710000", "095138.170000", "095138.630000", "095139.090000", "095139.550000", "095140.010000", "095140.470000", "095140.930000", "095141.390000", "095141.850000"],
