{
  "AcquisitionMatrixPE": 82,
  "AcquisitionNumber": 1,
  "AcquisitionTime": "15:43:36.662500",
  "BandwidthPerPixelPhaseEncode": 24.888,
  "BaseResolution": 82,
  "BodyPartExamined": "BRAIN",
  "ConsistencyInfo": "N4_VE11E_LATEST_20181129",
  "ConversionSoftware": "dcm2niix",
  "ConversionSoftwareVersion": "v1.0.20201102",
  "DerivedVendorReportedEchoSpacing": 0.00049,
  "DeviceSerialNumber": "66112",
  "DwellTime": 2e-06,
  "EchoTime": 0.0272,
  "EchoTrainLength": 82,
  "EffectiveEchoSpacing": 0.00049,
  "FlipAngle": 44,
  "ImageComments": "Unaliased MB8/PE3",
  "ImageOrientationPatientDICOM": [0.99781, -0.0183687, 0.0635386, 0.0104494, 0.992377, 0.122793],
  "ImageType": [
    "ORIGINAL",
    "PRIMARY",
    "M",
    "MB",
    "ND",
    "NORM",
    "MOSAIC"
],
  "ImagingFrequency": 123.259,
  "InPlanePhaseEncodingDirectionDICOM": "COL",
  "InstitutionAddress": "Maynard 3,Hanover,NH,US,03755",
  "InstitutionName": "Dartmouth College - PBS",
  "InstitutionalDepartmentName": "Department",
  "MRAcquisitionType": "2D",
  "MagneticFieldStrength": 3,
  "Manufacturer": "Siemens",
  "ManufacturersModelName": "Prisma",
  "Modality": "MR",
  "MultibandAccelerationFactor": 8,
  "PartialFourier": 1,
  "PatientPosition": "HFS",
  "PercentPhaseFOV": 100,
  "PercentSampling": 100,
  "PhaseEncodingDirection": "j-",
  "PhaseEncodingSteps": 82,
  "PhaseResolution": 1,
  "PixelBandwidth": 3050,
  "ProcedureStepDescription": "Wager_Wager^1076_spacetop",
  "ProtocolName": "func_run-02_task-social_acq-ap-mb8",
  "PulseSequenceDetails": "%CustomerSeq%\\cmrr_mbep2d_bold",
  "ReceiveCoilActiveElements": "HEA;HEP",
  "ReceiveCoilName": "Head_32",
  "ReconMatrixPE": 82,
  "RepetitionTime": 0.46,
  "SAR": 0.0809873,
  "ScanOptions": "FS",
  "ScanningSequence": "EP",
  "SequenceName": "epfid2d1_82",
  "SequenceVariant": "SK\\SS",
  "SeriesDescription": "func_run-02_task-social_acq-ap-mb8",
  "SeriesNumber": 14,
  "ShimSetting": [4252, -7776, -7264, 283, -57, 3, -123, 74],
  "SliceThickness": 2.7,
  "SliceTiming": [0, 0.2525, 0.0625, 0.315, 0.125, 0.3775, 0.1875, 0, 0.2525, 0.0625, 0.315, 0.125, 0.3775, 0.1875, 0, 0.2525, 0.0625, 0.315, 0.125, 0.3775, 0.1875, 0, 0.2525, 0.0625, 0.315, 0.125, 0.3775, 0.1875, 0, 0.2525, 0.0625, 0.315, 0.125, 0.3775, 0.1875, 0, 0.2525, 0.0625, 0.315, 0.125, 0.3775, 0.1875, 0, 0.2525, 0.0625, 0.315, 0.125, 0.3775, 0.1875, 0, 0.2525, 0.0625, 0.315, 0.125, 0.3775, 0.1875],
  "SoftwareVersions": "syngo MR E11",
  "SpacingBetweenSlices": 2.7,
  "StationName": "AWP66112",
  "TaskName": "social",
  "TotalReadoutTime": 0.03969,
  "TxRefAmp": 227.379,
  "WipMemBlock": "667066c0-cd4f-43ab-8454-6c3bced308e5||Sequence: R016 ve11e/master r/434b28f1; Aug  7 2019 18:53:46 by eja",
  "dcmmeta_affine": [
    [-2.6770522594451904, 0.02803502231836319, 0.17633646726608276, 105.57341766357422],
    [0.04928182065486908, 2.6624755859375, 0.32902365922927856, -96.3207015991211],
    [0.17046938836574554, -0.32944580912590027, 2.674069881439209, -66.86050415039062],
    [0.0, 0.0, 0.0, 1.0]
],
  "dcmmeta_reorient_transform": [
    [0.0, -1.0, 0.0, 81.0],
    [1.0, 0.0, 0.0, 0.0],
    [0.0, 0.0, 1.0, 0.0],
    [0.0, 0.0, 0.0, 1.0]
],
  "dcmmeta_shape": [82, 82, 56, 872],
  "dcmmeta_slice_dim": 2,
  "dcmmeta_version": 0.6,
  "global": {
    "const": {
      "AccessionNumber": "A004413",
      "AcquisitionMatrix": [82, 0, 0, 82],
      "AngioFlag": "N",
      "BitsAllocated": 16,
      "BitsStored": 16,
      "BodyPartExamined": "BRAIN",
      "Columns": 656,
      "EchoNumbers": 1,
      "EchoTime": 27.2,
      "EchoTrainLength": 82,
      "FlipAngle": 44.0,
      "HighBit": 15,
      "ImageOrientationPatient": [0.9978103225217, -0.0183686777598, 0.06353858628025, 0.01044941738684, 0.99237723793626, 0.1227934334656],
      "ImagePositionPatient": [-884.2042707557, -869.326425957, -237.02127643955],
      "ImageType": [
        "ORIGINAL",
        "PRIMARY",
        "M",
        "MB",
        "ND",
        "NORM",
        "MOSAIC"
],
      "ImagedNucleus": "1H",
      "ImagingFrequency": 123.259133,
      "InPlanePhaseEncodingDirection": "COL",
      "MRAcquisitionType": "2D",
      "MagneticFieldStrength": 3.0,
      "Manufacturer": "SIEMENS",
      "ManufacturerModelName": "Prisma",
      "Modality": "MR",
      "NumberOfAverages": 1.0,
      "NumberOfPhaseEncodingSteps": 82,
      "PercentPhaseFieldOfView": 100.0,
      "PercentSampling": 100.0,
      "PerformedProcedureStepStartTime": "150515.756000",
      "PhotometricInterpretation": "MONOCHROME2",
      "PixelBandwidth": 3050.0,
      "PixelRepresentation": 0,
      "PixelSpacing": [2.6829268932343, 2.6829268932343],
      "ProtocolName": "func_run-02_task-social_acq-ap-mb8",
      "RepetitionTime": 460.0,
      "Rows": 656,
      "SAR": 0.08098729677198,
      "SamplesPerPixel": 1,
      "ScanOptions": "FS",
      "ScanningSequence": "EP",
      "SequenceName": "epfid2d1_82",
      "SequenceVariant": [
        "SK",
        "SS"
],
      "SeriesDescription": "func_run-02_task-social_acq-ap-mb8",
      "SeriesNumber": 14,
      "SeriesTime": "154358.171000",
      "SliceLocation": -71.061113923773,
      "SliceThickness": 2.7000000476837,
      "SmallestImagePixelValue": 0,
      "SoftwareVersions": "syngo MR E11",
      "SpacingBetweenSlices": 2.7000000448181,
      "SpecificCharacterSet": "ISO_IR 100",
      "StudyID": "1",
      "StudyTime": "150515.680000",
      "TransmitCoilName": "Body",
      "VariableFlipAngleFlag": "N",
      "WindowCenterWidthExplanation": "Algo1"
    },
    "slices": {}
  },
  "time": {
    "samples": {
      "AcquisitionNumber": [1, 2, 3, 4, 5, 6, 7, 8, 9, 10, 11, 12, 13, 14, 15, 16, 17, 18, 19, 20, 21, 22, 23, 24, 25, 26, 27, 28, 29, 30, 31, 32, 33, 34, 35, 36, 37, 38, 39, 40, 41, 42, 43, 44, 45, 46, 47, 48, 49, 50, 51, 52, 53, 54, 55, 56, 57, 58, 59, 60, 61, 62, 63, 64, 65, 66, 67, 68, 69, 70, 71, 72, 73, 74, 75, 76, 77, 78, 79, 80, 81, 82, 83, 84, 85, 86, 87, 88, 89, 90, 91, 92, 93, 94, 95, 96, 97, 98, 99, 100, 101, 102, 103, 104, 105, 106, 107, 108, 109, 110, 111, 112, 113, 114, 115, 116, 117, 118, 119, 120, 121, 122, 123, 124, 125, 126, 127, 128, 129, 130, 131, 132, 133, 134, 135, 136, 137, 138, 139, 140, 141, 142, 143, 144, 145, 146, 147, 148, 149, 150, 151, 152, 153, 154, 155, 156, 157, 158, 159, 160, 161, 162, 163, 164, 165, 166, 167, 168, 169, 170, 171, 172, 173, 174, 175, 176, 177, 178, 179, 180, 181, 182, 183, 184, 185, 186, 187, 188, 189, 190, 191, 192, 193, 194, 195, 196, 197, 198, 199, 200, 201, 202, 203, 204, 205, 206, 207, 208, 209, 210, 211, 212, 213, 214, 215, 216, 217, 218, 219, 220, 221, 222, 223, 224, 225, 226, 227, 228, 229, 230, 231, 232, 233, 234, 235, 236, 237, 238, 239, 240, 241, 242, 243, 244, 245, 246, 247, 248, 249, 250, 251, 252, 253, 254, 255, 256, 257, 258, 259, 260, 261, 262, 263, 264, 265, 266, 267, 268, 269, 270, 271, 272, 273, 274, 275, 276, 277, 278, 279, 280, 281, 282, 283, 284, 285, 286, 287, 288, 289, 290, 291, 292, 293, 294, 295, 296, 297, 298, 299, 300, 301, 302, 303, 304, 305, 306, 307, 308, 309, 310, 311, 312, 313, 314, 315, 316, 317, 318, 319, 320, 321, 322, 323, 324, 325, 326, 327, 328, 329, 330, 331, 332, 333, 334, 335, 336, 337, 338, 339, 340, 341, 342, 343, 344, 345, 346, 347, 348, 349, 350, 351, 352, 353, 354, 355, 356, 357, 358, 359, 360, 361, 362, 363, 364, 365, 366, 367, 368, 369, 370, 371, 372, 373, 374, 375, 376, 377, 378, 379, 380, 381, 382, 383, 384, 385, 386, 387, 388, 389, 390, 391, 392, 393, 394, 395, 396, 397, 398, 399, 400, 401, 402, 403, 404, 405, 406, 407, 408, 409, 410, 411, 412, 413, 414, 415, 416, 417, 418, 419, 420, 421, 422, 423, 424, 425, 426, 427, 428, 429, 430, 431, 432, 433, 434, 435, 436, 437, 438, 439, 440, 441, 442, 443, 444, 445, 446, 447, 448, 449, 450, 451, 452, 453, 454, 455, 456, 457, 458, 459, 460, 461, 462, 463, 464, 465, 466, 467, 468, 469, 470, 471, 472, 473, 474, 475, 476, 477, 478, 479, 480, 481, 482, 483, 484, 485, 486, 487, 488, 489, 490, 491, 492, 493, 494, 495, 496, 497, 498, 499, 500, 501, 502, 503, 504, 505, 506, 507, 508, 509, 510, 511, 512, 513, 514, 515, 516, 517, 518, 519, 520, 521, 522, 523, 524, 525, 526, 527, 528, 529, 530, 531, 532, 533, 534, 535, 536, 537, 538, 539, 540, 541, 542, 543, 544, 545, 546, 547, 548, 549, 550, 551, 552, 553, 554, 555, 556, 557, 558, 559, 560, 561, 562, 563, 564, 565, 566, 567, 568, 569, 570, 571, 572, 573, 574, 575, 576, 577, 578, 579, 580, 581, 582, 583, 584, 585, 586, 587, 588, 589, 590, 591, 592, 593, 594, 595, 596, 597, 598, 599, 600, 601, 602, 603, 604, 605, 606, 607, 608, 609, 610, 611, 612, 613, 614, 615, 616, 617, 618, 619, 620, 621, 622, 623, 624, 625, 626, 627, 628, 629, 630, 631, 632, 633, 634, 635, 636, 637, 638, 639, 640, 641, 642, 643, 644, 645, 646, 647, 648, 649, 650, 651, 652, 653, 654, 655, 656, 657, 658, 659, 660, 661, 662, 663, 664, 665, 666, 667, 668, 669, 670, 671, 672, 673, 674, 675, 676, 677, 678, 679, 680, 681, 682, 683, 684, 685, 686, 687, 688, 689, 690, 691, 692, 693, 694, 695, 696, 697, 698, 699, 700, 701, 702, 703, 704, 705, 706, 707, 708, 709, 710, 711, 712, 713, 714, 715, 716, 717, 718, 719, 720, 721, 722, 723, 724, 725, 726, 727, 728, 729, 730, 731, 732, 733, 734, 735, 736, 737, 738, 739, 740, 741, 742, 743, 744, 745, 746, 747, 748, 749, 750, 751, 752, 753, 754, 755, 756, 757, 758, 759, 760, 761, 762, 763, 764, 765, 766, 767, 768, 769, 770, 771, 772, 773, 774, 775, 776, 777, 778, 779, 780, 781, 782, 783, 784, 785, 786, 787, 788, 789, 790, 791, 792, 793, 794, 795, 796, 797, 798, 799, 800, 801, 802, 803, 804, 805, 806, 807, 808, 809, 810, 811, 812, 813, 814, 815, 816, 817, 818, 819, 820, 821, 822, 823, 824, 825, 826, 827, 828, 829, 830, 831, 832, 833, 834, 835, 836, 837, 838, 839, 840, 841, 842, 843, 844, 845, 846, 847, 848, 849, 850, 851, 852, 853, 854, 855, 856, 857, 858, 859, 860, 861, 862, 863, 864, 865, 866, 867, 868, 869, 870, 871, 872],
      "AcquisitionTime": ["154336.662500", "154337.122500", "154337.582500", "154338.042500", "154338.502500", "154338.962500", "154339.422500", "154339.882500", "154340.342500", "154340.802500", "154341.262500", "154341.722500", "154342.182500", "154342.642500", "154343.102500", "154343.562500", "154344.022500", "154344.482500", "154344.942500", "154345.402500", "154345.862500", "154346.322500", "154346.782500", "154347.242500", "154347.702500", "154348.162500", "154348.622500", "154349.082500", "154349.542500", "154350.002500", "154350.462500", "154350.922500", "154351.382500", "154351.842500", "154352.302500", "154352.762500", "154353.222500", "154353.682500", "154354.142500", "154354.602500", "154355.062500", "154355.522500", "154355.982500", "154356.442500", "154356.902500", "154357.362500", "154357.822500", "154358.282500", "154358.742500", "154359.202500", "154359.662500", "154400.122500", "154400.582500", "154401.042500", "154401.502500", "154401.962500", "154402.422500", "154402.882500", "154403.342500", "154403.802500", "154404.262500", "154404.722500", "154405.182500", "154405.642500", "154406.102500", "154406.562500", "154407.022500", "154407.482500", "154407.942500", "154408.402500", "154408.862500", "154409.322500", "154409.782500", "154410.242500", "154410.702500", "154411.162500", "154411.622500", "154412.082500", "154412.542500", "154413.002500", "154413.462500", "154413.922500", "154414.382500", "154414.842500", "154415.302500", "154415.762500", "154416.222500", "154416.682500", "154417.142500", "154417.602500", "154418.062500", "154418.522500", "154418.982500", "154419.442500", "154419.902500", "154420.362500", "154420.822500", "154421.282500", "154421.742500", "154422.202500", "154422.662500", "154423.122500", "154423.582500", "154424.042500", "154424.502500", "154424.962500", "154425.422500", "154425.882500", "154426.342500", "154426.802500", "154427.262500", "154427.722500", "154428.182500", "154428.642500", "154429.102500", "154429.562500", "154430.022500", "154430.482500", "154430.942500", "154431.402500", "154431.862500", "154432.322500", "154432.782500", "154433.242500", "154433.702500", "154434.162500", "154434.622500", "154435.082500", "154435.542500", "154436.002500", "154436.462500", "154436.922500", "154437.382500", "154437.842500", "154438.302500", "154438.762500", "154439.222500", "154439.682500", "154440.142500", "154440.602500", "154441.062500", "154441.522500", "154441.982500", "154442.442500", "154442.902500", "154443.362500", "154443.822500", "154444.282500", "154444.742500", "154445.202500", "154445.662500", "154446.122500", "154446.582500", "154447.042500", "154447.502500", "154447.962500", "154448.422500", "154448.882500", "154449.342500", "154449.802500", "154450.262500", "154450.722500", "154451.182500", "154451.642500", "154452.102500", "154452.562500", "154453.022500", "154453.482500", "154453.942500", "154454.402500", "154454.862500", "154455.322500", "154455.782500", "154456.242500", "154456.702500", "154457.162500", "154457.622500", "154458.082500", "154458.542500", "154459.002500", "154459.462500", "154459.922500", "154500.382500", "154500.842500", "154501.302500", "154501.762500", "154502.222500", "154502.682500", "154503.142500", "154503.602500", "154504.062500", "154504.522500", "154504.982500", "154505.442500", "154505.902500", "154506.362500", "154506.822500", "154507.282500", "154507.742500", "154508.202500", "154508.662500", "154509.122500", "154509.582500", "154510.042500", "154510.502500", "154510.962500", "154511.422500", "154511.882500", "154512.342500", "154512.802500", "154513.262500", "154513.722500", "154514.182500", "154514.642500", "154515.102500", "154515.562500", "154516.022500", "154516.482500", "154516.942500", "154517.402500", "154517.862500", "154518.322500", "154518.782500", "154519.242500", "154519.702500", "154520.162500", "154520.622500", "154521.082500", "154521.542500", "154522.002500", "154522.462500", "154522.922500", "154523.382500", "154523.842500", "154524.302500", "154524.762500", "154525.222500", "154525.682500", "154526.142500", "154526.602500", "154527.062500", "154527.522500", "154527.982500", "154528.442500", "154528.902500", "154529.362500", "154529.822500", "154530.282500", "154530.742500", "154531.202500", "154531.662500", "154532.122500", "154532.582500", "154533.042500", "154533.502500", "154533.962500", "154534.422500", "154534.882500", "154535.342500", "154535.802500", "154536.262500", "154536.722500", "154537.182500", "154537.642500", "154538.102500", "154538.562500", "154539.022500", "154539.482500", "154539.942500", "154540.402500", "154540.862500", "154541.322500", "154541.782500", "154542.242500", "154542.702500", "154543.162500", "154543.622500", "154544.082500", "154544.542500", "154545.002500", "154545.462500", "154545.922500", "154546.382500", "154546.842500", "154547.302500", "154547.762500", "154548.222500", "154548.682500", "154549.142500", "154549.602500", "154550.062500", "154550.522500", "154550.982500", "154551.442500", "154551.902500", "154552.362500", "154552.822500", "154553.282500", "154553.742500", "154554.202500", "154554.662500", "154555.122500", "154555.582500", "154556.042500", "154556.502500", "154556.962500", "154557.422500", "154557.882500", "154558.342500", "154558.802500", "154559.262500", "154559.722500", "154600.182500", "154600.642500", "154601.102500", "154601.562500", "154602.022500", "154602.482500", "154602.942500", "154603.402500", "154603.862500", "154604.322500", "154604.782500", "154605.242500", "154605.702500", "154606.162500", "154606.622500", "154607.082500", "154607.542500", "154608.002500", "154608.462500", "154608.922500", "154609.382500", "154609.842500", "154610.302500", "154610.762500", "154611.222500", "154611.682500", "154612.142500", "154612.602500", "154613.062500", "154613.522500", "154613.982500", "154614.442500", "154614.902500", "154615.362500", "154615.822500", "154616.282500", "154616.742500", "154617.202500", "154617.662500", "154618.122500", "154618.582500", "154619.042500", "154619.502500", "154619.962500", "154620.422500", "154620.882500", "154621.342500", "154621.802500", "154622.262500", "154622.722500", "154623.182500", "154623.642500", "154624.102500", "154624.562500", "154625.022500", "154625.482500", "154625.942500", "154626.402500", "154626.862500", "154627.322500", "154627.782500", "154628.242500", "154628.702500", "154629.162500", "154629.622500", "154630.082500", "154630.542500", "154631.002500", "154631.462500", "154631.922500", "154632.382500", "154632.842500", "154633.302500", "154633.762500", "154634.222500", "154634.682500", "154635.142500", "154635.602500", "154636.062500", "154636.522500", "154636.982500", "154637.442500", "154637.902500", "154638.362500", "154638.822500", "154639.282500", "154639.742500", "154640.202500", "154640.662500", "154641.122500", "154641.582500", "154642.042500", "154642.502500", "154642.962500", "154643.422500", "154643.882500", "154644.342500", "154644.802500", "154645.262500", "154645.722500", "154646.182500", "154646.642500", "154647.102500", "154647.562500", "154648.022500", "154648.482500", "154648.942500", "154649.402500", "154649.862500", "154650.322500", "154650.782500", "154651.242500", "154651.702500", "154652.162500", "154652.622500", "154653.082500", "154653.542500", "154654.002500", "154654.462500", "154654.922500", "154655.382500", "154655.842500", "154656.302500", "154656.762500", "154657.222500", "154657.682500", "154658.142500", "154658.602500", "154659.062500", "154659.522500", "154659.982500", "154700.442500", "154700.902500", "154701.362500", "154701.822500", "154702.282500", "154702.742500", "154703.202500", "154703.662500", "154704.122500", "154704.582500", "154705.042500", "154705.502500", "154705.962500", "154706.422500", "154706.882500", "154707.342500", "154707.802500", "154708.262500", "154708.722500", "154709.182500", "154709.642500", "154710.102500", "154710.562500", "154711.022500", "154711.482500", "154711.942500", "154712.402500", "154712.862500", "154713.322500", "154713.782500", "154714.242500", "154714.702500", "154715.162500", "154715.622500", "154716.082500", "154716.542500", "154717.002500", "154717.462500", "154717.922500", "154718.382500", "154718.842500", "154719.302500", "154719.762500", "154720.222500", "154720.682500", "154721.142500", "154721.602500", "154722.062500", "154722.522500", "154722.982500", "154723.442500", "154723.902500", "154724.362500", "154724.822500", "154725.282500", "154725.742500", "154726.202500", "154726.662500", "154727.122500", "154727.582500", "154728.042500", "154728.502500", "154728.962500", "154729.422500", "154729.882500", "154730.342500", "154730.802500", "154731.262500", "154731.722500", "154732.182500", "154732.642500", "154733.102500", "154733.562500", "154734.022500", "154734.482500", "154734.942500", "154735.402500", "154735.862500", "154736.322500", "154736.782500", "154737.242500", "154737.702500", "154738.162500", "154738.622500", "154739.082500", "154739.542500", "154740.002500", "154740.462500", "154740.922500", "154741.382500", "154741.842500", "154742.302500", "154742.762500", "154743.222500", "154743.682500", "154744.142500", "154744.602500", "154745.062500", "154745.522500", "154745.982500", "154746.442500", "154746.902500", "154747.362500", "154747.822500", "154748.282500", "154748.742500", "154749.202500", "154749.662500", "154750.122500", "154750.582500", "154751.042500", "154751.502500", "154751.962500", "154752.422500", "154752.882500", "154753.342500", "154753.802500", "154754.262500", "154754.722500", "154755.182500", "154755.642500", "154756.102500", "154756.562500", "154757.022500", "154757.482500", "154757.942500", "154758.402500", "154758.862500", "154759.322500", "154759.782500", "154800.242500", "154800.702500", "154801.162500", "154801.622500", "154802.082500", "154802.542500", "154803.002500", "154803.462500", "154803.922500", "154804.382500", "154804.842500", "154805.302500", "154805.762500", "154806.222500", "154806.682500", "154807.142500", "154807.602500", "154808.062500", "154808.522500", "154808.982500", "154809.442500", "154809.902500", "154810.362500", "154810.822500", "154811.282500", "154811.742500", "154812.202500", "154812.662500", "154813.122500", "154813.582500", "154814.042500", "154814.502500", "154814.962500", "154815.422500", "154815.882500", "154816.342500", "154816.802500", "154817.262500", "154817.722500", "154818.182500", "154818.642500", "154819.102500", "154819.562500", "154820.022500", "154820.482500", "154820.942500", "154821.402500", "154821.862500", "154822.322500", "154822.782500", "154823.242500", "154823.702500", "154824.162500", "154824.622500", "154825.082500", "154825.542500", "154826.002500", "154826.462500", "154826.922500", "154827.382500", "154827.842500", "154828.302500", "154828.762500", "154829.222500", "154829.682500", "154830.142500", "154830.602500", "154831.062500", "154831.522500", "154831.982500", "154832.442500", "154832.902500", "154833.362500", "154833.822500", "154834.282500", "154834.742500", "154835.202500", "154835.662500", "154836.122500", "154836.582500", "154837.042500", "154837.502500", "154837.962500", "154838.422500", "154838.882500", "154839.342500", "154839.802500", "154840.262500", "154840.722500", "154841.182500", "154841.642500", "154842.102500", "154842.562500", "154843.022500", "154843.482500", "154843.942500", "154844.402500", "154844.862500", "154845.322500", "154845.782500", "154846.242500", "154846.702500", "154847.162500", "154847.622500", "154848.082500", "154848.542500", "154849.002500", "154849.462500", "154849.922500", "154850.382500", "154850.842500", "154851.302500", "154851.762500", "154852.222500", "154852.682500", "154853.142500", "154853.602500", "154854.062500", "154854.522500", "154854.982500", "154855.442500", "154855.902500", "154856.362500", "154856.822500", "154857.282500", "154857.742500", "154858.202500", "154858.662500", "154859.122500", "154859.582500", "154900.042500", "154900.502500", "154900.962500", "154901.422500", "154901.882500", "154902.342500", "154902.802500", "154903.262500", "154903.722500", "154904.182500", "154904.642500", "154905.102500", "154905.562500", "154906.022500", "154906.482500", "154906.942500", "154907.402500", "154907.862500", "154908.322500", "154908.782500", "154909.242500", "154909.702500", "154910.162500", "154910.622500", "154911.082500", "154911.542500", "154912.002500", "154912.462500", "154912.922500", "154913.382500", "154913.842500", "154914.302500", "154914.762500", "154915.222500", "154915.682500", "154916.142500", "154916.602500", "154917.062500", "154917.522500", "154917.982500", "154918.442500", "154918.902500", "154919.362500", "154919.822500", "154920.282500", "154920.742500", "154921.202500", "154921.662500", "154922.122500", "154922.582500", "154923.042500", "154923.502500", "154923.962500", "154924.422500", "154924.882500", "154925.342500", "154925.802500", "154926.262500", "154926.722500", "154927.182500", "154927.642500", "154928.102500", "154928.562500", "154929.022500", "154929.482500", "154929.942500", "154930.402500", "154930.862500", "154931.322500", "154931.782500", "154932.242500", "154932.702500", "154933.162500", "154933.622500", "154934.082500", "154934.542500", "154935.002500", "154935.462500", "154935.922500", "154936.382500", "154936.842500", "154937.302500", "154937.762500", "154938.222500", "154938.682500", "154939.142500", "154939.602500", "154940.062500", "154940.522500", "154940.982500", "154941.442500", "154941.902500", "154942.362500", "154942.822500", "154943.282500", "154943.742500", "154944.202500", "154944.662500", "154945.122500", "154945.582500", "154946.042500", "154946.502500", "154946.962500", "154947.422500", "154947.882500", "154948.342500", "154948.802500", "154949.262500", "154949.722500", "154950.182500", "154950.642500", "154951.102500", "154951.562500", "154952.022500", "154952.482500", "154952.942500", "154953.402500", "154953.862500", "154954.322500", "154954.782500", "154955.242500", "154955.702500", "154956.162500", "154956.622500", "154957.082500", "154957.542500", "154958.002500", "154958.462500", "154958.922500", "154959.382500", "154959.842500", "155000.302500", "155000.762500", "155001.222500", "155001.682500", "155002.142500", "155002.602500", "155003.062500", "155003.522500", "155003.982500", "155004.442500", "155004.902500", "155005.362500", "155005.822500", "155006.282500", "155006.742500", "155007.202500", "155007.662500", "155008.122500", "155008.582500", "155009.042500", "155009.502500", "155009.962500", "155010.422500", "155010.882500", "155011.342500", "155011.802500", "155012.262500", "155012.722500", "155013.182500", "155013.642500", "155014.102500", "155014.562500", "155015.022500", "155015.482500", "155015.942500", "155016.402500", "155016.862500", "155017.322500"],
