{
  "AcquisitionMatrixPE": 82,
  "AcquisitionNumber": 1,
  "AcquisitionTime": "16:25:17.892500",
  "BandwidthPerPixelPhaseEncode": 24.888,
  "BaseResolution": 82,
  "BodyPartExamined": "BRAIN",
  "ConsistencyInfo": "N4_VE11E_LATEST_20181129",
  "ConversionSoftware": "dcm2niix",
  "ConversionSoftwareVersion": "v1.0.20201102",
  "DerivedVendorReportedEchoSpacing": 0.00049,
  "DeviceSerialNumber": "66112",
  "DwellTime": 2e-06,
  "EchoTime": 0.0272,
  "EchoTrainLength": 82,
  "EffectiveEchoSpacing": 0.00049,
  "FlipAngle": 44,
  "ImageComments": "Unaliased MB8/PE3",
  "ImageOrientationPatientDICOM": [0.995808, 0.0122371, 0.0906472, -0.0272936, 0.985616, 0.16678],
  "ImageType": [
    "ORIGINAL",
    "PRIMARY",
    "M",
    "MB",
    "ND",
    "NORM",
    "MOSAIC"
],
  "ImagingFrequency": 123.259,
  "InPlanePhaseEncodingDirectionDICOM": "COL",
  "InstitutionAddress": "Maynard 3,Hanover,NH,US,03755",
  "InstitutionName": "Dartmouth College - PBS",
  "InstitutionalDepartmentName": "Department",
  "MRAcquisitionType": "2D",
  "MagneticFieldStrength": 3,
  "Manufacturer": "Siemens",
  "ManufacturersModelName": "Prisma",
  "Modality": "MR",
  "MultibandAccelerationFactor": 8,
  "PartialFourier": 1,
  "PatientPosition": "HFS",
  "PercentPhaseFOV": 100,
  "PercentSampling": 100,
  "PhaseEncodingDirection": "j-",
  "PhaseEncodingSteps": 82,
  "PhaseResolution": 1,
  "PixelBandwidth": 3050,
  "ProcedureStepDescription": "Wager_Wager^1076_spacetop",
  "ProtocolName": "func_run-01_task-alignvideo_acq-ap-mb8",
  "PulseSequenceDetails": "%CustomerSeq%\\cmrr_mbep2d_bold",
  "ReceiveCoilActiveElements": "HEA;HEP",
  "ReceiveCoilName": "Head_32",
  "ReconMatrixPE": 82,
  "RepetitionTime": 0.46,
  "SAR": 0.0810817,
  "ScanOptions": "FS",
  "ScanningSequence": "EP",
  "SequenceName": "epfid2d1_82",
  "SequenceVariant": "SK\\SS",
  "SeriesDescription": "func_run-01_task-alignvideo_acq-ap-mb8",
  "SeriesNumber": 30,
  "ShimSetting": [4252, -7774, -7266, 282, -56, 16, -119, 75],
  "SliceThickness": 2.7,
  "SliceTiming": [0, 0.25, 0.0625, 0.3125, 0.125, 0.375, 0.1875, 0, 0.25, 0.0625, 0.3125, 0.125, 0.375, 0.1875, 0, 0.25, 0.0625, 0.3125, 0.125, 0.375, 0.1875, 0, 0.25, 0.0625, 0.3125, 0.125, 0.375, 0.1875, 0, 0.25, 0.0625, 0.3125, 0.125, 0.375, 0.1875, 0, 0.25, 0.0625, 0.3125, 0.125, 0.375, 0.1875, 0, 0.25, 0.0625, 0.3125, 0.125, 0.375, 0.1875, 0, 0.25, 0.0625, 0.3125, 0.125, 0.375, 0.1875],
  "SoftwareVersions": "syngo MR E11",
  "SpacingBetweenSlices": 2.7,
  "StationName": "AWP66112",
  "TaskName": "alignvideo",
  "TotalReadoutTime": 0.03969,
  "TxRefAmp": 227.379,
  "WipMemBlock": "760e2d15-a65d-4d79-b11a-6c8fdd9b90e3||Sequence: R016 ve11e/master r/434b28f1; Aug  7 2019 18:53:46 by eja",
  "dcmmeta_affine": [
    [-2.671679735183716, -0.07322680205106735, 0.23571664094924927, 107.97418212890625],
    [-0.03283127024769783, 2.644336700439453, 0.455097496509552, -96.99999237060547],
    [0.24319981038570404, -0.44745776057243347, 2.650909900665283, -61.79804992675781],
    [0.0, 0.0, 0.0, 1.0]
],
  "dcmmeta_reorient_transform": [
    [0.0, -1.0, 0.0, 81.0],
    [1.0, 0.0, 0.0, 0.0],
    [0.0, 0.0, 1.0, 0.0],
    [0.0, 0.0, 0.0, 1.0]
],
  "dcmmeta_shape": [82, 82, 56, 1073],
  "dcmmeta_slice_dim": 2,
  "dcmmeta_version": 0.6,
  "global": {
    "const": {
      "AccessionNumber": "A004413",
      "AcquisitionMatrix": [82, 0, 0, 82],
      "AngioFlag": "N",
      "BitsAllocated": 16,
      "BitsStored": 16,
      "BodyPartExamined": "BRAIN",
      "Columns": 656,
      "EchoNumbers": 1,
      "EchoTime": 27.2,
      "EchoTrainLength": 82,
      "FlipAngle": 44.0,
      "HighBit": 15,
      "ImageOrientationPatient": [0.99580788241771, 0.01223710965159, 0.09064719776215, -0.0272936261278, 0.98561634967326, 0.16677970269058],
      "ImagePositionPatient": [-847.7988086074, -885.53845190238, -296.26084412024],
      "ImageType": [
        "ORIGINAL",
        "PRIMARY",
        "M",
        "MB",
        "ND",
        "NORM",
        "MOSAIC"
],
      "ImagedNucleus": "1H",
      "ImagingFrequency": 123.259133,
      "InPlanePhaseEncodingDirection": "COL",
      "MRAcquisitionType": "2D",
      "MagneticFieldStrength": 3.0,
      "Manufacturer": "SIEMENS",
      "ManufacturerModelName": "Prisma",
      "Modality": "MR",
      "NumberOfAverages": 1.0,
      "NumberOfPhaseEncodingSteps": 82,
      "PercentPhaseFieldOfView": 100.0,
      "PercentSampling": 100.0,
      "PerformedProcedureStepStartTime": "150515.756000",
      "PhotometricInterpretation": "MONOCHROME2",
      "PixelBandwidth": 3050.0,
      "PixelRepresentation": 0,
      "PixelSpacing": [2.6829268932343, 2.6829268932343],
      "ProtocolName": "func_run-01_task-alignvideo_acq-ap-mb8",
      "RepetitionTime": 460.0,
      "Rows": 656,
      "SAR": 0.08108174862383,
      "SamplesPerPixel": 1,
      "ScanOptions": "FS",
      "ScanningSequence": "EP",
      "SequenceName": "epfid2d1_82",
      "SequenceVariant": [
        "SK",
        "SS"
],
      "SeriesDescription": "func_run-01_task-alignvideo_acq-ap-mb8",
      "SeriesNumber": 30,
      "SeriesTime": "162538.075000",
      "SliceLocation": -67.597855566821,
      "SliceThickness": 2.7000000476837,
      "SmallestImagePixelValue": 0,
      "SoftwareVersions": "syngo MR E11",
      "SpacingBetweenSlices": 2.6999999564471,
      "SpecificCharacterSet": "ISO_IR 100",
      "StudyID": "1",
      "StudyTime": "150515.680000",
      "TransmitCoilName": "Body",
      "VariableFlipAngleFlag": "N",
      "WindowCenterWidthExplanation": "Algo1"
    },
    "slices": {}
  },
  "time": {
    "samples": {
      "AcquisitionNumber": [1, 2, 3, 4, 5, 6, 7, 8, 9, 10, 11, 12, 13, 14, 15, 16, 17, 18, 19, 20, 21, 22, 23, 24, 25, 26, 27, 28, 29, 30, 31, 32, 33, 34, 35, 36, 37, 38, 39, 40, 41, 42, 43, 44, 45, 46, 47, 48, 49, 50, 51, 52, 53, 54, 55, 56, 57, 58, 59, 60, 61, 62, 63, 64, 65, 66, 67, 68, 69, 70, 71, 72, 73, 74, 75, 76, 77, 78, 79, 80, 81, 82, 83, 84, 85, 86, 87, 88, 89, 90, 91, 92, 93, 94, 95, 96, 97, 98, 99, 100, 101, 102, 103, 104, 105, 106, 107, 108, 109, 110, 111, 112, 113, 114, 115, 116, 117, 118, 119, 120, 121, 122, 123, 124, 125, 126, 127, 128, 129, 130, 131, 132, 133, 134, 135, 136, 137, 138, 139, 140, 141, 142, 143, 144, 145, 146, 147, 148, 149, 150, 151, 152, 153, 154, 155, 156, 157, 158, 159, 160, 161, 162, 163, 164, 165, 166, 167, 168, 169, 170, 171, 172, 173, 174, 175, 176, 177, 178, 179, 180, 181, 182, 183, 184, 185, 186, 187, 188, 189, 190, 191, 192, 193, 194, 195, 196, 197, 198, 199, 200, 201, 202, 203, 204, 205, 206, 207, 208, 209, 210, 211, 212, 213, 214, 215, 216, 217, 218, 219, 220, 221, 222, 223, 224, 225, 226, 227, 228, 229, 230, 231, 232, 233, 234, 235, 236, 237, 238, 239, 240, 241, 242, 243, 244, 245, 246, 247, 248, 249, 250, 251, 252, 253, 254, 255, 256, 257, 258, 259, 260, 261, 262, 263, 264, 265, 266, 267, 268, 269, 270, 271, 272, 273, 274, 275, 276, 277, 278, 279, 280, 281, 282, 283, 284, 285, 286, 287, 288, 289, 290, 291, 292, 293, 294, 295, 296, 297, 298, 299, 300, 301, 302, 303, 304, 305, 306, 307, 308, 309, 310, 311, 312, 313, 314, 315, 316, 317, 318, 319, 320, 321, 322, 323, 324, 325, 326, 327, 328, 329, 330, 331, 332, 333, 334, 335, 336, 337, 338, 339, 340, 341, 342, 343, 344, 345, 346, 347, 348, 349, 350, 351, 352, 353, 354, 355, 356, 357, 358, 359, 360, 361, 362, 363, 364, 365, 366, 367, 368, 369, 370, 371, 372, 373, 374, 375, 376, 377, 378, 379, 380, 381, 382, 383, 384, 385, 386, 387, 388, 389, 390, 391, 392, 393, 394, 395, 396, 397, 398, 399, 400, 401, 402, 403, 404, 405, 406, 407, 408, 409, 410, 411, 412, 413, 414, 415, 416, 417, 418, 419, 420, 421, 422, 423, 424, 425, 426, 427, 428, 429, 430, 431, 432, 433, 434, 435, 436, 437, 438, 439, 440, 441, 442, 443, 444, 445, 446, 447, 448, 449, 450, 451, 452, 453, 454, 455, 456, 457, 458, 459, 460, 461, 462, 463, 464, 465, 466, 467, 468, 469, 470, 471, 472, 473, 474, 475, 476, 477, 478, 479, 480, 481, 482, 483, 484, 485, 486, 487, 488, 489, 490, 491, 492, 493, 494, 495, 496, 497, 498, 499, 500, 501, 502, 503, 504, 505, 506, 507, 508, 509, 510, 511, 512, 513, 514, 515, 516, 517, 518, 519, 520, 521, 522, 523, 524, 525, 526, 527, 528, 529, 530, 531, 532, 533, 534, 535, 536, 537, 538, 539, 540, 541, 542, 543, 544, 545, 546, 547, 548, 549, 550, 551, 552, 553, 554, 555, 556, 557, 558, 559, 560, 561, 562, 563, 564, 565, 566, 567, 568, 569, 570, 571, 572, 573, 574, 575, 576, 577, 578, 579, 580, 581, 582, 583, 584, 585, 586, 587, 588, 589, 590, 591, 592, 593, 594, 595, 596, 597, 598, 599, 600, 601, 602, 603, 604, 605, 606, 607, 608, 609, 610, 611, 612, 613, 614, 615, 616, 617, 618, 619, 620, 621, 622, 623, 624, 625, 626, 627, 628, 629, 630, 631, 632, 633, 634, 635, 636, 637, 638, 639, 640, 641, 642, 643, 644, 645, 646, 647, 648, 649, 650, 651, 652, 653, 654, 655, 656, 657, 658, 659, 660, 661, 662, 663, 664, 665, 666, 667, 668, 669, 670, 671, 672, 673, 674, 675, 676, 677, 678, 679, 680, 681, 682, 683, 684, 685, 686, 687, 688, 689, 690, 691, 692, 693, 694, 695, 696, 697, 698, 699, 700, 701, 702, 703, 704, 705, 706, 707, 708, 709, 710, 711, 712, 713, 714, 715, 716, 717, 718, 719, 720, 721, 722, 723, 724, 725, 726, 727, 728, 729, 730, 731, 732, 733, 734, 735, 736, 737, 738, 739, 740, 741, 742, 743, 744, 745, 746, 747, 748, 749, 750, 751, 752, 753, 754, 755, 756, 757, 758, 759, 760, 761, 762, 763, 764, 765, 766, 767, 768, 769, 770, 771, 772, 773, 774, 775, 776, 777, 778, 779, 780, 781, 782, 783, 784, 785, 786, 787, 788, 789, 790, 791, 792, 793, 794, 795, 796, 797, 798, 799, 800, 801, 802, 803, 804, 805, 806, 807, 808, 809, 810, 811, 812, 813, 814, 815, 816, 817, 818, 819, 820, 821, 822, 823, 824, 825, 826, 827, 828, 829, 830, 831, 832, 833, 834, 835, 836, 837, 838, 839, 840, 841, 842, 843, 844, 845, 846, 847, 848, 849, 850, 851, 852, 853, 854, 855, 856, 857, 858, 859, 860, 861, 862, 863, 864, 865, 866, 867, 868, 869, 870, 871, 872, 873, 874, 875, 876, 877, 878, 879, 880, 881, 882, 883, 884, 885, 886, 887, 888, 889, 890, 891, 892, 893, 894, 895, 896, 897, 898, 899, 900, 901, 902, 903, 904, 905, 906, 907, 908, 909, 910, 911, 912, 913, 914, 915, 916, 917, 918, 919, 920, 921, 922, 923, 924, 925, 926, 927, 928, 929, 930, 931, 932, 933, 934, 935, 936, 937, 938, 939, 940, 941, 942, 943, 944, 945, 946, 947, 948, 949, 950, 951, 952, 953, 954, 955, 956, 957, 958, 959, 960, 961, 962, 963, 964, 965, 966, 967, 968, 969, 970, 971, 972, 973, 974, 975, 976, 977, 978, 979, 980, 981, 982, 983, 984, 985, 986, 987, 988, 989, 990, 991, 992, 993, 994, 995, 996, 997, 998, 999, 1000, 1001, 1002, 1003, 1004, 1005, 1006, 1007, 1008, 1009, 1010, 1011, 1012, 1013, 1014, 1015, 1016, 1017, 1018, 1019, 1020, 1021, 1022, 1023, 1024, 1025, 1026, 1027, 1028, 1029, 1030, 1031, 1032, 1033, 1034, 1035, 1036, 1037, 1038, 1039, 1040, 1041, 1042, 1043, 1044, 1045, 1046, 1047, 1048, 1049, 1050, 1051, 1052, 1053, 1054, 1055, 1056, 1057, 1058, 1059, 1060, 1061, 1062, 1063, 1064, 1065, 1066, 1067, 1068, 1069, 1070, 1071, 1072, 1073],
      "AcquisitionTime": ["162517.892500", "162518.352500", "162518.812500", "162519.272500", "162519.732500", "162520.192500", "162520.652500", "162521.112500", "162521.572500", "162522.032500", "162522.492500", "162522.952500", "162523.412500", "162523.872500", "162524.332500", "162524.792500", "162525.252500", "162525.712500", "162526.172500", "162526.632500", "162527.092500", "162527.552500", "162528.012500", "162528.472500", "162528.932500", "162529.392500", "162529.852500", "162530.312500", "162530.772500", "162531.232500", "162531.692500", "162532.152500", "162532.612500", "162533.072500", "162533.532500", "162533.992500", "162534.452500", "162534.912500", "162535.372500", "162535.832500", "162536.292500", "162536.752500", "162537.212500", "162537.672500", "162538.132500", "162538.592500", "162539.052500", "162539.512500", "162539.972500", "162540.432500", "162540.892500", "162541.352500", "162541.812500", "162542.272500", "162542.732500", "162543.192500", "162543.652500", "162544.112500", "162544.572500", "162545.032500", "162545.492500", "162545.952500", "162546.412500", "162546.872500", "162547.332500", "162547.792500", "162548.252500", "162548.712500", "162549.172500", "162549.632500", "162550.092500", "162550.552500", "162551.012500", "162551.472500", "162551.932500", "162552.392500", "162552.852500", "162553.312500", "162553.772500", "162554.232500", "162554.692500", "162555.152500", "162555.612500", "162556.072500", "162556.532500", "162556.992500", "162557.452500", "162557.912500", "162558.372500", "162558.832500", "162559.292500", "162559.752500", "162600.212500", "162600.672500", "162601.132500", "162601.592500", "162602.052500", "162602.512500", "162602.972500", "162603.432500", "162603.892500", "162604.352500", "162604.812500", "162605.272500", "162605.732500", "162606.192500", "162606.652500", "162607.112500", "162607.572500", "162608.032500", "162608.492500", "162608.952500", "162609.412500", "162609.872500", "162610.332500", "162610.792500", "162611.252500", "162611.712500", "162612.172500", "162612.632500", "162613.092500", "162613.552500", "162614.012500", "162614.472500", "162614.932500", "162615.392500", "162615.852500", "162616.312500", "162616.772500", "162617.232500", "162617.692500", "162618.152500", "162618.612500", "162619.072500", "162619.532500", "162619.992500", "162620.452500", "162620.912500", "162621.372500", "162621.832500", "162622.292500", "162622.752500", "162623.212500", "162623.672500", "162624.132500", "162624.592500", "162625.052500", "162625.512500", "162625.972500", "162626.432500", "162626.892500", "162627.352500", "162627.812500", "162628.272500", "162628.732500", "162629.192500", "162629.652500", "162630.112500", "162630.572500", "162631.032500", "162631.492500", "162631.952500", "162632.412500", "162632.872500", "162633.332500", "162633.792500", "162634.252500", "162634.712500", "162635.172500", "162635.632500", "162636.092500", "162636.552500", "162637.012500", "162637.472500", "162637.932500", "162638.392500", "162638.852500", "162639.312500", "162639.772500", "162640.232500", "162640.692500", "162641.152500", "162641.612500", "162642.072500", "162642.532500", "162642.992500", "162643.452500", "162643.912500", "162644.372500", "162644.832500", "162645.292500", "162645.752500", "162646.212500", "162646.672500", "162647.132500", "162647.592500", "162648.052500", "162648.512500", "162648.972500", "162649.432500", "162649.892500", "162650.352500", "162650.812500", "162651.272500", "162651.732500", "162652.192500", "162652.652500", "162653.112500", "162653.572500", "162654.032500", "162654.492500", "162654.952500", "162655.412500", "162655.872500", "162656.332500", "162656.792500", "162657.252500", "162657.712500", "162658.172500", "162658.632500", "162659.092500", "162659.552500", "162700.012500", "162700.472500", "162700.932500", "162701.392500", "162701.852500", "162702.312500", "162702.772500", "162703.232500", "162703.692500", "162704.152500", "162704.612500", "162705.072500", "162705.532500", "162705.992500", "162706.452500", "162706.912500", "162707.372500", "162707.832500", "162708.292500", "162708.752500", "162709.212500", "162709.672500", "162710.132500", "162710.592500", "162711.052500", "162711.512500", "162711.972500", "162712.432500", "162712.892500", "162713.352500", "162713.812500", "162714.272500", "162714.732500", "162715.192500", "162715.652500", "162716.112500", "162716.572500", "162717.032500", "162717.492500", "162717.952500", "162718.412500", "162718.872500", "162719.332500", "162719.792500", "162720.252500", "162720.712500", "162721.172500", "162721.632500", "162722.092500", "162722.552500", "162723.012500", "162723.472500", "162723.932500", "162724.392500", "162724.852500", "162725.312500", "162725.772500", "162726.232500", "162726.692500", "162727.152500", "162727.612500", "162728.072500", "162728.532500", "162728.992500", "162729.452500", "162729.912500", "162730.372500", "162730.832500", "162731.292500", "162731.752500", "162732.212500", "162732.672500", "162733.132500", "162733.592500", "162734.052500", "162734.512500", "162734.972500", "162735.432500", "162735.892500", "162736.352500", "162736.812500", "162737.272500", "162737.732500", "162738.192500", "162738.652500", "162739.112500", "162739.572500", "162740.032500", "162740.492500", "162740.952500", "162741.412500", "162741.872500", "162742.332500", "162742.792500", "162743.252500", "162743.712500", "162744.172500", "162744.632500", "162745.092500", "162745.552500", "162746.012500", "162746.472500", "162746.932500", "162747.392500", "162747.852500", "162748.312500", "162748.772500", "162749.232500", "162749.692500", "162750.152500", "162750.612500", "162751.072500", "162751.532500", "162751.992500", "162752.452500", "162752.912500", "162753.372500", "162753.832500", "162754.292500", "162754.752500", "162755.212500", "162755.672500", "162756.132500", "162756.592500", "162757.052500", "162757.512500", "162757.972500", "162758.432500", "162758.892500", "162759.352500", "162759.812500", "162800.272500", "162800.732500", "162801.192500", "162801.652500", "162802.112500", "162802.572500", "162803.032500", "162803.492500", "162803.952500", "162804.412500", "162804.872500", "162805.332500", "162805.792500", "162806.252500", "162806.712500", "162807.172500", "162807.632500", "162808.092500", "162808.552500", "162809.012500", "162809.472500", "162809.932500", "162810.392500", "162810.852500", "162811.312500", "162811.772500", "162812.232500", "162812.692500", "162813.152500", "162813.612500", "162814.072500", "162814.532500", "162814.992500", "162815.452500", "162815.912500", "162816.372500", "162816.832500", "162817.292500", "162817.752500", "162818.212500", "162818.672500", "162819.132500", "162819.592500", "162820.052500", "162820.512500", "162820.972500", "162821.432500", "162821.892500", "162822.352500", "162822.812500", "162823.272500", "162823.732500", "162824.192500", "162824.652500", "162825.112500", "162825.572500", "162826.032500", "162826.492500", "162826.952500", "162827.412500", "162827.872500", "162828.332500", "162828.792500", "162829.252500", "162829.712500", "162830.172500", "162830.632500", "162831.092500", "162831.552500", "162832.012500", "162832.472500", "162832.932500", "162833.392500", "162833.852500", "162834.312500", "162834.772500", "162835.232500", "162835.692500", "162836.152500", "162836.612500", "162837.072500", "162837.532500", "162837.992500", "162838.452500", "162838.912500", "162839.372500", "162839.832500", "162840.292500", "162840.752500", "162841.212500", "162841.672500", "162842.132500", "162842.592500", "162843.052500", "162843.512500", "162843.972500", "162844.432500", "162844.892500", "162845.352500", "162845.812500", "162846.272500", "162846.732500", "162847.192500", "162847.652500", "162848.112500", "162848.572500", "162849.032500", "162849.492500", "162849.952500", "162850.412500", "162850.872500", "162851.332500", "162851.792500", "162852.252500", "162852.712500", "162853.172500", "162853.632500", "162854.092500", "162854.552500", "162855.012500", "162855.472500", "162855.932500", "162856.392500", "162856.852500", "162857.312500", "162857.772500", "162858.232500", "162858.692500", "162859.152500", "162859.612500", "162900.072500", "162900.532500", "162900.992500", "162901.452500", "162901.912500", "162902.372500", "162902.832500", "162903.292500", "162903.752500", "162904.212500", "162904.672500", "162905.132500", "162905.592500", "162906.052500", "162906.512500", "162906.972500", "162907.432500", "162907.892500", "162908.352500", "162908.812500", "162909.272500", "162909.732500", "162910.192500", "162910.652500", "162911.112500", "162911.572500", "162912.032500", "162912.492500", "162912.952500", "162913.412500", "162913.872500", "162914.332500", "162914.792500", "162915.252500", "162915.712500", "162916.172500", "162916.632500", "162917.092500", "162917.552500", "162918.012500", "162918.472500", "162918.932500", "162919.392500", "162919.852500", "162920.312500", "162920.772500", "162921.232500", "162921.692500", "162922.152500", "162922.612500", "162923.072500", "162923.532500", "162923.992500", "162924.452500", "162924.912500", "162925.372500", "162925.832500", "162926.292500", "162926.752500", "162927.212500", "162927.672500", "162928.132500", "162928.592500", "162929.052500", "162929.512500", "162929.972500", "162930.432500", "162930.892500", "162931.352500", "162931.812500", "162932.272500", "162932.732500", "162933.192500", "162933.652500", "162934.112500", "162934.572500", "162935.032500", "162935.492500", "162935.952500", "162936.412500", "162936.872500", "162937.332500", "162937.792500", "162938.252500", "162938.712500", "162939.172500", "162939.632500", "162940.092500", "162940.552500", "162941.012500", "162941.472500", "162941.932500", "162942.392500", "162942.852500", "162943.312500", "162943.772500", "162944.232500", "162944.692500", "162945.152500", "162945.612500", "162946.072500", "162946.532500", "162946.992500", "162947.452500", "162947.912500", "162948.372500", "162948.832500", "162949.292500", "162949.752500", "162950.212500", "162950.672500", "162951.132500", "162951.592500", "162952.052500", "162952.512500", "162952.972500", "162953.432500", "162953.892500", "162954.352500", "162954.812500", "162955.272500", "162955.732500", "162956.192500", "162956.652500", "162957.112500", "162957.572500", "162958.032500", "162958.492500", "162958.952500", "162959.412500", "162959.872500", "163000.332500", "163000.792500", "163001.252500", "163001.712500", "163002.172500", "163002.632500", "163003.092500", "163003.552500", "163004.012500", "163004.472500", "163004.932500", "163005.392500", "163005.852500", "163006.312500", "163006.772500", "163007.232500", "163007.692500", "163008.152500", "163008.612500", "163009.072500", "163009.532500", "163009.992500", "163010.452500", "163010.912500", "163011.372500", "163011.832500", "163012.292500", "163012.752500", "163013.212500", "163013.672500", "163014.132500", "163014.592500", "163015.052500", "163015.512500", "163015.972500", "163016.432500", "163016.892500", "163017.352500", "163017.812500", "163018.272500", "163018.732500", "163019.192500", "163019.652500", "163020.112500", "163020.572500", "163021.032500", "163021.492500", "163021.952500", "163022.412500", "163022.872500", "163023.332500", "163023.792500", "163024.252500", "163024.712500", "163025.172500", "163025.632500", "163026.092500", "163026.552500", "163027.012500", "163027.472500", "163027.932500", "163028.392500", "163028.852500", "163029.312500", "163029.772500", "163030.232500", "163030.692500", "163031.152500", "163031.612500", "163032.072500", "163032.532500", "163032.992500", "163033.452500", "163033.912500", "163034.372500", "163034.832500", "163035.292500", "163035.752500", "163036.212500", "163036.672500", "163037.132500", "163037.592500", "163038.052500", "163038.512500", "163038.972500", "163039.432500", "163039.892500", "163040.352500", "163040.812500", "163041.272500", "163041.732500", "163042.192500", "163042.652500", "163043.112500", "163043.572500", "163044.032500", "163044.492500", "163044.952500", "163045.412500", "163045.872500", "163046.332500", "163046.792500", "163047.252500", "163047.712500", "163048.172500", "163048.632500", "163049.092500", "163049.552500", "163050.012500", "163050.472500", "163050.932500", "163051.392500", "163051.852500", "163052.312500", "163052.772500", "163053.232500", "163053.692500", "163054.152500", "163054.612500", "163055.072500", "163055.532500", "163055.992500", "163056.452500", "163056.912500", "163057.372500", "163057.832500", "163058.292500", "163058.752500", "163059.212500", "163059.672500", "163100.132500", "163100.592500", "163101.052500", "163101.512500", "163101.972500", "163102.432500", "163102.892500", "163103.352500", "163103.812500", "163104.272500", "163104.732500", "163105.192500", "163105.652500", "163106.112500", "163106.572500", "163107.032500", "163107.492500", "163107.952500", "163108.412500", "163108.872500", "163109.332500", "163109.792500", "163110.252500", "163110.712500", "163111.172500", "163111.632500", "163112.092500", "163112.552500", "163113.012500", "163113.472500", "163113.932500", "163114.392500", "163114.852500", "163115.312500", "163115.772500", "163116.232500", "163116.692500", "163117.152500", "163117.612500", "163118.072500", "163118.532500", "163118.992500", "163119.452500", "163119.912500", "163120.372500", "163120.832500", "163121.292500", "163121.752500", "163122.212500", "163122.672500", "163123.132500", "163123.592500", "163124.052500", "163124.512500", "163124.972500", "163125.432500", "163125.892500", "163126.352500", "163126.812500", "163127.272500", "163127.732500", "163128.192500", "163128.652500", "163129.112500", "163129.572500", "163130.032500", "163130.492500", "163130.952500", "163131.412500", "163131.872500", "163132.332500", "163132.792500", "163133.252500", "163133.712500", "163134.172500", "163134.632500", "163135.092500", "163135.552500", "163136.012500", "163136.472500", "163136.932500", "163137.392500", "163137.852500", "163138.312500", "163138.772500", "163139.232500", "163139.692500", "163140.152500", "163140.612500", "163141.072500", "163141.532500", "163141.992500", "163142.452500", "163142.912500", "163143.372500", "163143.832500", "163144.292500", "163144.752500", "163145.212500", "163145.672500", "163146.132500", "163146.592500", "163147.052500", "163147.512500", "163147.972500", "163148.432500", "163148.892500", "163149.352500", "163149.812500", "163150.272500", "163150.732500", "163151.192500", "163151.652500", "163152.112500", "163152.572500", "163153.032500", "163153.492500", "163153.952500", "163154.412500", "163154.872500", "163155.332500", "163155.792500", "163156.252500", "163156.712500", "163157.172500", "163157.632500", "163158.092500", "163158.552500", "163159.012500", "163159.472500", "163159.932500", "163200.392500", "163200.852500", "163201.312500", "163201.772500", "163202.232500", "163202.692500", "163203.152500", "163203.612500", "163204.072500", "163204.532500", "163204.992500", "163205.452500", "163205.912500", "163206.372500", "163206.832500", "163207.292500", "163207.752500", "163208.212500", "163208.672500", "163209.132500", "163209.592500", "163210.052500", "163210.512500", "163210.972500", "163211.432500", "163211.892500", "163212.352500", "163212.812500", "163213.272500", "163213.732500", "163214.192500", "163214.652500", "163215.112500", "163215.572500", "163216.032500", "163216.492500", "163216.952500", "163217.412500", "163217.872500", "163218.332500", "163218.792500", "163219.252500", "163219.712500", "163220.172500", "163220.632500", "163221.092500", "163221.552500", "163222.012500", "163222.472500", "163222.932500", "163223.392500", "163223.852500", "163224.312500", "163224.772500", "163225.232500", "163225.692500", "163226.152500", "163226.612500", "163227.072500", "163227.532500", "163227.992500", "163228.452500", "163228.912500", "163229.372500", "163229.832500", "163230.292500", "163230.752500", "163231.212500", "163231.672500", "163232.132500", "163232.592500", "163233.052500", "163233.512500", "163233.972500", "163234.432500", "163234.892500", "163235.352500", "163235.812500", "163236.272500", "163236.732500", "163237.192500", "163237.652500", "163238.112500", "163238.572500", "163239.032500", "163239.492500", "163239.952500", "163240.412500", "163240.872500", "163241.332500", "163241.792500", "163242.252500", "163242.712500", "163243.172500", "163243.632500", "163244.092500", "163244.552500", "163245.012500", "163245.472500", "163245.932500", "163246.392500", "163246.852500", "163247.312500", "163247.772500", "163248.232500", "163248.692500", "163249.152500", "163249.612500", "163250.072500", "163250.532500", "163250.992500", "163251.452500", "163251.912500", "163252.372500", "163252.832500", "163253.292500", "163253.752500", "163254.212500", "163254.672500", "163255.132500", "163255.592500", "163256.052500", "163256.512500", "163256.972500", "163257.432500", "163257.892500", "163258.352500", "163258.812500", "163259.272500", "163259.732500", "163300.192500", "163300.652500", "163301.112500", "163301.572500", "163302.032500", "163302.492500", "163302.952500", "163303.412500", "163303.872500", "163304.332500", "163304.792500", "163305.252500", "163305.712500", "163306.172500", "163306.632500", "163307.092500", "163307.552500", "163308.012500", "163308.472500", "163308.932500", "163309.392500", "163309.852500", "163310.312500", "163310.772500", "163311.232500", "163311.692500", "163312.152500", "163312.612500", "163313.072500", "163313.532500", "163313.992500", "163314.452500", "163314.912500", "163315.372500", "163315.832500", "163316.292500", "163316.752500", "163317.212500", "163317.672500", "163318.132500", "163318.592500", "163319.052500", "163319.512500", "163319.972500", "163320.432500", "163320.892500", "163321.352500", "163321.812500", "163322.272500", "163322.732500", "163323.192500", "163323.652500", "163324.112500", "163324.572500", "163325.032500", "163325.492500", "163325.952500", "163326.412500", "163326.872500", "163327.332500", "163327.792500", "163328.252500", "163328.712500", "163329.172500", "163329.632500", "163330.092500", "163330.552500", "163331.012500"],
