{
  "AcquisitionMatrixPE": 82,
  "AcquisitionNumber": 1,
  "AcquisitionTime": "15:36:30.515000",
  "BandwidthPerPixelPhaseEncode": 24.888,
  "BaseResolution": 82,
  "BodyPartExamined": "BRAIN",
  "ConsistencyInfo": "N4_VE11E_LATEST_20181129",
  "ConversionSoftware": "dcm2niix",
  "ConversionSoftwareVersion": "v1.0.20201102",
  "DerivedVendorReportedEchoSpacing": 0.00049,
  "DeviceSerialNumber": "66112",
  "DwellTime": 2e-06,
  "EchoTime": 0.0272,
  "EchoTrainLength": 82,
  "EffectiveEchoSpacing": 0.00049,
  "FlipAngle": 44,
  "ImageComments": "Unaliased MB8/PE3",
  "ImageOrientationPatientDICOM": [0.99781, -0.0183687, 0.0635386, 0.0104494, 0.992377, 0.122793],
  "ImageType": [
    "ORIGINAL",
    "PRIMARY",
    "M",
    "MB",
    "ND",
    "NORM",
    "MOSAIC"
],
  "ImagingFrequency": 123.259,
  "InPlanePhaseEncodingDirectionDICOM": "COL",
  "InstitutionAddress": "Maynard 3,Hanover,NH,US,03755",
  "InstitutionName": "Dartmouth College - PBS",
  "InstitutionalDepartmentName": "Department",
  "MRAcquisitionType": "2D",
  "MagneticFieldStrength": 3,
  "Manufacturer": "Siemens",
  "ManufacturersModelName": "Prisma",
  "Modality": "MR",
  "MultibandAccelerationFactor": 8,
  "PartialFourier": 1,
  "PatientPosition": "HFS",
  "PercentPhaseFOV": 100,
  "PercentSampling": 100,
  "PhaseEncodingDirection": "j-",
  "PhaseEncodingSteps": 82,
  "PhaseResolution": 1,
  "PixelBandwidth": 3050,
  "ProcedureStepDescription": "Wager_Wager^1076_spacetop",
  "ProtocolName": "func_run-01_task-social_acq-ap-mb8",
  "PulseSequenceDetails": "%CustomerSeq%\\cmrr_mbep2d_bold",
  "ReceiveCoilActiveElements": "HEA;HEP",
  "ReceiveCoilName": "Head_32",
  "ReconMatrixPE": 82,
  "RepetitionTime": 0.46,
  "SAR": 0.0809873,
  "ScanOptions": "FS",
  "ScanningSequence": "EP",
  "SequenceName": "epfid2d1_82",
  "SequenceVariant": "SK\\SS",
  "SeriesDescription": "func_run-01_task-social_acq-ap-mb8",
  "SeriesNumber": 12,
  "ShimSetting": [4252, -7776, -7264, 283, -57, 3, -123, 74],
  "SliceThickness": 2.7,
  "SliceTiming": [0, 0.25, 0.0625, 0.3125, 0.125, 0.375, 0.1875, 0, 0.25, 0.0625, 0.3125, 0.125, 0.375, 0.1875, 0, 0.25, 0.0625, 0.3125, 0.125, 0.375, 0.1875, 0, 0.25, 0.0625, 0.3125, 0.125, 0.375, 0.1875, 0, 0.25, 0.0625, 0.3125, 0.125, 0.375, 0.1875, 0, 0.25, 0.0625, 0.3125, 0.125, 0.375, 0.1875, 0, 0.25, 0.0625, 0.3125, 0.125, 0.375, 0.1875, 0, 0.25, 0.0625, 0.3125, 0.125, 0.375, 0.1875],
  "SoftwareVersions": "syngo MR E11",
  "SpacingBetweenSlices": 2.7,
  "StationName": "AWP66112",
  "TaskName": "social",
  "TotalReadoutTime": 0.03969,
  "TxRefAmp": 227.379,
  "WipMemBlock": "51bb99da-aada-4b7e-996e-fcd782983006||Sequence: R016 ve11e/master r/434b28f1; Aug  7 2019 18:53:46 by eja",
  "dcmmeta_affine": [
    [-2.6770522594451904, 0.02803502231836319, 0.17633646726608276, 105.57341766357422],
    [0.04928182065486908, 2.6624755859375, 0.32902365922927856, -96.3207015991211],
    [0.17046938836574554, -0.32944580912590027, 2.674069881439209, -66.86050415039062],
    [0.0, 0.0, 0.0, 1.0]
],
  "dcmmeta_reorient_transform": [
    [0.0, -1.0, 0.0, 81.0],
    [1.0, 0.0, 0.0, 0.0],
    [0.0, 0.0, 1.0, 0.0],
    [0.0, 0.0, 0.0, 1.0]
],
  "dcmmeta_shape": [82, 82, 56, 872],
  "dcmmeta_slice_dim": 2,
  "dcmmeta_version": 0.6,
  "global": {
    "const": {
      "AccessionNumber": "A004413",
      "AcquisitionMatrix": [82, 0, 0, 82],
      "AngioFlag": "N",
      "BitsAllocated": 16,
      "BitsStored": 16,
      "BodyPartExamined": "BRAIN",
      "Columns": 656,
      "EchoNumbers": 1,
      "EchoTime": 27.2,
      "EchoTrainLength": 82,
      "FlipAngle": 44.0,
      "HighBit": 15,
      "ImageOrientationPatient": [0.9978103225217, -0.0183686777598, 0.06353858628025, 0.01044941738684, 0.99237723793626, 0.1227934334656],
      "ImagePositionPatient": [-884.2042707557, -869.326425957, -237.02127643955],
      "ImageType": [
        "ORIGINAL",
        "PRIMARY",
        "M",
        "MB",
        "ND",
        "NORM",
        "MOSAIC"
],
      "ImagedNucleus": "1H",
      "ImagingFrequency": 123.259127,
      "InPlanePhaseEncodingDirection": "COL",
      "MRAcquisitionType": "2D",
      "MagneticFieldStrength": 3.0,
      "Manufacturer": "SIEMENS",
      "ManufacturerModelName": "Prisma",
      "Modality": "MR",
      "NumberOfAverages": 1.0,
      "NumberOfPhaseEncodingSteps": 82,
      "PercentPhaseFieldOfView": 100.0,
      "PercentSampling": 100.0,
      "PerformedProcedureStepStartTime": "150515.756000",
      "PhotometricInterpretation": "MONOCHROME2",
      "PixelBandwidth": 3050.0,
      "PixelRepresentation": 0,
      "PixelSpacing": [2.6829268932343, 2.6829268932343],
      "ProtocolName": "func_run-01_task-social_acq-ap-mb8",
      "RepetitionTime": 460.0,
      "Rows": 656,
      "SAR": 0.08098729677198,
      "SamplesPerPixel": 1,
      "ScanOptions": "FS",
      "ScanningSequence": "EP",
      "SequenceName": "epfid2d1_82",
      "SequenceVariant": [
        "SK",
        "SS"
],
      "SeriesDescription": "func_run-01_task-social_acq-ap-mb8",
      "SeriesNumber": 12,
      "SeriesTime": "153658.074000",
      "SliceLocation": -71.061113923773,
      "SliceThickness": 2.7000000476837,
      "SmallestImagePixelValue": 0,
      "SoftwareVersions": "syngo MR E11",
      "SpacingBetweenSlices": 2.7000000448181,
      "SpecificCharacterSet": "ISO_IR 100",
      "StudyID": "1",
      "StudyTime": "150515.680000",
      "TransmitCoilName": "Body",
      "VariableFlipAngleFlag": "N",
      "WindowCenterWidthExplanation": "Algo1"
    },
    "slices": {}
  },
  "time": {
    "samples": {
      "AcquisitionNumber": [1, 2, 3, 4, 5, 6, 7, 8, 9, 10, 11, 12, 13, 14, 15, 16, 17, 18, 19, 20, 21, 22, 23, 24, 25, 26, 27, 28, 29, 30, 31, 32, 33, 34, 35, 36, 37, 38, 39, 40, 41, 42, 43, 44, 45, 46, 47, 48, 49, 50, 51, 52, 53, 54, 55, 56, 57, 58, 59, 60, 61, 62, 63, 64, 65, 66, 67, 68, 69, 70, 71, 72, 73, 74, 75, 76, 77, 78, 79, 80, 81, 82, 83, 84, 85, 86, 87, 88, 89, 90, 91, 92, 93, 94, 95, 96, 97, 98, 99, 100, 101, 102, 103, 104, 105, 106, 107, 108, 109, 110, 111, 112, 113, 114, 115, 116, 117, 118, 119, 120, 121, 122, 123, 124, 125, 126, 127, 128, 129, 130, 131, 132, 133, 134, 135, 136, 137, 138, 139, 140, 141, 142, 143, 144, 145, 146, 147, 148, 149, 150, 151, 152, 153, 154, 155, 156, 157, 158, 159, 160, 161, 162, 163, 164, 165, 166, 167, 168, 169, 170, 171, 172, 173, 174, 175, 176, 177, 178, 179, 180, 181, 182, 183, 184, 185, 186, 187, 188, 189, 190, 191, 192, 193, 194, 195, 196, 197, 198, 199, 200, 201, 202, 203, 204, 205, 206, 207, 208, 209, 210, 211, 212, 213, 214, 215, 216, 217, 218, 219, 220, 221, 222, 223, 224, 225, 226, 227, 228, 229, 230, 231, 232, 233, 234, 235, 236, 237, 238, 239, 240, 241, 242, 243, 244, 245, 246, 247, 248, 249, 250, 251, 252, 253, 254, 255, 256, 257, 258, 259, 260, 261, 262, 263, 264, 265, 266, 267, 268, 269, 270, 271, 272, 273, 274, 275, 276, 277, 278, 279, 280, 281, 282, 283, 284, 285, 286, 287, 288, 289, 290, 291, 292, 293, 294, 295, 296, 297, 298, 299, 300, 301, 302, 303, 304, 305, 306, 307, 308, 309, 310, 311, 312, 313, 314, 315, 316, 317, 318, 319, 320, 321, 322, 323, 324, 325, 326, 327, 328, 329, 330, 331, 332, 333, 334, 335, 336, 337, 338, 339, 340, 341, 342, 343, 344, 345, 346, 347, 348, 349, 350, 351, 352, 353, 354, 355, 356, 357, 358, 359, 360, 361, 362, 363, 364, 365, 366, 367, 368, 369, 370, 371, 372, 373, 374, 375, 376, 377, 378, 379, 380, 381, 382, 383, 384, 385, 386, 387, 388, 389, 390, 391, 392, 393, 394, 395, 396, 397, 398, 399, 400, 401, 402, 403, 404, 405, 406, 407, 408, 409, 410, 411, 412, 413, 414, 415, 416, 417, 418, 419, 420, 421, 422, 423, 424, 425, 426, 427, 428, 429, 430, 431, 432, 433, 434, 435, 436, 437, 438, 439, 440, 441, 442, 443, 444, 445, 446, 447, 448, 449, 450, 451, 452, 453, 454, 455, 456, 457, 458, 459, 460, 461, 462, 463, 464, 465, 466, 467, 468, 469, 470, 471, 472, 473, 474, 475, 476, 477, 478, 479, 480, 481, 482, 483, 484, 485, 486, 487, 488, 489, 490, 491, 492, 493, 494, 495, 496, 497, 498, 499, 500, 501, 502, 503, 504, 505, 506, 507, 508, 509, 510, 511, 512, 513, 514, 515, 516, 517, 518, 519, 520, 521, 522, 523, 524, 525, 526, 527, 528, 529, 530, 531, 532, 533, 534, 535, 536, 537, 538, 539, 540, 541, 542, 543, 544, 545, 546, 547, 548, 549, 550, 551, 552, 553, 554, 555, 556, 557, 558, 559, 560, 561, 562, 563, 564, 565, 566, 567, 568, 569, 570, 571, 572, 573, 574, 575, 576, 577, 578, 579, 580, 581, 582, 583, 584, 585, 586, 587, 588, 589, 590, 591, 592, 593, 594, 595, 596, 597, 598, 599, 600, 601, 602, 603, 604, 605, 606, 607, 608, 609, 610, 611, 612, 613, 614, 615, 616, 617, 618, 619, 620, 621, 622, 623, 624, 625, 626, 627, 628, 629, 630, 631, 632, 633, 634, 635, 636, 637, 638, 639, 640, 641, 642, 643, 644, 645, 646, 647, 648, 649, 650, 651, 652, 653, 654, 655, 656, 657, 658, 659, 660, 661, 662, 663, 664, 665, 666, 667, 668, 669, 670, 671, 672, 673, 674, 675, 676, 677, 678, 679, 680, 681, 682, 683, 684, 685, 686, 687, 688, 689, 690, 691, 692, 693, 694, 695, 696, 697, 698, 699, 700, 701, 702, 703, 704, 705, 706, 707, 708, 709, 710, 711, 712, 713, 714, 715, 716, 717, 718, 719, 720, 721, 722, 723, 724, 725, 726, 727, 728, 729, 730, 731, 732, 733, 734, 735, 736, 737, 738, 739, 740, 741, 742, 743, 744, 745, 746, 747, 748, 749, 750, 751, 752, 753, 754, 755, 756, 757, 758, 759, 760, 761, 762, 763, 764, 765, 766, 767, 768, 769, 770, 771, 772, 773, 774, 775, 776, 777, 778, 779, 780, 781, 782, 783, 784, 785, 786, 787, 788, 789, 790, 791, 792, 793, 794, 795, 796, 797, 798, 799, 800, 801, 802, 803, 804, 805, 806, 807, 808, 809, 810, 811, 812, 813, 814, 815, 816, 817, 818, 819, 820, 821, 822, 823, 824, 825, 826, 827, 828, 829, 830, 831, 832, 833, 834, 835, 836, 837, 838, 839, 840, 841, 842, 843, 844, 845, 846, 847, 848, 849, 850, 851, 852, 853, 854, 855, 856, 857, 858, 859, 860, 861, 862, 863, 864, 865, 866, 867, 868, 869, 870, 871, 872],
      "AcquisitionTime": ["153630.515000", "153630.975000", "153631.435000", "153631.895000", "153632.355000", "153632.815000", "153633.275000", "153633.735000", "153634.195000", "153634.655000", "153635.115000", "153635.575000", "153636.035000", "153636.495000", "153636.955000", "153637.415000", "153637.875000", "153638.335000", "153638.795000", "153639.255000", "153639.715000", "153640.175000", "153640.635000", "153641.095000", "153641.555000", "153642.015000", "153642.475000", "153642.935000", "153643.395000", "153643.855000", "153644.315000", "153644.775000", "153645.235000", "153645.695000", "153646.155000", "153646.615000", "153647.075000", "153647.535000", "153647.995000", "153648.455000", "153648.915000", "153649.375000", "153649.835000", "153650.295000", "153650.755000", "153651.215000", "153651.675000", "153652.135000", "153652.595000", "153653.055000", "153653.515000", "153653.975000", "153654.435000", "153654.895000", "153655.355000", "153655.815000", "153656.275000", "153656.735000", "153657.195000", "153657.655000", "153658.115000", "153658.575000", "153659.035000", "153659.495000", "153659.955000", "153700.415000", "153700.875000", "153701.335000", "153701.795000", "153702.255000", "153702.715000", "153703.175000", "153703.635000", "153704.095000", "153704.555000", "153705.015000", "153705.475000", "153705.935000", "153706.395000", "153706.855000", "153707.315000", "153707.775000", "153708.235000", "153708.695000", "153709.155000", "153709.615000", "153710.075000", "153710.535000", "153710.995000", "153711.455000", "153711.915000", "153712.375000", "153712.835000", "153713.295000", "153713.755000", "153714.215000", "153714.675000", "153715.135000", "153715.595000", "153716.055000", "153716.515000", "153716.975000", "153717.435000", "153717.895000", "153718.355000", "153718.815000", "153719.275000", "153719.735000", "153720.195000", "153720.655000", "153721.115000", "153721.575000", "153722.035000", "153722.495000", "153722.955000", "153723.415000", "153723.875000", "153724.335000", "153724.795000", "153725.255000", "153725.715000", "153726.175000", "153726.635000", "153727.095000", "153727.555000", "153728.015000", "153728.475000", "153728.935000", "153729.395000", "153729.855000", "153730.315000", "153730.775000", "153731.235000", "153731.695000", "153732.155000", "153732.615000", "153733.075000", "153733.535000", "153733.995000", "153734.455000", "153734.915000", "153735.375000", "153735.835000", "153736.295000", "153736.755000", "153737.215000", "153737.675000", "153738.135000", "153738.595000", "153739.055000", "153739.515000", "153739.975000", "153740.435000", "153740.895000", "153741.355000", "153741.815000", "153742.275000", "153742.735000", "153743.195000", "153743.655000", "153744.115000", "153744.575000", "153745.035000", "153745.495000", "153745.955000", "153746.415000", "153746.875000", "153747.335000", "153747.795000", "153748.255000", "153748.715000", "153749.175000", "153749.635000", "153750.095000", "153750.555000", "153751.015000", "153751.475000", "153751.935000", "153752.395000", "153752.855000", "153753.315000", "153753.775000", "153754.235000", "153754.695000", "153755.155000", "153755.615000", "153756.075000", "153756.535000", "153756.995000", "153757.455000", "153757.915000", "153758.375000", "153758.835000", "153759.295000", "153759.755000", "153800.215000", "153800.675000", "153801.135000", "153801.595000", "153802.055000", "153802.515000", "153802.975000", "153803.435000", "153803.895000", "153804.355000", "153804.815000", "153805.275000", "153805.735000", "153806.195000", "153806.655000", "153807.115000", "153807.575000", "153808.035000", "153808.495000", "153808.955000", "153809.415000", "153809.875000", "153810.335000", "153810.795000", "153811.255000", "153811.715000", "153812.175000", "153812.635000", "153813.095000", "153813.555000", "153814.015000", "153814.475000", "153814.935000", "153815.395000", "153815.855000", "153816.315000", "153816.775000", "153817.235000", "153817.695000", "153818.155000", "153818.615000", "153819.075000", "153819.535000", "153819.995000", "153820.455000", "153820.915000", "153821.375000", "153821.835000", "153822.295000", "153822.755000", "153823.215000", "153823.675000", "153824.135000", "153824.595000", "153825.055000", "153825.515000", "153825.975000", "153826.435000", "153826.895000", "153827.355000", "153827.815000", "153828.275000", "153828.735000", "153829.195000", "153829.655000", "153830.115000", "153830.575000", "153831.035000", "153831.495000", "153831.955000", "153832.415000", "153832.875000", "153833.335000", "153833.795000", "153834.255000", "153834.715000", "153835.175000", "153835.635000", "153836.095000", "153836.555000", "153837.015000", "153837.475000", "153837.935000", "153838.395000", "153838.855000", "153839.315000", "153839.775000", "153840.235000", "153840.695000", "153841.155000", "153841.615000", "153842.075000", "153842.535000", "153842.995000", "153843.455000", "153843.915000", "153844.375000", "153844.835000", "153845.295000", "153845.755000", "153846.215000", "153846.675000", "153847.135000", "153847.595000", "153848.055000", "153848.515000", "153848.975000", "153849.435000", "153849.895000", "153850.355000", "153850.815000", "153851.275000", "153851.735000", "153852.195000", "153852.655000", "153853.115000", "153853.575000", "153854.035000", "153854.495000", "153854.955000", "153855.415000", "153855.875000", "153856.335000", "153856.795000", "153857.255000", "153857.715000", "153858.175000", "153858.635000", "153859.095000", "153859.555000", "153900.015000", "153900.475000", "153900.935000", "153901.395000", "153901.855000", "153902.315000", "153902.775000", "153903.235000", "153903.695000", "153904.155000", "153904.615000", "153905.075000", "153905.535000", "153905.995000", "153906.455000", "153906.915000", "153907.375000", "153907.835000", "153908.295000", "153908.755000", "153909.215000", "153909.675000", "153910.135000", "153910.595000", "153911.055000", "153911.515000", "153911.975000", "153912.435000", "153912.895000", "153913.355000", "153913.815000", "153914.275000", "153914.735000", "153915.195000", "153915.655000", "153916.115000", "153916.575000", "153917.035000", "153917.495000", "153917.955000", "153918.415000", "153918.875000", "153919.335000", "153919.795000", "153920.255000", "153920.715000", "153921.175000", "153921.635000", "153922.095000", "153922.555000", "153923.015000", "153923.475000", "153923.935000", "153924.395000", "153924.855000", "153925.315000", "153925.775000", "153926.235000", "153926.695000", "153927.155000", "153927.615000", "153928.075000", "153928.535000", "153928.995000", "153929.455000", "153929.915000", "153930.375000", "153930.835000", "153931.295000", "153931.755000", "153932.215000", "153932.675000", "153933.135000", "153933.595000", "153934.055000", "153934.515000", "153934.975000", "153935.435000", "153935.895000", "153936.355000", "153936.815000", "153937.275000", "153937.735000", "153938.195000", "153938.655000", "153939.115000", "153939.575000", "153940.035000", "153940.495000", "153940.955000", "153941.415000", "153941.875000", "153942.335000", "153942.795000", "153943.255000", "153943.715000", "153944.175000", "153944.635000", "153945.095000", "153945.555000", "153946.015000", "153946.475000", "153946.935000", "153947.395000", "153947.855000", "153948.315000", "153948.775000", "153949.235000", "153949.695000", "153950.155000", "153950.615000", "153951.075000", "153951.535000", "153951.995000", "153952.455000", "153952.915000", "153953.375000", "153953.835000", "153954.295000", "153954.755000", "153955.215000", "153955.675000", "153956.135000", "153956.595000", "153957.055000", "153957.515000", "153957.975000", "153958.435000", "153958.895000", "153959.355000", "153959.815000", "154000.275000", "154000.735000", "154001.195000", "154001.655000", "154002.115000", "154002.575000", "154003.035000", "154003.495000", "154003.955000", "154004.415000", "154004.875000", "154005.335000", "154005.795000", "154006.255000", "154006.715000", "154007.175000", "154007.635000", "154008.095000", "154008.555000", "154009.015000", "154009.475000", "154009.935000", "154010.395000", "154010.855000", "154011.315000", "154011.775000", "154012.235000", "154012.695000", "154013.155000", "154013.615000", "154014.075000", "154014.535000", "154014.995000", "154015.455000", "154015.915000", "154016.375000", "154016.835000", "154017.295000", "154017.755000", "154018.215000", "154018.675000", "154019.135000", "154019.595000", "154020.055000", "154020.515000", "154020.975000", "154021.435000", "154021.895000", "154022.355000", "154022.815000", "154023.275000", "154023.735000", "154024.195000", "154024.655000", "154025.115000", "154025.575000", "154026.035000", "154026.495000", "154026.955000", "154027.415000", "154027.875000", "154028.335000", "154028.795000", "154029.255000", "154029.715000", "154030.175000", "154030.635000", "154031.095000", "154031.555000", "154032.015000", "154032.475000", "154032.935000", "154033.395000", "154033.855000", "154034.315000", "154034.775000", "154035.235000", "154035.695000", "154036.155000", "154036.615000", "154037.075000", "154037.535000", "154037.995000", "154038.455000", "154038.915000", "154039.375000", "154039.835000", "154040.295000", "154040.755000", "154041.215000", "154041.675000", "154042.135000", "154042.595000", "154043.055000", "154043.515000", "154043.975000", "154044.435000", "154044.895000", "154045.355000", "154045.815000", "154046.275000", "154046.735000", "154047.195000", "154047.655000", "154048.115000", "154048.575000", "154049.035000", "154049.495000", "154049.955000", "154050.415000", "154050.875000", "154051.335000", "154051.795000", "154052.255000", "154052.715000", "154053.175000", "154053.635000", "154054.095000", "154054.555000", "154055.015000", "154055.475000", "154055.935000", "154056.395000", "154056.855000", "154057.315000", "154057.775000", "154058.235000", "154058.695000", "154059.155000", "154059.615000", "154100.075000", "154100.535000", "154100.995000", "154101.455000", "154101.915000", "154102.375000", "154102.835000", "154103.295000", "154103.755000", "154104.215000", "154104.675000", "154105.135000", "154105.595000", "154106.055000", "154106.515000", "154106.975000", "154107.435000", "154107.895000", "154108.355000", "154108.815000", "154109.275000", "154109.735000", "154110.195000", "154110.655000", "154111.115000", "154111.575000", "154112.035000", "154112.495000", "154112.955000", "154113.415000", "154113.875000", "154114.335000", "154114.795000", "154115.255000", "154115.715000", "154116.175000", "154116.635000", "154117.095000", "154117.555000", "154118.015000", "154118.475000", "154118.935000", "154119.395000", "154119.855000", "154120.315000", "154120.775000", "154121.235000", "154121.695000", "154122.155000", "154122.615000", "154123.075000", "154123.535000", "154123.995000", "154124.455000", "154124.915000", "154125.375000", "154125.835000", "154126.295000", "154126.755000", "154127.215000", "154127.675000", "154128.135000", "154128.595000", "154129.055000", "154129.515000", "154129.975000", "154130.435000", "154130.895000", "154131.355000", "154131.815000", "154132.275000", "154132.735000", "154133.195000", "154133.655000", "154134.115000", "154134.575000", "154135.035000", "154135.495000", "154135.955000", "154136.415000", "154136.875000", "154137.335000", "154137.795000", "154138.255000", "154138.715000", "154139.175000", "154139.635000", "154140.095000", "154140.555000", "154141.015000", "154141.475000", "154141.935000", "154142.395000", "154142.855000", "154143.315000", "154143.775000", "154144.235000", "154144.695000", "154145.155000", "154145.615000", "154146.075000", "154146.535000", "154146.995000", "154147.455000", "154147.915000", "154148.375000", "154148.835000", "154149.295000", "154149.755000", "154150.215000", "154150.675000", "154151.135000", "154151.595000", "154152.055000", "154152.515000", "154152.975000", "154153.435000", "154153.895000", "154154.355000", "154154.815000", "154155.275000", "154155.735000", "154156.195000", "154156.655000", "154157.115000", "154157.575000", "154158.035000", "154158.495000", "154158.955000", "154159.415000", "154159.875000", "154200.335000", "154200.795000", "154201.255000", "154201.715000", "154202.175000", "154202.635000", "154203.095000", "154203.555000", "154204.015000", "154204.475000", "154204.935000", "154205.395000", "154205.855000", "154206.315000", "154206.775000", "154207.235000", "154207.695000", "154208.155000", "154208.615000", "154209.075000", "154209.535000", "154209.995000", "154210.455000", "154210.915000", "154211.375000", "154211.835000", "154212.295000", "154212.755000", "154213.215000", "154213.675000", "154214.135000", "154214.595000", "154215.055000", "154215.515000", "154215.975000", "154216.435000", "154216.895000", "154217.355000", "154217.815000", "154218.275000", "154218.735000", "154219.195000", "154219.655000", "154220.115000", "154220.575000", "154221.035000", "154221.495000", "154221.955000", "154222.415000", "154222.875000", "154223.335000", "154223.795000", "154224.255000", "154224.715000", "154225.175000", "154225.635000", "154226.095000", "154226.555000", "154227.015000", "154227.475000", "154227.935000", "154228.395000", "154228.855000", "154229.315000", "154229.775000", "154230.235000", "154230.695000", "154231.155000", "154231.615000", "154232.075000", "154232.535000", "154232.995000", "154233.455000", "154233.915000", "154234.375000", "154234.835000", "154235.295000", "154235.755000", "154236.215000", "154236.675000", "154237.135000", "154237.595000", "154238.055000", "154238.515000", "154238.975000", "154239.435000", "154239.895000", "154240.355000", "154240.815000", "154241.275000", "154241.735000", "154242.195000", "154242.655000", "154243.115000", "154243.575000", "154244.035000", "154244.495000", "154244.955000", "154245.415000", "154245.875000", "154246.335000", "154246.795000", "154247.255000", "154247.715000", "154248.175000", "154248.635000", "154249.095000", "154249.555000", "154250.015000", "154250.475000", "154250.935000", "154251.395000", "154251.855000", "154252.315000", "154252.775000", "154253.235000", "154253.695000", "154254.155000", "154254.615000", "154255.075000", "154255.535000", "154255.995000", "154256.455000", "154256.915000", "154257.375000", "154257.835000", "154258.295000", "154258.755000", "154259.215000", "154259.675000", "154300.135000", "154300.595000", "154301.055000", "154301.515000", "154301.975000", "154302.435000", "154302.895000", "154303.355000", "154303.815000", "154304.275000", "154304.735000", "154305.195000", "154305.655000", "154306.115000", "154306.575000", "154307.035000", "154307.495000", "154307.955000", "154308.415000", "154308.875000", "154309.335000", "154309.795000", "154310.255000", "154310.715000", "154311.175000"],
