{
  "AcquisitionMatrixPE": 82,
  "AcquisitionNumber": 1,
  "AcquisitionTime": "16:26:47.087500",
  "BandwidthPerPixelPhaseEncode": 24.888,
  "BaseResolution": 82,
  "BodyPartExamined": "BRAIN",
  "ConsistencyInfo": "N4_VE11C_LATEST_20160120",
  "ConversionSoftware": "dcm2niix",
  "ConversionSoftwareVersion": "v1.0.20201102",
  "DerivedVendorReportedEchoSpacing": 0.00049,
  "DeviceSerialNumber": "66112",
  "DwellTime": 2e-06,
  "EchoTime": 0.0272,
  "EchoTrainLength": 82,
  "EffectiveEchoSpacing": 0.00049,
  "FlipAngle": 44,
  "ImageComments": "Unaliased MB8/PE3",
  "ImageOrientationPatientDICOM": [0.998139, 0.0506942, 0.0339003, -0.0489917, 0.997582, -0.0492936],
  "ImageType": [
    "ORIGINAL",
    "PRIMARY",
    "M",
    "MB",
    "ND",
    "NORM",
    "MOSAIC"
],
  "ImagingFrequency": 123.252,
  "InPlanePhaseEncodingDirectionDICOM": "COL",
  "InstitutionAddress": "Maynard 3,Hanover,NH,US,03755",
  "InstitutionName": "Dartmouth College - PBS",
  "InstitutionalDepartmentName": "Department",
  "MRAcquisitionType": "2D",
  "MagneticFieldStrength": 3,
  "Manufacturer": "Siemens",
  "ManufacturersModelName": "Prisma",
  "Modality": "MR",
  "MultibandAccelerationFactor": 8,
  "PartialFourier": 1,
  "PatientPosition": "HFS",
  "PercentPhaseFOV": 100,
  "PercentSampling": 100,
  "PhaseEncodingDirection": "j-",
  "PhaseEncodingSteps": 82,
  "PhaseResolution": 1,
  "PixelBandwidth": 3050,
  "ProcedureStepDescription": "Wager_Wager^1076_spacetop",
  "ProtocolName": "func_run-05_task-social_acq-ap-mb8",
  "PulseSequenceDetails": "%CustomerSeq%\\cmrr_mbep2d_bold",
  "ReceiveCoilActiveElements": "HEA;HEP",
  "ReceiveCoilName": "Head_32",
  "ReconMatrixPE": 82,
  "RepetitionTime": 0.46,
  "SAR": 0.0937489,
  "ScanOptions": "FS",
  "ScanningSequence": "EP",
  "SequenceName": "epfid2d1_82",
  "SequenceVariant": "SK\\SS",
  "SeriesDescription": "func_run-05_task-social_acq-ap-mb8",
  "SeriesNumber": 20,
  "ShimSetting": [4151, -7758, -7264, 525, -85, -68, 56, 47],
  "SliceThickness": 2.7,
  "SliceTiming": [0, 0.2525, 0.0625, 0.315, 0.125, 0.3775, 0.1875, 0, 0.2525, 0.0625, 0.315, 0.125, 0.3775, 0.1875, 0, 0.2525, 0.0625, 0.315, 0.125, 0.3775, 0.1875, 0, 0.2525, 0.0625, 0.315, 0.125, 0.3775, 0.1875, 0, 0.2525, 0.0625, 0.315, 0.125, 0.3775, 0.1875, 0, 0.2525, 0.0625, 0.315, 0.125, 0.3775, 0.1875, 0, 0.2525, 0.0625, 0.315, 0.125, 0.3775, 0.1875, 0, 0.2525, 0.0625, 0.315, 0.125, 0.3775, 0.1875],
  "SoftwareVersions": "syngo MR E11",
  "SpacingBetweenSlices": 2.7,
  "StationName": "AWP66112",
  "TaskName": "social",
  "TotalReadoutTime": 0.03969,
  "TxRefAmp": 250.826,
  "WipMemBlock": "486adb0b-b477-4a43-8df4-f1bd9abcca2d||Sequence: R016 ve11c/master r/e634e98; Dec 19 2017 11:00:25 by eja",
  "dcmmeta_affine": [
    [-2.6779332160949707, -0.1314411610364914, 0.09805664420127869, 115.45708465576172],
    [-0.13600872457027435, 2.6764397621154785, -0.1283607929944992, -81.21988677978516],
    [0.09095215052366257, 0.13225118815898895, 2.6951637268066406, -81.46595001220703],
    [0.0, 0.0, 0.0, 1.0]
],
  "dcmmeta_reorient_transform": [
    [0.0, -1.0, 0.0, 81.0],
    [1.0, 0.0, 0.0, 0.0],
    [0.0, 0.0, 1.0, 0.0],
    [0.0, 0.0, 0.0, 1.0]
],
  "dcmmeta_shape": [82, 82, 56, 872],
  "dcmmeta_slice_dim": 2,
  "dcmmeta_version": 0.6,
  "global": {
    "const": {
      "AccessionNumber": "A003613",
      "AcquisitionMatrix": [82, 0, 0, 82],
      "AngioFlag": "N",
      "BitsAllocated": 16,
      "BitsStored": 16,
      "BodyPartExamined": "BRAIN",
      "Columns": 656,
      "EchoNumbers": 1,
      "EchoTime": 27.2,
      "EchoTrainLength": 82,
      "FlipAngle": 44.0,
      "HighBit": 15,
      "ImageOrientationPatient": [0.99813870208995, 0.05069416027056, 0.03390034667462, -0.0489917017817, 0.99758205281129, -0.0492936209396],
      "ImagePositionPatient": [-835.65356247024, -942.74443632275, -58.900779590919],
      "ImageType": [
        "ORIGINAL",
        "PRIMARY",
        "M",
        "MB",
        "ND",
        "NORM",
        "MOSAIC"
],
      "ImagedNucleus": "1H",
      "ImagingFrequency": 123.252179,
      "InPlanePhaseEncodingDirection": "COL",
      "MRAcquisitionType": "2D",
      "MagneticFieldStrength": 3.0,
      "Manufacturer": "SIEMENS",
      "ManufacturerModelName": "Prisma",
      "Modality": "MR",
      "NumberOfAverages": 1.0,
      "NumberOfPhaseEncodingSteps": 82,
      "PercentPhaseFieldOfView": 100.0,
      "PercentSampling": 100.0,
      "PerformedProcedureStepStartTime": "152340.825000",
      "PhotometricInterpretation": "MONOCHROME2",
      "PixelBandwidth": 3050.0,
      "PixelRepresentation": 0,
      "PixelSpacing": [2.6829268932343, 2.6829268932343],
      "ProtocolName": "func_run-05_task-social_acq-ap-mb8",
      "RepetitionTime": 460.0,
      "Rows": 656,
      "SAR": 0.09374888190525,
      "SamplesPerPixel": 1,
      "ScanOptions": "FS",
      "ScanningSequence": "EP",
      "SequenceName": "epfid2d1_82",
      "SequenceVariant": [
        "SK",
        "SS"
],
      "SeriesDescription": "func_run-05_task-social_acq-ap-mb8",
      "SeriesNumber": 20,
      "SeriesTime": "162706.184000",
      "SliceLocation": -73.26566457193,
      "SliceThickness": 2.7000000476837,
      "SmallestImagePixelValue": 0,
      "SoftwareVersions": "syngo MR E11",
      "SpacingBetweenSlices": 2.6999999054695,
      "SpecificCharacterSet": "ISO_IR 100",
      "StudyID": "1",
      "StudyTime": "152340.760000",
      "TransmitCoilName": "Body",
      "VariableFlipAngleFlag": "N",
      "WindowCenterWidthExplanation": "Algo1",
      "dBdt": 0.0},
    "slices": {}
  },
  "time": {
    "samples": {
      "AcquisitionNumber": [1, 2, 3, 4, 5, 6, 7, 8, 9, 10, 11, 12, 13, 14, 15, 16, 17, 18, 19, 20, 21, 22, 23, 24, 25, 26, 27, 28, 29, 30, 31, 32, 33, 34, 35, 36, 37, 38, 39, 40, 41, 42, 43, 44, 45, 46, 47, 48, 49, 50, 51, 52, 53, 54, 55, 56, 57, 58, 59, 60, 61, 62, 63, 64, 65, 66, 67, 68, 69, 70, 71, 72, 73, 74, 75, 76, 77, 78, 79, 80, 81, 82, 83, 84, 85, 86, 87, 88, 89, 90, 91, 92, 93, 94, 95, 96, 97, 98, 99, 100, 101, 102, 103, 104, 105, 106, 107, 108, 109, 110, 111, 112, 113, 114, 115, 116, 117, 118, 119, 120, 121, 122, 123, 124, 125, 126, 127, 128, 129, 130, 131, 132, 133, 134, 135, 136, 137, 138, 139, 140, 141, 142, 143, 144, 145, 146, 147, 148, 149, 150, 151, 152, 153, 154, 155, 156, 157, 158, 159, 160, 161, 162, 163, 164, 165, 166, 167, 168, 169, 170, 171, 172, 173, 174, 175, 176, 177, 178, 179, 180, 181, 182, 183, 184, 185, 186, 187, 188, 189, 190, 191, 192, 193, 194, 195, 196, 197, 198, 199, 200, 201, 202, 203, 204, 205, 206, 207, 208, 209, 210, 211, 212, 213, 214, 215, 216, 217, 218, 219, 220, 221, 222, 223, 224, 225, 226, 227, 228, 229, 230, 231, 232, 233, 234, 235, 236, 237, 238, 239, 240, 241, 242, 243, 244, 245, 246, 247, 248, 249, 250, 251, 252, 253, 254, 255, 256, 257, 258, 259, 260, 261, 262, 263, 264, 265, 266, 267, 268, 269, 270, 271, 272, 273, 274, 275, 276, 277, 278, 279, 280, 281, 282, 283, 284, 285, 286, 287, 288, 289, 290, 291, 292, 293, 294, 295, 296, 297, 298, 299, 300, 301, 302, 303, 304, 305, 306, 307, 308, 309, 310, 311, 312, 313, 314, 315, 316, 317, 318, 319, 320, 321, 322, 323, 324, 325, 326, 327, 328, 329, 330, 331, 332, 333, 334, 335, 336, 337, 338, 339, 340, 341, 342, 343, 344, 345, 346, 347, 348, 349, 350, 351, 352, 353, 354, 355, 356, 357, 358, 359, 360, 361, 362, 363, 364, 365, 366, 367, 368, 369, 370, 371, 372, 373, 374, 375, 376, 377, 378, 379, 380, 381, 382, 383, 384, 385, 386, 387, 388, 389, 390, 391, 392, 393, 394, 395, 396, 397, 398, 399, 400, 401, 402, 403, 404, 405, 406, 407, 408, 409, 410, 411, 412, 413, 414, 415, 416, 417, 418, 419, 420, 421, 422, 423, 424, 425, 426, 427, 428, 429, 430, 431, 432, 433, 434, 435, 436, 437, 438, 439, 440, 441, 442, 443, 444, 445, 446, 447, 448, 449, 450, 451, 452, 453, 454, 455, 456, 457, 458, 459, 460, 461, 462, 463, 464, 465, 466, 467, 468, 469, 470, 471, 472, 473, 474, 475, 476, 477, 478, 479, 480, 481, 482, 483, 484, 485, 486, 487, 488, 489, 490, 491, 492, 493, 494, 495, 496, 497, 498, 499, 500, 501, 502, 503, 504, 505, 506, 507, 508, 509, 510, 511, 512, 513, 514, 515, 516, 517, 518, 519, 520, 521, 522, 523, 524, 525, 526, 527, 528, 529, 530, 531, 532, 533, 534, 535, 536, 537, 538, 539, 540, 541, 542, 543, 544, 545, 546, 547, 548, 549, 550, 551, 552, 553, 554, 555, 556, 557, 558, 559, 560, 561, 562, 563, 564, 565, 566, 567, 568, 569, 570, 571, 572, 573, 574, 575, 576, 577, 578, 579, 580, 581, 582, 583, 584, 585, 586, 587, 588, 589, 590, 591, 592, 593, 594, 595, 596, 597, 598, 599, 600, 601, 602, 603, 604, 605, 606, 607, 608, 609, 610, 611, 612, 613, 614, 615, 616, 617, 618, 619, 620, 621, 622, 623, 624, 625, 626, 627, 628, 629, 630, 631, 632, 633, 634, 635, 636, 637, 638, 639, 640, 641, 642, 643, 644, 645, 646, 647, 648, 649, 650, 651, 652, 653, 654, 655, 656, 657, 658, 659, 660, 661, 662, 663, 664, 665, 666, 667, 668, 669, 670, 671, 672, 673, 674, 675, 676, 677, 678, 679, 680, 681, 682, 683, 684, 685, 686, 687, 688, 689, 690, 691, 692, 693, 694, 695, 696, 697, 698, 699, 700, 701, 702, 703, 704, 705, 706, 707, 708, 709, 710, 711, 712, 713, 714, 715, 716, 717, 718, 719, 720, 721, 722, 723, 724, 725, 726, 727, 728, 729, 730, 731, 732, 733, 734, 735, 736, 737, 738, 739, 740, 741, 742, 743, 744, 745, 746, 747, 748, 749, 750, 751, 752, 753, 754, 755, 756, 757, 758, 759, 760, 761, 762, 763, 764, 765, 766, 767, 768, 769, 770, 771, 772, 773, 774, 775, 776, 777, 778, 779, 780, 781, 782, 783, 784, 785, 786, 787, 788, 789, 790, 791, 792, 793, 794, 795, 796, 797, 798, 799, 800, 801, 802, 803, 804, 805, 806, 807, 808, 809, 810, 811, 812, 813, 814, 815, 816, 817, 818, 819, 820, 821, 822, 823, 824, 825, 826, 827, 828, 829, 830, 831, 832, 833, 834, 835, 836, 837, 838, 839, 840, 841, 842, 843, 844, 845, 846, 847, 848, 849, 850, 851, 852, 853, 854, 855, 856, 857, 858, 859, 860, 861, 862, 863, 864, 865, 866, 867, 868, 869, 870, 871, 872],
      "AcquisitionTime": ["162647.087500", "162647.547500", "162648.007500", "162648.467500", "162648.927500", "162649.387500", "162649.847500", "162650.307500", "162650.767500", "162651.227500", "162651.687500", "162652.147500", "162652.607500", "162653.067500", "162653.527500", "162653.987500", "162654.447500", "162654.907500", "162655.367500", "162655.827500", "162656.287500", "162656.747500", "162657.207500", "162657.667500", "162658.127500", "162658.587500", "162659.047500", "162659.507500", "162659.967500", "162700.427500", "162700.887500", "162701.347500", "162701.807500", "162702.267500", "162702.727500", "162703.187500", "162703.647500", "162704.107500", "162704.567500", "162705.027500", "162705.487500", "162705.947500", "162706.407500", "162706.867500", "162707.327500", "162707.787500", "162708.247500", "162708.707500", "162709.167500", "162709.627500", "162710.087500", "162710.547500", "162711.007500", "162711.467500", "162711.927500", "162712.387500", "162712.847500", "162713.307500", "162713.767500", "162714.227500", "162714.687500", "162715.147500", "162715.607500", "162716.067500", "162716.527500", "162716.987500", "162717.447500", "162717.907500", "162718.367500", "162718.827500", "162719.287500", "162719.747500", "162720.207500", "162720.667500", "162721.127500", "162721.587500", "162722.047500", "162722.507500", "162722.967500", "162723.427500", "162723.887500", "162724.347500", "162724.807500", "162725.267500", "162725.727500", "162726.187500", "162726.647500", "162727.107500", "162727.567500", "162728.027500", "162728.487500", "162728.947500", "162729.407500", "162729.867500", "162730.327500", "162730.787500", "162731.247500", "162731.707500", "162732.167500", "162732.627500", "162733.087500", "162733.547500", "162734.007500", "162734.467500", "162734.927500", "162735.387500", "162735.847500", "162736.307500", "162736.767500", "162737.227500", "162737.687500", "162738.147500", "162738.607500", "162739.067500", "162739.527500", "162739.987500", "162740.447500", "162740.907500", "162741.367500", "162741.827500", "162742.287500", "162742.747500", "162743.207500", "162743.667500", "162744.127500", "162744.587500", "162745.047500", "162745.507500", "162745.967500", "162746.427500", "162746.887500", "162747.347500", "162747.807500", "162748.267500", "162748.727500", "162749.187500", "162749.647500", "162750.107500", "162750.567500", "162751.027500", "162751.487500", "162751.947500", "162752.407500", "162752.867500", "162753.327500", "162753.787500", "162754.247500", "162754.707500", "162755.167500", "162755.627500", "162756.087500", "162756.547500", "162757.007500", "162757.467500", "162757.927500", "162758.387500", "162758.847500", "162759.307500", "162759.767500", "162800.227500", "162800.687500", "162801.147500", "162801.607500", "162802.067500", "162802.527500", "162802.987500", "162803.447500", "162803.907500", "162804.367500", "162804.827500", "162805.287500", "162805.747500", "162806.207500", "162806.667500", "162807.127500", "162807.587500", "162808.047500", "162808.507500", "162808.967500", "162809.427500", "162809.887500", "162810.347500", "162810.807500", "162811.267500", "162811.727500", "162812.187500", "162812.647500", "162813.107500", "162813.567500", "162814.027500", "162814.487500", "162814.947500", "162815.407500", "162815.867500", "162816.327500", "162816.787500", "162817.247500", "162817.707500", "162818.167500", "162818.627500", "162819.087500", "162819.547500", "162820.007500", "162820.467500", "162820.927500", "162821.387500", "162821.847500", "162822.307500", "162822.767500", "162823.227500", "162823.687500", "162824.147500", "162824.607500", "162825.067500", "162825.527500", "162825.987500", "162826.447500", "162826.907500", "162827.367500", "162827.827500", "162828.287500", "162828.747500", "162829.207500", "162829.667500", "162830.127500", "162830.587500", "162831.047500", "162831.507500", "162831.967500", "162832.427500", "162832.887500", "162833.347500", "162833.807500", "162834.267500", "162834.727500", "162835.187500", "162835.647500", "162836.107500", "162836.567500", "162837.027500", "162837.487500", "162837.947500", "162838.407500", "162838.867500", "162839.327500", "162839.787500", "162840.247500", "162840.707500", "162841.167500", "162841.627500", "162842.087500", "162842.547500", "162843.007500", "162843.467500", "162843.927500", "162844.387500", "162844.847500", "162845.307500", "162845.767500", "162846.227500", "162846.687500", "162847.147500", "162847.607500", "162848.067500", "162848.527500", "162848.987500", "162849.447500", "162849.907500", "162850.367500", "162850.827500", "162851.287500", "162851.747500", "162852.207500", "162852.667500", "162853.127500", "162853.587500", "162854.047500", "162854.507500", "162854.967500", "162855.427500", "162855.887500", "162856.347500", "162856.807500", "162857.267500", "162857.727500", "162858.187500", "162858.647500", "162859.107500", "162859.567500", "162900.027500", "162900.487500", "162900.947500", "162901.407500", "162901.867500", "162902.327500", "162902.787500", "162903.247500", "162903.707500", "162904.167500", "162904.627500", "162905.087500", "162905.547500", "162906.007500", "162906.467500", "162906.927500", "162907.387500", "162907.847500", "162908.307500", "162908.767500", "162909.227500", "162909.687500", "162910.147500", "162910.607500", "162911.067500", "162911.527500", "162911.987500", "162912.447500", "162912.907500", "162913.367500", "162913.827500", "162914.287500", "162914.747500", "162915.207500", "162915.667500", "162916.127500", "162916.587500", "162917.047500", "162917.507500", "162917.967500", "162918.427500", "162918.887500", "162919.347500", "162919.807500", "162920.267500", "162920.727500", "162921.187500", "162921.647500", "162922.107500", "162922.567500", "162923.027500", "162923.487500", "162923.947500", "162924.407500", "162924.867500", "162925.327500", "162925.787500", "162926.247500", "162926.707500", "162927.167500", "162927.627500", "162928.087500", "162928.547500", "162929.007500", "162929.467500", "162929.927500", "162930.387500", "162930.847500", "162931.307500", "162931.767500", "162932.227500", "162932.687500", "162933.147500", "162933.607500", "162934.067500", "162934.527500", "162934.987500", "162935.447500", "162935.907500", "162936.367500", "162936.827500", "162937.287500", "162937.747500", "162938.207500", "162938.667500", "162939.127500", "162939.587500", "162940.047500", "162940.507500", "162940.967500", "162941.427500", "162941.887500", "162942.347500", "162942.807500", "162943.267500", "162943.727500", "162944.187500", "162944.647500", "162945.107500", "162945.567500", "162946.027500", "162946.487500", "162946.947500", "162947.407500", "162947.867500", "162948.327500", "162948.787500", "162949.247500", "162949.707500", "162950.167500", "162950.627500", "162951.087500", "162951.547500", "162952.007500", "162952.467500", "162952.927500", "162953.387500", "162953.847500", "162954.307500", "162954.767500", "162955.227500", "162955.687500", "162956.147500", "162956.607500", "162957.067500", "162957.527500", "162957.987500", "162958.447500", "162958.907500", "162959.367500", "162959.827500", "163000.287500", "163000.747500", "163001.207500", "163001.667500", "163002.127500", "163002.587500", "163003.047500", "163003.507500", "163003.967500", "163004.427500", "163004.887500", "163005.347500", "163005.807500", "163006.267500", "163006.727500", "163007.187500", "163007.647500", "163008.107500", "163008.567500", "163009.027500", "163009.487500", "163009.947500", "163010.407500", "163010.867500", "163011.327500", "163011.787500", "163012.247500", "163012.707500", "163013.167500", "163013.627500", "163014.087500", "163014.547500", "163015.007500", "163015.467500", "163015.927500", "163016.387500", "163016.847500", "163017.307500", "163017.767500", "163018.227500", "163018.687500", "163019.147500", "163019.607500", "163020.067500", "163020.527500", "163020.987500", "163021.447500", "163021.907500", "163022.367500", "163022.827500", "163023.287500", "163023.747500", "163024.207500", "163024.667500", "163025.127500", "163025.587500", "163026.047500", "163026.507500", "163026.967500", "163027.427500", "163027.887500", "163028.347500", "163028.807500", "163029.267500", "163029.727500", "163030.187500", "163030.647500", "163031.107500", "163031.567500", "163032.027500", "163032.487500", "163032.947500", "163033.407500", "163033.867500", "163034.327500", "163034.787500", "163035.247500", "163035.707500", "163036.167500", "163036.627500", "163037.087500", "163037.547500", "163038.007500", "163038.467500", "163038.927500", "163039.387500", "163039.847500", "163040.307500", "163040.767500", "163041.227500", "163041.687500", "163042.147500", "163042.607500", "163043.067500", "163043.527500", "163043.987500", "163044.447500", "163044.907500", "163045.367500", "163045.827500", "163046.287500", "163046.747500", "163047.207500", "163047.667500", "163048.127500", "163048.587500", "163049.047500", "163049.507500", "163049.967500", "163050.427500", "163050.887500", "163051.347500", "163051.807500", "163052.267500", "163052.727500", "163053.187500", "163053.647500", "163054.107500", "163054.567500", "163055.027500", "163055.487500", "163055.947500", "163056.407500", "163056.867500", "163057.327500", "163057.787500", "163058.247500", "163058.707500", "163059.167500", "163059.627500", "163100.087500", "163100.547500", "163101.007500", "163101.467500", "163101.927500", "163102.387500", "163102.847500", "163103.307500", "163103.767500", "163104.227500", "163104.687500", "163105.147500", "163105.607500", "163106.067500", "163106.527500", "163106.987500", "163107.447500", "163107.907500", "163108.367500", "163108.827500", "163109.287500", "163109.747500", "163110.207500", "163110.667500", "163111.127500", "163111.587500", "163112.047500", "163112.507500", "163112.967500", "163113.427500", "163113.887500", "163114.347500", "163114.807500", "163115.267500", "163115.727500", "163116.187500", "163116.647500", "163117.107500", "163117.567500", "163118.027500", "163118.487500", "163118.947500", "163119.407500", "163119.867500", "163120.327500", "163120.787500", "163121.247500", "163121.707500", "163122.167500", "163122.627500", "163123.087500", "163123.547500", "163124.007500", "163124.467500", "163124.927500", "163125.387500", "163125.847500", "163126.307500", "163126.767500", "163127.227500", "163127.687500", "163128.147500", "163128.607500", "163129.067500", "163129.527500", "163129.987500", "163130.447500", "163130.907500", "163131.367500", "163131.827500", "163132.287500", "163132.747500", "163133.207500", "163133.667500", "163134.127500", "163134.587500", "163135.047500", "163135.507500", "163135.967500", "163136.427500", "163136.887500", "163137.347500", "163137.807500", "163138.267500", "163138.727500", "163139.187500", "163139.647500", "163140.107500", "163140.567500", "163141.027500", "163141.487500", "163141.947500", "163142.407500", "163142.867500", "163143.327500", "163143.787500", "163144.247500", "163144.707500", "163145.167500", "163145.627500", "163146.087500", "163146.547500", "163147.007500", "163147.467500", "163147.927500", "163148.387500", "163148.847500", "163149.307500", "163149.767500", "163150.227500", "163150.687500", "163151.147500", "163151.607500", "163152.067500", "163152.527500", "163152.987500", "163153.447500", "163153.907500", "163154.367500", "163154.827500", "163155.287500", "163155.747500", "163156.207500", "163156.667500", "163157.127500", "163157.587500", "163158.047500", "163158.507500", "163158.967500", "163159.427500", "163159.887500", "163200.347500", "163200.807500", "163201.267500", "163201.727500", "163202.187500", "163202.647500", "163203.107500", "163203.567500", "163204.027500", "163204.487500", "163204.947500", "163205.407500", "163205.867500", "163206.327500", "163206.787500", "163207.247500", "163207.707500", "163208.167500", "163208.627500", "163209.087500", "163209.547500", "163210.007500", "163210.467500", "163210.927500", "163211.387500", "163211.847500", "163212.307500", "163212.767500", "163213.227500", "163213.687500", "163214.147500", "163214.607500", "163215.067500", "163215.527500", "163215.987500", "163216.447500", "163216.907500", "163217.367500", "163217.827500", "163218.287500", "163218.747500", "163219.207500", "163219.667500", "163220.127500", "163220.587500", "163221.047500", "163221.507500", "163221.967500", "163222.427500", "163222.887500", "163223.347500", "163223.807500", "163224.267500", "163224.727500", "163225.187500", "163225.647500", "163226.107500", "163226.567500", "163227.027500", "163227.487500", "163227.947500", "163228.407500", "163228.867500", "163229.327500", "163229.787500", "163230.247500", "163230.707500", "163231.167500", "163231.627500", "163232.087500", "163232.547500", "163233.007500", "163233.467500", "163233.927500", "163234.387500", "163234.847500", "163235.307500", "163235.767500", "163236.227500", "163236.687500", "163237.147500", "163237.607500", "163238.067500", "163238.527500", "163238.987500", "163239.447500", "163239.907500", "163240.367500", "163240.827500", "163241.287500", "163241.747500", "163242.207500", "163242.667500", "163243.127500", "163243.587500", "163244.047500", "163244.507500", "163244.967500", "163245.427500", "163245.887500", "163246.347500", "163246.807500", "163247.267500", "163247.727500", "163248.187500", "163248.647500", "163249.107500", "163249.567500", "163250.027500", "163250.487500", "163250.947500", "163251.407500", "163251.867500", "163252.327500", "163252.787500", "163253.247500", "163253.707500", "163254.167500", "163254.627500", "163255.087500", "163255.547500", "163256.007500", "163256.467500", "163256.927500", "163257.387500", "163257.847500", "163258.307500", "163258.767500", "163259.227500", "163259.687500", "163300.147500", "163300.607500", "163301.067500", "163301.527500", "163301.987500", "163302.447500", "163302.907500", "163303.367500", "163303.827500", "163304.287500", "163304.747500", "163305.207500", "163305.667500", "163306.127500", "163306.587500", "163307.047500", "163307.507500", "163307.967500", "163308.427500", "163308.887500", "163309.347500", "163309.807500", "163310.267500", "163310.727500", "163311.187500", "163311.647500", "163312.107500", "163312.567500", "163313.027500", "163313.487500", "163313.947500", "163314.407500", "163314.867500", "163315.327500", "163315.787500", "163316.247500", "163316.707500", "163317.167500", "163317.627500", "163318.087500", "163318.547500", "163319.007500", "163319.467500", "163319.927500", "163320.387500", "163320.847500", "163321.307500", "163321.767500", "163322.227500", "163322.687500", "163323.147500", "163323.607500", "163324.067500", "163324.527500", "163324.987500", "163325.447500", "163325.907500", "163326.367500", "163326.827500", "163327.287500", "163327.747500"],
