{
  "AcquisitionMatrixPE": 82,
  "AcquisitionNumber": 1,
  "AcquisitionTime": "16:33:54.432500",
  "BandwidthPerPixelPhaseEncode": 24.888,
  "BaseResolution": 82,
  "BodyPartExamined": "BRAIN",
  "ConsistencyInfo": "N4_VE11C_LATEST_20160120",
  "ConversionSoftware": "dcm2niix",
  "ConversionSoftwareVersion": "v1.0.20201102",
  "DerivedVendorReportedEchoSpacing": 0.00049,
  "DeviceSerialNumber": "66112",
  "DwellTime": 2e-06,
  "EchoTime": 0.0272,
  "EchoTrainLength": 82,
  "EffectiveEchoSpacing": 0.00049,
  "FlipAngle": 44,
  "ImageComments": "Unaliased MB8/PE3",
  "ImageOrientationPatientDICOM": [0.998139, 0.0506942, 0.0339003, -0.0489917, 0.997582, -0.0492936],
  "ImageType": [
    "ORIGINAL",
    "PRIMARY",
    "M",
    "MB",
    "ND",
    "NORM",
    "MOSAIC"
],
  "ImagingFrequency": 123.252,
  "InPlanePhaseEncodingDirectionDICOM": "COL",
  "InstitutionAddress": "Maynard 3,Hanover,NH,US,03755",
  "InstitutionName": "Dartmouth College - PBS",
  "InstitutionalDepartmentName": "Department",
  "MRAcquisitionType": "2D",
  "MagneticFieldStrength": 3,
  "Manufacturer": "Siemens",
  "ManufacturersModelName": "Prisma",
  "Modality": "MR",
  "MultibandAccelerationFactor": 8,
  "PartialFourier": 1,
  "PatientPosition": "HFS",
  "PercentPhaseFOV": 100,
  "PercentSampling": 100,
  "PhaseEncodingDirection": "j-",
  "PhaseEncodingSteps": 82,
  "PhaseResolution": 1,
  "PixelBandwidth": 3050,
  "ProcedureStepDescription": "Wager_Wager^1076_spacetop",
  "ProtocolName": "func_run-06_task-social_acq-ap-mb8",
  "PulseSequenceDetails": "%CustomerSeq%\\cmrr_mbep2d_bold",
  "ReceiveCoilActiveElements": "HEA;HEP",
  "ReceiveCoilName": "Head_32",
  "ReconMatrixPE": 82,
  "RepetitionTime": 0.46,
  "SAR": 0.0937489,
  "ScanOptions": "FS",
  "ScanningSequence": "EP",
  "SequenceName": "epfid2d1_82",
  "SequenceVariant": "SK\\SS",
  "SeriesDescription": "func_run-06_task-social_acq-ap-mb8",
  "SeriesNumber": 22,
  "ShimSetting": [4151, -7758, -7264, 525, -85, -68, 56, 47],
  "SliceThickness": 2.7,
  "SliceTiming": [0, 0.2525, 0.0625, 0.315, 0.125, 0.3775, 0.1875, 0, 0.2525, 0.0625, 0.315, 0.125, 0.3775, 0.1875, 0, 0.2525, 0.0625, 0.315, 0.125, 0.3775, 0.1875, 0, 0.2525, 0.0625, 0.315, 0.125, 0.3775, 0.1875, 0, 0.2525, 0.0625, 0.315, 0.125, 0.3775, 0.1875, 0, 0.2525, 0.0625, 0.315, 0.125, 0.3775, 0.1875, 0, 0.2525, 0.0625, 0.315, 0.125, 0.3775, 0.1875, 0, 0.2525, 0.0625, 0.315, 0.125, 0.3775, 0.1875],
  "SoftwareVersions": "syngo MR E11",
  "SpacingBetweenSlices": 2.7,
  "StationName": "AWP66112",
  "TaskName": "social",
  "TotalReadoutTime": 0.03969,
  "TxRefAmp": 250.826,
  "WipMemBlock": "2f15f057-e962-4d8b-846d-eeb5f6c5273b||Sequence: R016 ve11c/master r/e634e98; Dec 19 2017 11:00:25 by eja",
  "dcmmeta_affine": [
    [-2.6779332160949707, -0.1314411610364914, 0.09805664420127869, 115.45708465576172],
    [-0.13600872457027435, 2.6764397621154785, -0.1283607929944992, -81.21988677978516],
    [0.09095215052366257, 0.13225118815898895, 2.6951637268066406, -81.46595001220703],
    [0.0, 0.0, 0.0, 1.0]
],
  "dcmmeta_reorient_transform": [
    [0.0, -1.0, 0.0, 81.0],
    [1.0, 0.0, 0.0, 0.0],
    [0.0, 0.0, 1.0, 0.0],
    [0.0, 0.0, 0.0, 1.0]
],
  "dcmmeta_shape": [82, 82, 56, 872],
  "dcmmeta_slice_dim": 2,
  "dcmmeta_version": 0.6,
  "global": {
    "const": {
      "AccessionNumber": "A003613",
      "AcquisitionMatrix": [82, 0, 0, 82],
      "AngioFlag": "N",
      "BitsAllocated": 16,
      "BitsStored": 16,
      "BodyPartExamined": "BRAIN",
      "Columns": 656,
      "EchoNumbers": 1,
      "EchoTime": 27.2,
      "EchoTrainLength": 82,
      "FlipAngle": 44.0,
      "HighBit": 15,
      "ImageOrientationPatient": [0.99813870208995, 0.05069416027056, 0.03390034667462, -0.0489917017817, 0.99758205281129, -0.0492936209396],
      "ImagePositionPatient": [-835.65356247024, -942.74443632275, -58.900779590919],
      "ImageType": [
        "ORIGINAL",
        "PRIMARY",
        "M",
        "MB",
        "ND",
        "NORM",
        "MOSAIC"
],
      "ImagedNucleus": "1H",
      "ImagingFrequency": 123.252179,
      "InPlanePhaseEncodingDirection": "COL",
      "MRAcquisitionType": "2D",
      "MagneticFieldStrength": 3.0,
      "Manufacturer": "SIEMENS",
      "ManufacturerModelName": "Prisma",
      "Modality": "MR",
      "NumberOfAverages": 1.0,
      "NumberOfPhaseEncodingSteps": 82,
      "PercentPhaseFieldOfView": 100.0,
      "PercentSampling": 100.0,
      "PerformedProcedureStepStartTime": "152340.825000",
      "PhotometricInterpretation": "MONOCHROME2",
      "PixelBandwidth": 3050.0,
      "PixelRepresentation": 0,
      "PixelSpacing": [2.6829268932343, 2.6829268932343],
      "ProtocolName": "func_run-06_task-social_acq-ap-mb8",
      "RepetitionTime": 460.0,
      "Rows": 656,
      "SAR": 0.09374888190525,
      "SamplesPerPixel": 1,
      "ScanOptions": "FS",
      "ScanningSequence": "EP",
      "SequenceName": "epfid2d1_82",
      "SequenceVariant": [
        "SK",
        "SS"
],
      "SeriesDescription": "func_run-06_task-social_acq-ap-mb8",
      "SeriesNumber": 22,
      "SeriesTime": "163406.309000",
      "SliceLocation": -73.26566457193,
      "SliceThickness": 2.7000000476837,
      "SmallestImagePixelValue": 0,
      "SoftwareVersions": "syngo MR E11",
      "SpacingBetweenSlices": 2.6999999054695,
      "SpecificCharacterSet": "ISO_IR 100",
      "StudyID": "1",
      "StudyTime": "152340.760000",
      "TransmitCoilName": "Body",
      "VariableFlipAngleFlag": "N",
      "WindowCenterWidthExplanation": "Algo1",
      "dBdt": 0.0},
    "slices": {}
  },
  "time": {
    "samples": {
      "AcquisitionNumber": [1, 2, 3, 4, 5, 6, 7, 8, 9, 10, 11, 12, 13, 14, 15, 16, 17, 18, 19, 20, 21, 22, 23, 24, 25, 26, 27, 28, 29, 30, 31, 32, 33, 34, 35, 36, 37, 38, 39, 40, 41, 42, 43, 44, 45, 46, 47, 48, 49, 50, 51, 52, 53, 54, 55, 56, 57, 58, 59, 60, 61, 62, 63, 64, 65, 66, 67, 68, 69, 70, 71, 72, 73, 74, 75, 76, 77, 78, 79, 80, 81, 82, 83, 84, 85, 86, 87, 88, 89, 90, 91, 92, 93, 94, 95, 96, 97, 98, 99, 100, 101, 102, 103, 104, 105, 106, 107, 108, 109, 110, 111, 112, 113, 114, 115, 116, 117, 118, 119, 120, 121, 122, 123, 124, 125, 126, 127, 128, 129, 130, 131, 132, 133, 134, 135, 136, 137, 138, 139, 140, 141, 142, 143, 144, 145, 146, 147, 148, 149, 150, 151, 152, 153, 154, 155, 156, 157, 158, 159, 160, 161, 162, 163, 164, 165, 166, 167, 168, 169, 170, 171, 172, 173, 174, 175, 176, 177, 178, 179, 180, 181, 182, 183, 184, 185, 186, 187, 188, 189, 190, 191, 192, 193, 194, 195, 196, 197, 198, 199, 200, 201, 202, 203, 204, 205, 206, 207, 208, 209, 210, 211, 212, 213, 214, 215, 216, 217, 218, 219, 220, 221, 222, 223, 224, 225, 226, 227, 228, 229, 230, 231, 232, 233, 234, 235, 236, 237, 238, 239, 240, 241, 242, 243, 244, 245, 246, 247, 248, 249, 250, 251, 252, 253, 254, 255, 256, 257, 258, 259, 260, 261, 262, 263, 264, 265, 266, 267, 268, 269, 270, 271, 272, 273, 274, 275, 276, 277, 278, 279, 280, 281, 282, 283, 284, 285, 286, 287, 288, 289, 290, 291, 292, 293, 294, 295, 296, 297, 298, 299, 300, 301, 302, 303, 304, 305, 306, 307, 308, 309, 310, 311, 312, 313, 314, 315, 316, 317, 318, 319, 320, 321, 322, 323, 324, 325, 326, 327, 328, 329, 330, 331, 332, 333, 334, 335, 336, 337, 338, 339, 340, 341, 342, 343, 344, 345, 346, 347, 348, 349, 350, 351, 352, 353, 354, 355, 356, 357, 358, 359, 360, 361, 362, 363, 364, 365, 366, 367, 368, 369, 370, 371, 372, 373, 374, 375, 376, 377, 378, 379, 380, 381, 382, 383, 384, 385, 386, 387, 388, 389, 390, 391, 392, 393, 394, 395, 396, 397, 398, 399, 400, 401, 402, 403, 404, 405, 406, 407, 408, 409, 410, 411, 412, 413, 414, 415, 416, 417, 418, 419, 420, 421, 422, 423, 424, 425, 426, 427, 428, 429, 430, 431, 432, 433, 434, 435, 436, 437, 438, 439, 440, 441, 442, 443, 444, 445, 446, 447, 448, 449, 450, 451, 452, 453, 454, 455, 456, 457, 458, 459, 460, 461, 462, 463, 464, 465, 466, 467, 468, 469, 470, 471, 472, 473, 474, 475, 476, 477, 478, 479, 480, 481, 482, 483, 484, 485, 486, 487, 488, 489, 490, 491, 492, 493, 494, 495, 496, 497, 498, 499, 500, 501, 502, 503, 504, 505, 506, 507, 508, 509, 510, 511, 512, 513, 514, 515, 516, 517, 518, 519, 520, 521, 522, 523, 524, 525, 526, 527, 528, 529, 530, 531, 532, 533, 534, 535, 536, 537, 538, 539, 540, 541, 542, 543, 544, 545, 546, 547, 548, 549, 550, 551, 552, 553, 554, 555, 556, 557, 558, 559, 560, 561, 562, 563, 564, 565, 566, 567, 568, 569, 570, 571, 572, 573, 574, 575, 576, 577, 578, 579, 580, 581, 582, 583, 584, 585, 586, 587, 588, 589, 590, 591, 592, 593, 594, 595, 596, 597, 598, 599, 600, 601, 602, 603, 604, 605, 606, 607, 608, 609, 610, 611, 612, 613, 614, 615, 616, 617, 618, 619, 620, 621, 622, 623, 624, 625, 626, 627, 628, 629, 630, 631, 632, 633, 634, 635, 636, 637, 638, 639, 640, 641, 642, 643, 644, 645, 646, 647, 648, 649, 650, 651, 652, 653, 654, 655, 656, 657, 658, 659, 660, 661, 662, 663, 664, 665, 666, 667, 668, 669, 670, 671, 672, 673, 674, 675, 676, 677, 678, 679, 680, 681, 682, 683, 684, 685, 686, 687, 688, 689, 690, 691, 692, 693, 694, 695, 696, 697, 698, 699, 700, 701, 702, 703, 704, 705, 706, 707, 708, 709, 710, 711, 712, 713, 714, 715, 716, 717, 718, 719, 720, 721, 722, 723, 724, 725, 726, 727, 728, 729, 730, 731, 732, 733, 734, 735, 736, 737, 738, 739, 740, 741, 742, 743, 744, 745, 746, 747, 748, 749, 750, 751, 752, 753, 754, 755, 756, 757, 758, 759, 760, 761, 762, 763, 764, 765, 766, 767, 768, 769, 770, 771, 772, 773, 774, 775, 776, 777, 778, 779, 780, 781, 782, 783, 784, 785, 786, 787, 788, 789, 790, 791, 792, 793, 794, 795, 796, 797, 798, 799, 800, 801, 802, 803, 804, 805, 806, 807, 808, 809, 810, 811, 812, 813, 814, 815, 816, 817, 818, 819, 820, 821, 822, 823, 824, 825, 826, 827, 828, 829, 830, 831, 832, 833, 834, 835, 836, 837, 838, 839, 840, 841, 842, 843, 844, 845, 846, 847, 848, 849, 850, 851, 852, 853, 854, 855, 856, 857, 858, 859, 860, 861, 862, 863, 864, 865, 866, 867, 868, 869, 870, 871, 872],
      "AcquisitionTime": ["163354.432500", "163354.892500", "163355.352500", "163355.812500", "163356.272500", "163356.732500", "163357.192500", "163357.652500", "163358.112500", "163358.572500", "163359.032500", "163359.492500", "163359.952500", "163400.412500", "163400.872500", "163401.332500", "163401.792500", "163402.252500", "163402.712500", "163403.172500", "163403.632500", "163404.092500", "163404.552500", "163405.012500", "163405.472500", "163405.932500", "163406.392500", "163406.852500", "163407.312500", "163407.772500", "163408.232500", "163408.692500", "163409.152500", "163409.612500", "163410.072500", "163410.532500", "163410.992500", "163411.452500", "163411.912500", "163412.372500", "163412.832500", "163413.292500", "163413.752500", "163414.212500", "163414.672500", "163415.132500", "163415.592500", "163416.052500", "163416.512500", "163416.972500", "163417.432500", "163417.892500", "163418.352500", "163418.812500", "163419.272500", "163419.732500", "163420.192500", "163420.652500", "163421.112500", "163421.572500", "163422.032500", "163422.492500", "163422.952500", "163423.412500", "163423.872500", "163424.332500", "163424.792500", "163425.252500", "163425.712500", "163426.172500", "163426.632500", "163427.092500", "163427.552500", "163428.012500", "163428.472500", "163428.932500", "163429.392500", "163429.852500", "163430.312500", "163430.772500", "163431.232500", "163431.692500", "163432.152500", "163432.612500", "163433.072500", "163433.532500", "163433.992500", "163434.452500", "163434.912500", "163435.372500", "163435.832500", "163436.292500", "163436.752500", "163437.212500", "163437.672500", "163438.132500", "163438.592500", "163439.052500", "163439.512500", "163439.972500", "163440.432500", "163440.892500", "163441.352500", "163441.812500", "163442.272500", "163442.732500", "163443.192500", "163443.652500", "163444.112500", "163444.572500", "163445.032500", "163445.492500", "163445.952500", "163446.412500", "163446.872500", "163447.332500", "163447.792500", "163448.252500", "163448.712500", "163449.172500", "163449.632500", "163450.092500", "163450.552500", "163451.012500", "163451.472500", "163451.932500", "163452.392500", "163452.852500", "163453.312500", "163453.772500", "163454.232500", "163454.692500", "163455.152500", "163455.612500", "163456.072500", "163456.532500", "163456.992500", "163457.452500", "163457.912500", "163458.372500", "163458.832500", "163459.292500", "163459.752500", "163500.212500", "163500.672500", "163501.132500", "163501.592500", "163502.052500", "163502.512500", "163502.972500", "163503.432500", "163503.892500", "163504.352500", "163504.812500", "163505.272500", "163505.732500", "163506.192500", "163506.652500", "163507.112500", "163507.572500", "163508.032500", "163508.492500", "163508.952500", "163509.412500", "163509.872500", "163510.332500", "163510.792500", "163511.252500", "163511.712500", "163512.172500", "163512.632500", "163513.092500", "163513.552500", "163514.012500", "163514.472500", "163514.932500", "163515.392500", "163515.852500", "163516.312500", "163516.772500", "163517.232500", "163517.692500", "163518.152500", "163518.612500", "163519.072500", "163519.532500", "163519.992500", "163520.452500", "163520.912500", "163521.372500", "163521.832500", "163522.292500", "163522.752500", "163523.212500", "163523.672500", "163524.132500", "163524.592500", "163525.052500", "163525.512500", "163525.972500", "163526.432500", "163526.892500", "163527.352500", "163527.812500", "163528.272500", "163528.732500", "163529.192500", "163529.652500", "163530.112500", "163530.572500", "163531.032500", "163531.492500", "163531.952500", "163532.412500", "163532.872500", "163533.332500", "163533.792500", "163534.252500", "163534.712500", "163535.172500", "163535.632500", "163536.092500", "163536.552500", "163537.012500", "163537.472500", "163537.932500", "163538.392500", "163538.852500", "163539.312500", "163539.772500", "163540.232500", "163540.692500", "163541.152500", "163541.612500", "163542.072500", "163542.532500", "163542.992500", "163543.452500", "163543.912500", "163544.372500", "163544.832500", "163545.292500", "163545.752500", "163546.212500", "163546.672500", "163547.132500", "163547.592500", "163548.052500", "163548.512500", "163548.972500", "163549.432500", "163549.892500", "163550.352500", "163550.812500", "163551.272500", "163551.732500", "163552.192500", "163552.652500", "163553.112500", "163553.572500", "163554.032500", "163554.492500", "163554.952500", "163555.412500", "163555.872500", "163556.332500", "163556.792500", "163557.252500", "163557.712500", "163558.172500", "163558.632500", "163559.092500", "163559.552500", "163600.012500", "163600.472500", "163600.932500", "163601.392500", "163601.852500", "163602.312500", "163602.772500", "163603.232500", "163603.692500", "163604.152500", "163604.612500", "163605.072500", "163605.532500", "163605.992500", "163606.452500", "163606.912500", "163607.372500", "163607.832500", "163608.292500", "163608.752500", "163609.212500", "163609.672500", "163610.132500", "163610.592500", "163611.052500", "163611.512500", "163611.972500", "163612.432500", "163612.892500", "163613.352500", "163613.812500", "163614.272500", "163614.732500", "163615.192500", "163615.652500", "163616.112500", "163616.572500", "163617.032500", "163617.492500", "163617.952500", "163618.412500", "163618.872500", "163619.332500", "163619.792500", "163620.252500", "163620.712500", "163621.172500", "163621.632500", "163622.092500", "163622.552500", "163623.012500", "163623.472500", "163623.932500", "163624.392500", "163624.852500", "163625.312500", "163625.772500", "163626.232500", "163626.692500", "163627.152500", "163627.612500", "163628.072500", "163628.532500", "163628.992500", "163629.452500", "163629.912500", "163630.372500", "163630.832500", "163631.292500", "163631.752500", "163632.212500", "163632.672500", "163633.132500", "163633.592500", "163634.052500", "163634.512500", "163634.972500", "163635.432500", "163635.892500", "163636.352500", "163636.812500", "163637.272500", "163637.732500", "163638.192500", "163638.652500", "163639.112500", "163639.572500", "163640.032500", "163640.492500", "163640.952500", "163641.412500", "163641.872500", "163642.332500", "163642.792500", "163643.252500", "163643.712500", "163644.172500", "163644.632500", "163645.092500", "163645.552500", "163646.012500", "163646.472500", "163646.932500", "163647.392500", "163647.852500", "163648.312500", "163648.772500", "163649.232500", "163649.692500", "163650.152500", "163650.612500", "163651.072500", "163651.532500", "163651.992500", "163652.452500", "163652.912500", "163653.372500", "163653.832500", "163654.292500", "163654.752500", "163655.212500", "163655.672500", "163656.132500", "163656.592500", "163657.052500", "163657.512500", "163657.972500", "163658.432500", "163658.892500", "163659.352500", "163659.812500", "163700.272500", "163700.732500", "163701.192500", "163701.652500", "163702.112500", "163702.572500", "163703.032500", "163703.492500", "163703.952500", "163704.412500", "163704.872500", "163705.332500", "163705.792500", "163706.252500", "163706.712500", "163707.172500", "163707.632500", "163708.092500", "163708.552500", "163709.012500", "163709.472500", "163709.932500", "163710.392500", "163710.852500", "163711.312500", "163711.772500", "163712.232500", "163712.692500", "163713.152500", "163713.612500", "163714.072500", "163714.532500", "163714.992500", "163715.452500", "163715.912500", "163716.372500", "163716.832500", "163717.292500", "163717.752500", "163718.212500", "163718.672500", "163719.132500", "163719.592500", "163720.052500", "163720.512500", "163720.972500", "163721.432500", "163721.892500", "163722.352500", "163722.812500", "163723.272500", "163723.732500", "163724.192500", "163724.652500", "163725.112500", "163725.572500", "163726.032500", "163726.492500", "163726.952500", "163727.412500", "163727.872500", "163728.332500", "163728.792500", "163729.252500", "163729.712500", "163730.172500", "163730.632500", "163731.092500", "163731.552500", "163732.012500", "163732.472500", "163732.932500", "163733.392500", "163733.852500", "163734.312500", "163734.772500", "163735.232500", "163735.692500", "163736.152500", "163736.612500", "163737.072500", "163737.532500", "163737.992500", "163738.452500", "163738.912500", "163739.372500", "163739.832500", "163740.292500", "163740.752500", "163741.212500", "163741.672500", "163742.132500", "163742.592500", "163743.052500", "163743.512500", "163743.972500", "163744.432500", "163744.892500", "163745.352500", "163745.812500", "163746.272500", "163746.732500", "163747.192500", "163747.652500", "163748.112500", "163748.572500", "163749.032500", "163749.492500", "163749.952500", "163750.412500", "163750.872500", "163751.332500", "163751.792500", "163752.252500", "163752.712500", "163753.172500", "163753.632500", "163754.092500", "163754.552500", "163755.012500", "163755.472500", "163755.932500", "163756.392500", "163756.852500", "163757.312500", "163757.772500", "163758.232500", "163758.692500", "163759.152500", "163759.612500", "163800.072500", "163800.532500", "163800.992500", "163801.452500", "163801.912500", "163802.372500", "163802.832500", "163803.292500", "163803.752500", "163804.212500", "163804.672500", "163805.132500", "163805.592500", "163806.052500", "163806.512500", "163806.972500", "163807.432500", "163807.892500", "163808.352500", "163808.812500", "163809.272500", "163809.732500", "163810.192500", "163810.652500", "163811.112500", "163811.572500", "163812.032500", "163812.492500", "163812.952500", "163813.412500", "163813.872500", "163814.332500", "163814.792500", "163815.252500", "163815.712500", "163816.172500", "163816.632500", "163817.092500", "163817.552500", "163818.012500", "163818.472500", "163818.932500", "163819.392500", "163819.852500", "163820.312500", "163820.772500", "163821.232500", "163821.692500", "163822.152500", "163822.612500", "163823.072500", "163823.532500", "163823.992500", "163824.452500", "163824.912500", "163825.372500", "163825.832500", "163826.292500", "163826.752500", "163827.212500", "163827.672500", "163828.132500", "163828.592500", "163829.052500", "163829.512500", "163829.972500", "163830.432500", "163830.892500", "163831.352500", "163831.812500", "163832.272500", "163832.732500", "163833.192500", "163833.652500", "163834.112500", "163834.572500", "163835.032500", "163835.492500", "163835.952500", "163836.412500", "163836.872500", "163837.332500", "163837.792500", "163838.252500", "163838.712500", "163839.172500", "163839.632500", "163840.092500", "163840.552500", "163841.012500", "163841.472500", "163841.932500", "163842.392500", "163842.852500", "163843.312500", "163843.772500", "163844.232500", "163844.692500", "163845.152500", "163845.612500", "163846.072500", "163846.532500", "163846.992500", "163847.452500", "163847.912500", "163848.372500", "163848.832500", "163849.292500", "163849.752500", "163850.212500", "163850.672500", "163851.132500", "163851.592500", "163852.052500", "163852.512500", "163852.972500", "163853.432500", "163853.892500", "163854.352500", "163854.812500", "163855.272500", "163855.732500", "163856.192500", "163856.652500", "163857.112500", "163857.572500", "163858.032500", "163858.492500", "163858.952500", "163859.412500", "163859.872500", "163900.332500", "163900.792500", "163901.252500", "163901.712500", "163902.172500", "163902.632500", "163903.092500", "163903.552500", "163904.012500", "163904.472500", "163904.932500", "163905.392500", "163905.852500", "163906.312500", "163906.772500", "163907.232500", "163907.692500", "163908.152500", "163908.612500", "163909.072500", "163909.532500", "163909.992500", "163910.452500", "163910.912500", "163911.372500", "163911.832500", "163912.292500", "163912.752500", "163913.212500", "163913.672500", "163914.132500", "163914.592500", "163915.052500", "163915.512500", "163915.972500", "163916.432500", "163916.892500", "163917.352500", "163917.812500", "163918.272500", "163918.732500", "163919.192500", "163919.652500", "163920.112500", "163920.572500", "163921.032500", "163921.492500", "163921.952500", "163922.412500", "163922.872500", "163923.332500", "163923.792500", "163924.252500", "163924.712500", "163925.172500", "163925.632500", "163926.092500", "163926.552500", "163927.012500", "163927.472500", "163927.932500", "163928.392500", "163928.852500", "163929.312500", "163929.772500", "163930.232500", "163930.692500", "163931.152500", "163931.612500", "163932.072500", "163932.532500", "163932.992500", "163933.452500", "163933.912500", "163934.372500", "163934.832500", "163935.292500", "163935.752500", "163936.212500", "163936.672500", "163937.132500", "163937.592500", "163938.052500", "163938.512500", "163938.972500", "163939.432500", "163939.892500", "163940.352500", "163940.812500", "163941.272500", "163941.732500", "163942.192500", "163942.652500", "163943.112500", "163943.572500", "163944.032500", "163944.492500", "163944.952500", "163945.412500", "163945.872500", "163946.332500", "163946.792500", "163947.252500", "163947.712500", "163948.172500", "163948.632500", "163949.092500", "163949.552500", "163950.012500", "163950.472500", "163950.932500", "163951.392500", "163951.852500", "163952.312500", "163952.772500", "163953.232500", "163953.692500", "163954.152500", "163954.612500", "163955.072500", "163955.532500", "163955.992500", "163956.452500", "163956.912500", "163957.372500", "163957.832500", "163958.292500", "163958.752500", "163959.212500", "163959.672500", "164000.132500", "164000.592500", "164001.052500", "164001.512500", "164001.972500", "164002.432500", "164002.892500", "164003.352500", "164003.812500", "164004.272500", "164004.732500", "164005.192500", "164005.652500", "164006.112500", "164006.572500", "164007.032500", "164007.492500", "164007.952500", "164008.412500", "164008.872500", "164009.332500", "164009.792500", "164010.252500", "164010.712500", "164011.172500", "164011.632500", "164012.092500", "164012.552500", "164013.012500", "164013.472500", "164013.932500", "164014.392500", "164014.852500", "164015.312500", "164015.772500", "164016.232500", "164016.692500", "164017.152500", "164017.612500", "164018.072500", "164018.532500", "164018.992500", "164019.452500", "164019.912500", "164020.372500", "164020.832500", "164021.292500", "164021.752500", "164022.212500", "164022.672500", "164023.132500", "164023.592500", "164024.052500", "164024.512500", "164024.972500", "164025.432500", "164025.892500", "164026.352500", "164026.812500", "164027.272500", "164027.732500", "164028.192500", "164028.652500", "164029.112500", "164029.572500", "164030.032500", "164030.492500", "164030.952500", "164031.412500", "164031.872500", "164032.332500", "164032.792500", "164033.252500", "164033.712500", "164034.172500", "164034.632500", "164035.092500"],
