{
  "AcquisitionMatrixPE": 82,
  "AcquisitionNumber": 1,
  "AcquisitionTime": "16:10:27.845000",
  "BandwidthPerPixelPhaseEncode": 24.888,
  "BaseResolution": 82,
  "BodyPartExamined": "BRAIN",
  "ConsistencyInfo": "N4_VE11C_LATEST_20160120",
  "ConversionSoftware": "dcm2niix",
  "ConversionSoftwareVersion": "v1.0.20201102",
  "DerivedVendorReportedEchoSpacing": 0.00049,
  "DeviceSerialNumber": "66112",
  "DwellTime": 2e-06,
  "EchoTime": 0.0272,
  "EchoTrainLength": 82,
  "EffectiveEchoSpacing": 0.00049,
  "FlipAngle": 44,
  "ImageComments": "Unaliased MB8/PE3",
  "ImageOrientationPatientDICOM": [0.998139, 0.0506942, 0.0339003, -0.0489917, 0.997582, -0.0492936],
  "ImageType": [
    "ORIGINAL",
    "PRIMARY",
    "M",
    "MB",
    "ND",
    "NORM",
    "MOSAIC"
],
  "ImagingFrequency": 123.252,
  "InPlanePhaseEncodingDirectionDICOM": "COL",
  "InstitutionAddress": "Maynard 3,Hanover,NH,US,03755",
  "InstitutionName": "Dartmouth College - PBS",
  "InstitutionalDepartmentName": "Department",
  "MRAcquisitionType": "2D",
  "MagneticFieldStrength": 3,
  "Manufacturer": "Siemens",
  "ManufacturersModelName": "Prisma",
  "Modality": "MR",
  "MultibandAccelerationFactor": 8,
  "PartialFourier": 1,
  "PatientPosition": "HFS",
  "PercentPhaseFOV": 100,
  "PercentSampling": 100,
  "PhaseEncodingDirection": "j-",
  "PhaseEncodingSteps": 82,
  "PhaseResolution": 1,
  "PixelBandwidth": 3050,
  "ProcedureStepDescription": "Wager_Wager^1076_spacetop",
  "ProtocolName": "func_run-03_task-social_acq-ap-mb8",
  "PulseSequenceDetails": "%CustomerSeq%\\cmrr_mbep2d_bold",
  "ReceiveCoilActiveElements": "HEA;HEP",
  "ReceiveCoilName": "Head_32",
  "ReconMatrixPE": 82,
  "RepetitionTime": 0.46,
  "SAR": 0.0937489,
  "ScanOptions": "FS",
  "ScanningSequence": "EP",
  "SequenceName": "epfid2d1_82",
  "SequenceVariant": "SK\\SS",
  "SeriesDescription": "func_run-03_task-social_acq-ap-mb8",
  "SeriesNumber": 16,
  "ShimSetting": [4151, -7758, -7264, 525, -85, -68, 56, 47],
  "SliceThickness": 2.7,
  "SliceTiming": [0, 0.25, 0.0625, 0.315, 0.125, 0.3775, 0.1875, 0, 0.25, 0.0625, 0.315, 0.125, 0.3775, 0.1875, 0, 0.25, 0.0625, 0.315, 0.125, 0.3775, 0.1875, 0, 0.25, 0.0625, 0.315, 0.125, 0.3775, 0.1875, 0, 0.25, 0.0625, 0.315, 0.125, 0.3775, 0.1875, 0, 0.25, 0.0625, 0.315, 0.125, 0.3775, 0.1875, 0, 0.25, 0.0625, 0.315, 0.125, 0.3775, 0.1875, 0, 0.25, 0.0625, 0.315, 0.125, 0.3775, 0.1875],
  "SoftwareVersions": "syngo MR E11",
  "SpacingBetweenSlices": 2.7,
  "StationName": "AWP66112",
  "TaskName": "social",
  "TotalReadoutTime": 0.03969,
  "TxRefAmp": 250.826,
  "WipMemBlock": "c44b2126-ab8b-4279-afcd-caa1392b3ce6||Sequence: R016 ve11c/master r/e634e98; Dec 19 2017 11:00:25 by eja",
  "dcmmeta_affine": [
    [-2.6779332160949707, -0.1314411610364914, 0.09805664420127869, 115.45708465576172],
    [-0.13600872457027435, 2.6764397621154785, -0.1283607929944992, -81.21988677978516],
    [0.09095215052366257, 0.13225118815898895, 2.6951637268066406, -81.46595001220703],
    [0.0, 0.0, 0.0, 1.0]
],
  "dcmmeta_reorient_transform": [
    [0.0, -1.0, 0.0, 81.0],
    [1.0, 0.0, 0.0, 0.0],
    [0.0, 0.0, 1.0, 0.0],
    [0.0, 0.0, 0.0, 1.0]
],
  "dcmmeta_shape": [82, 82, 56, 872],
  "dcmmeta_slice_dim": 2,
  "dcmmeta_version": 0.6,
  "global": {
    "const": {
      "AccessionNumber": "A003613",
      "AcquisitionMatrix": [82, 0, 0, 82],
      "AngioFlag": "N",
      "BitsAllocated": 16,
      "BitsStored": 16,
      "BodyPartExamined": "BRAIN",
      "Columns": 656,
      "EchoNumbers": 1,
      "EchoTime": 27.2,
      "EchoTrainLength": 82,
      "FlipAngle": 44.0,
      "HighBit": 15,
      "ImageOrientationPatient": [0.99813870208995, 0.05069416027056, 0.03390034667462, -0.0489917017817, 0.99758205281129, -0.0492936209396],
      "ImagePositionPatient": [-835.65356247024, -942.74443632275, -58.900779590919],
      "ImageType": [
        "ORIGINAL",
        "PRIMARY",
        "M",
        "MB",
        "ND",
        "NORM",
        "MOSAIC"
],
      "ImagedNucleus": "1H",
      "ImagingFrequency": 123.252177,
      "InPlanePhaseEncodingDirection": "COL",
      "MRAcquisitionType": "2D",
      "MagneticFieldStrength": 3.0,
      "Manufacturer": "SIEMENS",
      "ManufacturerModelName": "Prisma",
      "Modality": "MR",
      "NumberOfAverages": 1.0,
      "NumberOfPhaseEncodingSteps": 82,
      "PercentPhaseFieldOfView": 100.0,
      "PercentSampling": 100.0,
      "PerformedProcedureStepStartTime": "152340.825000",
      "PhotometricInterpretation": "MONOCHROME2",
      "PixelBandwidth": 3050.0,
      "PixelRepresentation": 0,
      "PixelSpacing": [2.6829268932343, 2.6829268932343],
      "ProtocolName": "func_run-03_task-social_acq-ap-mb8",
      "RepetitionTime": 460.0,
      "Rows": 656,
      "SAR": 0.09374888190525,
      "SamplesPerPixel": 1,
      "ScanOptions": "FS",
      "ScanningSequence": "EP",
      "SequenceName": "epfid2d1_82",
      "SequenceVariant": [
        "SK",
        "SS"
],
      "SeriesDescription": "func_run-03_task-social_acq-ap-mb8",
      "SeriesNumber": 16,
      "SeriesTime": "161046.313000",
      "SliceLocation": -73.26566457193,
      "SliceThickness": 2.7000000476837,
      "SmallestImagePixelValue": 0,
      "SoftwareVersions": "syngo MR E11",
      "SpacingBetweenSlices": 2.6999999054695,
      "SpecificCharacterSet": "ISO_IR 100",
      "StudyID": "1",
      "StudyTime": "152340.760000",
      "TransmitCoilName": "Body",
      "VariableFlipAngleFlag": "N",
      "WindowCenterWidthExplanation": "Algo1",
      "dBdt": 0.0},
    "slices": {}
  },
  "time": {
    "samples": {
      "AcquisitionNumber": [1, 2, 3, 4, 5, 6, 7, 8, 9, 10, 11, 12, 13, 14, 15, 16, 17, 18, 19, 20, 21, 22, 23, 24, 25, 26, 27, 28, 29, 30, 31, 32, 33, 34, 35, 36, 37, 38, 39, 40, 41, 42, 43, 44, 45, 46, 47, 48, 49, 50, 51, 52, 53, 54, 55, 56, 57, 58, 59, 60, 61, 62, 63, 64, 65, 66, 67, 68, 69, 70, 71, 72, 73, 74, 75, 76, 77, 78, 79, 80, 81, 82, 83, 84, 85, 86, 87, 88, 89, 90, 91, 92, 93, 94, 95, 96, 97, 98, 99, 100, 101, 102, 103, 104, 105, 106, 107, 108, 109, 110, 111, 112, 113, 114, 115, 116, 117, 118, 119, 120, 121, 122, 123, 124, 125, 126, 127, 128, 129, 130, 131, 132, 133, 134, 135, 136, 137, 138, 139, 140, 141, 142, 143, 144, 145, 146, 147, 148, 149, 150, 151, 152, 153, 154, 155, 156, 157, 158, 159, 160, 161, 162, 163, 164, 165, 166, 167, 168, 169, 170, 171, 172, 173, 174, 175, 176, 177, 178, 179, 180, 181, 182, 183, 184, 185, 186, 187, 188, 189, 190, 191, 192, 193, 194, 195, 196, 197, 198, 199, 200, 201, 202, 203, 204, 205, 206, 207, 208, 209, 210, 211, 212, 213, 214, 215, 216, 217, 218, 219, 220, 221, 222, 223, 224, 225, 226, 227, 228, 229, 230, 231, 232, 233, 234, 235, 236, 237, 238, 239, 240, 241, 242, 243, 244, 245, 246, 247, 248, 249, 250, 251, 252, 253, 254, 255, 256, 257, 258, 259, 260, 261, 262, 263, 264, 265, 266, 267, 268, 269, 270, 271, 272, 273, 274, 275, 276, 277, 278, 279, 280, 281, 282, 283, 284, 285, 286, 287, 288, 289, 290, 291, 292, 293, 294, 295, 296, 297, 298, 299, 300, 301, 302, 303, 304, 305, 306, 307, 308, 309, 310, 311, 312, 313, 314, 315, 316, 317, 318, 319, 320, 321, 322, 323, 324, 325, 326, 327, 328, 329, 330, 331, 332, 333, 334, 335, 336, 337, 338, 339, 340, 341, 342, 343, 344, 345, 346, 347, 348, 349, 350, 351, 352, 353, 354, 355, 356, 357, 358, 359, 360, 361, 362, 363, 364, 365, 366, 367, 368, 369, 370, 371, 372, 373, 374, 375, 376, 377, 378, 379, 380, 381, 382, 383, 384, 385, 386, 387, 388, 389, 390, 391, 392, 393, 394, 395, 396, 397, 398, 399, 400, 401, 402, 403, 404, 405, 406, 407, 408, 409, 410, 411, 412, 413, 414, 415, 416, 417, 418, 419, 420, 421, 422, 423, 424, 425, 426, 427, 428, 429, 430, 431, 432, 433, 434, 435, 436, 437, 438, 439, 440, 441, 442, 443, 444, 445, 446, 447, 448, 449, 450, 451, 452, 453, 454, 455, 456, 457, 458, 459, 460, 461, 462, 463, 464, 465, 466, 467, 468, 469, 470, 471, 472, 473, 474, 475, 476, 477, 478, 479, 480, 481, 482, 483, 484, 485, 486, 487, 488, 489, 490, 491, 492, 493, 494, 495, 496, 497, 498, 499, 500, 501, 502, 503, 504, 505, 506, 507, 508, 509, 510, 511, 512, 513, 514, 515, 516, 517, 518, 519, 520, 521, 522, 523, 524, 525, 526, 527, 528, 529, 530, 531, 532, 533, 534, 535, 536, 537, 538, 539, 540, 541, 542, 543, 544, 545, 546, 547, 548, 549, 550, 551, 552, 553, 554, 555, 556, 557, 558, 559, 560, 561, 562, 563, 564, 565, 566, 567, 568, 569, 570, 571, 572, 573, 574, 575, 576, 577, 578, 579, 580, 581, 582, 583, 584, 585, 586, 587, 588, 589, 590, 591, 592, 593, 594, 595, 596, 597, 598, 599, 600, 601, 602, 603, 604, 605, 606, 607, 608, 609, 610, 611, 612, 613, 614, 615, 616, 617, 618, 619, 620, 621, 622, 623, 624, 625, 626, 627, 628, 629, 630, 631, 632, 633, 634, 635, 636, 637, 638, 639, 640, 641, 642, 643, 644, 645, 646, 647, 648, 649, 650, 651, 652, 653, 654, 655, 656, 657, 658, 659, 660, 661, 662, 663, 664, 665, 666, 667, 668, 669, 670, 671, 672, 673, 674, 675, 676, 677, 678, 679, 680, 681, 682, 683, 684, 685, 686, 687, 688, 689, 690, 691, 692, 693, 694, 695, 696, 697, 698, 699, 700, 701, 702, 703, 704, 705, 706, 707, 708, 709, 710, 711, 712, 713, 714, 715, 716, 717, 718, 719, 720, 721, 722, 723, 724, 725, 726, 727, 728, 729, 730, 731, 732, 733, 734, 735, 736, 737, 738, 739, 740, 741, 742, 743, 744, 745, 746, 747, 748, 749, 750, 751, 752, 753, 754, 755, 756, 757, 758, 759, 760, 761, 762, 763, 764, 765, 766, 767, 768, 769, 770, 771, 772, 773, 774, 775, 776, 777, 778, 779, 780, 781, 782, 783, 784, 785, 786, 787, 788, 789, 790, 791, 792, 793, 794, 795, 796, 797, 798, 799, 800, 801, 802, 803, 804, 805, 806, 807, 808, 809, 810, 811, 812, 813, 814, 815, 816, 817, 818, 819, 820, 821, 822, 823, 824, 825, 826, 827, 828, 829, 830, 831, 832, 833, 834, 835, 836, 837, 838, 839, 840, 841, 842, 843, 844, 845, 846, 847, 848, 849, 850, 851, 852, 853, 854, 855, 856, 857, 858, 859, 860, 861, 862, 863, 864, 865, 866, 867, 868, 869, 870, 871, 872],
      "AcquisitionTime": ["161027.845000", "161028.305000", "161028.765000", "161029.225000", "161029.685000", "161030.145000", "161030.605000", "161031.065000", "161031.525000", "161031.985000", "161032.445000", "161032.905000", "161033.365000", "161033.825000", "161034.285000", "161034.745000", "161035.205000", "161035.665000", "161036.125000", "161036.585000", "161037.045000", "161037.505000", "161037.965000", "161038.425000", "161038.885000", "161039.345000", "161039.805000", "161040.265000", "161040.725000", "161041.185000", "161041.645000", "161042.105000", "161042.565000", "161043.025000", "161043.485000", "161043.945000", "161044.405000", "161044.865000", "161045.325000", "161045.785000", "161046.245000", "161046.705000", "161047.165000", "161047.625000", "161048.085000", "161048.545000", "161049.005000", "161049.465000", "161049.925000", "161050.385000", "161050.845000", "161051.305000", "161051.765000", "161052.225000", "161052.685000", "161053.145000", "161053.605000", "161054.065000", "161054.525000", "161054.985000", "161055.445000", "161055.905000", "161056.365000", "161056.825000", "161057.285000", "161057.745000", "161058.205000", "161058.665000", "161059.125000", "161059.585000", "161100.045000", "161100.505000", "161100.965000", "161101.425000", "161101.885000", "161102.345000", "161102.805000", "161103.265000", "161103.725000", "161104.185000", "161104.645000", "161105.105000", "161105.565000", "161106.025000", "161106.485000", "161106.945000", "161107.405000", "161107.865000", "161108.325000", "161108.785000", "161109.245000", "161109.705000", "161110.165000", "161110.625000", "161111.085000", "161111.545000", "161112.005000", "161112.465000", "161112.925000", "161113.385000", "161113.845000", "161114.305000", "161114.765000", "161115.225000", "161115.685000", "161116.145000", "161116.605000", "161117.065000", "161117.525000", "161117.985000", "161118.445000", "161118.905000", "161119.365000", "161119.825000", "161120.285000", "161120.745000", "161121.205000", "161121.665000", "161122.125000", "161122.585000", "161123.045000", "161123.505000", "161123.965000", "161124.425000", "161124.885000", "161125.345000", "161125.805000", "161126.265000", "161126.725000", "161127.185000", "161127.645000", "161128.105000", "161128.565000", "161129.025000", "161129.485000", "161129.945000", "161130.405000", "161130.865000", "161131.325000", "161131.785000", "161132.245000", "161132.705000", "161133.165000", "161133.625000", "161134.085000", "161134.545000", "161135.005000", "161135.465000", "161135.925000", "161136.385000", "161136.845000", "161137.305000", "161137.765000", "161138.225000", "161138.685000", "161139.145000", "161139.605000", "161140.065000", "161140.525000", "161140.985000", "161141.445000", "161141.905000", "161142.365000", "161142.825000", "161143.285000", "161143.745000", "161144.205000", "161144.665000", "161145.125000", "161145.585000", "161146.045000", "161146.505000", "161146.965000", "161147.425000", "161147.885000", "161148.345000", "161148.805000", "161149.265000", "161149.725000", "161150.185000", "161150.645000", "161151.105000", "161151.565000", "161152.025000", "161152.485000", "161152.945000", "161153.405000", "161153.865000", "161154.325000", "161154.785000", "161155.245000", "161155.705000", "161156.165000", "161156.625000", "161157.085000", "161157.545000", "161158.005000", "161158.465000", "161158.925000", "161159.385000", "161159.845000", "161200.305000", "161200.765000", "161201.225000", "161201.685000", "161202.145000", "161202.605000", "161203.065000", "161203.525000", "161203.985000", "161204.445000", "161204.905000", "161205.365000", "161205.825000", "161206.285000", "161206.745000", "161207.205000", "161207.665000", "161208.125000", "161208.585000", "161209.045000", "161209.505000", "161209.965000", "161210.425000", "161210.885000", "161211.345000", "161211.805000", "161212.265000", "161212.725000", "161213.185000", "161213.645000", "161214.105000", "161214.565000", "161215.025000", "161215.485000", "161215.945000", "161216.405000", "161216.865000", "161217.325000", "161217.785000", "161218.245000", "161218.705000", "161219.165000", "161219.625000", "161220.085000", "161220.545000", "161221.005000", "161221.465000", "161221.925000", "161222.385000", "161222.845000", "161223.305000", "161223.765000", "161224.225000", "161224.685000", "161225.145000", "161225.605000", "161226.065000", "161226.525000", "161226.985000", "161227.445000", "161227.905000", "161228.365000", "161228.825000", "161229.285000", "161229.745000", "161230.205000", "161230.665000", "161231.125000", "161231.585000", "161232.045000", "161232.505000", "161232.965000", "161233.425000", "161233.885000", "161234.345000", "161234.805000", "161235.265000", "161235.725000", "161236.185000", "161236.645000", "161237.105000", "161237.565000", "161238.025000", "161238.485000", "161238.945000", "161239.405000", "161239.865000", "161240.325000", "161240.785000", "161241.245000", "161241.705000", "161242.165000", "161242.625000", "161243.085000", "161243.545000", "161244.005000", "161244.465000", "161244.925000", "161245.385000", "161245.845000", "161246.305000", "161246.765000", "161247.225000", "161247.685000", "161248.145000", "161248.605000", "161249.065000", "161249.525000", "161249.985000", "161250.445000", "161250.905000", "161251.365000", "161251.825000", "161252.285000", "161252.745000", "161253.205000", "161253.665000", "161254.125000", "161254.585000", "161255.045000", "161255.505000", "161255.965000", "161256.425000", "161256.885000", "161257.345000", "161257.805000", "161258.265000", "161258.725000", "161259.185000", "161259.645000", "161300.105000", "161300.565000", "161301.025000", "161301.485000", "161301.945000", "161302.405000", "161302.865000", "161303.325000", "161303.785000", "161304.245000", "161304.705000", "161305.165000", "161305.625000", "161306.085000", "161306.545000", "161307.005000", "161307.465000", "161307.925000", "161308.385000", "161308.845000", "161309.305000", "161309.765000", "161310.225000", "161310.685000", "161311.145000", "161311.605000", "161312.065000", "161312.525000", "161312.985000", "161313.445000", "161313.905000", "161314.365000", "161314.825000", "161315.285000", "161315.745000", "161316.205000", "161316.665000", "161317.125000", "161317.585000", "161318.045000", "161318.505000", "161318.965000", "161319.425000", "161319.885000", "161320.345000", "161320.805000", "161321.265000", "161321.725000", "161322.185000", "161322.645000", "161323.105000", "161323.565000", "161324.025000", "161324.485000", "161324.945000", "161325.405000", "161325.865000", "161326.325000", "161326.785000", "161327.245000", "161327.705000", "161328.165000", "161328.625000", "161329.085000", "161329.545000", "161330.005000", "161330.465000", "161330.925000", "161331.385000", "161331.845000", "161332.305000", "161332.765000", "161333.225000", "161333.685000", "161334.145000", "161334.605000", "161335.065000", "161335.525000", "161335.985000", "161336.445000", "161336.905000", "161337.365000", "161337.825000", "161338.285000", "161338.745000", "161339.205000", "161339.665000", "161340.125000", "161340.585000", "161341.045000", "161341.505000", "161341.965000", "161342.425000", "161342.885000", "161343.345000", "161343.805000", "161344.265000", "161344.725000", "161345.185000", "161345.645000", "161346.105000", "161346.565000", "161347.025000", "161347.485000", "161347.945000", "161348.405000", "161348.865000", "161349.325000", "161349.785000", "161350.245000", "161350.705000", "161351.165000", "161351.625000", "161352.085000", "161352.545000", "161353.005000", "161353.465000", "161353.925000", "161354.385000", "161354.845000", "161355.305000", "161355.765000", "161356.225000", "161356.685000", "161357.145000", "161357.605000", "161358.065000", "161358.525000", "161358.985000", "161359.445000", "161359.905000", "161400.365000", "161400.825000", "161401.285000", "161401.745000", "161402.205000", "161402.665000", "161403.125000", "161403.585000", "161404.045000", "161404.505000", "161404.965000", "161405.425000", "161405.885000", "161406.345000", "161406.805000", "161407.265000", "161407.725000", "161408.185000", "161408.645000", "161409.105000", "161409.565000", "161410.025000", "161410.485000", "161410.945000", "161411.405000", "161411.865000", "161412.325000", "161412.785000", "161413.245000", "161413.705000", "161414.165000", "161414.625000", "161415.085000", "161415.545000", "161416.005000", "161416.465000", "161416.925000", "161417.385000", "161417.845000", "161418.305000", "161418.765000", "161419.225000", "161419.685000", "161420.145000", "161420.605000", "161421.065000", "161421.525000", "161421.985000", "161422.445000", "161422.905000", "161423.365000", "161423.825000", "161424.285000", "161424.745000", "161425.205000", "161425.665000", "161426.125000", "161426.585000", "161427.045000", "161427.505000", "161427.965000", "161428.425000", "161428.885000", "161429.345000", "161429.805000", "161430.265000", "161430.725000", "161431.185000", "161431.645000", "161432.105000", "161432.565000", "161433.025000", "161433.485000", "161433.945000", "161434.405000", "161434.865000", "161435.325000", "161435.785000", "161436.245000", "161436.705000", "161437.165000", "161437.625000", "161438.085000", "161438.545000", "161439.005000", "161439.465000", "161439.925000", "161440.385000", "161440.845000", "161441.305000", "161441.765000", "161442.225000", "161442.685000", "161443.145000", "161443.605000", "161444.065000", "161444.525000", "161444.985000", "161445.445000", "161445.905000", "161446.365000", "161446.825000", "161447.285000", "161447.745000", "161448.205000", "161448.665000", "161449.125000", "161449.585000", "161450.045000", "161450.505000", "161450.965000", "161451.425000", "161451.885000", "161452.345000", "161452.805000", "161453.265000", "161453.725000", "161454.185000", "161454.645000", "161455.105000", "161455.565000", "161456.025000", "161456.485000", "161456.945000", "161457.405000", "161457.865000", "161458.325000", "161458.785000", "161459.245000", "161459.705000", "161500.165000", "161500.625000", "161501.085000", "161501.545000", "161502.005000", "161502.465000", "161502.925000", "161503.385000", "161503.845000", "161504.305000", "161504.765000", "161505.225000", "161505.685000", "161506.145000", "161506.605000", "161507.065000", "161507.525000", "161507.985000", "161508.445000", "161508.905000", "161509.365000", "161509.825000", "161510.285000", "161510.745000", "161511.205000", "161511.665000", "161512.125000", "161512.585000", "161513.045000", "161513.505000", "161513.965000", "161514.425000", "161514.885000", "161515.345000", "161515.805000", "161516.265000", "161516.725000", "161517.185000", "161517.645000", "161518.105000", "161518.565000", "161519.025000", "161519.485000", "161519.945000", "161520.405000", "161520.865000", "161521.325000", "161521.785000", "161522.245000", "161522.705000", "161523.165000", "161523.625000", "161524.085000", "161524.545000", "161525.005000", "161525.465000", "161525.925000", "161526.385000", "161526.845000", "161527.305000", "161527.765000", "161528.225000", "161528.685000", "161529.145000", "161529.605000", "161530.065000", "161530.525000", "161530.985000", "161531.445000", "161531.905000", "161532.365000", "161532.825000", "161533.285000", "161533.745000", "161534.205000", "161534.665000", "161535.125000", "161535.585000", "161536.045000", "161536.505000", "161536.965000", "161537.425000", "161537.885000", "161538.345000", "161538.805000", "161539.265000", "161539.725000", "161540.185000", "161540.645000", "161541.105000", "161541.565000", "161542.025000", "161542.485000", "161542.945000", "161543.405000", "161543.865000", "161544.325000", "161544.785000", "161545.245000", "161545.705000", "161546.165000", "161546.625000", "161547.085000", "161547.545000", "161548.005000", "161548.465000", "161548.925000", "161549.385000", "161549.845000", "161550.305000", "161550.765000", "161551.225000", "161551.685000", "161552.145000", "161552.605000", "161553.065000", "161553.525000", "161553.985000", "161554.445000", "161554.905000", "161555.365000", "161555.825000", "161556.285000", "161556.745000", "161557.205000", "161557.665000", "161558.125000", "161558.585000", "161559.045000", "161559.505000", "161559.965000", "161600.425000", "161600.885000", "161601.345000", "161601.805000", "161602.265000", "161602.725000", "161603.185000", "161603.645000", "161604.105000", "161604.565000", "161605.025000", "161605.485000", "161605.945000", "161606.405000", "161606.865000", "161607.325000", "161607.785000", "161608.245000", "161608.705000", "161609.165000", "161609.625000", "161610.085000", "161610.545000", "161611.005000", "161611.465000", "161611.925000", "161612.385000", "161612.845000", "161613.305000", "161613.765000", "161614.225000", "161614.685000", "161615.145000", "161615.605000", "161616.065000", "161616.525000", "161616.985000", "161617.445000", "161617.905000", "161618.365000", "161618.825000", "161619.285000", "161619.745000", "161620.205000", "161620.665000", "161621.125000", "161621.585000", "161622.045000", "161622.505000", "161622.965000", "161623.425000", "161623.885000", "161624.345000", "161624.805000", "161625.265000", "161625.725000", "161626.185000", "161626.645000", "161627.105000", "161627.565000", "161628.025000", "161628.485000", "161628.945000", "161629.405000", "161629.865000", "161630.325000", "161630.785000", "161631.245000", "161631.705000", "161632.165000", "161632.625000", "161633.085000", "161633.545000", "161634.005000", "161634.465000", "161634.925000", "161635.385000", "161635.845000", "161636.305000", "161636.765000", "161637.225000", "161637.685000", "161638.145000", "161638.605000", "161639.065000", "161639.525000", "161639.985000", "161640.445000", "161640.905000", "161641.365000", "161641.825000", "161642.285000", "161642.745000", "161643.205000", "161643.665000", "161644.125000", "161644.585000", "161645.045000", "161645.505000", "161645.965000", "161646.425000", "161646.885000", "161647.345000", "161647.805000", "161648.265000", "161648.725000", "161649.185000", "161649.645000", "161650.105000", "161650.565000", "161651.025000", "161651.485000", "161651.945000", "161652.405000", "161652.865000", "161653.325000", "161653.785000", "161654.245000", "161654.705000", "161655.165000", "161655.625000", "161656.085000", "161656.545000", "161657.005000", "161657.465000", "161657.925000", "161658.385000", "161658.845000", "161659.305000", "161659.765000", "161700.225000", "161700.685000", "161701.145000", "161701.605000", "161702.065000", "161702.525000", "161702.985000", "161703.445000", "161703.905000", "161704.365000", "161704.825000", "161705.285000", "161705.745000", "161706.205000", "161706.665000", "161707.125000", "161707.585000", "161708.045000", "161708.505000"],
