{
  "AcquisitionMatrixPE": 82,
  "AcquisitionNumber": 1,
  "AcquisitionTime": "15:51:33.975000",
  "BandwidthPerPixelPhaseEncode": 24.888,
  "BaseResolution": 82,
  "BodyPartExamined": "BRAIN",
  "ConsistencyInfo": "N4_VE11C_LATEST_20160120",
  "ConversionSoftware": "dcm2niix",
  "ConversionSoftwareVersion": "v1.0.20201102",
  "DerivedVendorReportedEchoSpacing": 0.00049,
  "DeviceSerialNumber": "66112",
  "DwellTime": 2e-06,
  "EchoTime": 0.0272,
  "EchoTrainLength": 82,
  "EffectiveEchoSpacing": 0.00049,
  "FlipAngle": 44,
  "ImageComments": "Unaliased MB8/PE3",
  "ImageOrientationPatientDICOM": [0.998139, 0.0506942, 0.0339003, -0.0489917, 0.997582, -0.0492936],
  "ImageType": [
    "ORIGINAL",
    "PRIMARY",
    "M",
    "MB",
    "ND",
    "NORM",
    "MOSAIC"
],
  "ImagingFrequency": 123.252,
  "InPlanePhaseEncodingDirectionDICOM": "COL",
  "InstitutionAddress": "Maynard 3,Hanover,NH,US,03755",
  "InstitutionName": "Dartmouth College - PBS",
  "InstitutionalDepartmentName": "Department",
  "MRAcquisitionType": "2D",
  "MagneticFieldStrength": 3,
  "Manufacturer": "Siemens",
  "ManufacturersModelName": "Prisma",
  "Modality": "MR",
  "MultibandAccelerationFactor": 8,
  "PartialFourier": 1,
  "PatientPosition": "HFS",
  "PercentPhaseFOV": 100,
  "PercentSampling": 100,
  "PhaseEncodingDirection": "j-",
  "PhaseEncodingSteps": 82,
  "PhaseResolution": 1,
  "PixelBandwidth": 3050,
  "ProcedureStepDescription": "Wager_Wager^1076_spacetop",
  "ProtocolName": "func_run-01_task-social_acq-ap-mb8",
  "PulseSequenceDetails": "%CustomerSeq%\\cmrr_mbep2d_bold",
  "ReceiveCoilActiveElements": "HEA;HEP",
  "ReceiveCoilName": "Head_32",
  "ReconMatrixPE": 82,
  "RepetitionTime": 0.46,
  "SAR": 0.0937489,
  "ScanOptions": "FS",
  "ScanningSequence": "EP",
  "SequenceName": "epfid2d1_82",
  "SequenceVariant": "SK\\SS",
  "SeriesDescription": "func_run-01_task-social_acq-ap-mb8",
  "SeriesNumber": 12,
  "ShimSetting": [4151, -7758, -7264, 525, -85, -68, 56, 47],
  "SliceThickness": 2.7,
  "SliceTiming": [0, 0.25, 0.0625, 0.315, 0.125, 0.3775, 0.1875, 0, 0.25, 0.0625, 0.315, 0.125, 0.3775, 0.1875, 0, 0.25, 0.0625, 0.315, 0.125, 0.3775, 0.1875, 0, 0.25, 0.0625, 0.315, 0.125, 0.3775, 0.1875, 0, 0.25, 0.0625, 0.315, 0.125, 0.3775, 0.1875, 0, 0.25, 0.0625, 0.315, 0.125, 0.3775, 0.1875, 0, 0.25, 0.0625, 0.315, 0.125, 0.3775, 0.1875, 0, 0.25, 0.0625, 0.315, 0.125, 0.3775, 0.1875],
  "SoftwareVersions": "syngo MR E11",
  "SpacingBetweenSlices": 2.7,
  "StationName": "AWP66112",
  "TaskName": "social",
  "TotalReadoutTime": 0.03969,
  "TxRefAmp": 250.826,
  "WipMemBlock": "6c3c0c2d-4688-41b2-b9f4-6eae68f737cf||Sequence: R016 ve11c/master r/e634e98; Dec 19 2017 11:00:25 by eja",
  "dcmmeta_affine": [
    [-2.6779332160949707, -0.1314411610364914, 0.09805664420127869, 115.45708465576172],
    [-0.13600872457027435, 2.6764397621154785, -0.1283607929944992, -81.21988677978516],
    [0.09095215052366257, 0.13225118815898895, 2.6951637268066406, -81.46595001220703],
    [0.0, 0.0, 0.0, 1.0]
],
  "dcmmeta_reorient_transform": [
    [0.0, -1.0, 0.0, 81.0],
    [1.0, 0.0, 0.0, 0.0],
    [0.0, 0.0, 1.0, 0.0],
    [0.0, 0.0, 0.0, 1.0]
],
  "dcmmeta_shape": [82, 82, 56, 872],
  "dcmmeta_slice_dim": 2,
  "dcmmeta_version": 0.6,
  "global": {
    "const": {
      "AccessionNumber": "A003613",
      "AcquisitionMatrix": [82, 0, 0, 82],
      "AngioFlag": "N",
      "BitsAllocated": 16,
      "BitsStored": 16,
      "BodyPartExamined": "BRAIN",
      "Columns": 656,
      "EchoNumbers": 1,
      "EchoTime": 27.2,
      "EchoTrainLength": 82,
      "FlipAngle": 44.0,
      "HighBit": 15,
      "ImageOrientationPatient": [0.99813870208995, 0.05069416027056, 0.03390034667462, -0.0489917017817, 0.99758205281129, -0.0492936209396],
      "ImagePositionPatient": [-835.65356247024, -942.74443632275, -58.900779590919],
      "ImageType": [
        "ORIGINAL",
        "PRIMARY",
        "M",
        "MB",
        "ND",
        "NORM",
        "MOSAIC"
],
      "ImagedNucleus": "1H",
      "ImagingFrequency": 123.252175,
      "InPlanePhaseEncodingDirection": "COL",
      "MRAcquisitionType": "2D",
      "MagneticFieldStrength": 3.0,
      "Manufacturer": "SIEMENS",
      "ManufacturerModelName": "Prisma",
      "Modality": "MR",
      "NumberOfAverages": 1.0,
      "NumberOfPhaseEncodingSteps": 82,
      "PercentPhaseFieldOfView": 100.0,
      "PercentSampling": 100.0,
      "PerformedProcedureStepStartTime": "152340.825000",
      "PhotometricInterpretation": "MONOCHROME2",
      "PixelBandwidth": 3050.0,
      "PixelRepresentation": 0,
      "PixelSpacing": [2.6829268932343, 2.6829268932343],
      "ProtocolName": "func_run-01_task-social_acq-ap-mb8",
      "RepetitionTime": 460.0,
      "Rows": 656,
      "SAR": 0.09374888190525,
      "SamplesPerPixel": 1,
      "ScanOptions": "FS",
      "ScanningSequence": "EP",
      "SequenceName": "epfid2d1_82",
      "SequenceVariant": [
        "SK",
        "SS"
],
      "SeriesDescription": "func_run-01_task-social_acq-ap-mb8",
      "SeriesNumber": 12,
      "SeriesTime": "155146.376000",
      "SliceLocation": -73.26566457193,
      "SliceThickness": 2.7000000476837,
      "SmallestImagePixelValue": 0,
      "SoftwareVersions": "syngo MR E11",
      "SpacingBetweenSlices": 2.6999999054695,
      "SpecificCharacterSet": "ISO_IR 100",
      "StudyID": "1",
      "StudyTime": "152340.760000",
      "TransmitCoilName": "Body",
      "VariableFlipAngleFlag": "N",
      "WindowCenterWidthExplanation": "Algo1",
      "dBdt": 0.0},
    "slices": {}
  },
  "time": {
    "samples": {
      "AcquisitionNumber": [1, 2, 3, 4, 5, 6, 7, 8, 9, 10, 11, 12, 13, 14, 15, 16, 17, 18, 19, 20, 21, 22, 23, 24, 25, 26, 27, 28, 29, 30, 31, 32, 33, 34, 35, 36, 37, 38, 39, 40, 41, 42, 43, 44, 45, 46, 47, 48, 49, 50, 51, 52, 53, 54, 55, 56, 57, 58, 59, 60, 61, 62, 63, 64, 65, 66, 67, 68, 69, 70, 71, 72, 73, 74, 75, 76, 77, 78, 79, 80, 81, 82, 83, 84, 85, 86, 87, 88, 89, 90, 91, 92, 93, 94, 95, 96, 97, 98, 99, 100, 101, 102, 103, 104, 105, 106, 107, 108, 109, 110, 111, 112, 113, 114, 115, 116, 117, 118, 119, 120, 121, 122, 123, 124, 125, 126, 127, 128, 129, 130, 131, 132, 133, 134, 135, 136, 137, 138, 139, 140, 141, 142, 143, 144, 145, 146, 147, 148, 149, 150, 151, 152, 153, 154, 155, 156, 157, 158, 159, 160, 161, 162, 163, 164, 165, 166, 167, 168, 169, 170, 171, 172, 173, 174, 175, 176, 177, 178, 179, 180, 181, 182, 183, 184, 185, 186, 187, 188, 189, 190, 191, 192, 193, 194, 195, 196, 197, 198, 199, 200, 201, 202, 203, 204, 205, 206, 207, 208, 209, 210, 211, 212, 213, 214, 215, 216, 217, 218, 219, 220, 221, 222, 223, 224, 225, 226, 227, 228, 229, 230, 231, 232, 233, 234, 235, 236, 237, 238, 239, 240, 241, 242, 243, 244, 245, 246, 247, 248, 249, 250, 251, 252, 253, 254, 255, 256, 257, 258, 259, 260, 261, 262, 263, 264, 265, 266, 267, 268, 269, 270, 271, 272, 273, 274, 275, 276, 277, 278, 279, 280, 281, 282, 283, 284, 285, 286, 287, 288, 289, 290, 291, 292, 293, 294, 295, 296, 297, 298, 299, 300, 301, 302, 303, 304, 305, 306, 307, 308, 309, 310, 311, 312, 313, 314, 315, 316, 317, 318, 319, 320, 321, 322, 323, 324, 325, 326, 327, 328, 329, 330, 331, 332, 333, 334, 335, 336, 337, 338, 339, 340, 341, 342, 343, 344, 345, 346, 347, 348, 349, 350, 351, 352, 353, 354, 355, 356, 357, 358, 359, 360, 361, 362, 363, 364, 365, 366, 367, 368, 369, 370, 371, 372, 373, 374, 375, 376, 377, 378, 379, 380, 381, 382, 383, 384, 385, 386, 387, 388, 389, 390, 391, 392, 393, 394, 395, 396, 397, 398, 399, 400, 401, 402, 403, 404, 405, 406, 407, 408, 409, 410, 411, 412, 413, 414, 415, 416, 417, 418, 419, 420, 421, 422, 423, 424, 425, 426, 427, 428, 429, 430, 431, 432, 433, 434, 435, 436, 437, 438, 439, 440, 441, 442, 443, 444, 445, 446, 447, 448, 449, 450, 451, 452, 453, 454, 455, 456, 457, 458, 459, 460, 461, 462, 463, 464, 465, 466, 467, 468, 469, 470, 471, 472, 473, 474, 475, 476, 477, 478, 479, 480, 481, 482, 483, 484, 485, 486, 487, 488, 489, 490, 491, 492, 493, 494, 495, 496, 497, 498, 499, 500, 501, 502, 503, 504, 505, 506, 507, 508, 509, 510, 511, 512, 513, 514, 515, 516, 517, 518, 519, 520, 521, 522, 523, 524, 525, 526, 527, 528, 529, 530, 531, 532, 533, 534, 535, 536, 537, 538, 539, 540, 541, 542, 543, 544, 545, 546, 547, 548, 549, 550, 551, 552, 553, 554, 555, 556, 557, 558, 559, 560, 561, 562, 563, 564, 565, 566, 567, 568, 569, 570, 571, 572, 573, 574, 575, 576, 577, 578, 579, 580, 581, 582, 583, 584, 585, 586, 587, 588, 589, 590, 591, 592, 593, 594, 595, 596, 597, 598, 599, 600, 601, 602, 603, 604, 605, 606, 607, 608, 609, 610, 611, 612, 613, 614, 615, 616, 617, 618, 619, 620, 621, 622, 623, 624, 625, 626, 627, 628, 629, 630, 631, 632, 633, 634, 635, 636, 637, 638, 639, 640, 641, 642, 643, 644, 645, 646, 647, 648, 649, 650, 651, 652, 653, 654, 655, 656, 657, 658, 659, 660, 661, 662, 663, 664, 665, 666, 667, 668, 669, 670, 671, 672, 673, 674, 675, 676, 677, 678, 679, 680, 681, 682, 683, 684, 685, 686, 687, 688, 689, 690, 691, 692, 693, 694, 695, 696, 697, 698, 699, 700, 701, 702, 703, 704, 705, 706, 707, 708, 709, 710, 711, 712, 713, 714, 715, 716, 717, 718, 719, 720, 721, 722, 723, 724, 725, 726, 727, 728, 729, 730, 731, 732, 733, 734, 735, 736, 737, 738, 739, 740, 741, 742, 743, 744, 745, 746, 747, 748, 749, 750, 751, 752, 753, 754, 755, 756, 757, 758, 759, 760, 761, 762, 763, 764, 765, 766, 767, 768, 769, 770, 771, 772, 773, 774, 775, 776, 777, 778, 779, 780, 781, 782, 783, 784, 785, 786, 787, 788, 789, 790, 791, 792, 793, 794, 795, 796, 797, 798, 799, 800, 801, 802, 803, 804, 805, 806, 807, 808, 809, 810, 811, 812, 813, 814, 815, 816, 817, 818, 819, 820, 821, 822, 823, 824, 825, 826, 827, 828, 829, 830, 831, 832, 833, 834, 835, 836, 837, 838, 839, 840, 841, 842, 843, 844, 845, 846, 847, 848, 849, 850, 851, 852, 853, 854, 855, 856, 857, 858, 859, 860, 861, 862, 863, 864, 865, 866, 867, 868, 869, 870, 871, 872],
      "AcquisitionTime": ["155133.975000", "155134.435000", "155134.895000", "155135.355000", "155135.815000", "155136.275000", "155136.735000", "155137.195000", "155137.655000", "155138.115000", "155138.575000", "155139.035000", "155139.495000", "155139.955000", "155140.415000", "155140.875000", "155141.335000", "155141.795000", "155142.255000", "155142.715000", "155143.175000", "155143.635000", "155144.095000", "155144.555000", "155145.015000", "155145.475000", "155145.935000", "155146.395000", "155146.855000", "155147.315000", "155147.775000", "155148.235000", "155148.695000", "155149.155000", "155149.615000", "155150.075000", "155150.535000", "155150.995000", "155151.455000", "155151.915000", "155152.375000", "155152.835000", "155153.295000", "155153.755000", "155154.215000", "155154.675000", "155155.135000", "155155.595000", "155156.055000", "155156.515000", "155156.975000", "155157.435000", "155157.895000", "155158.355000", "155158.815000", "155159.275000", "155159.735000", "155200.195000", "155200.655000", "155201.115000", "155201.575000", "155202.035000", "155202.495000", "155202.955000", "155203.415000", "155203.875000", "155204.335000", "155204.795000", "155205.255000", "155205.715000", "155206.175000", "155206.635000", "155207.095000", "155207.555000", "155208.015000", "155208.475000", "155208.935000", "155209.395000", "155209.855000", "155210.315000", "155210.775000", "155211.235000", "155211.695000", "155212.155000", "155212.615000", "155213.075000", "155213.535000", "155213.995000", "155214.455000", "155214.915000", "155215.375000", "155215.835000", "155216.295000", "155216.755000", "155217.215000", "155217.675000", "155218.135000", "155218.595000", "155219.055000", "155219.515000", "155219.975000", "155220.435000", "155220.895000", "155221.355000", "155221.815000", "155222.275000", "155222.735000", "155223.195000", "155223.655000", "155224.115000", "155224.575000", "155225.035000", "155225.495000", "155225.955000", "155226.415000", "155226.875000", "155227.335000", "155227.795000", "155228.255000", "155228.715000", "155229.175000", "155229.635000", "155230.095000", "155230.555000", "155231.015000", "155231.475000", "155231.935000", "155232.395000", "155232.855000", "155233.315000", "155233.775000", "155234.235000", "155234.695000", "155235.155000", "155235.615000", "155236.075000", "155236.535000", "155236.995000", "155237.455000", "155237.915000", "155238.375000", "155238.835000", "155239.295000", "155239.755000", "155240.215000", "155240.675000", "155241.135000", "155241.595000", "155242.055000", "155242.515000", "155242.975000", "155243.435000", "155243.895000", "155244.355000", "155244.815000", "155245.275000", "155245.735000", "155246.195000", "155246.655000", "155247.115000", "155247.575000", "155248.035000", "155248.495000", "155248.955000", "155249.415000", "155249.875000", "155250.335000", "155250.795000", "155251.255000", "155251.715000", "155252.175000", "155252.635000", "155253.095000", "155253.555000", "155254.015000", "155254.475000", "155254.935000", "155255.395000", "155255.855000", "155256.315000", "155256.775000", "155257.235000", "155257.695000", "155258.155000", "155258.615000", "155259.075000", "155259.535000", "155259.995000", "155300.455000", "155300.915000", "155301.375000", "155301.835000", "155302.295000", "155302.755000", "155303.215000", "155303.675000", "155304.135000", "155304.595000", "155305.055000", "155305.515000", "155305.975000", "155306.435000", "155306.895000", "155307.355000", "155307.815000", "155308.275000", "155308.735000", "155309.195000", "155309.655000", "155310.115000", "155310.575000", "155311.035000", "155311.495000", "155311.955000", "155312.415000", "155312.875000", "155313.335000", "155313.795000", "155314.255000", "155314.715000", "155315.175000", "155315.635000", "155316.095000", "155316.555000", "155317.015000", "155317.475000", "155317.935000", "155318.395000", "155318.855000", "155319.315000", "155319.775000", "155320.235000", "155320.695000", "155321.155000", "155321.615000", "155322.075000", "155322.535000", "155322.995000", "155323.455000", "155323.915000", "155324.375000", "155324.835000", "155325.295000", "155325.755000", "155326.215000", "155326.675000", "155327.135000", "155327.595000", "155328.055000", "155328.515000", "155328.975000", "155329.435000", "155329.895000", "155330.355000", "155330.815000", "155331.275000", "155331.735000", "155332.195000", "155332.655000", "155333.115000", "155333.575000", "155334.035000", "155334.495000", "155334.955000", "155335.415000", "155335.875000", "155336.335000", "155336.795000", "155337.255000", "155337.715000", "155338.175000", "155338.635000", "155339.095000", "155339.555000", "155340.015000", "155340.475000", "155340.935000", "155341.395000", "155341.855000", "155342.315000", "155342.775000", "155343.235000", "155343.695000", "155344.155000", "155344.615000", "155345.075000", "155345.535000", "155345.995000", "155346.455000", "155346.915000", "155347.375000", "155347.835000", "155348.295000", "155348.755000", "155349.215000", "155349.675000", "155350.135000", "155350.595000", "155351.055000", "155351.515000", "155351.975000", "155352.435000", "155352.895000", "155353.355000", "155353.815000", "155354.275000", "155354.735000", "155355.195000", "155355.655000", "155356.115000", "155356.575000", "155357.035000", "155357.495000", "155357.955000", "155358.415000", "155358.875000", "155359.335000", "155359.795000", "155400.255000", "155400.715000", "155401.175000", "155401.635000", "155402.095000", "155402.555000", "155403.015000", "155403.475000", "155403.935000", "155404.395000", "155404.855000", "155405.315000", "155405.775000", "155406.235000", "155406.695000", "155407.155000", "155407.615000", "155408.075000", "155408.535000", "155408.995000", "155409.455000", "155409.915000", "155410.375000", "155410.835000", "155411.295000", "155411.755000", "155412.215000", "155412.675000", "155413.135000", "155413.595000", "155414.055000", "155414.515000", "155414.975000", "155415.435000", "155415.895000", "155416.355000", "155416.815000", "155417.275000", "155417.735000", "155418.195000", "155418.655000", "155419.115000", "155419.575000", "155420.035000", "155420.495000", "155420.955000", "155421.415000", "155421.875000", "155422.335000", "155422.795000", "155423.255000", "155423.715000", "155424.175000", "155424.635000", "155425.095000", "155425.555000", "155426.015000", "155426.475000", "155426.935000", "155427.395000", "155427.855000", "155428.315000", "155428.775000", "155429.235000", "155429.695000", "155430.155000", "155430.615000", "155431.075000", "155431.535000", "155431.995000", "155432.455000", "155432.915000", "155433.375000", "155433.835000", "155434.295000", "155434.755000", "155435.215000", "155435.675000", "155436.135000", "155436.595000", "155437.055000", "155437.515000", "155437.975000", "155438.435000", "155438.895000", "155439.355000", "155439.815000", "155440.275000", "155440.735000", "155441.195000", "155441.655000", "155442.115000", "155442.575000", "155443.035000", "155443.495000", "155443.955000", "155444.415000", "155444.875000", "155445.335000", "155445.795000", "155446.255000", "155446.715000", "155447.175000", "155447.635000", "155448.095000", "155448.555000", "155449.015000", "155449.475000", "155449.935000", "155450.395000", "155450.855000", "155451.315000", "155451.775000", "155452.235000", "155452.695000", "155453.155000", "155453.615000", "155454.075000", "155454.535000", "155454.995000", "155455.455000", "155455.915000", "155456.375000", "155456.835000", "155457.295000", "155457.755000", "155458.215000", "155458.675000", "155459.135000", "155459.595000", "155500.055000", "155500.515000", "155500.975000", "155501.435000", "155501.895000", "155502.355000", "155502.815000", "155503.275000", "155503.735000", "155504.195000", "155504.655000", "155505.115000", "155505.575000", "155506.035000", "155506.495000", "155506.955000", "155507.415000", "155507.875000", "155508.335000", "155508.795000", "155509.255000", "155509.715000", "155510.175000", "155510.635000", "155511.095000", "155511.555000", "155512.015000", "155512.475000", "155512.935000", "155513.395000", "155513.855000", "155514.315000", "155514.775000", "155515.235000", "155515.695000", "155516.155000", "155516.615000", "155517.075000", "155517.535000", "155517.995000", "155518.455000", "155518.915000", "155519.375000", "155519.835000", "155520.295000", "155520.755000", "155521.215000", "155521.675000", "155522.135000", "155522.595000", "155523.055000", "155523.515000", "155523.975000", "155524.435000", "155524.895000", "155525.355000", "155525.815000", "155526.275000", "155526.735000", "155527.195000", "155527.655000", "155528.115000", "155528.575000", "155529.035000", "155529.495000", "155529.955000", "155530.415000", "155530.875000", "155531.335000", "155531.795000", "155532.255000", "155532.715000", "155533.175000", "155533.635000", "155534.095000", "155534.555000", "155535.015000", "155535.475000", "155535.935000", "155536.395000", "155536.855000", "155537.315000", "155537.775000", "155538.235000", "155538.695000", "155539.155000", "155539.615000", "155540.075000", "155540.535000", "155540.995000", "155541.455000", "155541.915000", "155542.375000", "155542.835000", "155543.295000", "155543.755000", "155544.215000", "155544.675000", "155545.135000", "155545.595000", "155546.055000", "155546.515000", "155546.975000", "155547.435000", "155547.895000", "155548.355000", "155548.815000", "155549.275000", "155549.735000", "155550.195000", "155550.655000", "155551.115000", "155551.575000", "155552.035000", "155552.495000", "155552.955000", "155553.415000", "155553.875000", "155554.335000", "155554.795000", "155555.255000", "155555.715000", "155556.175000", "155556.635000", "155557.095000", "155557.555000", "155558.015000", "155558.475000", "155558.935000", "155559.395000", "155559.855000", "155600.315000", "155600.775000", "155601.235000", "155601.695000", "155602.155000", "155602.615000", "155603.075000", "155603.535000", "155603.995000", "155604.455000", "155604.915000", "155605.375000", "155605.835000", "155606.295000", "155606.755000", "155607.215000", "155607.675000", "155608.135000", "155608.595000", "155609.055000", "155609.515000", "155609.975000", "155610.435000", "155610.895000", "155611.355000", "155611.815000", "155612.275000", "155612.735000", "155613.195000", "155613.655000", "155614.115000", "155614.575000", "155615.035000", "155615.495000", "155615.955000", "155616.415000", "155616.875000", "155617.335000", "155617.795000", "155618.255000", "155618.715000", "155619.175000", "155619.635000", "155620.095000", "155620.555000", "155621.015000", "155621.475000", "155621.935000", "155622.395000", "155622.855000", "155623.315000", "155623.775000", "155624.235000", "155624.695000", "155625.155000", "155625.615000", "155626.075000", "155626.535000", "155626.995000", "155627.455000", "155627.915000", "155628.375000", "155628.835000", "155629.295000", "155629.755000", "155630.215000", "155630.675000", "155631.135000", "155631.595000", "155632.055000", "155632.515000", "155632.975000", "155633.435000", "155633.895000", "155634.355000", "155634.815000", "155635.275000", "155635.735000", "155636.195000", "155636.655000", "155637.115000", "155637.575000", "155638.035000", "155638.495000", "155638.955000", "155639.415000", "155639.875000", "155640.335000", "155640.795000", "155641.255000", "155641.715000", "155642.175000", "155642.635000", "155643.095000", "155643.555000", "155644.015000", "155644.475000", "155644.935000", "155645.395000", "155645.855000", "155646.315000", "155646.775000", "155647.235000", "155647.695000", "155648.155000", "155648.615000", "155649.075000", "155649.535000", "155649.995000", "155650.455000", "155650.915000", "155651.375000", "155651.835000", "155652.295000", "155652.755000", "155653.215000", "155653.675000", "155654.135000", "155654.595000", "155655.055000", "155655.515000", "155655.975000", "155656.435000", "155656.895000", "155657.355000", "155657.815000", "155658.275000", "155658.735000", "155659.195000", "155659.655000", "155700.115000", "155700.575000", "155701.035000", "155701.495000", "155701.955000", "155702.415000", "155702.875000", "155703.335000", "155703.795000", "155704.255000", "155704.715000", "155705.175000", "155705.635000", "155706.095000", "155706.555000", "155707.015000", "155707.475000", "155707.935000", "155708.395000", "155708.855000", "155709.315000", "155709.775000", "155710.235000", "155710.695000", "155711.155000", "155711.615000", "155712.075000", "155712.535000", "155712.995000", "155713.455000", "155713.915000", "155714.375000", "155714.835000", "155715.295000", "155715.755000", "155716.215000", "155716.675000", "155717.135000", "155717.595000", "155718.055000", "155718.515000", "155718.975000", "155719.435000", "155719.895000", "155720.355000", "155720.815000", "155721.275000", "155721.735000", "155722.195000", "155722.655000", "155723.115000", "155723.575000", "155724.035000", "155724.495000", "155724.955000", "155725.415000", "155725.875000", "155726.335000", "155726.795000", "155727.255000", "155727.715000", "155728.175000", "155728.635000", "155729.095000", "155729.555000", "155730.015000", "155730.475000", "155730.935000", "155731.395000", "155731.855000", "155732.315000", "155732.775000", "155733.235000", "155733.695000", "155734.155000", "155734.615000", "155735.075000", "155735.535000", "155735.995000", "155736.455000", "155736.915000", "155737.375000", "155737.835000", "155738.295000", "155738.755000", "155739.215000", "155739.675000", "155740.135000", "155740.595000", "155741.055000", "155741.515000", "155741.975000", "155742.435000", "155742.895000", "155743.355000", "155743.815000", "155744.275000", "155744.735000", "155745.195000", "155745.655000", "155746.115000", "155746.575000", "155747.035000", "155747.495000", "155747.955000", "155748.415000", "155748.875000", "155749.335000", "155749.795000", "155750.255000", "155750.715000", "155751.175000", "155751.635000", "155752.095000", "155752.555000", "155753.015000", "155753.475000", "155753.935000", "155754.395000", "155754.855000", "155755.315000", "155755.775000", "155756.235000", "155756.695000", "155757.155000", "155757.615000", "155758.075000", "155758.535000", "155758.995000", "155759.455000", "155759.915000", "155800.375000", "155800.835000", "155801.295000", "155801.755000", "155802.215000", "155802.675000", "155803.135000", "155803.595000", "155804.055000", "155804.515000", "155804.975000", "155805.435000", "155805.895000", "155806.355000", "155806.815000", "155807.275000", "155807.735000", "155808.195000", "155808.655000", "155809.115000", "155809.575000", "155810.035000", "155810.495000", "155810.955000", "155811.415000", "155811.875000", "155812.335000", "155812.795000", "155813.255000", "155813.715000", "155814.175000", "155814.635000"],
