{
  "AcquisitionMatrixPE": 82,
  "AcquisitionNumber": 1,
  "AcquisitionTime": "09:42:57.710000",
  "BandwidthPerPixelPhaseEncode": 24.888,
  "BaseResolution": 82,
  "BodyPartExamined": "BRAIN",
  "ConsistencyInfo": "N4_VE11C_LATEST_20160120",
  "ConversionSoftware": "dcm2niix",
  "ConversionSoftwareVersion": "v1.0.20201102",
  "DerivedVendorReportedEchoSpacing": 0.00049,
  "DeviceSerialNumber": "66112",
  "DwellTime": 2e-06,
  "EchoTime": 0.0272,
  "EchoTrainLength": 82,
  "EffectiveEchoSpacing": 0.00049,
  "FlipAngle": 44,
  "ImageComments": "Unaliased MB8/PE3",
  "ImageOrientationPatientDICOM": [0.990734, 0.127614, 0.0464775, -0.120418, 0.983649, -0.13392],
  "ImageType": [
    "ORIGINAL",
    "PRIMARY",
    "M",
    "MB",
    "ND",
    "NORM",
    "MOSAIC"
],
  "ImagingFrequency": 123.252,
  "InPlanePhaseEncodingDirectionDICOM": "COL",
  "InstitutionAddress": "Maynard 3,Hanover,NH,US,03755",
  "InstitutionName": "Dartmouth College - PBS",
  "InstitutionalDepartmentName": "Department",
  "MRAcquisitionType": "2D",
  "MagneticFieldStrength": 3,
  "Manufacturer": "Siemens",
  "ManufacturersModelName": "Prisma",
  "Modality": "MR",
  "MultibandAccelerationFactor": 8,
  "PartialFourier": 1,
  "PatientPosition": "HFS",
  "PercentPhaseFOV": 100,
  "PercentSampling": 100,
  "PhaseEncodingDirection": "j-",
  "PhaseEncodingSteps": 82,
  "PhaseResolution": 1,
  "PixelBandwidth": 3050,
  "ProcedureStepDescription": "Wager_Wager^1076_spacetop",
  "ProtocolName": "func_run-01_task-faces_acq-ap-mb8",
  "PulseSequenceDetails": "%CustomerSeq%\\cmrr_mbep2d_bold",
  "ReceiveCoilActiveElements": "HEA;HEP",
  "ReceiveCoilName": "Head_32",
  "ReconMatrixPE": 82,
  "RepetitionTime": 0.46,
  "SAR": 0.101152,
  "ScanOptions": "FS",
  "ScanningSequence": "EP",
  "SequenceName": "epfid2d1_82",
  "SequenceVariant": "SK\\SS",
  "SeriesDescription": "func_run-01_task-faces_acq-ap-mb8",
  "SeriesNumber": 16,
  "ShimSetting": [4163, -7755, -7250, 730, -23, -230, -66, 43],
  "SliceThickness": 2.7,
  "SliceTiming": [0, 0.2525, 0.0625, 0.315, 0.125, 0.3775, 0.19, 0, 0.2525, 0.0625, 0.315, 0.125, 0.3775, 0.19, 0, 0.2525, 0.0625, 0.315, 0.125, 0.3775, 0.19, 0, 0.2525, 0.0625, 0.315, 0.125, 0.3775, 0.19, 0, 0.2525, 0.0625, 0.315, 0.125, 0.3775, 0.19, 0, 0.2525, 0.0625, 0.315, 0.125, 0.3775, 0.19, 0, 0.2525, 0.0625, 0.315, 0.125, 0.3775, 0.19, 0, 0.2525, 0.0625, 0.315, 0.125, 0.3775, 0.19],
  "SoftwareVersions": "syngo MR E11",
  "SpacingBetweenSlices": 2.7,
  "StationName": "AWP66112",
  "TaskName": "faces",
  "TotalReadoutTime": 0.03969,
  "TxRefAmp": 233.877,
  "WipMemBlock": "0945a16f-de3b-4084-943f-13de5d07c5d7||Sequence: R016 ve11c/master r/e634e98; Dec 19 2017 11:00:25 by eja",
  "dcmmeta_affine": [
    [-2.6580679416656494, -0.3230739235877991, 0.16958042979240417, 119.93180847167969],
    [-0.34237805008888245, 2.6390576362609863, -0.3431231379508972, -68.67263793945312],
    [0.12469568848609924, 0.3592982292175293, 2.672734260559082, -81.88152313232422],
    [0.0, 0.0, 0.0, 1.0]
],
  "dcmmeta_reorient_transform": [
    [0.0, -1.0, 0.0, 81.0],
    [1.0, 0.0, 0.0, 0.0],
    [0.0, 0.0, 1.0, 0.0],
    [0.0, 0.0, 0.0, 1.0]
],
  "dcmmeta_shape": [82, 82, 56, 914],
  "dcmmeta_slice_dim": 2,
  "dcmmeta_version": 0.6,
  "global": {
    "const": {
      "AccessionNumber": "A003610",
      "AcquisitionMatrix": [82, 0, 0, 82],
      "AngioFlag": "N",
      "BitsAllocated": 16,
      "BitsStored": 16,
      "BodyPartExamined": "BRAIN",
      "Columns": 656,
      "EchoNumbers": 1,
      "EchoTime": 27.2,
      "EchoTrainLength": 82,
      "FlipAngle": 44.0,
      "HighBit": 15,
      "ImageOrientationPatient": [0.99073437652927, 0.12761363062302, 0.04647748317585, -0.1204184577367, 0.98364869865934, -0.1339202473942],
      "ImagePositionPatient": [-763.9060939094, -1000.7630363985, 14.552562508363],
      "ImageType": [
        "ORIGINAL",
        "PRIMARY",
        "M",
        "MB",
        "ND",
        "NORM",
        "MOSAIC"
],
      "ImagedNucleus": "1H",
      "ImagingFrequency": 123.252183,
      "InPlanePhaseEncodingDirection": "COL",
      "MRAcquisitionType": "2D",
      "MagneticFieldStrength": 3.0,
      "Manufacturer": "SIEMENS",
      "ManufacturerModelName": "Prisma",
      "Modality": "MR",
      "NumberOfAverages": 1.0,
      "NumberOfPhaseEncodingSteps": 82,
      "PercentPhaseFieldOfView": 100.0,
      "PercentSampling": 100.0,
      "PerformedProcedureStepStartTime": "082930.379000",
      "PhotometricInterpretation": "MONOCHROME2",
      "PixelBandwidth": 3050.0,
      "PixelRepresentation": 0,
      "PixelSpacing": [2.6829268932343, 2.6829268932343],
      "ProtocolName": "func_run-01_task-faces_acq-ap-mb8",
      "RepetitionTime": 460.0,
      "Rows": 656,
      "SAR": 0.10115169756482,
      "SamplesPerPixel": 1,
      "ScanOptions": "FS",
      "ScanningSequence": "EP",
      "SequenceName": "epfid2d1_82",
      "SequenceVariant": [
        "SK",
        "SS"
],
      "SeriesDescription": "func_run-01_task-faces_acq-ap-mb8",
      "SeriesNumber": 16,
      "SeriesTime": "094326.368000",
      "SliceLocation": -64.794927977622,
      "SliceThickness": 2.7000000476837,
      "SmallestImagePixelValue": 0,
      "SoftwareVersions": "syngo MR E11",
      "SpacingBetweenSlices": 2.699999981781,
      "SpecificCharacterSet": "ISO_IR 100",
      "StudyID": "1",
      "StudyTime": "082930.272000",
      "TransmitCoilName": "Body",
      "VariableFlipAngleFlag": "N",
      "WindowCenterWidthExplanation": "Algo1",
      "dBdt": 0.0},
    "slices": {}
  },
  "time": {
    "samples": {
      "AcquisitionNumber": [1, 2, 3, 4, 5, 6, 7, 8, 9, 10, 11, 12, 13, 14, 15, 16, 17, 18, 19, 20, 21, 22, 23, 24, 25, 26, 27, 28, 29, 30, 31, 32, 33, 34, 35, 36, 37, 38, 39, 40, 41, 42, 43, 44, 45, 46, 47, 48, 49, 50, 51, 52, 53, 54, 55, 56, 57, 58, 59, 60, 61, 62, 63, 64, 65, 66, 67, 68, 69, 70, 71, 72, 73, 74, 75, 76, 77, 78, 79, 80, 81, 82, 83, 84, 85, 86, 87, 88, 89, 90, 91, 92, 93, 94, 95, 96, 97, 98, 99, 100, 101, 102, 103, 104, 105, 106, 107, 108, 109, 110, 111, 112, 113, 114, 115, 116, 117, 118, 119, 120, 121, 122, 123, 124, 125, 126, 127, 128, 129, 130, 131, 132, 133, 134, 135, 136, 137, 138, 139, 140, 141, 142, 143, 144, 145, 146, 147, 148, 149, 150, 151, 152, 153, 154, 155, 156, 157, 158, 159, 160, 161, 162, 163, 164, 165, 166, 167, 168, 169, 170, 171, 172, 173, 174, 175, 176, 177, 178, 179, 180, 181, 182, 183, 184, 185, 186, 187, 188, 189, 190, 191, 192, 193, 194, 195, 196, 197, 198, 199, 200, 201, 202, 203, 204, 205, 206, 207, 208, 209, 210, 211, 212, 213, 214, 215, 216, 217, 218, 219, 220, 221, 222, 223, 224, 225, 226, 227, 228, 229, 230, 231, 232, 233, 234, 235, 236, 237, 238, 239, 240, 241, 242, 243, 244, 245, 246, 247, 248, 249, 250, 251, 252, 253, 254, 255, 256, 257, 258, 259, 260, 261, 262, 263, 264, 265, 266, 267, 268, 269, 270, 271, 272, 273, 274, 275, 276, 277, 278, 279, 280, 281, 282, 283, 284, 285, 286, 287, 288, 289, 290, 291, 292, 293, 294, 295, 296, 297, 298, 299, 300, 301, 302, 303, 304, 305, 306, 307, 308, 309, 310, 311, 312, 313, 314, 315, 316, 317, 318, 319, 320, 321, 322, 323, 324, 325, 326, 327, 328, 329, 330, 331, 332, 333, 334, 335, 336, 337, 338, 339, 340, 341, 342, 343, 344, 345, 346, 347, 348, 349, 350, 351, 352, 353, 354, 355, 356, 357, 358, 359, 360, 361, 362, 363, 364, 365, 366, 367, 368, 369, 370, 371, 372, 373, 374, 375, 376, 377, 378, 379, 380, 381, 382, 383, 384, 385, 386, 387, 388, 389, 390, 391, 392, 393, 394, 395, 396, 397, 398, 399, 400, 401, 402, 403, 404, 405, 406, 407, 408, 409, 410, 411, 412, 413, 414, 415, 416, 417, 418, 419, 420, 421, 422, 423, 424, 425, 426, 427, 428, 429, 430, 431, 432, 433, 434, 435, 436, 437, 438, 439, 440, 441, 442, 443, 444, 445, 446, 447, 448, 449, 450, 451, 452, 453, 454, 455, 456, 457, 458, 459, 460, 461, 462, 463, 464, 465, 466, 467, 468, 469, 470, 471, 472, 473, 474, 475, 476, 477, 478, 479, 480, 481, 482, 483, 484, 485, 486, 487, 488, 489, 490, 491, 492, 493, 494, 495, 496, 497, 498, 499, 500, 501, 502, 503, 504, 505, 506, 507, 508, 509, 510, 511, 512, 513, 514, 515, 516, 517, 518, 519, 520, 521, 522, 523, 524, 525, 526, 527, 528, 529, 530, 531, 532, 533, 534, 535, 536, 537, 538, 539, 540, 541, 542, 543, 544, 545, 546, 547, 548, 549, 550, 551, 552, 553, 554, 555, 556, 557, 558, 559, 560, 561, 562, 563, 564, 565, 566, 567, 568, 569, 570, 571, 572, 573, 574, 575, 576, 577, 578, 579, 580, 581, 582, 583, 584, 585, 586, 587, 588, 589, 590, 591, 592, 593, 594, 595, 596, 597, 598, 599, 600, 601, 602, 603, 604, 605, 606, 607, 608, 609, 610, 611, 612, 613, 614, 615, 616, 617, 618, 619, 620, 621, 622, 623, 624, 625, 626, 627, 628, 629, 630, 631, 632, 633, 634, 635, 636, 637, 638, 639, 640, 641, 642, 643, 644, 645, 646, 647, 648, 649, 650, 651, 652, 653, 654, 655, 656, 657, 658, 659, 660, 661, 662, 663, 664, 665, 666, 667, 668, 669, 670, 671, 672, 673, 674, 675, 676, 677, 678, 679, 680, 681, 682, 683, 684, 685, 686, 687, 688, 689, 690, 691, 692, 693, 694, 695, 696, 697, 698, 699, 700, 701, 702, 703, 704, 705, 706, 707, 708, 709, 710, 711, 712, 713, 714, 715, 716, 717, 718, 719, 720, 721, 722, 723, 724, 725, 726, 727, 728, 729, 730, 731, 732, 733, 734, 735, 736, 737, 738, 739, 740, 741, 742, 743, 744, 745, 746, 747, 748, 749, 750, 751, 752, 753, 754, 755, 756, 757, 758, 759, 760, 761, 762, 763, 764, 765, 766, 767, 768, 769, 770, 771, 772, 773, 774, 775, 776, 777, 778, 779, 780, 781, 782, 783, 784, 785, 786, 787, 788, 789, 790, 791, 792, 793, 794, 795, 796, 797, 798, 799, 800, 801, 802, 803, 804, 805, 806, 807, 808, 809, 810, 811, 812, 813, 814, 815, 816, 817, 818, 819, 820, 821, 822, 823, 824, 825, 826, 827, 828, 829, 830, 831, 832, 833, 834, 835, 836, 837, 838, 839, 840, 841, 842, 843, 844, 845, 846, 847, 848, 849, 850, 851, 852, 853, 854, 855, 856, 857, 858, 859, 860, 861, 862, 863, 864, 865, 866, 867, 868, 869, 870, 871, 872, 873, 874, 875, 876, 877, 878, 879, 880, 881, 882, 883, 884, 885, 886, 887, 888, 889, 890, 891, 892, 893, 894, 895, 896, 897, 898, 899, 900, 901, 902, 903, 904, 905, 906, 907, 908, 909, 910, 911, 912, 913, 914],
      "AcquisitionTime": ["094257.710000", "094258.170000", "094258.630000", "094259.090000", "094259.550000", "094300.010000", "094300.470000", "094300.930000", "094301.390000", "094301.850000", "094302.310000", "094302.770000", "094303.230000", "094303.690000", "094304.150000", "094304.610000", "094305.070000", "094305.530000", "094305.990000", "094306.450000", "094306.910000", "094307.370000", "094307.830000", "094308.290000", "094308.750000", "094309.210000", "094309.670000", "094310.130000", "094310.590000", "094311.050000", "094311.510000", "094311.970000", "094312.430000", "094312.890000", "094313.350000", "094313.810000", "094314.270000", "094314.730000", "094315.190000", "094315.650000", "094316.110000", "094316.570000", "094317.030000", "094317.490000", "094317.950000", "094318.410000", "094318.870000", "094319.330000", "094319.790000", "094320.250000", "094320.710000", "094321.170000", "094321.630000", "094322.090000", "094322.550000", "094323.010000", "094323.470000", "094323.930000", "094324.390000", "094324.850000", "094325.310000", "094325.770000", "094326.230000", "094326.690000", "094327.150000", "094327.610000", "094328.070000", "094328.530000", "094328.990000", "094329.450000", "094329.910000", "094330.370000", "094330.830000", "094331.290000", "094331.750000", "094332.210000", "094332.670000", "094333.130000", "094333.590000", "094334.050000", "094334.510000", "094334.970000", "094335.430000", "094335.890000", "094336.350000", "094336.810000", "094337.270000", "094337.730000", "094338.190000", "094338.650000", "094339.110000", "094339.570000", "094340.030000", "094340.490000", "094340.950000", "094341.410000", "094341.870000", "094342.330000", "094342.790000", "094343.250000", "094343.710000", "094344.170000", "094344.630000", "094345.090000", "094345.550000", "094346.010000", "094346.470000", "094346.930000", "094347.390000", "094347.850000", "094348.310000", "094348.770000", "094349.230000", "094349.690000", "094350.150000", "094350.610000", "094351.070000", "094351.530000", "094351.990000", "094352.450000", "094352.910000", "094353.370000", "094353.830000", "094354.290000", "094354.750000", "094355.210000", "094355.670000", "094356.130000", "094356.590000", "094357.050000", "094357.510000", "094357.970000", "094358.430000", "094358.890000", "094359.350000", "094359.810000", "094400.270000", "094400.730000", "094401.190000", "094401.650000", "094402.110000", "094402.570000", "094403.030000", "094403.490000", "094403.950000", "094404.410000", "094404.870000", "094405.330000", "094405.790000", "094406.250000", "094406.710000", "094407.170000", "094407.630000", "094408.090000", "094408.550000", "094409.010000", "094409.470000", "094409.930000", "094410.390000", "094410.850000", "094411.310000", "094411.770000", "094412.230000", "094412.690000", "094413.150000", "094413.610000", "094414.070000", "094414.530000", "094414.990000", "094415.450000", "094415.910000", "094416.370000", "094416.830000", "094417.290000", "094417.750000", "094418.210000", "094418.670000", "094419.130000", "094419.590000", "094420.050000", "094420.510000", "094420.970000", "094421.430000", "094421.890000", "094422.350000", "094422.810000", "094423.270000", "094423.730000", "094424.190000", "094424.650000", "094425.110000", "094425.570000", "094426.030000", "094426.490000", "094426.950000", "094427.410000", "094427.870000", "094428.330000", "094428.790000", "094429.250000", "094429.710000", "094430.170000", "094430.630000", "094431.090000", "094431.550000", "094432.010000", "094432.470000", "094432.930000", "094433.390000", "094433.850000", "094434.310000", "094434.770000", "094435.230000", "094435.690000", "094436.150000", "094436.610000", "094437.070000", "094437.530000", "094437.990000", "094438.450000", "094438.910000", "094439.370000", "094439.830000", "094440.290000", "094440.750000", "094441.210000", "094441.670000", "094442.130000", "094442.590000", "094443.050000", "094443.510000", "094443.970000", "094444.430000", "094444.890000", "094445.350000", "094445.810000", "094446.270000", "094446.730000", "094447.190000", "094447.650000", "094448.110000", "094448.570000", "094449.030000", "094449.490000", "094449.950000", "094450.410000", "094450.870000", "094451.330000", "094451.790000", "094452.250000", "094452.710000", "094453.170000", "094453.630000", "094454.090000", "094454.550000", "094455.010000", "094455.470000", "094455.930000", "094456.390000", "094456.850000", "094457.310000", "094457.770000", "094458.230000", "094458.690000", "094459.150000", "094459.610000", "094500.070000", "094500.530000", "094500.990000", "094501.450000", "094501.910000", "094502.370000", "094502.830000", "094503.290000", "094503.750000", "094504.210000", "094504.670000", "094505.130000", "094505.590000", "094506.050000", "094506.510000", "094506.970000", "094507.430000", "094507.890000", "094508.350000", "094508.810000", "094509.270000", "094509.730000", "094510.190000", "094510.650000", "094511.110000", "094511.570000", "094512.030000", "094512.490000", "094512.950000", "094513.410000", "094513.870000", "094514.330000", "094514.790000", "094515.250000", "094515.710000", "094516.170000", "094516.630000", "094517.090000", "094517.550000", "094518.010000", "094518.470000", "094518.930000", "094519.390000", "094519.850000", "094520.310000", "094520.770000", "094521.230000", "094521.690000", "094522.150000", "094522.610000", "094523.070000", "094523.530000", "094523.990000", "094524.450000", "094524.910000", "094525.370000", "094525.830000", "094526.290000", "094526.750000", "094527.210000", "094527.670000", "094528.130000", "094528.590000", "094529.050000", "094529.510000", "094529.970000", "094530.430000", "094530.890000", "094531.350000", "094531.810000", "094532.270000", "094532.730000", "094533.190000", "094533.650000", "094534.110000", "094534.570000", "094535.030000", "094535.490000", "094535.950000", "094536.410000", "094536.870000", "094537.330000", "094537.790000", "094538.250000", "094538.710000", "094539.170000", "094539.630000", "094540.090000", "094540.550000", "094541.010000", "094541.470000", "094541.930000", "094542.390000", "094542.850000", "094543.310000", "094543.770000", "094544.230000", "094544.690000", "094545.150000", "094545.610000", "094546.070000", "094546.530000", "094546.990000", "094547.450000", "094547.910000", "094548.370000", "094548.830000", "094549.290000", "094549.750000", "094550.210000", "094550.670000", "094551.130000", "094551.590000", "094552.050000", "094552.510000", "094552.970000", "094553.430000", "094553.890000", "094554.350000", "094554.810000", "094555.270000", "094555.730000", "094556.190000", "094556.650000", "094557.110000", "094557.570000", "094558.030000", "094558.490000", "094558.950000", "094559.410000", "094559.870000", "094600.330000", "094600.790000", "094601.250000", "094601.710000", "094602.170000", "094602.630000", "094603.090000", "094603.550000", "094604.010000", "094604.470000", "094604.930000", "094605.390000", "094605.850000", "094606.310000", "094606.770000", "094607.230000", "094607.690000", "094608.150000", "094608.610000", "094609.070000", "094609.530000", "094609.990000", "094610.450000", "094610.910000", "094611.370000", "094611.830000", "094612.290000", "094612.750000", "094613.210000", "094613.670000", "094614.130000", "094614.590000", "094615.050000", "094615.510000", "094615.970000", "094616.430000", "094616.890000", "094617.350000", "094617.810000", "094618.270000", "094618.730000", "094619.190000", "094619.650000", "094620.110000", "094620.570000", "094621.030000", "094621.490000", "094621.950000", "094622.410000", "094622.870000", "094623.330000", "094623.790000", "094624.250000", "094624.710000", "094625.170000", "094625.630000", "094626.090000", "094626.550000", "094627.010000", "094627.470000", "094627.930000", "094628.390000", "094628.850000", "094629.310000", "094629.770000", "094630.230000", "094630.690000", "094631.150000", "094631.610000", "094632.070000", "094632.530000", "094632.990000", "094633.450000", "094633.910000", "094634.370000", "094634.830000", "094635.290000", "094635.750000", "094636.210000", "094636.670000", "094637.130000", "094637.590000", "094638.050000", "094638.510000", "094638.970000", "094639.430000", "094639.890000", "094640.350000", "094640.810000", "094641.270000", "094641.730000", "094642.190000", "094642.650000", "094643.110000", "094643.570000", "094644.030000", "094644.490000", "094644.950000", "094645.410000", "094645.870000", "094646.330000", "094646.790000", "094647.250000", "094647.710000", "094648.170000", "094648.630000", "094649.090000", "094649.550000", "094650.010000", "094650.470000", "094650.930000", "094651.390000", "094651.850000", "094652.310000", "094652.770000", "094653.230000", "094653.690000", "094654.150000", "094654.610000", "094655.070000", "094655.530000", "094655.990000", "094656.450000", "094656.910000", "094657.370000", "094657.830000", "094658.290000", "094658.750000", "094659.210000", "094659.670000", "094700.130000", "094700.590000", "094701.050000", "094701.510000", "094701.970000", "094702.430000", "094702.890000", "094703.350000", "094703.810000", "094704.270000", "094704.730000", "094705.190000", "094705.650000", "094706.110000", "094706.570000", "094707.030000", "094707.490000", "094707.950000", "094708.410000", "094708.870000", "094709.330000", "094709.790000", "094710.250000", "094710.710000", "094711.170000", "094711.630000", "094712.090000", "094712.550000", "094713.010000", "094713.470000", "094713.930000", "094714.390000", "094714.850000", "094715.310000", "094715.770000", "094716.230000", "094716.690000", "094717.150000", "094717.610000", "094718.070000", "094718.530000", "094718.990000", "094719.450000", "094719.910000", "094720.370000", "094720.830000", "094721.290000", "094721.750000", "094722.210000", "094722.670000", "094723.130000", "094723.590000", "094724.050000", "094724.510000", "094724.970000", "094725.430000", "094725.890000", "094726.350000", "094726.810000", "094727.270000", "094727.730000", "094728.190000", "094728.650000", "094729.110000", "094729.570000", "094730.030000", "094730.490000", "094730.950000", "094731.410000", "094731.870000", "094732.330000", "094732.790000", "094733.250000", "094733.710000", "094734.170000", "094734.630000", "094735.090000", "094735.550000", "094736.010000", "094736.470000", "094736.930000", "094737.390000", "094737.850000", "094738.310000", "094738.770000", "094739.230000", "094739.690000", "094740.150000", "094740.610000", "094741.070000", "094741.530000", "094741.990000", "094742.450000", "094742.910000", "094743.370000", "094743.830000", "094744.290000", "094744.750000", "094745.210000", "094745.670000", "094746.130000", "094746.590000", "094747.050000", "094747.510000", "094747.970000", "094748.430000", "094748.890000", "094749.350000", "094749.810000", "094750.270000", "094750.730000", "094751.190000", "094751.650000", "094752.110000", "094752.570000", "094753.030000", "094753.490000", "094753.950000", "094754.410000", "094754.870000", "094755.330000", "094755.790000", "094756.250000", "094756.710000", "094757.170000", "094757.630000", "094758.090000", "094758.550000", "094759.010000", "094759.470000", "094759.930000", "094800.390000", "094800.850000", "094801.310000", "094801.770000", "094802.230000", "094802.690000", "094803.150000", "094803.610000", "094804.070000", "094804.530000", "094804.990000", "094805.450000", "094805.910000", "094806.370000", "094806.830000", "094807.290000", "094807.750000", "094808.210000", "094808.670000", "094809.130000", "094809.590000", "094810.050000", "094810.510000", "094810.970000", "094811.430000", "094811.890000", "094812.350000", "094812.810000", "094813.270000", "094813.730000", "094814.190000", "094814.650000", "094815.110000", "094815.570000", "094816.030000", "094816.490000", "094816.950000", "094817.410000", "094817.870000", "094818.330000", "094818.790000", "094819.250000", "094819.710000", "094820.170000", "094820.630000", "094821.090000", "094821.550000", "094822.010000", "094822.470000", "094822.930000", "094823.390000", "094823.850000", "094824.310000", "094824.770000", "094825.230000", "094825.690000", "094826.150000", "094826.610000", "094827.070000", "094827.530000", "094827.990000", "094828.450000", "094828.910000", "094829.370000", "094829.830000", "094830.290000", "094830.750000", "094831.210000", "094831.670000", "094832.130000", "094832.590000", "094833.050000", "094833.510000", "094833.970000", "094834.430000", "094834.890000", "094835.350000", "094835.810000", "094836.270000", "094836.730000", "094837.190000", "094837.650000", "094838.110000", "094838.570000", "094839.030000", "094839.490000", "094839.950000", "094840.410000", "094840.870000", "094841.330000", "094841.790000", "094842.250000", "094842.710000", "094843.170000", "094843.630000", "094844.090000", "094844.550000", "094845.010000", "094845.470000", "094845.930000", "094846.390000", "094846.850000", "094847.310000", "094847.770000", "094848.230000", "094848.690000", "094849.150000", "094849.610000", "094850.070000", "094850.530000", "094850.990000", "094851.450000", "094851.910000", "094852.370000", "094852.830000", "094853.290000", "094853.750000", "094854.210000", "094854.670000", "094855.130000", "094855.590000", "094856.050000", "094856.510000", "094856.970000", "094857.430000", "094857.890000", "094858.350000", "094858.810000", "094859.270000", "094859.730000", "094900.190000", "094900.650000", "094901.110000", "094901.570000", "094902.030000", "094902.490000", "094902.950000", "094903.410000", "094903.870000", "094904.330000", "094904.790000", "094905.250000", "094905.710000", "094906.170000", "094906.630000", "094907.090000", "094907.550000", "094908.010000", "094908.470000", "094908.930000", "094909.390000", "094909.850000", "094910.310000", "094910.770000", "094911.230000", "094911.690000", "094912.150000", "094912.610000", "094913.070000", "094913.530000", "094913.990000", "094914.450000", "094914.910000", "094915.370000", "094915.830000", "094916.290000", "094916.750000", "094917.210000", "094917.670000", "094918.130000", "094918.590000", "094919.050000", "094919.510000", "094919.970000", "094920.430000", "094920.890000", "094921.350000", "094921.810000", "094922.270000", "094922.730000", "094923.190000", "094923.650000", "094924.110000", "094924.570000", "094925.030000", "094925.490000", "094925.950000", "094926.410000", "094926.870000", "094927.330000", "094927.790000", "094928.250000", "094928.710000", "094929.170000", "094929.630000", "094930.090000", "094930.550000", "094931.010000", "094931.470000", "094931.930000", "094932.390000", "094932.850000", "094933.310000", "094933.770000", "094934.230000", "094934.690000", "094935.150000", "094935.610000", "094936.070000", "094936.530000", "094936.990000", "094937.450000", "094937.910000", "094938.370000", "094938.830000", "094939.290000", "094939.750000", "094940.210000", "094940.670000", "094941.130000", "094941.590000", "094942.050000", "094942.510000", "094942.970000", "094943.430000", "094943.890000", "094944.350000", "094944.810000", "094945.270000", "094945.730000", "094946.190000", "094946.650000", "094947.110000", "094947.570000", "094948.030000", "094948.490000", "094948.950000", "094949.410000", "094949.870000", "094950.330000", "094950.790000", "094951.250000", "094951.710000", "094952.170000", "094952.630000", "094953.090000", "094953.550000", "094954.010000", "094954.470000", "094954.930000", "094955.390000", "094955.850000", "094956.310000", "094956.770000", "094957.230000", "094957.690000"],
