{
  "AcquisitionMatrixPE": 82,
  "AcquisitionNumber": 1,
  "AcquisitionTime": "09:05:11.202500",
  "BandwidthPerPixelPhaseEncode": 24.888,
  "BaseResolution": 82,
  "BodyPartExamined": "BRAIN",
  "ConsistencyInfo": "N4_VE11C_LATEST_20160120",
  "ConversionSoftware": "dcm2niix",
  "ConversionSoftwareVersion": "v1.0.20201102",
  "DerivedVendorReportedEchoSpacing": 0.00049,
  "DeviceSerialNumber": "66112",
  "DwellTime": 2e-06,
  "EchoTime": 0.0272,
  "EchoTrainLength": 82,
  "EffectiveEchoSpacing": 0.00049,
  "FlipAngle": 44,
  "ImageComments": "Unaliased MB8/PE3",
  "ImageOrientationPatientDICOM": [0.990734, 0.127614, 0.0464775, -0.120418, 0.983649, -0.13392],
  "ImageType": [
    "ORIGINAL",
    "PRIMARY",
    "M",
    "MB",
    "ND",
    "NORM",
    "MOSAIC"
],
  "ImagingFrequency": 123.252,
  "InPlanePhaseEncodingDirectionDICOM": "COL",
  "InstitutionAddress": "Maynard 3,Hanover,NH,US,03755",
  "InstitutionName": "Dartmouth College - PBS",
  "InstitutionalDepartmentName": "Department",
  "MRAcquisitionType": "2D",
  "MagneticFieldStrength": 3,
  "Manufacturer": "Siemens",
  "ManufacturersModelName": "Prisma",
  "Modality": "MR",
  "MultibandAccelerationFactor": 8,
  "PartialFourier": 1,
  "PatientPosition": "HFS",
  "PercentPhaseFOV": 100,
  "PercentSampling": 100,
  "PhaseEncodingDirection": "j-",
  "PhaseEncodingSteps": 82,
  "PhaseResolution": 1,
  "PixelBandwidth": 3050,
  "ProcedureStepDescription": "Wager_Wager^1076_spacetop",
  "ProtocolName": "func_run-01_task-narratives_acq-ap-mb8",
  "PulseSequenceDetails": "%CustomerSeq%\\cmrr_mbep2d_bold",
  "ReceiveCoilActiveElements": "HEA;HEP",
  "ReceiveCoilName": "Head_32",
  "ReconMatrixPE": 82,
  "RepetitionTime": 0.46,
  "SAR": 0.101185,
  "ScanOptions": "FS",
  "ScanningSequence": "EP",
  "SequenceName": "epfid2d1_82",
  "SequenceVariant": "SK\\SS",
  "SeriesDescription": "func_run-01_task-narratives_acq-ap-mb8",
  "SeriesNumber": 8,
  "ShimSetting": [4163, -7755, -7250, 730, -23, -230, -66, 43],
  "SliceThickness": 2.7,
  "SliceTiming": [0, 0.25, 0.0625, 0.3125, 0.125, 0.375, 0.1875, 0, 0.25, 0.0625, 0.3125, 0.125, 0.375, 0.1875, 0, 0.25, 0.0625, 0.3125, 0.125, 0.375, 0.1875, 0, 0.25, 0.0625, 0.3125, 0.125, 0.375, 0.1875, 0, 0.25, 0.0625, 0.3125, 0.125, 0.375, 0.1875, 0, 0.25, 0.0625, 0.3125, 0.125, 0.375, 0.1875, 0, 0.25, 0.0625, 0.3125, 0.125, 0.375, 0.1875, 0, 0.25, 0.0625, 0.3125, 0.125, 0.375, 0.1875],
  "SoftwareVersions": "syngo MR E11",
  "SpacingBetweenSlices": 2.7,
  "StationName": "AWP66112",
  "TaskName": "narratives",
  "TotalReadoutTime": 0.03969,
  "TxRefAmp": 233.877,
  "WipMemBlock": "dfe462b8-cef2-416d-a296-ca8c5e1869c1||Sequence: R016 ve11c/master r/e634e98; Dec 19 2017 11:00:25 by eja",
  "dcmmeta_affine": [
    [-2.6580679416656494, -0.3230739235877991, 0.16958042979240417, 119.93180847167969],
    [-0.34237805008888245, 2.6390576362609863, -0.3431231379508972, -68.67263793945312],
    [0.12469568848609924, 0.3592982292175293, 2.672734260559082, -81.88152313232422],
    [0.0, 0.0, 0.0, 1.0]
],
  "dcmmeta_reorient_transform": [
    [0.0, -1.0, 0.0, 81.0],
    [1.0, 0.0, 0.0, 0.0],
    [0.0, 0.0, 1.0, 0.0],
    [0.0, 0.0, 0.0, 1.0]
],
  "dcmmeta_shape": [82, 82, 56, 967],
  "dcmmeta_slice_dim": 2,
  "dcmmeta_version": 0.6,
  "global": {
    "const": {
      "AccessionNumber": "A003610",
      "AcquisitionMatrix": [82, 0, 0, 82],
      "AngioFlag": "N",
      "BitsAllocated": 16,
      "BitsStored": 16,
      "BodyPartExamined": "BRAIN",
      "Columns": 656,
      "EchoNumbers": 1,
      "EchoTime": 27.2,
      "EchoTrainLength": 82,
      "FlipAngle": 44.0,
      "HighBit": 15,
      "ImageOrientationPatient": [0.99073437652927, 0.12761363062302, 0.04647748317585, -0.1204184577367, 0.98364869865934, -0.1339202473942],
      "ImagePositionPatient": [-763.9060939094, -1000.7630363985, 14.552562508363],
      "ImageType": [
        "ORIGINAL",
        "PRIMARY",
        "M",
        "MB",
        "ND",
        "NORM",
        "MOSAIC"
],
      "ImagedNucleus": "1H",
      "ImagingFrequency": 123.252167,
      "InPlanePhaseEncodingDirection": "COL",
      "MRAcquisitionType": "2D",
      "MagneticFieldStrength": 3.0,
      "Manufacturer": "SIEMENS",
      "ManufacturerModelName": "Prisma",
      "Modality": "MR",
      "NumberOfAverages": 1.0,
      "NumberOfPhaseEncodingSteps": 82,
      "PercentPhaseFieldOfView": 100.0,
      "PercentSampling": 100.0,
      "PerformedProcedureStepStartTime": "082930.379000",
      "PhotometricInterpretation": "MONOCHROME2",
      "PixelBandwidth": 3050.0,
      "PixelRepresentation": 0,
      "PixelSpacing": [2.6829268932343, 2.6829268932343],
      "ProtocolName": "func_run-01_task-narratives_acq-ap-mb8",
      "RepetitionTime": 460.0,
      "Rows": 656,
      "SAR": 0.10118459380181,
      "SamplesPerPixel": 1,
      "ScanOptions": "FS",
      "ScanningSequence": "EP",
      "SequenceName": "epfid2d1_82",
      "SequenceVariant": [
        "SK",
        "SS"
],
      "SeriesDescription": "func_run-01_task-narratives_acq-ap-mb8",
      "SeriesNumber": 8,
      "SeriesTime": "090526.305000",
      "SliceLocation": -64.794927977622,
      "SliceThickness": 2.7000000476837,
      "SmallestImagePixelValue": 0,
      "SoftwareVersions": "syngo MR E11",
      "SpacingBetweenSlices": 2.699999981781,
      "SpecificCharacterSet": "ISO_IR 100",
      "StudyID": "1",
      "StudyTime": "082930.272000",
      "TransmitCoilName": "Body",
      "VariableFlipAngleFlag": "N",
      "WindowCenterWidthExplanation": "Algo1",
      "dBdt": 0.0},
    "slices": {}
  },
  "time": {
    "samples": {
      "AcquisitionNumber": [1, 2, 3, 4, 5, 6, 7, 8, 9, 10, 11, 12, 13, 14, 15, 16, 17, 18, 19, 20, 21, 22, 23, 24, 25, 26, 27, 28, 29, 30, 31, 32, 33, 34, 35, 36, 37, 38, 39, 40, 41, 42, 43, 44, 45, 46, 47, 48, 49, 50, 51, 52, 53, 54, 55, 56, 57, 58, 59, 60, 61, 62, 63, 64, 65, 66, 67, 68, 69, 70, 71, 72, 73, 74, 75, 76, 77, 78, 79, 80, 81, 82, 83, 84, 85, 86, 87, 88, 89, 90, 91, 92, 93, 94, 95, 96, 97, 98, 99, 100, 101, 102, 103, 104, 105, 106, 107, 108, 109, 110, 111, 112, 113, 114, 115, 116, 117, 118, 119, 120, 121, 122, 123, 124, 125, 126, 127, 128, 129, 130, 131, 132, 133, 134, 135, 136, 137, 138, 139, 140, 141, 142, 143, 144, 145, 146, 147, 148, 149, 150, 151, 152, 153, 154, 155, 156, 157, 158, 159, 160, 161, 162, 163, 164, 165, 166, 167, 168, 169, 170, 171, 172, 173, 174, 175, 176, 177, 178, 179, 180, 181, 182, 183, 184, 185, 186, 187, 188, 189, 190, 191, 192, 193, 194, 195, 196, 197, 198, 199, 200, 201, 202, 203, 204, 205, 206, 207, 208, 209, 210, 211, 212, 213, 214, 215, 216, 217, 218, 219, 220, 221, 222, 223, 224, 225, 226, 227, 228, 229, 230, 231, 232, 233, 234, 235, 236, 237, 238, 239, 240, 241, 242, 243, 244, 245, 246, 247, 248, 249, 250, 251, 252, 253, 254, 255, 256, 257, 258, 259, 260, 261, 262, 263, 264, 265, 266, 267, 268, 269, 270, 271, 272, 273, 274, 275, 276, 277, 278, 279, 280, 281, 282, 283, 284, 285, 286, 287, 288, 289, 290, 291, 292, 293, 294, 295, 296, 297, 298, 299, 300, 301, 302, 303, 304, 305, 306, 307, 308, 309, 310, 311, 312, 313, 314, 315, 316, 317, 318, 319, 320, 321, 322, 323, 324, 325, 326, 327, 328, 329, 330, 331, 332, 333, 334, 335, 336, 337, 338, 339, 340, 341, 342, 343, 344, 345, 346, 347, 348, 349, 350, 351, 352, 353, 354, 355, 356, 357, 358, 359, 360, 361, 362, 363, 364, 365, 366, 367, 368, 369, 370, 371, 372, 373, 374, 375, 376, 377, 378, 379, 380, 381, 382, 383, 384, 385, 386, 387, 388, 389, 390, 391, 392, 393, 394, 395, 396, 397, 398, 399, 400, 401, 402, 403, 404, 405, 406, 407, 408, 409, 410, 411, 412, 413, 414, 415, 416, 417, 418, 419, 420, 421, 422, 423, 424, 425, 426, 427, 428, 429, 430, 431, 432, 433, 434, 435, 436, 437, 438, 439, 440, 441, 442, 443, 444, 445, 446, 447, 448, 449, 450, 451, 452, 453, 454, 455, 456, 457, 458, 459, 460, 461, 462, 463, 464, 465, 466, 467, 468, 469, 470, 471, 472, 473, 474, 475, 476, 477, 478, 479, 480, 481, 482, 483, 484, 485, 486, 487, 488, 489, 490, 491, 492, 493, 494, 495, 496, 497, 498, 499, 500, 501, 502, 503, 504, 505, 506, 507, 508, 509, 510, 511, 512, 513, 514, 515, 516, 517, 518, 519, 520, 521, 522, 523, 524, 525, 526, 527, 528, 529, 530, 531, 532, 533, 534, 535, 536, 537, 538, 539, 540, 541, 542, 543, 544, 545, 546, 547, 548, 549, 550, 551, 552, 553, 554, 555, 556, 557, 558, 559, 560, 561, 562, 563, 564, 565, 566, 567, 568, 569, 570, 571, 572, 573, 574, 575, 576, 577, 578, 579, 580, 581, 582, 583, 584, 585, 586, 587, 588, 589, 590, 591, 592, 593, 594, 595, 596, 597, 598, 599, 600, 601, 602, 603, 604, 605, 606, 607, 608, 609, 610, 611, 612, 613, 614, 615, 616, 617, 618, 619, 620, 621, 622, 623, 624, 625, 626, 627, 628, 629, 630, 631, 632, 633, 634, 635, 636, 637, 638, 639, 640, 641, 642, 643, 644, 645, 646, 647, 648, 649, 650, 651, 652, 653, 654, 655, 656, 657, 658, 659, 660, 661, 662, 663, 664, 665, 666, 667, 668, 669, 670, 671, 672, 673, 674, 675, 676, 677, 678, 679, 680, 681, 682, 683, 684, 685, 686, 687, 688, 689, 690, 691, 692, 693, 694, 695, 696, 697, 698, 699, 700, 701, 702, 703, 704, 705, 706, 707, 708, 709, 710, 711, 712, 713, 714, 715, 716, 717, 718, 719, 720, 721, 722, 723, 724, 725, 726, 727, 728, 729, 730, 731, 732, 733, 734, 735, 736, 737, 738, 739, 740, 741, 742, 743, 744, 745, 746, 747, 748, 749, 750, 751, 752, 753, 754, 755, 756, 757, 758, 759, 760, 761, 762, 763, 764, 765, 766, 767, 768, 769, 770, 771, 772, 773, 774, 775, 776, 777, 778, 779, 780, 781, 782, 783, 784, 785, 786, 787, 788, 789, 790, 791, 792, 793, 794, 795, 796, 797, 798, 799, 800, 801, 802, 803, 804, 805, 806, 807, 808, 809, 810, 811, 812, 813, 814, 815, 816, 817, 818, 819, 820, 821, 822, 823, 824, 825, 826, 827, 828, 829, 830, 831, 832, 833, 834, 835, 836, 837, 838, 839, 840, 841, 842, 843, 844, 845, 846, 847, 848, 849, 850, 851, 852, 853, 854, 855, 856, 857, 858, 859, 860, 861, 862, 863, 864, 865, 866, 867, 868, 869, 870, 871, 872, 873, 874, 875, 876, 877, 878, 879, 880, 881, 882, 883, 884, 885, 886, 887, 888, 889, 890, 891, 892, 893, 894, 895, 896, 897, 898, 899, 900, 901, 902, 903, 904, 905, 906, 907, 908, 909, 910, 911, 912, 913, 914, 915, 916, 917, 918, 919, 920, 921, 922, 923, 924, 925, 926, 927, 928, 929, 930, 931, 932, 933, 934, 935, 936, 937, 938, 939, 940, 941, 942, 943, 944, 945, 946, 947, 948, 949, 950, 951, 952, 953, 954, 955, 956, 957, 958, 959, 960, 961, 962, 963, 964, 965, 966, 967],
      "AcquisitionTime": ["090511.202500", "090511.662500", "090512.122500", "090512.582500", "090513.042500", "090513.502500", "090513.962500", "090514.422500", "090514.882500", "090515.342500", "090515.802500", "090516.262500", "090516.722500", "090517.182500", "090517.642500", "090518.102500", "090518.562500", "090519.022500", "090519.482500", "090519.942500", "090520.402500", "090520.862500", "090521.322500", "090521.782500", "090522.242500", "090522.702500", "090523.162500", "090523.622500", "090524.082500", "090524.542500", "090525.002500", "090525.462500", "090525.922500", "090526.382500", "090526.842500", "090527.302500", "090527.762500", "090528.222500", "090528.682500", "090529.142500", "090529.602500", "090530.062500", "090530.522500", "090530.982500", "090531.442500", "090531.902500", "090532.362500", "090532.822500", "090533.282500", "090533.742500", "090534.202500", "090534.662500", "090535.122500", "090535.582500", "090536.042500", "090536.502500", "090536.962500", "090537.422500", "090537.882500", "090538.342500", "090538.802500", "090539.262500", "090539.722500", "090540.182500", "090540.642500", "090541.102500", "090541.562500", "090542.022500", "090542.482500", "090542.942500", "090543.402500", "090543.862500", "090544.322500", "090544.782500", "090545.242500", "090545.702500", "090546.162500", "090546.622500", "090547.082500", "090547.542500", "090548.002500", "090548.462500", "090548.922500", "090549.382500", "090549.842500", "090550.302500", "090550.762500", "090551.222500", "090551.682500", "090552.142500", "090552.602500", "090553.062500", "090553.522500", "090553.982500", "090554.442500", "090554.902500", "090555.362500", "090555.822500", "090556.282500", "090556.742500", "090557.202500", "090557.662500", "090558.122500", "090558.582500", "090559.042500", "090559.502500", "090559.962500", "090600.422500", "090600.882500", "090601.342500", "090601.802500", "090602.262500", "090602.722500", "090603.182500", "090603.642500", "090604.102500", "090604.562500", "090605.022500", "090605.482500", "090605.942500", "090606.402500", "090606.862500", "090607.322500", "090607.782500", "090608.242500", "090608.702500", "090609.162500", "090609.622500", "090610.082500", "090610.542500", "090611.002500", "090611.462500", "090611.922500", "090612.382500", "090612.842500", "090613.302500", "090613.762500", "090614.222500", "090614.682500", "090615.142500", "090615.602500", "090616.062500", "090616.522500", "090616.982500", "090617.442500", "090617.902500", "090618.362500", "090618.822500", "090619.282500", "090619.742500", "090620.202500", "090620.662500", "090621.122500", "090621.582500", "090622.042500", "090622.502500", "090622.962500", "090623.422500", "090623.882500", "090624.342500", "090624.802500", "090625.262500", "090625.722500", "090626.182500", "090626.642500", "090627.102500", "090627.562500", "090628.022500", "090628.482500", "090628.942500", "090629.402500", "090629.862500", "090630.322500", "090630.782500", "090631.242500", "090631.702500", "090632.162500", "090632.622500", "090633.082500", "090633.542500", "090634.002500", "090634.462500", "090634.922500", "090635.382500", "090635.842500", "090636.302500", "090636.762500", "090637.222500", "090637.682500", "090638.142500", "090638.602500", "090639.062500", "090639.522500", "090639.982500", "090640.442500", "090640.902500", "090641.362500", "090641.822500", "090642.282500", "090642.742500", "090643.202500", "090643.662500", "090644.122500", "090644.582500", "090645.042500", "090645.502500", "090645.962500", "090646.422500", "090646.882500", "090647.342500", "090647.802500", "090648.262500", "090648.722500", "090649.182500", "090649.642500", "090650.102500", "090650.562500", "090651.022500", "090651.482500", "090651.942500", "090652.402500", "090652.862500", "090653.322500", "090653.782500", "090654.242500", "090654.702500", "090655.162500", "090655.622500", "090656.082500", "090656.542500", "090657.002500", "090657.462500", "090657.922500", "090658.382500", "090658.842500", "090659.302500", "090659.762500", "090700.222500", "090700.682500", "090701.142500", "090701.602500", "090702.062500", "090702.522500", "090702.982500", "090703.442500", "090703.902500", "090704.362500", "090704.822500", "090705.282500", "090705.742500", "090706.202500", "090706.662500", "090707.122500", "090707.582500", "090708.042500", "090708.502500", "090708.962500", "090709.422500", "090709.882500", "090710.342500", "090710.802500", "090711.262500", "090711.722500", "090712.182500", "090712.642500", "090713.102500", "090713.562500", "090714.022500", "090714.482500", "090714.942500", "090715.402500", "090715.862500", "090716.322500", "090716.782500", "090717.242500", "090717.702500", "090718.162500", "090718.622500", "090719.082500", "090719.542500", "090720.002500", "090720.462500", "090720.922500", "090721.382500", "090721.842500", "090722.302500", "090722.762500", "090723.222500", "090723.682500", "090724.142500", "090724.602500", "090725.062500", "090725.522500", "090725.982500", "090726.442500", "090726.902500", "090727.362500", "090727.822500", "090728.282500", "090728.742500", "090729.202500", "090729.662500", "090730.122500", "090730.582500", "090731.042500", "090731.502500", "090731.962500", "090732.422500", "090732.882500", "090733.342500", "090733.802500", "090734.262500", "090734.722500", "090735.182500", "090735.642500", "090736.102500", "090736.562500", "090737.022500", "090737.482500", "090737.942500", "090738.402500", "090738.862500", "090739.322500", "090739.782500", "090740.242500", "090740.702500", "090741.162500", "090741.622500", "090742.082500", "090742.542500", "090743.002500", "090743.462500", "090743.922500", "090744.382500", "090744.842500", "090745.302500", "090745.762500", "090746.222500", "090746.682500", "090747.142500", "090747.602500", "090748.062500", "090748.522500", "090748.982500", "090749.442500", "090749.902500", "090750.362500", "090750.822500", "090751.282500", "090751.742500", "090752.202500", "090752.662500", "090753.122500", "090753.582500", "090754.042500", "090754.502500", "090754.962500", "090755.422500", "090755.882500", "090756.342500", "090756.802500", "090757.262500", "090757.722500", "090758.182500", "090758.642500", "090759.102500", "090759.562500", "090800.022500", "090800.482500", "090800.942500", "090801.402500", "090801.862500", "090802.322500", "090802.782500", "090803.242500", "090803.702500", "090804.162500", "090804.622500", "090805.082500", "090805.542500", "090806.002500", "090806.462500", "090806.922500", "090807.382500", "090807.842500", "090808.302500", "090808.762500", "090809.222500", "090809.682500", "090810.142500", "090810.602500", "090811.062500", "090811.522500", "090811.982500", "090812.442500", "090812.902500", "090813.362500", "090813.822500", "090814.282500", "090814.742500", "090815.202500", "090815.662500", "090816.122500", "090816.582500", "090817.042500", "090817.502500", "090817.962500", "090818.422500", "090818.882500", "090819.342500", "090819.802500", "090820.262500", "090820.722500", "090821.182500", "090821.642500", "090822.102500", "090822.562500", "090823.022500", "090823.482500", "090823.942500", "090824.402500", "090824.862500", "090825.322500", "090825.782500", "090826.242500", "090826.702500", "090827.162500", "090827.622500", "090828.082500", "090828.542500", "090829.002500", "090829.462500", "090829.922500", "090830.382500", "090830.842500", "090831.302500", "090831.762500", "090832.222500", "090832.682500", "090833.142500", "090833.602500", "090834.062500", "090834.522500", "090834.982500", "090835.442500", "090835.902500", "090836.362500", "090836.822500", "090837.282500", "090837.742500", "090838.202500", "090838.662500", "090839.122500", "090839.582500", "090840.042500", "090840.502500", "090840.962500", "090841.422500", "090841.882500", "090842.342500", "090842.802500", "090843.262500", "090843.722500", "090844.182500", "090844.642500", "090845.102500", "090845.562500", "090846.022500", "090846.482500", "090846.942500", "090847.402500", "090847.862500", "090848.322500", "090848.782500", "090849.242500", "090849.702500", "090850.162500", "090850.622500", "090851.082500", "090851.542500", "090852.002500", "090852.462500", "090852.922500", "090853.382500", "090853.842500", "090854.302500", "090854.762500", "090855.222500", "090855.682500", "090856.142500", "090856.602500", "090857.062500", "090857.522500", "090857.982500", "090858.442500", "090858.902500", "090859.362500", "090859.822500", "090900.282500", "090900.742500", "090901.202500", "090901.662500", "090902.122500", "090902.582500", "090903.042500", "090903.502500", "090903.962500", "090904.422500", "090904.882500", "090905.342500", "090905.802500", "090906.262500", "090906.722500", "090907.182500", "090907.642500", "090908.102500", "090908.562500", "090909.022500", "090909.482500", "090909.942500", "090910.402500", "090910.862500", "090911.322500", "090911.782500", "090912.242500", "090912.702500", "090913.162500", "090913.622500", "090914.082500", "090914.542500", "090915.002500", "090915.462500", "090915.922500", "090916.382500", "090916.842500", "090917.302500", "090917.762500", "090918.222500", "090918.682500", "090919.142500", "090919.602500", "090920.062500", "090920.522500", "090920.982500", "090921.442500", "090921.902500", "090922.362500", "090922.822500", "090923.282500", "090923.742500", "090924.202500", "090924.662500", "090925.122500", "090925.582500", "090926.042500", "090926.502500", "090926.962500", "090927.422500", "090927.882500", "090928.342500", "090928.802500", "090929.262500", "090929.722500", "090930.182500", "090930.642500", "090931.102500", "090931.562500", "090932.022500", "090932.482500", "090932.942500", "090933.402500", "090933.862500", "090934.322500", "090934.782500", "090935.242500", "090935.702500", "090936.162500", "090936.622500", "090937.082500", "090937.542500", "090938.002500", "090938.462500", "090938.922500", "090939.382500", "090939.842500", "090940.302500", "090940.762500", "090941.222500", "090941.682500", "090942.142500", "090942.602500", "090943.062500", "090943.522500", "090943.982500", "090944.442500", "090944.902500", "090945.362500", "090945.822500", "090946.282500", "090946.742500", "090947.202500", "090947.662500", "090948.122500", "090948.582500", "090949.042500", "090949.502500", "090949.962500", "090950.422500", "090950.882500", "090951.342500", "090951.802500", "090952.262500", "090952.722500", "090953.182500", "090953.642500", "090954.102500", "090954.562500", "090955.022500", "090955.482500", "090955.942500", "090956.402500", "090956.862500", "090957.322500", "090957.782500", "090958.242500", "090958.702500", "090959.162500", "090959.622500", "091000.082500", "091000.542500", "091001.002500", "091001.462500", "091001.922500", "091002.382500", "091002.842500", "091003.302500", "091003.762500", "091004.222500", "091004.682500", "091005.142500", "091005.602500", "091006.062500", "091006.522500", "091006.982500", "091007.442500", "091007.902500", "091008.362500", "091008.822500", "091009.282500", "091009.742500", "091010.202500", "091010.662500", "091011.122500", "091011.582500", "091012.042500", "091012.502500", "091012.962500", "091013.422500", "091013.882500", "091014.342500", "091014.802500", "091015.262500", "091015.722500", "091016.182500", "091016.642500", "091017.102500", "091017.562500", "091018.022500", "091018.482500", "091018.942500", "091019.402500", "091019.862500", "091020.322500", "091020.782500", "091021.242500", "091021.702500", "091022.162500", "091022.622500", "091023.082500", "091023.542500", "091024.002500", "091024.462500", "091024.922500", "091025.382500", "091025.842500", "091026.302500", "091026.762500", "091027.222500", "091027.682500", "091028.142500", "091028.602500", "091029.062500", "091029.522500", "091029.982500", "091030.442500", "091030.902500", "091031.362500", "091031.822500", "091032.282500", "091032.742500", "091033.202500", "091033.662500", "091034.122500", "091034.582500", "091035.042500", "091035.502500", "091035.962500", "091036.422500", "091036.882500", "091037.342500", "091037.802500", "091038.262500", "091038.722500", "091039.182500", "091039.642500", "091040.102500", "091040.562500", "091041.022500", "091041.482500", "091041.942500", "091042.402500", "091042.862500", "091043.322500", "091043.782500", "091044.242500", "091044.702500", "091045.162500", "091045.622500", "091046.082500", "091046.542500", "091047.002500", "091047.462500", "091047.922500", "091048.382500", "091048.842500", "091049.302500", "091049.762500", "091050.222500", "091050.682500", "091051.142500", "091051.602500", "091052.062500", "091052.522500", "091052.982500", "091053.442500", "091053.902500", "091054.362500", "091054.822500", "091055.282500", "091055.742500", "091056.202500", "091056.662500", "091057.122500", "091057.582500", "091058.042500", "091058.502500", "091058.962500", "091059.422500", "091059.882500", "091100.342500", "091100.802500", "091101.262500", "091101.722500", "091102.182500", "091102.642500", "091103.102500", "091103.562500", "091104.022500", "091104.482500", "091104.942500", "091105.402500", "091105.862500", "091106.322500", "091106.782500", "091107.242500", "091107.702500", "091108.162500", "091108.622500", "091109.082500", "091109.542500", "091110.002500", "091110.462500", "091110.922500", "091111.382500", "091111.842500", "091112.302500", "091112.762500", "091113.222500", "091113.682500", "091114.142500", "091114.602500", "091115.062500", "091115.522500", "091115.982500", "091116.442500", "091116.902500", "091117.362500", "091117.822500", "091118.282500", "091118.742500", "091119.202500", "091119.662500", "091120.122500", "091120.582500", "091121.042500", "091121.502500", "091121.962500", "091122.422500", "091122.882500", "091123.342500", "091123.802500", "091124.262500", "091124.722500", "091125.182500", "091125.642500", "091126.102500", "091126.562500", "091127.022500", "091127.482500", "091127.942500", "091128.402500", "091128.862500", "091129.322500", "091129.782500", "091130.242500", "091130.702500", "091131.162500", "091131.622500", "091132.082500", "091132.542500", "091133.002500", "091133.462500", "091133.922500", "091134.382500", "091134.842500", "091135.302500", "091135.762500", "091136.222500", "091136.682500", "091137.142500", "091137.602500", "091138.062500", "091138.522500", "091138.982500", "091139.442500", "091139.902500", "091140.362500", "091140.822500", "091141.282500", "091141.742500", "091142.202500", "091142.662500", "091143.122500", "091143.582500", "091144.042500", "091144.502500", "091144.962500", "091145.422500", "091145.882500", "091146.342500", "091146.802500", "091147.262500", "091147.722500", "091148.182500", "091148.642500", "091149.102500", "091149.562500", "091150.022500", "091150.482500", "091150.942500", "091151.402500", "091151.862500", "091152.322500", "091152.782500", "091153.242500", "091153.702500", "091154.162500", "091154.622500", "091155.082500", "091155.542500", "091156.002500", "091156.462500", "091156.922500", "091157.382500", "091157.842500", "091158.302500", "091158.762500", "091159.222500", "091159.682500", "091200.142500", "091200.602500", "091201.062500", "091201.522500", "091201.982500", "091202.442500", "091202.902500", "091203.362500", "091203.822500", "091204.282500", "091204.742500", "091205.202500", "091205.662500", "091206.122500", "091206.582500", "091207.042500", "091207.502500", "091207.962500", "091208.422500", "091208.882500", "091209.342500", "091209.802500", "091210.262500", "091210.722500", "091211.182500", "091211.642500", "091212.102500", "091212.562500", "091213.022500", "091213.482500", "091213.942500", "091214.402500", "091214.862500", "091215.322500", "091215.782500", "091216.242500", "091216.702500", "091217.162500", "091217.622500", "091218.082500", "091218.542500", "091219.002500", "091219.462500", "091219.922500", "091220.382500", "091220.842500", "091221.302500", "091221.762500", "091222.222500", "091222.682500", "091223.142500", "091223.602500", "091224.062500", "091224.522500", "091224.982500", "091225.442500", "091225.902500", "091226.362500", "091226.822500", "091227.282500", "091227.742500", "091228.202500", "091228.662500", "091229.122500", "091229.582500", "091230.042500", "091230.502500", "091230.962500", "091231.422500", "091231.882500", "091232.342500", "091232.802500", "091233.262500", "091233.722500", "091234.182500", "091234.642500", "091235.102500", "091235.562500"],
