{
  "AcquisitionMatrixPE": 82,
  "AcquisitionNumber": 1,
  "AcquisitionTime": "10:07:18.670000",
  "BandwidthPerPixelPhaseEncode": 24.888,
  "BaseResolution": 82,
  "BodyPartExamined": "BRAIN",
  "ConsistencyInfo": "N4_VE11C_LATEST_20160120",
  "ConversionSoftware": "dcm2niix",
  "ConversionSoftwareVersion": "v1.0.20201102",
  "DerivedVendorReportedEchoSpacing": 0.00049,
  "DeviceSerialNumber": "66112",
  "DwellTime": 2e-06,
  "EchoTime": 0.0272,
  "EchoTrainLength": 82,
  "EffectiveEchoSpacing": 0.00049,
  "FlipAngle": 44,
  "ImageComments": "Unaliased MB8/PE3",
  "ImageOrientationPatientDICOM": [0.987593, 0.132391, 0.084452, -0.124237, 0.987651, -0.0954473],
  "ImageType": [
    "ORIGINAL",
    "PRIMARY",
    "M",
    "MB",
    "ND",
    "NORM",
    "MOSAIC"
],
  "ImagingFrequency": 123.252,
  "InPlanePhaseEncodingDirectionDICOM": "COL",
  "InstitutionAddress": "Maynard 3,Hanover,NH,US,03755",
  "InstitutionName": "Dartmouth College - PBS",
  "InstitutionalDepartmentName": "Department",
  "MRAcquisitionType": "2D",
  "MagneticFieldStrength": 3,
  "Manufacturer": "Siemens",
  "ManufacturersModelName": "Prisma",
  "Modality": "MR",
  "MultibandAccelerationFactor": 8,
  "PartialFourier": 1,
  "PatientPosition": "HFS",
  "PercentPhaseFOV": 100,
  "PercentSampling": 100,
  "PhaseEncodingDirection": "j-",
  "PhaseEncodingSteps": 82,
  "PhaseResolution": 1,
  "PixelBandwidth": 3050,
  "ProcedureStepDescription": "Wager_Wager^1076_spacetop",
  "ProtocolName": "func_run-01_task-alignvideo_acq-ap-mb8",
  "PulseSequenceDetails": "%CustomerSeq%\\cmrr_mbep2d_bold",
  "ReceiveCoilActiveElements": "HEA;HEP",
  "ReceiveCoilName": "Head_32",
  "ReconMatrixPE": 82,
  "RepetitionTime": 0.46,
  "SAR": 0.101098,
  "ScanOptions": "FS",
  "ScanningSequence": "EP",
  "SequenceName": "epfid2d1_82",
  "SequenceVariant": "SK\\SS",
  "SeriesDescription": "func_run-01_task-alignvideo_acq-ap-mb8",
  "SeriesNumber": 28,
  "ShimSetting": [4163, -7753, -7250, 726, -17, -227, -62, 45],
  "SliceThickness": 2.7,
  "SliceTiming": [0, 0.2525, 0.0625, 0.315, 0.125, 0.3775, 0.19, 0, 0.2525, 0.0625, 0.315, 0.125, 0.3775, 0.19, 0, 0.2525, 0.0625, 0.315, 0.125, 0.3775, 0.19, 0, 0.2525, 0.0625, 0.315, 0.125, 0.3775, 0.19, 0, 0.2525, 0.0625, 0.315, 0.125, 0.3775, 0.19, 0, 0.2525, 0.0625, 0.315, 0.125, 0.3775, 0.19, 0, 0.2525, 0.0625, 0.315, 0.125, 0.3775, 0.19, 0, 0.2525, 0.0625, 0.315, 0.125, 0.3775, 0.19],
  "SoftwareVersions": "syngo MR E11",
  "SpacingBetweenSlices": 2.7,
  "StationName": "AWP66112",
  "TaskName": "alignvideo",
  "TotalReadoutTime": 0.03969,
  "TxRefAmp": 233.877,
  "WipMemBlock": "493785d6-09b3-4666-89ca-0c4a399b6a39||Sequence: R016 ve11c/master r/e634e98; Dec 19 2017 11:00:25 by eja",
  "dcmmeta_affine": [
    [-2.6496405601501465, -0.3333180248737335, 0.2593227028846741, 116.83895111083984],
    [-0.35519513487815857, 2.6497962474823, -0.22618193924427032, -74.7201919555664],
    [0.22657844424247742, 0.25607815384864807, 2.677983045578003, -81.67655181884766],
    [0.0, 0.0, 0.0, 1.0]
],
  "dcmmeta_reorient_transform": [
    [0.0, -1.0, 0.0, 81.0],
    [1.0, 0.0, 0.0, 0.0],
    [0.0, 0.0, 1.0, 0.0],
    [0.0, 0.0, 0.0, 1.0]
],
  "dcmmeta_shape": [82, 82, 56, 839],
  "dcmmeta_slice_dim": 2,
  "dcmmeta_version": 0.6,
  "global": {
    "const": {
      "AccessionNumber": "A003610",
      "AcquisitionMatrix": [82, 0, 0, 82],
      "AngioFlag": "N",
      "BitsAllocated": 16,
      "BitsStored": 16,
      "BodyPartExamined": "BRAIN",
      "Columns": 656,
      "EchoNumbers": 1,
      "EchoTime": 27.2,
      "EchoTrainLength": 82,
      "FlipAngle": 44.0,
      "HighBit": 15,
      "ImageOrientationPatient": [0.98759329289815, 0.13239091299865, 0.08445196254656, -0.1242367105512, 0.98765127998467, -0.0954473095276],
      "ImagePositionPatient": [-754.62477701377, -1002.3458058211, -52.467805516039],
      "ImageType": [
        "ORIGINAL",
        "PRIMARY",
        "M",
        "MB",
        "ND",
        "NORM",
        "MOSAIC"
],
      "ImagedNucleus": "1H",
      "ImagingFrequency": 123.252184,
      "InPlanePhaseEncodingDirection": "COL",
      "MRAcquisitionType": "2D",
      "MagneticFieldStrength": 3.0,
      "Manufacturer": "SIEMENS",
      "ManufacturerModelName": "Prisma",
      "Modality": "MR",
      "NumberOfAverages": 1.0,
      "NumberOfPhaseEncodingSteps": 82,
      "PercentPhaseFieldOfView": 100.0,
      "PercentSampling": 100.0,
      "PerformedProcedureStepStartTime": "082930.379000",
      "PhotometricInterpretation": "MONOCHROME2",
      "PixelBandwidth": 3050.0,
      "PixelRepresentation": 0,
      "PixelSpacing": [2.6829268932343, 2.6829268932343],
      "ProtocolName": "func_run-01_task-alignvideo_acq-ap-mb8",
      "RepetitionTime": 460.0,
      "Rows": 656,
      "SAR": 0.10109817870274,
      "SamplesPerPixel": 1,
      "ScanOptions": "FS",
      "ScanningSequence": "EP",
      "SequenceName": "epfid2d1_82",
      "SequenceVariant": [
        "SK",
        "SS"
],
      "SeriesDescription": "func_run-01_task-alignvideo_acq-ap-mb8",
      "SeriesNumber": 28,
      "SeriesTime": "100746.375000",
      "SliceLocation": -63.529288199447,
      "SliceThickness": 2.7000000476837,
      "SmallestImagePixelValue": 0,
      "SoftwareVersions": "syngo MR E11",
      "SpacingBetweenSlices": 2.6999999250185,
      "SpecificCharacterSet": "ISO_IR 100",
      "StudyID": "1",
      "StudyTime": "082930.272000",
      "TransmitCoilName": "Body",
      "VariableFlipAngleFlag": "N",
      "WindowCenterWidthExplanation": "Algo1",
      "dBdt": 0.0},
    "slices": {}
  },
  "time": {
    "samples": {
      "AcquisitionNumber": [1, 2, 3, 4, 5, 6, 7, 8, 9, 10, 11, 12, 13, 14, 15, 16, 17, 18, 19, 20, 21, 22, 23, 24, 25, 26, 27, 28, 29, 30, 31, 32, 33, 34, 35, 36, 37, 38, 39, 40, 41, 42, 43, 44, 45, 46, 47, 48, 49, 50, 51, 52, 53, 54, 55, 56, 57, 58, 59, 60, 61, 62, 63, 64, 65, 66, 67, 68, 69, 70, 71, 72, 73, 74, 75, 76, 77, 78, 79, 80, 81, 82, 83, 84, 85, 86, 87, 88, 89, 90, 91, 92, 93, 94, 95, 96, 97, 98, 99, 100, 101, 102, 103, 104, 105, 106, 107, 108, 109, 110, 111, 112, 113, 114, 115, 116, 117, 118, 119, 120, 121, 122, 123, 124, 125, 126, 127, 128, 129, 130, 131, 132, 133, 134, 135, 136, 137, 138, 139, 140, 141, 142, 143, 144, 145, 146, 147, 148, 149, 150, 151, 152, 153, 154, 155, 156, 157, 158, 159, 160, 161, 162, 163, 164, 165, 166, 167, 168, 169, 170, 171, 172, 173, 174, 175, 176, 177, 178, 179, 180, 181, 182, 183, 184, 185, 186, 187, 188, 189, 190, 191, 192, 193, 194, 195, 196, 197, 198, 199, 200, 201, 202, 203, 204, 205, 206, 207, 208, 209, 210, 211, 212, 213, 214, 215, 216, 217, 218, 219, 220, 221, 222, 223, 224, 225, 226, 227, 228, 229, 230, 231, 232, 233, 234, 235, 236, 237, 238, 239, 240, 241, 242, 243, 244, 245, 246, 247, 248, 249, 250, 251, 252, 253, 254, 255, 256, 257, 258, 259, 260, 261, 262, 263, 264, 265, 266, 267, 268, 269, 270, 271, 272, 273, 274, 275, 276, 277, 278, 279, 280, 281, 282, 283, 284, 285, 286, 287, 288, 289, 290, 291, 292, 293, 294, 295, 296, 297, 298, 299, 300, 301, 302, 303, 304, 305, 306, 307, 308, 309, 310, 311, 312, 313, 314, 315, 316, 317, 318, 319, 320, 321, 322, 323, 324, 325, 326, 327, 328, 329, 330, 331, 332, 333, 334, 335, 336, 337, 338, 339, 340, 341, 342, 343, 344, 345, 346, 347, 348, 349, 350, 351, 352, 353, 354, 355, 356, 357, 358, 359, 360, 361, 362, 363, 364, 365, 366, 367, 368, 369, 370, 371, 372, 373, 374, 375, 376, 377, 378, 379, 380, 381, 382, 383, 384, 385, 386, 387, 388, 389, 390, 391, 392, 393, 394, 395, 396, 397, 398, 399, 400, 401, 402, 403, 404, 405, 406, 407, 408, 409, 410, 411, 412, 413, 414, 415, 416, 417, 418, 419, 420, 421, 422, 423, 424, 425, 426, 427, 428, 429, 430, 431, 432, 433, 434, 435, 436, 437, 438, 439, 440, 441, 442, 443, 444, 445, 446, 447, 448, 449, 450, 451, 452, 453, 454, 455, 456, 457, 458, 459, 460, 461, 462, 463, 464, 465, 466, 467, 468, 469, 470, 471, 472, 473, 474, 475, 476, 477, 478, 479, 480, 481, 482, 483, 484, 485, 486, 487, 488, 489, 490, 491, 492, 493, 494, 495, 496, 497, 498, 499, 500, 501, 502, 503, 504, 505, 506, 507, 508, 509, 510, 511, 512, 513, 514, 515, 516, 517, 518, 519, 520, 521, 522, 523, 524, 525, 526, 527, 528, 529, 530, 531, 532, 533, 534, 535, 536, 537, 538, 539, 540, 541, 542, 543, 544, 545, 546, 547, 548, 549, 550, 551, 552, 553, 554, 555, 556, 557, 558, 559, 560, 561, 562, 563, 564, 565, 566, 567, 568, 569, 570, 571, 572, 573, 574, 575, 576, 577, 578, 579, 580, 581, 582, 583, 584, 585, 586, 587, 588, 589, 590, 591, 592, 593, 594, 595, 596, 597, 598, 599, 600, 601, 602, 603, 604, 605, 606, 607, 608, 609, 610, 611, 612, 613, 614, 615, 616, 617, 618, 619, 620, 621, 622, 623, 624, 625, 626, 627, 628, 629, 630, 631, 632, 633, 634, 635, 636, 637, 638, 639, 640, 641, 642, 643, 644, 645, 646, 647, 648, 649, 650, 651, 652, 653, 654, 655, 656, 657, 658, 659, 660, 661, 662, 663, 664, 665, 666, 667, 668, 669, 670, 671, 672, 673, 674, 675, 676, 677, 678, 679, 680, 681, 682, 683, 684, 685, 686, 687, 688, 689, 690, 691, 692, 693, 694, 695, 696, 697, 698, 699, 700, 701, 702, 703, 704, 705, 706, 707, 708, 709, 710, 711, 712, 713, 714, 715, 716, 717, 718, 719, 720, 721, 722, 723, 724, 725, 726, 727, 728, 729, 730, 731, 732, 733, 734, 735, 736, 737, 738, 739, 740, 741, 742, 743, 744, 745, 746, 747, 748, 749, 750, 751, 752, 753, 754, 755, 756, 757, 758, 759, 760, 761, 762, 763, 764, 765, 766, 767, 768, 769, 770, 771, 772, 773, 774, 775, 776, 777, 778, 779, 780, 781, 782, 783, 784, 785, 786, 787, 788, 789, 790, 791, 792, 793, 794, 795, 796, 797, 798, 799, 800, 801, 802, 803, 804, 805, 806, 807, 808, 809, 810, 811, 812, 813, 814, 815, 816, 817, 818, 819, 820, 821, 822, 823, 824, 825, 826, 827, 828, 829, 830, 831, 832, 833, 834, 835, 836, 837, 838, 839],
      "AcquisitionTime": ["100718.670000", "100719.130000", "100719.590000", "100720.050000", "100720.510000", "100720.970000", "100721.430000", "100721.890000", "100722.350000", "100722.810000", "100723.270000", "100723.730000", "100724.190000", "100724.650000", "100725.110000", "100725.570000", "100726.030000", "100726.490000", "100726.950000", "100727.410000", "100727.870000", "100728.330000", "100728.790000", "100729.250000", "100729.710000", "100730.170000", "100730.630000", "100731.090000", "100731.550000", "100732.010000", "100732.470000", "100732.930000", "100733.390000", "100733.850000", "100734.310000", "100734.770000", "100735.230000", "100735.690000", "100736.150000", "100736.610000", "100737.070000", "100737.530000", "100737.990000", "100738.450000", "100738.910000", "100739.370000", "100739.830000", "100740.290000", "100740.750000", "100741.210000", "100741.670000", "100742.130000", "100742.590000", "100743.050000", "100743.510000", "100743.970000", "100744.430000", "100744.890000", "100745.350000", "100745.810000", "100746.270000", "100746.730000", "100747.190000", "100747.650000", "100748.110000", "100748.570000", "100749.030000", "100749.490000", "100749.950000", "100750.410000", "100750.870000", "100751.330000", "100751.790000", "100752.250000", "100752.710000", "100753.170000", "100753.630000", "100754.090000", "100754.550000", "100755.010000", "100755.470000", "100755.930000", "100756.390000", "100756.850000", "100757.310000", "100757.770000", "100758.230000", "100758.690000", "100759.150000", "100759.610000", "100800.070000", "100800.530000", "100800.990000", "100801.450000", "100801.910000", "100802.370000", "100802.830000", "100803.290000", "100803.750000", "100804.210000", "100804.670000", "100805.130000", "100805.590000", "100806.050000", "100806.510000", "100806.970000", "100807.430000", "100807.890000", "100808.350000", "100808.810000", "100809.270000", "100809.730000", "100810.190000", "100810.650000", "100811.110000", "100811.570000", "100812.030000", "100812.490000", "100812.950000", "100813.410000", "100813.870000", "100814.330000", "100814.790000", "100815.250000", "100815.710000", "100816.170000", "100816.630000", "100817.090000", "100817.550000", "100818.010000", "100818.470000", "100818.930000", "100819.390000", "100819.850000", "100820.310000", "100820.770000", "100821.230000", "100821.690000", "100822.150000", "100822.610000", "100823.070000", "100823.530000", "100823.990000", "100824.450000", "100824.910000", "100825.370000", "100825.830000", "100826.290000", "100826.750000", "100827.210000", "100827.670000", "100828.130000", "100828.590000", "100829.050000", "100829.510000", "100829.970000", "100830.430000", "100830.890000", "100831.350000", "100831.810000", "100832.270000", "100832.730000", "100833.190000", "100833.650000", "100834.110000", "100834.570000", "100835.030000", "100835.490000", "100835.950000", "100836.410000", "100836.870000", "100837.330000", "100837.790000", "100838.250000", "100838.710000", "100839.170000", "100839.630000", "100840.090000", "100840.550000", "100841.010000", "100841.470000", "100841.930000", "100842.390000", "100842.850000", "100843.310000", "100843.770000", "100844.230000", "100844.690000", "100845.150000", "100845.610000", "100846.070000", "100846.530000", "100846.990000", "100847.450000", "100847.910000", "100848.370000", "100848.830000", "100849.290000", "100849.750000", "100850.210000", "100850.670000", "100851.130000", "100851.590000", "100852.050000", "100852.510000", "100852.970000", "100853.430000", "100853.890000", "100854.350000", "100854.810000", "100855.270000", "100855.730000", "100856.190000", "100856.650000", "100857.110000", "100857.570000", "100858.030000", "100858.490000", "100858.950000", "100859.410000", "100859.870000", "100900.330000", "100900.790000", "100901.250000", "100901.710000", "100902.170000", "100902.630000", "100903.090000", "100903.550000", "100904.010000", "100904.470000", "100904.930000", "100905.390000", "100905.850000", "100906.310000", "100906.770000", "100907.230000", "100907.690000", "100908.150000", "100908.610000", "100909.070000", "100909.530000", "100909.990000", "100910.450000", "100910.910000", "100911.370000", "100911.830000", "100912.290000", "100912.750000", "100913.210000", "100913.670000", "100914.130000", "100914.590000", "100915.050000", "100915.510000", "100915.970000", "100916.430000", "100916.890000", "100917.350000", "100917.810000", "100918.270000", "100918.730000", "100919.190000", "100919.650000", "100920.110000", "100920.570000", "100921.030000", "100921.490000", "100921.950000", "100922.410000", "100922.870000", "100923.330000", "100923.790000", "100924.250000", "100924.710000", "100925.170000", "100925.630000", "100926.090000", "100926.550000", "100927.010000", "100927.470000", "100927.930000", "100928.390000", "100928.850000", "100929.310000", "100929.770000", "100930.230000", "100930.690000", "100931.150000", "100931.610000", "100932.070000", "100932.530000", "100932.990000", "100933.450000", "100933.910000", "100934.370000", "100934.830000", "100935.290000", "100935.750000", "100936.210000", "100936.670000", "100937.130000", "100937.590000", "100938.050000", "100938.510000", "100938.970000", "100939.430000", "100939.890000", "100940.350000", "100940.810000", "100941.270000", "100941.730000", "100942.190000", "100942.650000", "100943.110000", "100943.570000", "100944.030000", "100944.490000", "100944.950000", "100945.410000", "100945.870000", "100946.330000", "100946.790000", "100947.250000", "100947.710000", "100948.170000", "100948.630000", "100949.090000", "100949.550000", "100950.010000", "100950.470000", "100950.930000", "100951.390000", "100951.850000", "100952.310000", "100952.770000", "100953.230000", "100953.690000", "100954.150000", "100954.610000", "100955.070000", "100955.530000", "100955.990000", "100956.450000", "100956.910000", "100957.370000", "100957.830000", "100958.290000", "100958.750000", "100959.210000", "100959.670000", "101000.130000", "101000.590000", "101001.050000", "101001.510000", "101001.970000", "101002.430000", "101002.890000", "101003.350000", "101003.810000", "101004.270000", "101004.730000", "101005.190000", "101005.650000", "101006.110000", "101006.570000", "101007.030000", "101007.490000", "101007.950000", "101008.410000", "101008.870000", "101009.330000", "101009.790000", "101010.250000", "101010.710000", "101011.170000", "101011.630000", "101012.090000", "101012.550000", "101013.010000", "101013.470000", "101013.930000", "101014.390000", "101014.850000", "101015.310000", "101015.770000", "101016.230000", "101016.690000", "101017.150000", "101017.610000", "101018.070000", "101018.530000", "101018.990000", "101019.450000", "101019.910000", "101020.370000", "101020.830000", "101021.290000", "101021.750000", "101022.210000", "101022.670000", "101023.130000", "101023.590000", "101024.050000", "101024.510000", "101024.970000", "101025.430000", "101025.890000", "101026.350000", "101026.810000", "101027.270000", "101027.730000", "101028.190000", "101028.650000", "101029.110000", "101029.570000", "101030.030000", "101030.490000", "101030.950000", "101031.410000", "101031.870000", "101032.330000", "101032.790000", "101033.250000", "101033.710000", "101034.170000", "101034.630000", "101035.090000", "101035.550000", "101036.010000", "101036.470000", "101036.930000", "101037.390000", "101037.850000", "101038.310000", "101038.770000", "101039.230000", "101039.690000", "101040.150000", "101040.610000", "101041.070000", "101041.530000", "101041.990000", "101042.450000", "101042.910000", "101043.370000", "101043.830000", "101044.290000", "101044.750000", "101045.210000", "101045.670000", "101046.130000", "101046.590000", "101047.050000", "101047.510000", "101047.970000", "101048.430000", "101048.890000", "101049.350000", "101049.810000", "101050.270000", "101050.730000", "101051.190000", "101051.650000", "101052.110000", "101052.570000", "101053.030000", "101053.490000", "101053.950000", "101054.410000", "101054.870000", "101055.330000", "101055.790000", "101056.250000", "101056.710000", "101057.170000", "101057.630000", "101058.090000", "101058.550000", "101059.010000", "101059.470000", "101059.930000", "101100.390000", "101100.850000", "101101.310000", "101101.770000", "101102.230000", "101102.690000", "101103.150000", "101103.610000", "101104.070000", "101104.530000", "101104.990000", "101105.450000", "101105.910000", "101106.370000", "101106.830000", "101107.290000", "101107.750000", "101108.210000", "101108.670000", "101109.130000", "101109.590000", "101110.050000", "101110.510000", "101110.970000", "101111.430000", "101111.890000", "101112.350000", "101112.810000", "101113.270000", "101113.730000", "101114.190000", "101114.650000", "101115.110000", "101115.570000", "101116.030000", "101116.490000", "101116.950000", "101117.410000", "101117.870000", "101118.330000", "101118.790000", "101119.250000", "101119.710000", "101120.170000", "101120.630000", "101121.090000", "101121.550000", "101122.010000", "101122.470000", "101122.930000", "101123.390000", "101123.850000", "101124.310000", "101124.770000", "101125.230000", "101125.690000", "101126.150000", "101126.610000", "101127.070000", "101127.530000", "101127.990000", "101128.450000", "101128.910000", "101129.370000", "101129.830000", "101130.290000", "101130.750000", "101131.210000", "101131.670000", "101132.130000", "101132.590000", "101133.050000", "101133.510000", "101133.970000", "101134.430000", "101134.890000", "101135.350000", "101135.810000", "101136.270000", "101136.730000", "101137.190000", "101137.650000", "101138.110000", "101138.570000", "101139.030000", "101139.490000", "101139.950000", "101140.410000", "101140.870000", "101141.330000", "101141.790000", "101142.250000", "101142.710000", "101143.170000", "101143.630000", "101144.090000", "101144.550000", "101145.010000", "101145.470000", "101145.930000", "101146.390000", "101146.850000", "101147.310000", "101147.770000", "101148.230000", "101148.690000", "101149.150000", "101149.610000", "101150.070000", "101150.530000", "101150.990000", "101151.450000", "101151.910000", "101152.370000", "101152.830000", "101153.290000", "101153.750000", "101154.210000", "101154.670000", "101155.130000", "101155.590000", "101156.050000", "101156.510000", "101156.970000", "101157.430000", "101157.890000", "101158.350000", "101158.810000", "101159.270000", "101159.730000", "101200.190000", "101200.650000", "101201.110000", "101201.570000", "101202.030000", "101202.490000", "101202.950000", "101203.410000", "101203.870000", "101204.330000", "101204.790000", "101205.250000", "101205.710000", "101206.170000", "101206.630000", "101207.090000", "101207.550000", "101208.010000", "101208.470000", "101208.930000", "101209.390000", "101209.850000", "101210.310000", "101210.770000", "101211.230000", "101211.690000", "101212.150000", "101212.610000", "101213.070000", "101213.530000", "101213.990000", "101214.450000", "101214.910000", "101215.370000", "101215.830000", "101216.290000", "101216.750000", "101217.210000", "101217.670000", "101218.130000", "101218.590000", "101219.050000", "101219.510000", "101219.970000", "101220.430000", "101220.890000", "101221.350000", "101221.810000", "101222.270000", "101222.730000", "101223.190000", "101223.650000", "101224.110000", "101224.570000", "101225.030000", "101225.490000", "101225.950000", "101226.410000", "101226.870000", "101227.330000", "101227.790000", "101228.250000", "101228.710000", "101229.170000", "101229.630000", "101230.090000", "101230.550000", "101231.010000", "101231.470000", "101231.930000", "101232.390000", "101232.850000", "101233.310000", "101233.770000", "101234.230000", "101234.690000", "101235.150000", "101235.610000", "101236.070000", "101236.530000", "101236.990000", "101237.450000", "101237.910000", "101238.370000", "101238.830000", "101239.290000", "101239.750000", "101240.210000", "101240.670000", "101241.130000", "101241.590000", "101242.050000", "101242.510000", "101242.970000", "101243.430000", "101243.890000", "101244.350000", "101244.810000", "101245.270000", "101245.730000", "101246.190000", "101246.650000", "101247.110000", "101247.570000", "101248.030000", "101248.490000", "101248.950000", "101249.410000", "101249.870000", "101250.330000", "101250.790000", "101251.250000", "101251.710000", "101252.170000", "101252.630000", "101253.090000", "101253.550000", "101254.010000", "101254.470000", "101254.930000", "101255.390000", "101255.850000", "101256.310000", "101256.770000", "101257.230000", "101257.690000", "101258.150000", "101258.610000", "101259.070000", "101259.530000", "101259.990000", "101300.450000", "101300.910000", "101301.370000", "101301.830000", "101302.290000", "101302.750000", "101303.210000", "101303.670000", "101304.130000", "101304.590000", "101305.050000", "101305.510000", "101305.970000", "101306.430000", "101306.890000", "101307.350000", "101307.810000", "101308.270000", "101308.730000", "101309.190000", "101309.650000", "101310.110000", "101310.570000", "101311.030000", "101311.490000", "101311.950000", "101312.410000", "101312.870000", "101313.330000", "101313.790000", "101314.250000", "101314.710000", "101315.170000", "101315.630000", "101316.090000", "101316.550000", "101317.010000", "101317.470000", "101317.930000", "101318.390000", "101318.850000", "101319.310000", "101319.770000", "101320.230000", "101320.690000", "101321.150000", "101321.610000", "101322.070000", "101322.530000", "101322.990000", "101323.450000", "101323.910000", "101324.370000", "101324.830000", "101325.290000", "101325.750000", "101326.210000", "101326.670000", "101327.130000", "101327.590000", "101328.050000", "101328.510000", "101328.970000", "101329.430000", "101329.890000", "101330.350000", "101330.810000", "101331.270000", "101331.730000", "101332.190000", "101332.650000", "101333.110000", "101333.570000", "101334.030000", "101334.490000", "101334.950000", "101335.410000", "101335.870000", "101336.330000", "101336.790000", "101337.250000", "101337.710000", "101338.170000", "101338.630000", "101339.090000", "101339.550000", "101340.010000", "101340.470000", "101340.930000", "101341.390000", "101341.850000", "101342.310000", "101342.770000", "101343.230000", "101343.690000", "101344.150000"],
