{
  "AcquisitionMatrixPE": 82,
  "AcquisitionNumber": 1,
  "AcquisitionTime": "10:38:0.250000",
  "BandwidthPerPixelPhaseEncode": 24.888,
  "BaseResolution": 82,
  "BodyPartExamined": "BRAIN",
  "ConsistencyInfo": "N4_VE11C_LATEST_20160120",
  "ConversionSoftware": "dcm2niix",
  "ConversionSoftwareVersion": "v1.0.20201102",
  "DerivedVendorReportedEchoSpacing": 0.00049,
  "DeviceSerialNumber": "66112",
  "DwellTime": 2e-06,
  "EchoTime": 0.0272,
  "EchoTrainLength": 82,
  "EffectiveEchoSpacing": 0.00049,
  "FlipAngle": 44,
  "ImageComments": "Unaliased MB8/PE3",
  "ImageOrientationPatientDICOM": [0.987593, 0.132391, 0.084452, -0.124237, 0.987651, -0.0954473],
  "ImageType": [
    "ORIGINAL",
    "PRIMARY",
    "M",
    "MB",
    "ND",
    "NORM",
    "MOSAIC"
],
  "ImagingFrequency": 123.252,
  "InPlanePhaseEncodingDirectionDICOM": "COL",
  "InstitutionAddress": "Maynard 3,Hanover,NH,US,03755",
  "InstitutionName": "Dartmouth College - PBS",
  "InstitutionalDepartmentName": "Department",
  "MRAcquisitionType": "2D",
  "MagneticFieldStrength": 3,
  "Manufacturer": "Siemens",
  "ManufacturersModelName": "Prisma",
  "Modality": "MR",
  "MultibandAccelerationFactor": 8,
  "PartialFourier": 1,
  "PatientPosition": "HFS",
  "PercentPhaseFOV": 100,
  "PercentSampling": 100,
  "PhaseEncodingDirection": "j-",
  "PhaseEncodingSteps": 82,
  "PhaseResolution": 1,
  "PixelBandwidth": 3050,
  "ProcedureStepDescription": "Wager_Wager^1076_spacetop",
  "ProtocolName": "func_run-04_task-alignvideo_acq-ap-mb8",
  "PulseSequenceDetails": "%CustomerSeq%\\cmrr_mbep2d_bold",
  "ReceiveCoilActiveElements": "HEA;HEP",
  "ReceiveCoilName": "Head_32",
  "ReconMatrixPE": 82,
  "RepetitionTime": 0.46,
  "SAR": 0.101152,
  "ScanOptions": "FS",
  "ScanningSequence": "EP",
  "SequenceName": "epfid2d1_82",
  "SequenceVariant": "SK\\SS",
  "SeriesDescription": "func_run-04_task-alignvideo_acq-ap-mb8",
  "SeriesNumber": 34,
  "ShimSetting": [4163, -7753, -7250, 726, -17, -227, -62, 45],
  "SliceThickness": 2.7,
  "SliceTiming": [0, 0.2525, 0.065, 0.315, 0.1275, 0.3775, 0.19, 0, 0.2525, 0.065, 0.315, 0.1275, 0.3775, 0.19, 0, 0.2525, 0.065, 0.315, 0.1275, 0.3775, 0.19, 0, 0.2525, 0.065, 0.315, 0.1275, 0.3775, 0.19, 0, 0.2525, 0.065, 0.315, 0.1275, 0.3775, 0.19, 0, 0.2525, 0.065, 0.315, 0.1275, 0.3775, 0.19, 0, 0.2525, 0.065, 0.315, 0.1275, 0.3775, 0.19, 0, 0.2525, 0.065, 0.315, 0.1275, 0.3775, 0.19],
  "SoftwareVersions": "syngo MR E11",
  "SpacingBetweenSlices": 2.7,
  "StationName": "AWP66112",
  "TaskName": "alignvideo",
  "TotalReadoutTime": 0.03969,
  "TxRefAmp": 233.877,
  "WipMemBlock": "15649c42-7d02-431b-94ab-5d73f4e2d7d4||Sequence: R016 ve11c/master r/e634e98; Dec 19 2017 11:00:25 by eja",
  "dcmmeta_affine": [
    [-2.6496405601501465, -0.3333180248737335, 0.2593227028846741, 116.83895111083984],
    [-0.35519513487815857, 2.6497962474823, -0.22618193924427032, -74.7201919555664],
    [0.22657844424247742, 0.25607815384864807, 2.677983045578003, -81.67655181884766],
    [0.0, 0.0, 0.0, 1.0]
],
  "dcmmeta_reorient_transform": [
    [0.0, -1.0, 0.0, 81.0],
    [1.0, 0.0, 0.0, 0.0],
    [0.0, 0.0, 1.0, 0.0],
    [0.0, 0.0, 0.0, 1.0]
],
  "dcmmeta_shape": [82, 82, 56, 914],
  "dcmmeta_slice_dim": 2,
  "dcmmeta_version": 0.6,
  "global": {
    "const": {
      "AccessionNumber": "A003610",
      "AcquisitionMatrix": [82, 0, 0, 82],
      "AngioFlag": "N",
      "BitsAllocated": 16,
      "BitsStored": 16,
      "BodyPartExamined": "BRAIN",
      "Columns": 656,
      "EchoNumbers": 1,
      "EchoTime": 27.2,
      "EchoTrainLength": 82,
      "FlipAngle": 44.0,
      "HighBit": 15,
      "ImageOrientationPatient": [0.98759329289815, 0.13239091299865, 0.08445196254656, -0.1242367105512, 0.98765127998467, -0.0954473095276],
      "ImagePositionPatient": [-754.62477701377, -1002.3458058211, -52.467805516039],
      "ImageType": [
        "ORIGINAL",
        "PRIMARY",
        "M",
        "MB",
        "ND",
        "NORM",
        "MOSAIC"
],
      "ImagedNucleus": "1H",
      "ImagingFrequency": 123.252191,
      "InPlanePhaseEncodingDirection": "COL",
      "MRAcquisitionType": "2D",
      "MagneticFieldStrength": 3.0,
      "Manufacturer": "SIEMENS",
      "ManufacturerModelName": "Prisma",
      "Modality": "MR",
      "NumberOfAverages": 1.0,
      "NumberOfPhaseEncodingSteps": 82,
      "PercentPhaseFieldOfView": 100.0,
      "PercentSampling": 100.0,
      "PerformedProcedureStepStartTime": "082930.379000",
      "PhotometricInterpretation": "MONOCHROME2",
      "PixelBandwidth": 3050.0,
      "PixelRepresentation": 0,
      "PixelSpacing": [2.6829268932343, 2.6829268932343],
      "ProtocolName": "func_run-04_task-alignvideo_acq-ap-mb8",
      "RepetitionTime": 460.0,
      "Rows": 656,
      "SAR": 0.10115169756482,
      "SamplesPerPixel": 1,
      "ScanOptions": "FS",
      "ScanningSequence": "EP",
      "SequenceName": "epfid2d1_82",
      "SequenceVariant": [
        "SK",
        "SS"
],
      "SeriesDescription": "func_run-04_task-alignvideo_acq-ap-mb8",
      "SeriesNumber": 34,
      "SeriesTime": "103826.386000",
      "SliceLocation": -63.529288199447,
      "SliceThickness": 2.7000000476837,
      "SmallestImagePixelValue": 0,
      "SoftwareVersions": "syngo MR E11",
      "SpacingBetweenSlices": 2.6999999250185,
      "SpecificCharacterSet": "ISO_IR 100",
      "StudyID": "1",
      "StudyTime": "082930.272000",
      "TransmitCoilName": "Body",
      "VariableFlipAngleFlag": "N",
      "WindowCenterWidthExplanation": "Algo1",
      "dBdt": 0.0},
    "slices": {}
  },
  "time": {
    "samples": {
      "AcquisitionNumber": [1, 2, 3, 4, 5, 6, 7, 8, 9, 10, 11, 12, 13, 14, 15, 16, 17, 18, 19, 20, 21, 22, 23, 24, 25, 26, 27, 28, 29, 30, 31, 32, 33, 34, 35, 36, 37, 38, 39, 40, 41, 42, 43, 44, 45, 46, 47, 48, 49, 50, 51, 52, 53, 54, 55, 56, 57, 58, 59, 60, 61, 62, 63, 64, 65, 66, 67, 68, 69, 70, 71, 72, 73, 74, 75, 76, 77, 78, 79, 80, 81, 82, 83, 84, 85, 86, 87, 88, 89, 90, 91, 92, 93, 94, 95, 96, 97, 98, 99, 100, 101, 102, 103, 104, 105, 106, 107, 108, 109, 110, 111, 112, 113, 114, 115, 116, 117, 118, 119, 120, 121, 122, 123, 124, 125, 126, 127, 128, 129, 130, 131, 132, 133, 134, 135, 136, 137, 138, 139, 140, 141, 142, 143, 144, 145, 146, 147, 148, 149, 150, 151, 152, 153, 154, 155, 156, 157, 158, 159, 160, 161, 162, 163, 164, 165, 166, 167, 168, 169, 170, 171, 172, 173, 174, 175, 176, 177, 178, 179, 180, 181, 182, 183, 184, 185, 186, 187, 188, 189, 190, 191, 192, 193, 194, 195, 196, 197, 198, 199, 200, 201, 202, 203, 204, 205, 206, 207, 208, 209, 210, 211, 212, 213, 214, 215, 216, 217, 218, 219, 220, 221, 222, 223, 224, 225, 226, 227, 228, 229, 230, 231, 232, 233, 234, 235, 236, 237, 238, 239, 240, 241, 242, 243, 244, 245, 246, 247, 248, 249, 250, 251, 252, 253, 254, 255, 256, 257, 258, 259, 260, 261, 262, 263, 264, 265, 266, 267, 268, 269, 270, 271, 272, 273, 274, 275, 276, 277, 278, 279, 280, 281, 282, 283, 284, 285, 286, 287, 288, 289, 290, 291, 292, 293, 294, 295, 296, 297, 298, 299, 300, 301, 302, 303, 304, 305, 306, 307, 308, 309, 310, 311, 312, 313, 314, 315, 316, 317, 318, 319, 320, 321, 322, 323, 324, 325, 326, 327, 328, 329, 330, 331, 332, 333, 334, 335, 336, 337, 338, 339, 340, 341, 342, 343, 344, 345, 346, 347, 348, 349, 350, 351, 352, 353, 354, 355, 356, 357, 358, 359, 360, 361, 362, 363, 364, 365, 366, 367, 368, 369, 370, 371, 372, 373, 374, 375, 376, 377, 378, 379, 380, 381, 382, 383, 384, 385, 386, 387, 388, 389, 390, 391, 392, 393, 394, 395, 396, 397, 398, 399, 400, 401, 402, 403, 404, 405, 406, 407, 408, 409, 410, 411, 412, 413, 414, 415, 416, 417, 418, 419, 420, 421, 422, 423, 424, 425, 426, 427, 428, 429, 430, 431, 432, 433, 434, 435, 436, 437, 438, 439, 440, 441, 442, 443, 444, 445, 446, 447, 448, 449, 450, 451, 452, 453, 454, 455, 456, 457, 458, 459, 460, 461, 462, 463, 464, 465, 466, 467, 468, 469, 470, 471, 472, 473, 474, 475, 476, 477, 478, 479, 480, 481, 482, 483, 484, 485, 486, 487, 488, 489, 490, 491, 492, 493, 494, 495, 496, 497, 498, 499, 500, 501, 502, 503, 504, 505, 506, 507, 508, 509, 510, 511, 512, 513, 514, 515, 516, 517, 518, 519, 520, 521, 522, 523, 524, 525, 526, 527, 528, 529, 530, 531, 532, 533, 534, 535, 536, 537, 538, 539, 540, 541, 542, 543, 544, 545, 546, 547, 548, 549, 550, 551, 552, 553, 554, 555, 556, 557, 558, 559, 560, 561, 562, 563, 564, 565, 566, 567, 568, 569, 570, 571, 572, 573, 574, 575, 576, 577, 578, 579, 580, 581, 582, 583, 584, 585, 586, 587, 588, 589, 590, 591, 592, 593, 594, 595, 596, 597, 598, 599, 600, 601, 602, 603, 604, 605, 606, 607, 608, 609, 610, 611, 612, 613, 614, 615, 616, 617, 618, 619, 620, 621, 622, 623, 624, 625, 626, 627, 628, 629, 630, 631, 632, 633, 634, 635, 636, 637, 638, 639, 640, 641, 642, 643, 644, 645, 646, 647, 648, 649, 650, 651, 652, 653, 654, 655, 656, 657, 658, 659, 660, 661, 662, 663, 664, 665, 666, 667, 668, 669, 670, 671, 672, 673, 674, 675, 676, 677, 678, 679, 680, 681, 682, 683, 684, 685, 686, 687, 688, 689, 690, 691, 692, 693, 694, 695, 696, 697, 698, 699, 700, 701, 702, 703, 704, 705, 706, 707, 708, 709, 710, 711, 712, 713, 714, 715, 716, 717, 718, 719, 720, 721, 722, 723, 724, 725, 726, 727, 728, 729, 730, 731, 732, 733, 734, 735, 736, 737, 738, 739, 740, 741, 742, 743, 744, 745, 746, 747, 748, 749, 750, 751, 752, 753, 754, 755, 756, 757, 758, 759, 760, 761, 762, 763, 764, 765, 766, 767, 768, 769, 770, 771, 772, 773, 774, 775, 776, 777, 778, 779, 780, 781, 782, 783, 784, 785, 786, 787, 788, 789, 790, 791, 792, 793, 794, 795, 796, 797, 798, 799, 800, 801, 802, 803, 804, 805, 806, 807, 808, 809, 810, 811, 812, 813, 814, 815, 816, 817, 818, 819, 820, 821, 822, 823, 824, 825, 826, 827, 828, 829, 830, 831, 832, 833, 834, 835, 836, 837, 838, 839, 840, 841, 842, 843, 844, 845, 846, 847, 848, 849, 850, 851, 852, 853, 854, 855, 856, 857, 858, 859, 860, 861, 862, 863, 864, 865, 866, 867, 868, 869, 870, 871, 872, 873, 874, 875, 876, 877, 878, 879, 880, 881, 882, 883, 884, 885, 886, 887, 888, 889, 890, 891, 892, 893, 894, 895, 896, 897, 898, 899, 900, 901, 902, 903, 904, 905, 906, 907, 908, 909, 910, 911, 912, 913, 914],
      "AcquisitionTime": ["103800.250000", "103800.710000", "103801.170000", "103801.630000", "103802.090000", "103802.550000", "103803.010000", "103803.470000", "103803.930000", "103804.390000", "103804.850000", "103805.310000", "103805.770000", "103806.230000", "103806.690000", "103807.150000", "103807.610000", "103808.070000", "103808.530000", "103808.990000", "103809.450000", "103809.910000", "103810.370000", "103810.830000", "103811.290000", "103811.750000", "103812.210000", "103812.670000", "103813.130000", "103813.590000", "103814.050000", "103814.510000", "103814.970000", "103815.430000", "103815.890000", "103816.350000", "103816.810000", "103817.270000", "103817.730000", "103818.190000", "103818.650000", "103819.110000", "103819.570000", "103820.030000", "103820.490000", "103820.950000", "103821.410000", "103821.870000", "103822.330000", "103822.790000", "103823.250000", "103823.710000", "103824.170000", "103824.630000", "103825.090000", "103825.550000", "103826.010000", "103826.470000", "103826.930000", "103827.390000", "103827.850000", "103828.310000", "103828.770000", "103829.230000", "103829.690000", "103830.150000", "103830.610000", "103831.070000", "103831.530000", "103831.990000", "103832.450000", "103832.910000", "103833.370000", "103833.830000", "103834.290000", "103834.750000", "103835.210000", "103835.670000", "103836.130000", "103836.590000", "103837.050000", "103837.510000", "103837.970000", "103838.430000", "103838.890000", "103839.350000", "103839.810000", "103840.270000", "103840.730000", "103841.190000", "103841.650000", "103842.110000", "103842.570000", "103843.030000", "103843.490000", "103843.950000", "103844.410000", "103844.870000", "103845.330000", "103845.790000", "103846.250000", "103846.710000", "103847.170000", "103847.630000", "103848.090000", "103848.550000", "103849.010000", "103849.470000", "103849.930000", "103850.390000", "103850.850000", "103851.310000", "103851.770000", "103852.230000", "103852.690000", "103853.150000", "103853.610000", "103854.070000", "103854.530000", "103854.990000", "103855.450000", "103855.910000", "103856.370000", "103856.830000", "103857.290000", "103857.750000", "103858.210000", "103858.670000", "103859.130000", "103859.590000", "103900.050000", "103900.510000", "103900.970000", "103901.430000", "103901.890000", "103902.350000", "103902.810000", "103903.270000", "103903.730000", "103904.190000", "103904.650000", "103905.110000", "103905.570000", "103906.030000", "103906.490000", "103906.950000", "103907.410000", "103907.870000", "103908.330000", "103908.790000", "103909.250000", "103909.710000", "103910.170000", "103910.630000", "103911.090000", "103911.550000", "103912.010000", "103912.470000", "103912.930000", "103913.390000", "103913.850000", "103914.310000", "103914.770000", "103915.230000", "103915.690000", "103916.150000", "103916.610000", "103917.070000", "103917.530000", "103917.990000", "103918.450000", "103918.910000", "103919.370000", "103919.830000", "103920.290000", "103920.750000", "103921.210000", "103921.670000", "103922.130000", "103922.590000", "103923.050000", "103923.510000", "103923.970000", "103924.430000", "103924.890000", "103925.350000", "103925.810000", "103926.270000", "103926.730000", "103927.190000", "103927.650000", "103928.110000", "103928.570000", "103929.030000", "103929.490000", "103929.950000", "103930.410000", "103930.870000", "103931.330000", "103931.790000", "103932.250000", "103932.710000", "103933.170000", "103933.630000", "103934.090000", "103934.550000", "103935.010000", "103935.470000", "103935.930000", "103936.390000", "103936.850000", "103937.310000", "103937.770000", "103938.230000", "103938.690000", "103939.150000", "103939.610000", "103940.070000", "103940.530000", "103940.990000", "103941.450000", "103941.910000", "103942.370000", "103942.830000", "103943.290000", "103943.750000", "103944.210000", "103944.670000", "103945.130000", "103945.590000", "103946.050000", "103946.510000", "103946.970000", "103947.430000", "103947.890000", "103948.350000", "103948.810000", "103949.270000", "103949.730000", "103950.190000", "103950.650000", "103951.110000", "103951.570000", "103952.030000", "103952.490000", "103952.950000", "103953.410000", "103953.870000", "103954.330000", "103954.790000", "103955.250000", "103955.710000", "103956.170000", "103956.630000", "103957.090000", "103957.550000", "103958.010000", "103958.470000", "103958.930000", "103959.390000", "103959.850000", "104000.310000", "104000.770000", "104001.230000", "104001.690000", "104002.150000", "104002.610000", "104003.070000", "104003.530000", "104003.990000", "104004.450000", "104004.910000", "104005.370000", "104005.830000", "104006.290000", "104006.750000", "104007.210000", "104007.670000", "104008.130000", "104008.590000", "104009.050000", "104009.510000", "104009.970000", "104010.430000", "104010.890000", "104011.350000", "104011.810000", "104012.270000", "104012.730000", "104013.190000", "104013.650000", "104014.110000", "104014.570000", "104015.030000", "104015.490000", "104015.950000", "104016.410000", "104016.870000", "104017.330000", "104017.790000", "104018.250000", "104018.710000", "104019.170000", "104019.630000", "104020.090000", "104020.550000", "104021.010000", "104021.470000", "104021.930000", "104022.390000", "104022.850000", "104023.310000", "104023.770000", "104024.230000", "104024.690000", "104025.150000", "104025.610000", "104026.070000", "104026.530000", "104026.990000", "104027.450000", "104027.910000", "104028.370000", "104028.830000", "104029.290000", "104029.750000", "104030.210000", "104030.670000", "104031.130000", "104031.590000", "104032.050000", "104032.510000", "104032.970000", "104033.430000", "104033.890000", "104034.350000", "104034.810000", "104035.270000", "104035.730000", "104036.190000", "104036.650000", "104037.110000", "104037.570000", "104038.030000", "104038.490000", "104038.950000", "104039.410000", "104039.870000", "104040.330000", "104040.790000", "104041.250000", "104041.710000", "104042.170000", "104042.630000", "104043.090000", "104043.550000", "104044.010000", "104044.470000", "104044.930000", "104045.390000", "104045.850000", "104046.310000", "104046.770000", "104047.230000", "104047.690000", "104048.150000", "104048.610000", "104049.070000", "104049.530000", "104049.990000", "104050.450000", "104050.910000", "104051.370000", "104051.830000", "104052.290000", "104052.750000", "104053.210000", "104053.670000", "104054.130000", "104054.590000", "104055.050000", "104055.510000", "104055.970000", "104056.430000", "104056.890000", "104057.350000", "104057.810000", "104058.270000", "104058.730000", "104059.190000", "104059.650000", "104100.110000", "104100.570000", "104101.030000", "104101.490000", "104101.950000", "104102.410000", "104102.870000", "104103.330000", "104103.790000", "104104.250000", "104104.710000", "104105.170000", "104105.630000", "104106.090000", "104106.550000", "104107.010000", "104107.470000", "104107.930000", "104108.390000", "104108.850000", "104109.310000", "104109.770000", "104110.230000", "104110.690000", "104111.150000", "104111.610000", "104112.070000", "104112.530000", "104112.990000", "104113.450000", "104113.910000", "104114.370000", "104114.830000", "104115.290000", "104115.750000", "104116.210000", "104116.670000", "104117.130000", "104117.590000", "104118.050000", "104118.510000", "104118.970000", "104119.430000", "104119.890000", "104120.350000", "104120.810000", "104121.270000", "104121.730000", "104122.190000", "104122.650000", "104123.110000", "104123.570000", "104124.030000", "104124.490000", "104124.950000", "104125.410000", "104125.870000", "104126.330000", "104126.790000", "104127.250000", "104127.710000", "104128.170000", "104128.630000", "104129.090000", "104129.550000", "104130.010000", "104130.470000", "104130.930000", "104131.390000", "104131.850000", "104132.310000", "104132.770000", "104133.230000", "104133.690000", "104134.150000", "104134.610000", "104135.070000", "104135.530000", "104135.990000", "104136.450000", "104136.910000", "104137.370000", "104137.830000", "104138.290000", "104138.750000", "104139.210000", "104139.670000", "104140.130000", "104140.590000", "104141.050000", "104141.510000", "104141.970000", "104142.430000", "104142.890000", "104143.350000", "104143.810000", "104144.270000", "104144.730000", "104145.190000", "104145.650000", "104146.110000", "104146.570000", "104147.030000", "104147.490000", "104147.950000", "104148.410000", "104148.870000", "104149.330000", "104149.790000", "104150.250000", "104150.710000", "104151.170000", "104151.630000", "104152.090000", "104152.550000", "104153.010000", "104153.470000", "104153.930000", "104154.390000", "104154.850000", "104155.310000", "104155.770000", "104156.230000", "104156.690000", "104157.150000", "104157.610000", "104158.070000", "104158.530000", "104158.990000", "104159.450000", "104159.910000", "104200.370000", "104200.830000", "104201.290000", "104201.750000", "104202.210000", "104202.670000", "104203.130000", "104203.590000", "104204.050000", "104204.510000", "104204.970000", "104205.430000", "104205.890000", "104206.350000", "104206.810000", "104207.270000", "104207.730000", "104208.190000", "104208.650000", "104209.110000", "104209.570000", "104210.030000", "104210.490000", "104210.950000", "104211.410000", "104211.870000", "104212.330000", "104212.790000", "104213.250000", "104213.710000", "104214.170000", "104214.630000", "104215.090000", "104215.550000", "104216.010000", "104216.470000", "104216.930000", "104217.390000", "104217.850000", "104218.310000", "104218.770000", "104219.230000", "104219.690000", "104220.150000", "104220.610000", "104221.070000", "104221.530000", "104221.990000", "104222.450000", "104222.910000", "104223.370000", "104223.830000", "104224.290000", "104224.750000", "104225.210000", "104225.670000", "104226.130000", "104226.590000", "104227.050000", "104227.510000", "104227.970000", "104228.430000", "104228.890000", "104229.350000", "104229.810000", "104230.270000", "104230.730000", "104231.190000", "104231.650000", "104232.110000", "104232.570000", "104233.030000", "104233.490000", "104233.950000", "104234.410000", "104234.870000", "104235.330000", "104235.790000", "104236.250000", "104236.710000", "104237.170000", "104237.630000", "104238.090000", "104238.550000", "104239.010000", "104239.470000", "104239.930000", "104240.390000", "104240.850000", "104241.310000", "104241.770000", "104242.230000", "104242.690000", "104243.150000", "104243.610000", "104244.070000", "104244.530000", "104244.990000", "104245.450000", "104245.910000", "104246.370000", "104246.830000", "104247.290000", "104247.750000", "104248.210000", "104248.670000", "104249.130000", "104249.590000", "104250.050000", "104250.510000", "104250.970000", "104251.430000", "104251.890000", "104252.350000", "104252.810000", "104253.270000", "104253.730000", "104254.190000", "104254.650000", "104255.110000", "104255.570000", "104256.030000", "104256.490000", "104256.950000", "104257.410000", "104257.870000", "104258.330000", "104258.790000", "104259.250000", "104259.710000", "104300.170000", "104300.630000", "104301.090000", "104301.550000", "104302.010000", "104302.470000", "104302.930000", "104303.390000", "104303.850000", "104304.310000", "104304.770000", "104305.230000", "104305.690000", "104306.150000", "104306.610000", "104307.070000", "104307.530000", "104307.990000", "104308.450000", "104308.910000", "104309.370000", "104309.830000", "104310.290000", "104310.750000", "104311.210000", "104311.670000", "104312.130000", "104312.590000", "104313.050000", "104313.510000", "104313.970000", "104314.430000", "104314.890000", "104315.350000", "104315.810000", "104316.270000", "104316.730000", "104317.190000", "104317.650000", "104318.110000", "104318.570000", "104319.030000", "104319.490000", "104319.950000", "104320.410000", "104320.870000", "104321.330000", "104321.790000", "104322.250000", "104322.710000", "104323.170000", "104323.630000", "104324.090000", "104324.550000", "104325.010000", "104325.470000", "104325.930000", "104326.390000", "104326.850000", "104327.310000", "104327.770000", "104328.230000", "104328.690000", "104329.150000", "104329.610000", "104330.070000", "104330.530000", "104330.990000", "104331.450000", "104331.910000", "104332.370000", "104332.830000", "104333.290000", "104333.750000", "104334.210000", "104334.670000", "104335.130000", "104335.590000", "104336.050000", "104336.510000", "104336.970000", "104337.430000", "104337.890000", "104338.350000", "104338.810000", "104339.270000", "104339.730000", "104340.190000", "104340.650000", "104341.110000", "104341.570000", "104342.030000", "104342.490000", "104342.950000", "104343.410000", "104343.870000", "104344.330000", "104344.790000", "104345.250000", "104345.710000", "104346.170000", "104346.630000", "104347.090000", "104347.550000", "104348.010000", "104348.470000", "104348.930000", "104349.390000", "104349.850000", "104350.310000", "104350.770000", "104351.230000", "104351.690000", "104352.150000", "104352.610000", "104353.070000", "104353.530000", "104353.990000", "104354.450000", "104354.910000", "104355.370000", "104355.830000", "104356.290000", "104356.750000", "104357.210000", "104357.670000", "104358.130000", "104358.590000", "104359.050000", "104359.510000", "104359.970000", "104400.430000", "104400.890000", "104401.350000", "104401.810000", "104402.270000", "104402.730000", "104403.190000", "104403.650000", "104404.110000", "104404.570000", "104405.030000", "104405.490000", "104405.950000", "104406.410000", "104406.870000", "104407.330000", "104407.790000", "104408.250000", "104408.710000", "104409.170000", "104409.630000", "104410.090000", "104410.550000", "104411.010000", "104411.470000", "104411.930000", "104412.390000", "104412.850000", "104413.310000", "104413.770000", "104414.230000", "104414.690000", "104415.150000", "104415.610000", "104416.070000", "104416.530000", "104416.990000", "104417.450000", "104417.910000", "104418.370000", "104418.830000", "104419.290000", "104419.750000", "104420.210000", "104420.670000", "104421.130000", "104421.590000", "104422.050000", "104422.510000", "104422.970000", "104423.430000", "104423.890000", "104424.350000", "104424.810000", "104425.270000", "104425.730000", "104426.190000", "104426.650000", "104427.110000", "104427.570000", "104428.030000", "104428.490000", "104428.950000", "104429.410000", "104429.870000", "104430.330000", "104430.790000", "104431.250000", "104431.710000", "104432.170000", "104432.630000", "104433.090000", "104433.550000", "104434.010000", "104434.470000", "104434.930000", "104435.390000", "104435.850000", "104436.310000", "104436.770000", "104437.230000", "104437.690000", "104438.150000", "104438.610000", "104439.070000", "104439.530000", "104439.990000", "104440.450000", "104440.910000", "104441.370000", "104441.830000", "104442.290000", "104442.750000", "104443.210000", "104443.670000", "104444.130000", "104444.590000", "104445.050000", "104445.510000", "104445.970000", "104446.430000", "104446.890000", "104447.350000", "104447.810000", "104448.270000", "104448.730000", "104449.190000", "104449.650000", "104450.110000", "104450.570000", "104451.030000", "104451.490000", "104451.950000", "104452.410000", "104452.870000", "104453.330000", "104453.790000", "104454.250000", "104454.710000", "104455.170000", "104455.630000", "104456.090000", "104456.550000", "104457.010000", "104457.470000", "104457.930000", "104458.390000", "104458.850000", "104459.310000", "104459.770000", "104500.230000"],
