{
  "AcquisitionMatrixPE": 82,
  "AcquisitionNumber": 1,
  "AcquisitionTime": "09:50:23.770000",
  "BandwidthPerPixelPhaseEncode": 24.888,
  "BaseResolution": 82,
  "BodyPartExamined": "BRAIN",
  "ConsistencyInfo": "N4_VE11C_LATEST_20160120",
  "ConversionSoftware": "dcm2niix",
  "ConversionSoftwareVersion": "v1.0.20201102",
  "DerivedVendorReportedEchoSpacing": 0.00049,
  "DeviceSerialNumber": "66112",
  "DwellTime": 2e-06,
  "EchoTime": 0.0272,
  "EchoTrainLength": 82,
  "EffectiveEchoSpacing": 0.00049,
  "FlipAngle": 44,
  "ImageComments": "Unaliased MB8/PE3",
  "ImageOrientationPatientDICOM": [0.990734, 0.127614, 0.0464775, -0.120418, 0.983649, -0.13392],
  "ImageType": [
    "ORIGINAL",
    "PRIMARY",
    "M",
    "MB",
    "ND",
    "NORM",
    "MOSAIC"
],
  "ImagingFrequency": 123.252,
  "InPlanePhaseEncodingDirectionDICOM": "COL",
  "InstitutionAddress": "Maynard 3,Hanover,NH,US,03755",
  "InstitutionName": "Dartmouth College - PBS",
  "InstitutionalDepartmentName": "Department",
  "MRAcquisitionType": "2D",
  "MagneticFieldStrength": 3,
  "Manufacturer": "Siemens",
  "ManufacturersModelName": "Prisma",
  "Modality": "MR",
  "MultibandAccelerationFactor": 8,
  "PartialFourier": 1,
  "PatientPosition": "HFS",
  "PercentPhaseFOV": 100,
  "PercentSampling": 100,
  "PhaseEncodingDirection": "j-",
  "PhaseEncodingSteps": 82,
  "PhaseResolution": 1,
  "PixelBandwidth": 3050,
  "ProcedureStepDescription": "Wager_Wager^1076_spacetop",
  "ProtocolName": "func_run-02_task-faces_acq-ap-mb8",
  "PulseSequenceDetails": "%CustomerSeq%\\cmrr_mbep2d_bold",
  "ReceiveCoilActiveElements": "HEA;HEP",
  "ReceiveCoilName": "Head_32",
  "ReconMatrixPE": 82,
  "RepetitionTime": 0.46,
  "SAR": 0.101152,
  "ScanOptions": "FS",
  "ScanningSequence": "EP",
  "SequenceName": "epfid2d1_82",
  "SequenceVariant": "SK\\SS",
  "SeriesDescription": "func_run-02_task-faces_acq-ap-mb8",
  "SeriesNumber": 18,
  "ShimSetting": [4163, -7755, -7250, 730, -23, -230, -66, 43],
  "SliceThickness": 2.7,
  "SliceTiming": [0, 0.2525, 0.0625, 0.315, 0.125, 0.3775, 0.1875, 0, 0.2525, 0.0625, 0.315, 0.125, 0.3775, 0.1875, 0, 0.2525, 0.0625, 0.315, 0.125, 0.3775, 0.1875, 0, 0.2525, 0.0625, 0.315, 0.125, 0.3775, 0.1875, 0, 0.2525, 0.0625, 0.315, 0.125, 0.3775, 0.1875, 0, 0.2525, 0.0625, 0.315, 0.125, 0.3775, 0.1875, 0, 0.2525, 0.0625, 0.315, 0.125, 0.3775, 0.1875, 0, 0.2525, 0.0625, 0.315, 0.125, 0.3775, 0.1875],
  "SoftwareVersions": "syngo MR E11",
  "SpacingBetweenSlices": 2.7,
  "StationName": "AWP66112",
  "TaskName": "faces",
  "TotalReadoutTime": 0.03969,
  "TxRefAmp": 233.877,
  "WipMemBlock": "c04c1837-7834-4ad2-9413-9587126b1e0b||Sequence: R016 ve11c/master r/e634e98; Dec 19 2017 11:00:25 by eja",
  "dcmmeta_affine": [
    [-2.6580679416656494, -0.3230739235877991, 0.16958042979240417, 119.93180847167969],
    [-0.34237805008888245, 2.6390576362609863, -0.3431231379508972, -68.67263793945312],
    [0.12469568848609924, 0.3592982292175293, 2.672734260559082, -81.88152313232422],
    [0.0, 0.0, 0.0, 1.0]
],
  "dcmmeta_reorient_transform": [
    [0.0, -1.0, 0.0, 81.0],
    [1.0, 0.0, 0.0, 0.0],
    [0.0, 0.0, 1.0, 0.0],
    [0.0, 0.0, 0.0, 1.0]
],
  "dcmmeta_shape": [82, 82, 56, 914],
  "dcmmeta_slice_dim": 2,
  "dcmmeta_version": 0.6,
  "global": {
    "const": {
      "AccessionNumber": "A003610",
      "AcquisitionMatrix": [82, 0, 0, 82],
      "AngioFlag": "N",
      "BitsAllocated": 16,
      "BitsStored": 16,
      "BodyPartExamined": "BRAIN",
      "Columns": 656,
      "EchoNumbers": 1,
      "EchoTime": 27.2,
      "EchoTrainLength": 82,
      "FlipAngle": 44.0,
      "HighBit": 15,
      "ImageOrientationPatient": [0.99073437652927, 0.12761363062302, 0.04647748317585, -0.1204184577367, 0.98364869865934, -0.1339202473942],
      "ImagePositionPatient": [-763.9060939094, -1000.7630363985, 14.552562508363],
      "ImageType": [
        "ORIGINAL",
        "PRIMARY",
        "M",
        "MB",
        "ND",
        "NORM",
        "MOSAIC"
],
      "ImagedNucleus": "1H",
      "ImagingFrequency": 123.252184,
      "InPlanePhaseEncodingDirection": "COL",
      "MRAcquisitionType": "2D",
      "MagneticFieldStrength": 3.0,
      "Manufacturer": "SIEMENS",
      "ManufacturerModelName": "Prisma",
      "Modality": "MR",
      "NumberOfAverages": 1.0,
      "NumberOfPhaseEncodingSteps": 82,
      "PercentPhaseFieldOfView": 100.0,
      "PercentSampling": 100.0,
      "PerformedProcedureStepStartTime": "082930.379000",
      "PhotometricInterpretation": "MONOCHROME2",
      "PixelBandwidth": 3050.0,
      "PixelRepresentation": 0,
      "PixelSpacing": [2.6829268932343, 2.6829268932343],
      "ProtocolName": "func_run-02_task-faces_acq-ap-mb8",
      "RepetitionTime": 460.0,
      "Rows": 656,
      "SAR": 0.10115169756482,
      "SamplesPerPixel": 1,
      "ScanOptions": "FS",
      "ScanningSequence": "EP",
      "SequenceName": "epfid2d1_82",
      "SequenceVariant": [
        "SK",
        "SS"
],
      "SeriesDescription": "func_run-02_task-faces_acq-ap-mb8",
      "SeriesNumber": 18,
      "SeriesTime": "095046.186000",
      "SliceLocation": -64.794927977622,
      "SliceThickness": 2.7000000476837,
      "SmallestImagePixelValue": 0,
      "SoftwareVersions": "syngo MR E11",
      "SpacingBetweenSlices": 2.699999981781,
      "SpecificCharacterSet": "ISO_IR 100",
      "StudyID": "1",
      "StudyTime": "082930.272000",
      "TransmitCoilName": "Body",
      "VariableFlipAngleFlag": "N",
      "WindowCenterWidthExplanation": "Algo1",
      "dBdt": 0.0},
    "slices": {}
  },
  "time": {
    "samples": {
      "AcquisitionNumber": [1, 2, 3, 4, 5, 6, 7, 8, 9, 10, 11, 12, 13, 14, 15, 16, 17, 18, 19, 20, 21, 22, 23, 24, 25, 26, 27, 28, 29, 30, 31, 32, 33, 34, 35, 36, 37, 38, 39, 40, 41, 42, 43, 44, 45, 46, 47, 48, 49, 50, 51, 52, 53, 54, 55, 56, 57, 58, 59, 60, 61, 62, 63, 64, 65, 66, 67, 68, 69, 70, 71, 72, 73, 74, 75, 76, 77, 78, 79, 80, 81, 82, 83, 84, 85, 86, 87, 88, 89, 90, 91, 92, 93, 94, 95, 96, 97, 98, 99, 100, 101, 102, 103, 104, 105, 106, 107, 108, 109, 110, 111, 112, 113, 114, 115, 116, 117, 118, 119, 120, 121, 122, 123, 124, 125, 126, 127, 128, 129, 130, 131, 132, 133, 134, 135, 136, 137, 138, 139, 140, 141, 142, 143, 144, 145, 146, 147, 148, 149, 150, 151, 152, 153, 154, 155, 156, 157, 158, 159, 160, 161, 162, 163, 164, 165, 166, 167, 168, 169, 170, 171, 172, 173, 174, 175, 176, 177, 178, 179, 180, 181, 182, 183, 184, 185, 186, 187, 188, 189, 190, 191, 192, 193, 194, 195, 196, 197, 198, 199, 200, 201, 202, 203, 204, 205, 206, 207, 208, 209, 210, 211, 212, 213, 214, 215, 216, 217, 218, 219, 220, 221, 222, 223, 224, 225, 226, 227, 228, 229, 230, 231, 232, 233, 234, 235, 236, 237, 238, 239, 240, 241, 242, 243, 244, 245, 246, 247, 248, 249, 250, 251, 252, 253, 254, 255, 256, 257, 258, 259, 260, 261, 262, 263, 264, 265, 266, 267, 268, 269, 270, 271, 272, 273, 274, 275, 276, 277, 278, 279, 280, 281, 282, 283, 284, 285, 286, 287, 288, 289, 290, 291, 292, 293, 294, 295, 296, 297, 298, 299, 300, 301, 302, 303, 304, 305, 306, 307, 308, 309, 310, 311, 312, 313, 314, 315, 316, 317, 318, 319, 320, 321, 322, 323, 324, 325, 326, 327, 328, 329, 330, 331, 332, 333, 334, 335, 336, 337, 338, 339, 340, 341, 342, 343, 344, 345, 346, 347, 348, 349, 350, 351, 352, 353, 354, 355, 356, 357, 358, 359, 360, 361, 362, 363, 364, 365, 366, 367, 368, 369, 370, 371, 372, 373, 374, 375, 376, 377, 378, 379, 380, 381, 382, 383, 384, 385, 386, 387, 388, 389, 390, 391, 392, 393, 394, 395, 396, 397, 398, 399, 400, 401, 402, 403, 404, 405, 406, 407, 408, 409, 410, 411, 412, 413, 414, 415, 416, 417, 418, 419, 420, 421, 422, 423, 424, 425, 426, 427, 428, 429, 430, 431, 432, 433, 434, 435, 436, 437, 438, 439, 440, 441, 442, 443, 444, 445, 446, 447, 448, 449, 450, 451, 452, 453, 454, 455, 456, 457, 458, 459, 460, 461, 462, 463, 464, 465, 466, 467, 468, 469, 470, 471, 472, 473, 474, 475, 476, 477, 478, 479, 480, 481, 482, 483, 484, 485, 486, 487, 488, 489, 490, 491, 492, 493, 494, 495, 496, 497, 498, 499, 500, 501, 502, 503, 504, 505, 506, 507, 508, 509, 510, 511, 512, 513, 514, 515, 516, 517, 518, 519, 520, 521, 522, 523, 524, 525, 526, 527, 528, 529, 530, 531, 532, 533, 534, 535, 536, 537, 538, 539, 540, 541, 542, 543, 544, 545, 546, 547, 548, 549, 550, 551, 552, 553, 554, 555, 556, 557, 558, 559, 560, 561, 562, 563, 564, 565, 566, 567, 568, 569, 570, 571, 572, 573, 574, 575, 576, 577, 578, 579, 580, 581, 582, 583, 584, 585, 586, 587, 588, 589, 590, 591, 592, 593, 594, 595, 596, 597, 598, 599, 600, 601, 602, 603, 604, 605, 606, 607, 608, 609, 610, 611, 612, 613, 614, 615, 616, 617, 618, 619, 620, 621, 622, 623, 624, 625, 626, 627, 628, 629, 630, 631, 632, 633, 634, 635, 636, 637, 638, 639, 640, 641, 642, 643, 644, 645, 646, 647, 648, 649, 650, 651, 652, 653, 654, 655, 656, 657, 658, 659, 660, 661, 662, 663, 664, 665, 666, 667, 668, 669, 670, 671, 672, 673, 674, 675, 676, 677, 678, 679, 680, 681, 682, 683, 684, 685, 686, 687, 688, 689, 690, 691, 692, 693, 694, 695, 696, 697, 698, 699, 700, 701, 702, 703, 704, 705, 706, 707, 708, 709, 710, 711, 712, 713, 714, 715, 716, 717, 718, 719, 720, 721, 722, 723, 724, 725, 726, 727, 728, 729, 730, 731, 732, 733, 734, 735, 736, 737, 738, 739, 740, 741, 742, 743, 744, 745, 746, 747, 748, 749, 750, 751, 752, 753, 754, 755, 756, 757, 758, 759, 760, 761, 762, 763, 764, 765, 766, 767, 768, 769, 770, 771, 772, 773, 774, 775, 776, 777, 778, 779, 780, 781, 782, 783, 784, 785, 786, 787, 788, 789, 790, 791, 792, 793, 794, 795, 796, 797, 798, 799, 800, 801, 802, 803, 804, 805, 806, 807, 808, 809, 810, 811, 812, 813, 814, 815, 816, 817, 818, 819, 820, 821, 822, 823, 824, 825, 826, 827, 828, 829, 830, 831, 832, 833, 834, 835, 836, 837, 838, 839, 840, 841, 842, 843, 844, 845, 846, 847, 848, 849, 850, 851, 852, 853, 854, 855, 856, 857, 858, 859, 860, 861, 862, 863, 864, 865, 866, 867, 868, 869, 870, 871, 872, 873, 874, 875, 876, 877, 878, 879, 880, 881, 882, 883, 884, 885, 886, 887, 888, 889, 890, 891, 892, 893, 894, 895, 896, 897, 898, 899, 900, 901, 902, 903, 904, 905, 906, 907, 908, 909, 910, 911, 912, 913, 914],
      "AcquisitionTime": ["095023.770000", "095024.230000", "095024.690000", "095025.150000", "095025.610000", "095026.070000", "095026.530000", "095026.990000", "095027.450000", "095027.910000", "095028.370000", "095028.830000", "095029.290000", "095029.750000", "095030.210000", "095030.670000", "095031.130000", "095031.590000", "095032.050000", "095032.510000", "095032.970000", "095033.430000", "095033.890000", "095034.350000", "095034.810000", "095035.270000", "095035.730000", "095036.190000", "095036.650000", "095037.110000", "095037.570000", "095038.030000", "095038.490000", "095038.950000", "095039.410000", "095039.870000", "095040.330000", "095040.790000", "095041.250000", "095041.710000", "095042.170000", "095042.630000", "095043.090000", "095043.550000", "095044.010000", "095044.470000", "095044.930000", "095045.390000", "095045.850000", "095046.310000", "095046.770000", "095047.230000", "095047.690000", "095048.150000", "095048.610000", "095049.070000", "095049.530000", "095049.990000", "095050.450000", "095050.910000", "095051.370000", "095051.830000", "095052.290000", "095052.750000", "095053.210000", "095053.670000", "095054.130000", "095054.590000", "095055.050000", "095055.510000", "095055.970000", "095056.430000", "095056.890000", "095057.350000", "095057.810000", "095058.270000", "095058.730000", "095059.190000", "095059.650000", "095100.110000", "095100.570000", "095101.030000", "095101.490000", "095101.950000", "095102.410000", "095102.870000", "095103.330000", "095103.790000", "095104.250000", "095104.710000", "095105.170000", "095105.630000", "095106.090000", "095106.550000", "095107.010000", "095107.470000", "095107.930000", "095108.390000", "095108.850000", "095109.310000", "095109.770000", "095110.230000", "095110.690000", "095111.150000", "095111.610000", "095112.070000", "095112.530000", "095112.990000", "095113.450000", "095113.910000", "095114.370000", "095114.830000", "095115.290000", "095115.750000", "095116.210000", "095116.670000", "095117.130000", "095117.590000", "095118.050000", "095118.510000", "095118.970000", "095119.430000", "095119.890000", "095120.350000", "095120.810000", "095121.270000", "095121.730000", "095122.190000", "095122.650000", "095123.110000", "095123.570000", "095124.030000", "095124.490000", "095124.950000", "095125.410000", "095125.870000", "095126.330000", "095126.790000", "095127.250000", "095127.710000", "095128.170000", "095128.630000", "095129.090000", "095129.550000", "095130.010000", "095130.470000", "095130.930000", "095131.390000", "095131.850000", "095132.310000", "095132.770000", "095133.230000", "095133.690000", "095134.150000", "095134.610000", "095135.070000", "095135.530000", "095135.990000", "095136.450000", "095136.910000", "095137.370000", "095137.830000", "095138.290000", "095138.750000", "095139.210000", "095139.670000", "095140.130000", "095140.590000", "095141.050000", "095141.510000", "095141.970000", "095142.430000", "095142.890000", "095143.350000", "095143.810000", "095144.270000", "095144.730000", "095145.190000", "095145.650000", "095146.110000", "095146.570000", "095147.030000", "095147.490000", "095147.950000", "095148.410000", "095148.870000", "095149.330000", "095149.790000", "095150.250000", "095150.710000", "095151.170000", "095151.630000", "095152.090000", "095152.550000", "095153.010000", "095153.470000", "095153.930000", "095154.390000", "095154.850000", "095155.310000", "095155.770000", "095156.230000", "095156.690000", "095157.150000", "095157.610000", "095158.070000", "095158.530000", "095158.990000", "095159.450000", "095159.910000", "095200.370000", "095200.830000", "095201.290000", "095201.750000", "095202.210000", "095202.670000", "095203.130000", "095203.590000", "095204.050000", "095204.510000", "095204.970000", "095205.430000", "095205.890000", "095206.350000", "095206.810000", "095207.270000", "095207.730000", "095208.190000", "095208.650000", "095209.110000", "095209.570000", "095210.030000", "095210.490000", "095210.950000", "095211.410000", "095211.870000", "095212.330000", "095212.790000", "095213.250000", "095213.710000", "095214.170000", "095214.630000", "095215.090000", "095215.550000", "095216.010000", "095216.470000", "095216.930000", "095217.390000", "095217.850000", "095218.310000", "095218.770000", "095219.230000", "095219.690000", "095220.150000", "095220.610000", "095221.070000", "095221.530000", "095221.990000", "095222.450000", "095222.910000", "095223.370000", "095223.830000", "095224.290000", "095224.750000", "095225.210000", "095225.670000", "095226.130000", "095226.590000", "095227.050000", "095227.510000", "095227.970000", "095228.430000", "095228.890000", "095229.350000", "095229.810000", "095230.270000", "095230.730000", "095231.190000", "095231.650000", "095232.110000", "095232.570000", "095233.030000", "095233.490000", "095233.950000", "095234.410000", "095234.870000", "095235.330000", "095235.790000", "095236.250000", "095236.710000", "095237.170000", "095237.630000", "095238.090000", "095238.550000", "095239.010000", "095239.470000", "095239.930000", "095240.390000", "095240.850000", "095241.310000", "095241.770000", "095242.230000", "095242.690000", "095243.150000", "095243.610000", "095244.070000", "095244.530000", "095244.990000", "095245.450000", "095245.910000", "095246.370000", "095246.830000", "095247.290000", "095247.750000", "095248.210000", "095248.670000", "095249.130000", "095249.590000", "095250.050000", "095250.510000", "095250.970000", "095251.430000", "095251.890000", "095252.350000", "095252.810000", "095253.270000", "095253.730000", "095254.190000", "095254.650000", "095255.110000", "095255.570000", "095256.030000", "095256.490000", "095256.950000", "095257.410000", "095257.870000", "095258.330000", "095258.790000", "095259.250000", "095259.710000", "095300.170000", "095300.630000", "095301.090000", "095301.550000", "095302.010000", "095302.470000", "095302.930000", "095303.390000", "095303.850000", "095304.310000", "095304.770000", "095305.230000", "095305.690000", "095306.150000", "095306.610000", "095307.070000", "095307.530000", "095307.990000", "095308.450000", "095308.910000", "095309.370000", "095309.830000", "095310.290000", "095310.750000", "095311.210000", "095311.670000", "095312.130000", "095312.590000", "095313.050000", "095313.510000", "095313.970000", "095314.430000", "095314.890000", "095315.350000", "095315.810000", "095316.270000", "095316.730000", "095317.190000", "095317.650000", "095318.110000", "095318.570000", "095319.030000", "095319.490000", "095319.950000", "095320.410000", "095320.870000", "095321.330000", "095321.790000", "095322.250000", "095322.710000", "095323.170000", "095323.630000", "095324.090000", "095324.550000", "095325.010000", "095325.470000", "095325.930000", "095326.390000", "095326.850000", "095327.310000", "095327.770000", "095328.230000", "095328.690000", "095329.150000", "095329.610000", "095330.070000", "095330.530000", "095330.990000", "095331.450000", "095331.910000", "095332.370000", "095332.830000", "095333.290000", "095333.750000", "095334.210000", "095334.670000", "095335.130000", "095335.590000", "095336.050000", "095336.510000", "095336.970000", "095337.430000", "095337.890000", "095338.350000", "095338.810000", "095339.270000", "095339.730000", "095340.190000", "095340.650000", "095341.110000", "095341.570000", "095342.030000", "095342.490000", "095342.950000", "095343.410000", "095343.870000", "095344.330000", "095344.790000", "095345.250000", "095345.710000", "095346.170000", "095346.630000", "095347.090000", "095347.550000", "095348.010000", "095348.470000", "095348.930000", "095349.390000", "095349.850000", "095350.310000", "095350.770000", "095351.230000", "095351.690000", "095352.150000", "095352.610000", "095353.070000", "095353.530000", "095353.990000", "095354.450000", "095354.910000", "095355.370000", "095355.830000", "095356.290000", "095356.750000", "095357.210000", "095357.670000", "095358.130000", "095358.590000", "095359.050000", "095359.510000", "095359.970000", "095400.430000", "095400.890000", "095401.350000", "095401.810000", "095402.270000", "095402.730000", "095403.190000", "095403.650000", "095404.110000", "095404.570000", "095405.030000", "095405.490000", "095405.950000", "095406.410000", "095406.870000", "095407.330000", "095407.790000", "095408.250000", "095408.710000", "095409.170000", "095409.630000", "095410.090000", "095410.550000", "095411.010000", "095411.470000", "095411.930000", "095412.390000", "095412.850000", "095413.310000", "095413.770000", "095414.230000", "095414.690000", "095415.150000", "095415.610000", "095416.070000", "095416.530000", "095416.990000", "095417.450000", "095417.910000", "095418.370000", "095418.830000", "095419.290000", "095419.750000", "095420.210000", "095420.670000", "095421.130000", "095421.590000", "095422.050000", "095422.510000", "095422.970000", "095423.430000", "095423.890000", "095424.350000", "095424.810000", "095425.270000", "095425.730000", "095426.190000", "095426.650000", "095427.110000", "095427.570000", "095428.030000", "095428.490000", "095428.950000", "095429.410000", "095429.870000", "095430.330000", "095430.790000", "095431.250000", "095431.710000", "095432.170000", "095432.630000", "095433.090000", "095433.550000", "095434.010000", "095434.470000", "095434.930000", "095435.390000", "095435.850000", "095436.310000", "095436.770000", "095437.230000", "095437.690000", "095438.150000", "095438.610000", "095439.070000", "095439.530000", "095439.990000", "095440.450000", "095440.910000", "095441.370000", "095441.830000", "095442.290000", "095442.750000", "095443.210000", "095443.670000", "095444.130000", "095444.590000", "095445.050000", "095445.510000", "095445.970000", "095446.430000", "095446.890000", "095447.350000", "095447.810000", "095448.270000", "095448.730000", "095449.190000", "095449.650000", "095450.110000", "095450.570000", "095451.030000", "095451.490000", "095451.950000", "095452.410000", "095452.870000", "095453.330000", "095453.790000", "095454.250000", "095454.710000", "095455.170000", "095455.630000", "095456.090000", "095456.550000", "095457.010000", "095457.470000", "095457.930000", "095458.390000", "095458.850000", "095459.310000", "095459.770000", "095500.230000", "095500.690000", "095501.150000", "095501.610000", "095502.070000", "095502.530000", "095502.990000", "095503.450000", "095503.910000", "095504.370000", "095504.830000", "095505.290000", "095505.750000", "095506.210000", "095506.670000", "095507.130000", "095507.590000", "095508.050000", "095508.510000", "095508.970000", "095509.430000", "095509.890000", "095510.350000", "095510.810000", "095511.270000", "095511.730000", "095512.190000", "095512.650000", "095513.110000", "095513.570000", "095514.030000", "095514.490000", "095514.950000", "095515.410000", "095515.870000", "095516.330000", "095516.790000", "095517.250000", "095517.710000", "095518.170000", "095518.630000", "095519.090000", "095519.550000", "095520.010000", "095520.470000", "095520.930000", "095521.390000", "095521.850000", "095522.310000", "095522.770000", "095523.230000", "095523.690000", "095524.150000", "095524.610000", "095525.070000", "095525.530000", "095525.990000", "095526.450000", "095526.910000", "095527.370000", "095527.830000", "095528.290000", "095528.750000", "095529.210000", "095529.670000", "095530.130000", "095530.590000", "095531.050000", "095531.510000", "095531.970000", "095532.430000", "095532.890000", "095533.350000", "095533.810000", "095534.270000", "095534.730000", "095535.190000", "095535.650000", "095536.110000", "095536.570000", "095537.030000", "095537.490000", "095537.950000", "095538.410000", "095538.870000", "095539.330000", "095539.790000", "095540.250000", "095540.710000", "095541.170000", "095541.630000", "095542.090000", "095542.550000", "095543.010000", "095543.470000", "095543.930000", "095544.390000", "095544.850000", "095545.310000", "095545.770000", "095546.230000", "095546.690000", "095547.150000", "095547.610000", "095548.070000", "095548.530000", "095548.990000", "095549.450000", "095549.910000", "095550.370000", "095550.830000", "095551.290000", "095551.750000", "095552.210000", "095552.670000", "095553.130000", "095553.590000", "095554.050000", "095554.510000", "095554.970000", "095555.430000", "095555.890000", "095556.350000", "095556.810000", "095557.270000", "095557.730000", "095558.190000", "095558.650000", "095559.110000", "095559.570000", "095600.030000", "095600.490000", "095600.950000", "095601.410000", "095601.870000", "095602.330000", "095602.790000", "095603.250000", "095603.710000", "095604.170000", "095604.630000", "095605.090000", "095605.550000", "095606.010000", "095606.470000", "095606.930000", "095607.390000", "095607.850000", "095608.310000", "095608.770000", "095609.230000", "095609.690000", "095610.150000", "095610.610000", "095611.070000", "095611.530000", "095611.990000", "095612.450000", "095612.910000", "095613.370000", "095613.830000", "095614.290000", "095614.750000", "095615.210000", "095615.670000", "095616.130000", "095616.590000", "095617.050000", "095617.510000", "095617.970000", "095618.430000", "095618.890000", "095619.350000", "095619.810000", "095620.270000", "095620.730000", "095621.190000", "095621.650000", "095622.110000", "095622.570000", "095623.030000", "095623.490000", "095623.950000", "095624.410000", "095624.870000", "095625.330000", "095625.790000", "095626.250000", "095626.710000", "095627.170000", "095627.630000", "095628.090000", "095628.550000", "095629.010000", "095629.470000", "095629.930000", "095630.390000", "095630.850000", "095631.310000", "095631.770000", "095632.230000", "095632.690000", "095633.150000", "095633.610000", "095634.070000", "095634.530000", "095634.990000", "095635.450000", "095635.910000", "095636.370000", "095636.830000", "095637.290000", "095637.750000", "095638.210000", "095638.670000", "095639.130000", "095639.590000", "095640.050000", "095640.510000", "095640.970000", "095641.430000", "095641.890000", "095642.350000", "095642.810000", "095643.270000", "095643.730000", "095644.190000", "095644.650000", "095645.110000", "095645.570000", "095646.030000", "095646.490000", "095646.950000", "095647.410000", "095647.870000", "095648.330000", "095648.790000", "095649.250000", "095649.710000", "095650.170000", "095650.630000", "095651.090000", "095651.550000", "095652.010000", "095652.470000", "095652.930000", "095653.390000", "095653.850000", "095654.310000", "095654.770000", "095655.230000", "095655.690000", "095656.150000", "095656.610000", "095657.070000", "095657.530000", "095657.990000", "095658.450000", "095658.910000", "095659.370000", "095659.830000", "095700.290000", "095700.750000", "095701.210000", "095701.670000", "095702.130000", "095702.590000", "095703.050000", "095703.510000", "095703.970000", "095704.430000", "095704.890000", "095705.350000", "095705.810000", "095706.270000", "095706.730000", "095707.190000", "095707.650000", "095708.110000", "095708.570000", "095709.030000", "095709.490000", "095709.950000", "095710.410000", "095710.870000", "095711.330000", "095711.790000", "095712.250000", "095712.710000", "095713.170000", "095713.630000", "095714.090000", "095714.550000", "095715.010000", "095715.470000", "095715.930000", "095716.390000", "095716.850000", "095717.310000", "095717.770000", "095718.230000", "095718.690000", "095719.150000", "095719.610000", "095720.070000", "095720.530000", "095720.990000", "095721.450000", "095721.910000", "095722.370000", "095722.830000", "095723.290000", "095723.750000"],
