{
  "AcquisitionMatrixPE": 82,
  "AcquisitionNumber": 1,
  "AcquisitionTime": "09:13:1.892500",
  "BandwidthPerPixelPhaseEncode": 24.888,
  "BaseResolution": 82,
  "BodyPartExamined": "BRAIN",
  "ConsistencyInfo": "N4_VE11C_LATEST_20160120",
  "ConversionSoftware": "dcm2niix",
  "ConversionSoftwareVersion": "v1.0.20201102",
  "DerivedVendorReportedEchoSpacing": 0.00049,
  "DeviceSerialNumber": "66112",
  "DwellTime": 2e-06,
  "EchoTime": 0.0272,
  "EchoTrainLength": 82,
  "EffectiveEchoSpacing": 0.00049,
  "FlipAngle": 44,
  "ImageComments": "Unaliased MB8/PE3",
  "ImageOrientationPatientDICOM": [0.990734, 0.127614, 0.0464775, -0.120418, 0.983649, -0.13392],
  "ImageType": [
    "ORIGINAL",
    "PRIMARY",
    "M",
    "MB",
    "ND",
    "NORM",
    "MOSAIC"
],
  "ImagingFrequency": 123.252,
  "InPlanePhaseEncodingDirectionDICOM": "COL",
  "InstitutionAddress": "Maynard 3,Hanover,NH,US,03755",
  "InstitutionName": "Dartmouth College - PBS",
  "InstitutionalDepartmentName": "Department",
  "MRAcquisitionType": "2D",
  "MagneticFieldStrength": 3,
  "Manufacturer": "Siemens",
  "ManufacturersModelName": "Prisma",
  "Modality": "MR",
  "MultibandAccelerationFactor": 8,
  "PartialFourier": 1,
  "PatientPosition": "HFS",
  "PercentPhaseFOV": 100,
  "PercentSampling": 100,
  "PhaseEncodingDirection": "j-",
  "PhaseEncodingSteps": 82,
  "PhaseResolution": 1,
  "PixelBandwidth": 3050,
  "ProcedureStepDescription": "Wager_Wager^1076_spacetop",
  "ProtocolName": "func_run-02_task-narratives_acq-ap-mb8",
  "PulseSequenceDetails": "%CustomerSeq%\\cmrr_mbep2d_bold",
  "ReceiveCoilActiveElements": "HEA;HEP",
  "ReceiveCoilName": "Head_32",
  "ReconMatrixPE": 82,
  "RepetitionTime": 0.46,
  "SAR": 0.101252,
  "ScanOptions": "FS",
  "ScanningSequence": "EP",
  "SequenceName": "epfid2d1_82",
  "SequenceVariant": "SK\\SS",
  "SeriesDescription": "func_run-02_task-narratives_acq-ap-mb8",
  "SeriesNumber": 10,
  "ShimSetting": [4163, -7755, -7250, 730, -23, -230, -66, 43],
  "SliceThickness": 2.7,
  "SliceTiming": [0, 0.2525, 0.0625, 0.315, 0.125, 0.3775, 0.19, 0, 0.2525, 0.0625, 0.315, 0.125, 0.3775, 0.19, 0, 0.2525, 0.0625, 0.315, 0.125, 0.3775, 0.19, 0, 0.2525, 0.0625, 0.315, 0.125, 0.3775, 0.19, 0, 0.2525, 0.0625, 0.315, 0.125, 0.3775, 0.19, 0, 0.2525, 0.0625, 0.315, 0.125, 0.3775, 0.19, 0, 0.2525, 0.0625, 0.315, 0.125, 0.3775, 0.19, 0, 0.2525, 0.0625, 0.315, 0.125, 0.3775, 0.19],
  "SoftwareVersions": "syngo MR E11",
  "SpacingBetweenSlices": 2.7,
  "StationName": "AWP66112",
  "TaskName": "narratives",
  "TotalReadoutTime": 0.03969,
  "TxRefAmp": 233.877,
  "WipMemBlock": "90c36d68-d1d5-4475-9a20-86028997b722||Sequence: R016 ve11c/master r/e634e98; Dec 19 2017 11:00:25 by eja",
  "dcmmeta_affine": [
    [-2.6580679416656494, -0.3230739235877991, 0.16958042979240417, 119.93180847167969],
    [-0.34237805008888245, 2.6390576362609863, -0.3431231379508972, -68.67263793945312],
    [0.12469568848609924, 0.3592982292175293, 2.672734260559082, -81.88152313232422],
    [0.0, 0.0, 0.0, 1.0]
],
  "dcmmeta_reorient_transform": [
    [0.0, -1.0, 0.0, 81.0],
    [1.0, 0.0, 0.0, 0.0],
    [0.0, 0.0, 1.0, 0.0],
    [0.0, 0.0, 0.0, 1.0]
],
  "dcmmeta_shape": [82, 82, 56, 1098],
  "dcmmeta_slice_dim": 2,
  "dcmmeta_version": 0.6,
  "global": {
    "const": {
      "AccessionNumber": "A003610",
      "AcquisitionMatrix": [82, 0, 0, 82],
      "AngioFlag": "N",
      "BitsAllocated": 16,
      "BitsStored": 16,
      "BodyPartExamined": "BRAIN",
      "Columns": 656,
      "EchoNumbers": 1,
      "EchoTime": 27.2,
      "EchoTrainLength": 82,
      "FlipAngle": 44.0,
      "HighBit": 15,
      "ImageOrientationPatient": [0.99073437652927, 0.12761363062302, 0.04647748317585, -0.1204184577367, 0.98364869865934, -0.1339202473942],
      "ImagePositionPatient": [-763.9060939094, -1000.7630363985, 14.552562508363],
      "ImageType": [
        "ORIGINAL",
        "PRIMARY",
        "M",
        "MB",
        "ND",
        "NORM",
        "MOSAIC"
],
      "ImagedNucleus": "1H",
      "ImagingFrequency": 123.252172,
      "InPlanePhaseEncodingDirection": "COL",
      "MRAcquisitionType": "2D",
      "MagneticFieldStrength": 3.0,
      "Manufacturer": "SIEMENS",
      "ManufacturerModelName": "Prisma",
      "Modality": "MR",
      "NumberOfAverages": 1.0,
      "NumberOfPhaseEncodingSteps": 82,
      "PercentPhaseFieldOfView": 100.0,
      "PercentSampling": 100.0,
      "PerformedProcedureStepStartTime": "082930.379000",
      "PhotometricInterpretation": "MONOCHROME2",
      "PixelBandwidth": 3050.0,
      "PixelRepresentation": 0,
      "PixelSpacing": [2.6829268932343, 2.6829268932343],
      "ProtocolName": "func_run-02_task-narratives_acq-ap-mb8",
      "RepetitionTime": 460.0,
      "Rows": 656,
      "SAR": 0.101252456692,
      "SamplesPerPixel": 1,
      "ScanOptions": "FS",
      "ScanningSequence": "EP",
      "SequenceName": "epfid2d1_82",
      "SequenceVariant": [
        "SK",
        "SS"
],
      "SeriesDescription": "func_run-02_task-narratives_acq-ap-mb8",
      "SeriesNumber": 10,
      "SeriesTime": "091306.385000",
      "SliceLocation": -64.794927977622,
      "SliceThickness": 2.7000000476837,
      "SmallestImagePixelValue": 0,
      "SoftwareVersions": "syngo MR E11",
      "SpacingBetweenSlices": 2.699999981781,
      "SpecificCharacterSet": "ISO_IR 100",
      "StudyID": "1",
      "StudyTime": "082930.272000",
      "TransmitCoilName": "Body",
      "VariableFlipAngleFlag": "N",
      "WindowCenterWidthExplanation": "Algo1",
      "dBdt": 0.0},
    "slices": {}
  },
  "time": {
    "samples": {
      "AcquisitionNumber": [1, 2, 3, 4, 5, 6, 7, 8, 9, 10, 11, 12, 13, 14, 15, 16, 17, 18, 19, 20, 21, 22, 23, 24, 25, 26, 27, 28, 29, 30, 31, 32, 33, 34, 35, 36, 37, 38, 39, 40, 41, 42, 43, 44, 45, 46, 47, 48, 49, 50, 51, 52, 53, 54, 55, 56, 57, 58, 59, 60, 61, 62, 63, 64, 65, 66, 67, 68, 69, 70, 71, 72, 73, 74, 75, 76, 77, 78, 79, 80, 81, 82, 83, 84, 85, 86, 87, 88, 89, 90, 91, 92, 93, 94, 95, 96, 97, 98, 99, 100, 101, 102, 103, 104, 105, 106, 107, 108, 109, 110, 111, 112, 113, 114, 115, 116, 117, 118, 119, 120, 121, 122, 123, 124, 125, 126, 127, 128, 129, 130, 131, 132, 133, 134, 135, 136, 137, 138, 139, 140, 141, 142, 143, 144, 145, 146, 147, 148, 149, 150, 151, 152, 153, 154, 155, 156, 157, 158, 159, 160, 161, 162, 163, 164, 165, 166, 167, 168, 169, 170, 171, 172, 173, 174, 175, 176, 177, 178, 179, 180, 181, 182, 183, 184, 185, 186, 187, 188, 189, 190, 191, 192, 193, 194, 195, 196, 197, 198, 199, 200, 201, 202, 203, 204, 205, 206, 207, 208, 209, 210, 211, 212, 213, 214, 215, 216, 217, 218, 219, 220, 221, 222, 223, 224, 225, 226, 227, 228, 229, 230, 231, 232, 233, 234, 235, 236, 237, 238, 239, 240, 241, 242, 243, 244, 245, 246, 247, 248, 249, 250, 251, 252, 253, 254, 255, 256, 257, 258, 259, 260, 261, 262, 263, 264, 265, 266, 267, 268, 269, 270, 271, 272, 273, 274, 275, 276, 277, 278, 279, 280, 281, 282, 283, 284, 285, 286, 287, 288, 289, 290, 291, 292, 293, 294, 295, 296, 297, 298, 299, 300, 301, 302, 303, 304, 305, 306, 307, 308, 309, 310, 311, 312, 313, 314, 315, 316, 317, 318, 319, 320, 321, 322, 323, 324, 325, 326, 327, 328, 329, 330, 331, 332, 333, 334, 335, 336, 337, 338, 339, 340, 341, 342, 343, 344, 345, 346, 347, 348, 349, 350, 351, 352, 353, 354, 355, 356, 357, 358, 359, 360, 361, 362, 363, 364, 365, 366, 367, 368, 369, 370, 371, 372, 373, 374, 375, 376, 377, 378, 379, 380, 381, 382, 383, 384, 385, 386, 387, 388, 389, 390, 391, 392, 393, 394, 395, 396, 397, 398, 399, 400, 401, 402, 403, 404, 405, 406, 407, 408, 409, 410, 411, 412, 413, 414, 415, 416, 417, 418, 419, 420, 421, 422, 423, 424, 425, 426, 427, 428, 429, 430, 431, 432, 433, 434, 435, 436, 437, 438, 439, 440, 441, 442, 443, 444, 445, 446, 447, 448, 449, 450, 451, 452, 453, 454, 455, 456, 457, 458, 459, 460, 461, 462, 463, 464, 465, 466, 467, 468, 469, 470, 471, 472, 473, 474, 475, 476, 477, 478, 479, 480, 481, 482, 483, 484, 485, 486, 487, 488, 489, 490, 491, 492, 493, 494, 495, 496, 497, 498, 499, 500, 501, 502, 503, 504, 505, 506, 507, 508, 509, 510, 511, 512, 513, 514, 515, 516, 517, 518, 519, 520, 521, 522, 523, 524, 525, 526, 527, 528, 529, 530, 531, 532, 533, 534, 535, 536, 537, 538, 539, 540, 541, 542, 543, 544, 545, 546, 547, 548, 549, 550, 551, 552, 553, 554, 555, 556, 557, 558, 559, 560, 561, 562, 563, 564, 565, 566, 567, 568, 569, 570, 571, 572, 573, 574, 575, 576, 577, 578, 579, 580, 581, 582, 583, 584, 585, 586, 587, 588, 589, 590, 591, 592, 593, 594, 595, 596, 597, 598, 599, 600, 601, 602, 603, 604, 605, 606, 607, 608, 609, 610, 611, 612, 613, 614, 615, 616, 617, 618, 619, 620, 621, 622, 623, 624, 625, 626, 627, 628, 629, 630, 631, 632, 633, 634, 635, 636, 637, 638, 639, 640, 641, 642, 643, 644, 645, 646, 647, 648, 649, 650, 651, 652, 653, 654, 655, 656, 657, 658, 659, 660, 661, 662, 663, 664, 665, 666, 667, 668, 669, 670, 671, 672, 673, 674, 675, 676, 677, 678, 679, 680, 681, 682, 683, 684, 685, 686, 687, 688, 689, 690, 691, 692, 693, 694, 695, 696, 697, 698, 699, 700, 701, 702, 703, 704, 705, 706, 707, 708, 709, 710, 711, 712, 713, 714, 715, 716, 717, 718, 719, 720, 721, 722, 723, 724, 725, 726, 727, 728, 729, 730, 731, 732, 733, 734, 735, 736, 737, 738, 739, 740, 741, 742, 743, 744, 745, 746, 747, 748, 749, 750, 751, 752, 753, 754, 755, 756, 757, 758, 759, 760, 761, 762, 763, 764, 765, 766, 767, 768, 769, 770, 771, 772, 773, 774, 775, 776, 777, 778, 779, 780, 781, 782, 783, 784, 785, 786, 787, 788, 789, 790, 791, 792, 793, 794, 795, 796, 797, 798, 799, 800, 801, 802, 803, 804, 805, 806, 807, 808, 809, 810, 811, 812, 813, 814, 815, 816, 817, 818, 819, 820, 821, 822, 823, 824, 825, 826, 827, 828, 829, 830, 831, 832, 833, 834, 835, 836, 837, 838, 839, 840, 841, 842, 843, 844, 845, 846, 847, 848, 849, 850, 851, 852, 853, 854, 855, 856, 857, 858, 859, 860, 861, 862, 863, 864, 865, 866, 867, 868, 869, 870, 871, 872, 873, 874, 875, 876, 877, 878, 879, 880, 881, 882, 883, 884, 885, 886, 887, 888, 889, 890, 891, 892, 893, 894, 895, 896, 897, 898, 899, 900, 901, 902, 903, 904, 905, 906, 907, 908, 909, 910, 911, 912, 913, 914, 915, 916, 917, 918, 919, 920, 921, 922, 923, 924, 925, 926, 927, 928, 929, 930, 931, 932, 933, 934, 935, 936, 937, 938, 939, 940, 941, 942, 943, 944, 945, 946, 947, 948, 949, 950, 951, 952, 953, 954, 955, 956, 957, 958, 959, 960, 961, 962, 963, 964, 965, 966, 967, 968, 969, 970, 971, 972, 973, 974, 975, 976, 977, 978, 979, 980, 981, 982, 983, 984, 985, 986, 987, 988, 989, 990, 991, 992, 993, 994, 995, 996, 997, 998, 999, 1000, 1001, 1002, 1003, 1004, 1005, 1006, 1007, 1008, 1009, 1010, 1011, 1012, 1013, 1014, 1015, 1016, 1017, 1018, 1019, 1020, 1021, 1022, 1023, 1024, 1025, 1026, 1027, 1028, 1029, 1030, 1031, 1032, 1033, 1034, 1035, 1036, 1037, 1038, 1039, 1040, 1041, 1042, 1043, 1044, 1045, 1046, 1047, 1048, 1049, 1050, 1051, 1052, 1053, 1054, 1055, 1056, 1057, 1058, 1059, 1060, 1061, 1062, 1063, 1064, 1065, 1066, 1067, 1068, 1069, 1070, 1071, 1072, 1073, 1074, 1075, 1076, 1077, 1078, 1079, 1080, 1081, 1082, 1083, 1084, 1085, 1086, 1087, 1088, 1089, 1090, 1091, 1092, 1093, 1094, 1095, 1096, 1097, 1098],
      "AcquisitionTime": ["091301.892500", "091302.352500", "091302.812500", "091303.272500", "091303.732500", "091304.192500", "091304.652500", "091305.112500", "091305.572500", "091306.032500", "091306.492500", "091306.952500", "091307.412500", "091307.872500", "091308.332500", "091308.792500", "091309.252500", "091309.712500", "091310.172500", "091310.632500", "091311.092500", "091311.552500", "091312.012500", "091312.472500", "091312.932500", "091313.392500", "091313.852500", "091314.312500", "091314.772500", "091315.232500", "091315.692500", "091316.152500", "091316.612500", "091317.072500", "091317.532500", "091317.992500", "091318.452500", "091318.912500", "091319.372500", "091319.832500", "091320.292500", "091320.752500", "091321.212500", "091321.672500", "091322.132500", "091322.592500", "091323.052500", "091323.512500", "091323.972500", "091324.432500", "091324.892500", "091325.352500", "091325.812500", "091326.272500", "091326.732500", "091327.192500", "091327.652500", "091328.112500", "091328.572500", "091329.032500", "091329.492500", "091329.952500", "091330.412500", "091330.872500", "091331.332500", "091331.792500", "091332.252500", "091332.712500", "091333.172500", "091333.632500", "091334.092500", "091334.552500", "091335.012500", "091335.472500", "091335.932500", "091336.392500", "091336.852500", "091337.312500", "091337.772500", "091338.232500", "091338.692500", "091339.152500", "091339.612500", "091340.072500", "091340.532500", "091340.992500", "091341.452500", "091341.912500", "091342.372500", "091342.832500", "091343.292500", "091343.752500", "091344.212500", "091344.672500", "091345.132500", "091345.592500", "091346.052500", "091346.512500", "091346.972500", "091347.432500", "091347.892500", "091348.352500", "091348.812500", "091349.272500", "091349.732500", "091350.192500", "091350.652500", "091351.112500", "091351.572500", "091352.032500", "091352.492500", "091352.952500", "091353.412500", "091353.872500", "091354.332500", "091354.792500", "091355.252500", "091355.712500", "091356.172500", "091356.632500", "091357.092500", "091357.552500", "091358.012500", "091358.472500", "091358.932500", "091359.392500", "091359.852500", "091400.312500", "091400.772500", "091401.232500", "091401.692500", "091402.152500", "091402.612500", "091403.072500", "091403.532500", "091403.992500", "091404.452500", "091404.912500", "091405.372500", "091405.832500", "091406.292500", "091406.752500", "091407.212500", "091407.672500", "091408.132500", "091408.592500", "091409.052500", "091409.512500", "091409.972500", "091410.432500", "091410.892500", "091411.352500", "091411.812500", "091412.272500", "091412.732500", "091413.192500", "091413.652500", "091414.112500", "091414.572500", "091415.032500", "091415.492500", "091415.952500", "091416.412500", "091416.872500", "091417.332500", "091417.792500", "091418.252500", "091418.712500", "091419.172500", "091419.632500", "091420.092500", "091420.552500", "091421.012500", "091421.472500", "091421.932500", "091422.392500", "091422.852500", "091423.312500", "091423.772500", "091424.232500", "091424.692500", "091425.152500", "091425.612500", "091426.072500", "091426.532500", "091426.992500", "091427.452500", "091427.912500", "091428.372500", "091428.832500", "091429.292500", "091429.752500", "091430.212500", "091430.672500", "091431.132500", "091431.592500", "091432.052500", "091432.512500", "091432.972500", "091433.432500", "091433.892500", "091434.352500", "091434.812500", "091435.272500", "091435.732500", "091436.192500", "091436.652500", "091437.112500", "091437.572500", "091438.032500", "091438.492500", "091438.952500", "091439.412500", "091439.872500", "091440.332500", "091440.792500", "091441.252500", "091441.712500", "091442.172500", "091442.632500", "091443.092500", "091443.552500", "091444.012500", "091444.472500", "091444.932500", "091445.392500", "091445.852500", "091446.312500", "091446.772500", "091447.232500", "091447.692500", "091448.152500", "091448.612500", "091449.072500", "091449.532500", "091449.992500", "091450.452500", "091450.912500", "091451.372500", "091451.832500", "091452.292500", "091452.752500", "091453.212500", "091453.672500", "091454.132500", "091454.592500", "091455.052500", "091455.512500", "091455.972500", "091456.432500", "091456.892500", "091457.352500", "091457.812500", "091458.272500", "091458.732500", "091459.192500", "091459.652500", "091500.112500", "091500.572500", "091501.032500", "091501.492500", "091501.952500", "091502.412500", "091502.872500", "091503.332500", "091503.792500", "091504.252500", "091504.712500", "091505.172500", "091505.632500", "091506.092500", "091506.552500", "091507.012500", "091507.472500", "091507.932500", "091508.392500", "091508.852500", "091509.312500", "091509.772500", "091510.232500", "091510.692500", "091511.152500", "091511.612500", "091512.072500", "091512.532500", "091512.992500", "091513.452500", "091513.912500", "091514.372500", "091514.832500", "091515.292500", "091515.752500", "091516.212500", "091516.672500", "091517.132500", "091517.592500", "091518.052500", "091518.512500", "091518.972500", "091519.432500", "091519.892500", "091520.352500", "091520.812500", "091521.272500", "091521.732500", "091522.192500", "091522.652500", "091523.112500", "091523.572500", "091524.032500", "091524.492500", "091524.952500", "091525.412500", "091525.872500", "091526.332500", "091526.792500", "091527.252500", "091527.712500", "091528.172500", "091528.632500", "091529.092500", "091529.552500", "091530.012500", "091530.472500", "091530.932500", "091531.392500", "091531.852500", "091532.312500", "091532.772500", "091533.232500", "091533.692500", "091534.152500", "091534.612500", "091535.072500", "091535.532500", "091535.992500", "091536.452500", "091536.912500", "091537.372500", "091537.832500", "091538.292500", "091538.752500", "091539.212500", "091539.672500", "091540.132500", "091540.592500", "091541.052500", "091541.512500", "091541.972500", "091542.432500", "091542.892500", "091543.352500", "091543.812500", "091544.272500", "091544.732500", "091545.192500", "091545.652500", "091546.112500", "091546.572500", "091547.032500", "091547.492500", "091547.952500", "091548.412500", "091548.872500", "091549.332500", "091549.792500", "091550.252500", "091550.712500", "091551.172500", "091551.632500", "091552.092500", "091552.552500", "091553.012500", "091553.472500", "091553.932500", "091554.392500", "091554.852500", "091555.312500", "091555.772500", "091556.232500", "091556.692500", "091557.152500", "091557.612500", "091558.072500", "091558.532500", "091558.992500", "091559.452500", "091559.912500", "091600.372500", "091600.832500", "091601.292500", "091601.752500", "091602.212500", "091602.672500", "091603.132500", "091603.592500", "091604.052500", "091604.512500", "091604.972500", "091605.432500", "091605.892500", "091606.352500", "091606.812500", "091607.272500", "091607.732500", "091608.192500", "091608.652500", "091609.112500", "091609.572500", "091610.032500", "091610.492500", "091610.952500", "091611.412500", "091611.872500", "091612.332500", "091612.792500", "091613.252500", "091613.712500", "091614.172500", "091614.632500", "091615.092500", "091615.552500", "091616.012500", "091616.472500", "091616.932500", "091617.392500", "091617.852500", "091618.312500", "091618.772500", "091619.232500", "091619.692500", "091620.152500", "091620.612500", "091621.072500", "091621.532500", "091621.992500", "091622.452500", "091622.912500", "091623.372500", "091623.832500", "091624.292500", "091624.752500", "091625.212500", "091625.672500", "091626.132500", "091626.592500", "091627.052500", "091627.512500", "091627.972500", "091628.432500", "091628.892500", "091629.352500", "091629.812500", "091630.272500", "091630.732500", "091631.192500", "091631.652500", "091632.112500", "091632.572500", "091633.032500", "091633.492500", "091633.952500", "091634.412500", "091634.872500", "091635.332500", "091635.792500", "091636.252500", "091636.712500", "091637.172500", "091637.632500", "091638.092500", "091638.552500", "091639.012500", "091639.472500", "091639.932500", "091640.392500", "091640.852500", "091641.312500", "091641.772500", "091642.232500", "091642.692500", "091643.152500", "091643.612500", "091644.072500", "091644.532500", "091644.992500", "091645.452500", "091645.912500", "091646.372500", "091646.832500", "091647.292500", "091647.752500", "091648.212500", "091648.672500", "091649.132500", "091649.592500", "091650.052500", "091650.512500", "091650.972500", "091651.432500", "091651.892500", "091652.352500", "091652.812500", "091653.272500", "091653.732500", "091654.192500", "091654.652500", "091655.112500", "091655.572500", "091656.032500", "091656.492500", "091656.952500", "091657.412500", "091657.872500", "091658.332500", "091658.792500", "091659.252500", "091659.712500", "091700.172500", "091700.632500", "091701.092500", "091701.552500", "091702.012500", "091702.472500", "091702.932500", "091703.392500", "091703.852500", "091704.312500", "091704.772500", "091705.232500", "091705.692500", "091706.152500", "091706.612500", "091707.072500", "091707.532500", "091707.992500", "091708.452500", "091708.912500", "091709.372500", "091709.832500", "091710.292500", "091710.752500", "091711.212500", "091711.672500", "091712.132500", "091712.592500", "091713.052500", "091713.512500", "091713.972500", "091714.432500", "091714.892500", "091715.352500", "091715.812500", "091716.272500", "091716.732500", "091717.192500", "091717.652500", "091718.112500", "091718.572500", "091719.032500", "091719.492500", "091719.952500", "091720.412500", "091720.872500", "091721.332500", "091721.792500", "091722.252500", "091722.712500", "091723.172500", "091723.632500", "091724.092500", "091724.552500", "091725.012500", "091725.472500", "091725.932500", "091726.392500", "091726.852500", "091727.312500", "091727.772500", "091728.232500", "091728.692500", "091729.152500", "091729.612500", "091730.072500", "091730.532500", "091730.992500", "091731.452500", "091731.912500", "091732.372500", "091732.832500", "091733.292500", "091733.752500", "091734.212500", "091734.672500", "091735.132500", "091735.592500", "091736.052500", "091736.512500", "091736.972500", "091737.432500", "091737.892500", "091738.352500", "091738.812500", "091739.272500", "091739.732500", "091740.192500", "091740.652500", "091741.112500", "091741.572500", "091742.032500", "091742.492500", "091742.952500", "091743.412500", "091743.872500", "091744.332500", "091744.792500", "091745.252500", "091745.712500", "091746.172500", "091746.632500", "091747.092500", "091747.552500", "091748.012500", "091748.472500", "091748.932500", "091749.392500", "091749.852500", "091750.312500", "091750.772500", "091751.232500", "091751.692500", "091752.152500", "091752.612500", "091753.072500", "091753.532500", "091753.992500", "091754.452500", "091754.912500", "091755.372500", "091755.832500", "091756.292500", "091756.752500", "091757.212500", "091757.672500", "091758.132500", "091758.592500", "091759.052500", "091759.512500", "091759.972500", "091800.432500", "091800.892500", "091801.352500", "091801.812500", "091802.272500", "091802.732500", "091803.192500", "091803.652500", "091804.112500", "091804.572500", "091805.032500", "091805.492500", "091805.952500", "091806.412500", "091806.872500", "091807.332500", "091807.792500", "091808.252500", "091808.712500", "091809.172500", "091809.632500", "091810.092500", "091810.552500", "091811.012500", "091811.472500", "091811.932500", "091812.392500", "091812.852500", "091813.312500", "091813.772500", "091814.232500", "091814.692500", "091815.152500", "091815.612500", "091816.072500", "091816.532500", "091816.992500", "091817.452500", "091817.912500", "091818.372500", "091818.832500", "091819.292500", "091819.752500", "091820.212500", "091820.672500", "091821.132500", "091821.592500", "091822.052500", "091822.512500", "091822.972500", "091823.432500", "091823.892500", "091824.352500", "091824.812500", "091825.272500", "091825.732500", "091826.192500", "091826.652500", "091827.112500", "091827.572500", "091828.032500", "091828.492500", "091828.952500", "091829.412500", "091829.872500", "091830.332500", "091830.792500", "091831.252500", "091831.712500", "091832.172500", "091832.632500", "091833.092500", "091833.552500", "091834.012500", "091834.472500", "091834.932500", "091835.392500", "091835.852500", "091836.312500", "091836.772500", "091837.232500", "091837.692500", "091838.152500", "091838.612500", "091839.072500", "091839.532500", "091839.992500", "091840.452500", "091840.912500", "091841.372500", "091841.832500", "091842.292500", "091842.752500", "091843.212500", "091843.672500", "091844.132500", "091844.592500", "091845.052500", "091845.512500", "091845.972500", "091846.432500", "091846.892500", "091847.352500", "091847.812500", "091848.272500", "091848.732500", "091849.192500", "091849.652500", "091850.112500", "091850.572500", "091851.032500", "091851.492500", "091851.952500", "091852.412500", "091852.872500", "091853.332500", "091853.792500", "091854.252500", "091854.712500", "091855.172500", "091855.632500", "091856.092500", "091856.552500", "091857.012500", "091857.472500", "091857.932500", "091858.392500", "091858.852500", "091859.312500", "091859.772500", "091900.232500", "091900.692500", "091901.152500", "091901.612500", "091902.072500", "091902.532500", "091902.992500", "091903.452500", "091903.912500", "091904.372500", "091904.832500", "091905.292500", "091905.752500", "091906.212500", "091906.672500", "091907.132500", "091907.592500", "091908.052500", "091908.512500", "091908.972500", "091909.432500", "091909.892500", "091910.352500", "091910.812500", "091911.272500", "091911.732500", "091912.192500", "091912.652500", "091913.112500", "091913.572500", "091914.032500", "091914.492500", "091914.952500", "091915.412500", "091915.872500", "091916.332500", "091916.792500", "091917.252500", "091917.712500", "091918.172500", "091918.632500", "091919.092500", "091919.552500", "091920.012500", "091920.472500", "091920.932500", "091921.392500", "091921.852500", "091922.312500", "091922.772500", "091923.232500", "091923.692500", "091924.152500", "091924.612500", "091925.072500", "091925.532500", "091925.992500", "091926.452500", "091926.912500", "091927.372500", "091927.832500", "091928.292500", "091928.752500", "091929.212500", "091929.672500", "091930.132500", "091930.592500", "091931.052500", "091931.512500", "091931.972500", "091932.432500", "091932.892500", "091933.352500", "091933.812500", "091934.272500", "091934.732500", "091935.192500", "091935.652500", "091936.112500", "091936.572500", "091937.032500", "091937.492500", "091937.952500", "091938.412500", "091938.872500", "091939.332500", "091939.792500", "091940.252500", "091940.712500", "091941.172500", "091941.632500", "091942.092500", "091942.552500", "091943.012500", "091943.472500", "091943.932500", "091944.392500", "091944.852500", "091945.312500", "091945.772500", "091946.232500", "091946.692500", "091947.152500", "091947.612500", "091948.072500", "091948.532500", "091948.992500", "091949.452500", "091949.912500", "091950.372500", "091950.832500", "091951.292500", "091951.752500", "091952.212500", "091952.672500", "091953.132500", "091953.592500", "091954.052500", "091954.512500", "091954.972500", "091955.432500", "091955.892500", "091956.352500", "091956.812500", "091957.272500", "091957.732500", "091958.192500", "091958.652500", "091959.112500", "091959.572500", "092000.032500", "092000.492500", "092000.952500", "092001.412500", "092001.872500", "092002.332500", "092002.792500", "092003.252500", "092003.712500", "092004.172500", "092004.632500", "092005.092500", "092005.552500", "092006.012500", "092006.472500", "092006.932500", "092007.392500", "092007.852500", "092008.312500", "092008.772500", "092009.232500", "092009.692500", "092010.152500", "092010.612500", "092011.072500", "092011.532500", "092011.992500", "092012.452500", "092012.912500", "092013.372500", "092013.832500", "092014.292500", "092014.752500", "092015.212500", "092015.672500", "092016.132500", "092016.592500", "092017.052500", "092017.512500", "092017.972500", "092018.432500", "092018.892500", "092019.352500", "092019.812500", "092020.272500", "092020.732500", "092021.192500", "092021.652500", "092022.112500", "092022.572500", "092023.032500", "092023.492500", "092023.952500", "092024.412500", "092024.872500", "092025.332500", "092025.792500", "092026.252500", "092026.712500", "092027.172500", "092027.632500", "092028.092500", "092028.552500", "092029.012500", "092029.472500", "092029.932500", "092030.392500", "092030.852500", "092031.312500", "092031.772500", "092032.232500", "092032.692500", "092033.152500", "092033.612500", "092034.072500", "092034.532500", "092034.992500", "092035.452500", "092035.912500", "092036.372500", "092036.832500", "092037.292500", "092037.752500", "092038.212500", "092038.672500", "092039.132500", "092039.592500", "092040.052500", "092040.512500", "092040.972500", "092041.432500", "092041.892500", "092042.352500", "092042.812500", "092043.272500", "092043.732500", "092044.192500", "092044.652500", "092045.112500", "092045.572500", "092046.032500", "092046.492500", "092046.952500", "092047.412500", "092047.872500", "092048.332500", "092048.792500", "092049.252500", "092049.712500", "092050.172500", "092050.632500", "092051.092500", "092051.552500", "092052.012500", "092052.472500", "092052.932500", "092053.392500", "092053.852500", "092054.312500", "092054.772500", "092055.232500", "092055.692500", "092056.152500", "092056.612500", "092057.072500", "092057.532500", "092057.992500", "092058.452500", "092058.912500", "092059.372500", "092059.832500", "092100.292500", "092100.752500", "092101.212500", "092101.672500", "092102.132500", "092102.592500", "092103.052500", "092103.512500", "092103.972500", "092104.432500", "092104.892500", "092105.352500", "092105.812500", "092106.272500", "092106.732500", "092107.192500", "092107.652500", "092108.112500", "092108.572500", "092109.032500", "092109.492500", "092109.952500", "092110.412500", "092110.872500", "092111.332500", "092111.792500", "092112.252500", "092112.712500", "092113.172500", "092113.632500", "092114.092500", "092114.552500", "092115.012500", "092115.472500", "092115.932500", "092116.392500", "092116.852500", "092117.312500", "092117.772500", "092118.232500", "092118.692500", "092119.152500", "092119.612500", "092120.072500", "092120.532500", "092120.992500", "092121.452500", "092121.912500", "092122.372500", "092122.832500", "092123.292500", "092123.752500", "092124.212500", "092124.672500", "092125.132500", "092125.592500", "092126.052500", "092126.512500"],
