{
  "AcquisitionMatrixPE": 82,
  "AcquisitionNumber": 1,
  "AcquisitionTime": "09:06:49.837500",
  "BandwidthPerPixelPhaseEncode": 24.888,
  "BaseResolution": 82,
  "BodyPartExamined": "BRAIN",
  "ConsistencyInfo": "N4_VE11E_LATEST_20181129",
  "ConversionSoftware": "dcm2niix",
  "ConversionSoftwareVersion": "v1.0.20201102",
  "DerivedVendorReportedEchoSpacing": 0.00049,
  "DeviceSerialNumber": "66112",
  "DwellTime": 2e-06,
  "EchoTime": 0.0272,
  "EchoTrainLength": 82,
  "EffectiveEchoSpacing": 0.00049,
  "FlipAngle": 44,
  "ImageComments": "Unaliased MB8/PE3",
  "ImageOrientationPatientDICOM": [0.993042, 0.00544997, 0.117633, 0.00762618, 0.993855, -0.110425],
  "ImageType": [
    "ORIGINAL",
    "PRIMARY",
    "M",
    "MB",
    "ND",
    "NORM",
    "MOSAIC"
],
  "ImagingFrequency": 123.252,
  "InPlanePhaseEncodingDirectionDICOM": "COL",
  "InstitutionAddress": "Maynard 3,Hanover,NH,US,03755",
  "InstitutionName": "Dartmouth College - PBS",
  "InstitutionalDepartmentName": "Department",
  "MRAcquisitionType": "2D",
  "MagneticFieldStrength": 3,
  "Manufacturer": "Siemens",
  "ManufacturersModelName": "Prisma",
  "Modality": "MR",
  "MultibandAccelerationFactor": 8,
  "PartialFourier": 1,
  "PatientPosition": "HFS",
  "PercentPhaseFOV": 100,
  "PercentSampling": 100,
  "PhaseEncodingDirection": "j-",
  "PhaseEncodingSteps": 82,
  "PhaseResolution": 1,
  "PixelBandwidth": 3050,
  "ProcedureStepDescription": "Wager_Wager^1076_spacetop",
  "ProtocolName": "func_run-06_task-social_acq-ap-mb8",
  "PulseSequenceDetails": "%CustomerSeq%\\cmrr_mbep2d_bold",
  "ReceiveCoilActiveElements": "HEA;HEP",
  "ReceiveCoilName": "Head_32",
  "ReconMatrixPE": 82,
  "RepetitionTime": 0.46,
  "SAR": 0.0812865,
  "ScanOptions": "FS",
  "ScanningSequence": "EP",
  "SequenceName": "epfid2d1_82",
  "SequenceVariant": "SK\\SS",
  "SeriesDescription": "func_run-06_task-social_acq-ap-mb8",
  "SeriesNumber": 14,
  "ShimSetting": [4182, -7669, -7258, 492, -42, -37, 17, 35],
  "SliceThickness": 2.7,
  "SliceTiming": [0, 0.2525, 0.065, 0.315, 0.1275, 0.3775, 0.19, 0, 0.2525, 0.065, 0.315, 0.1275, 0.3775, 0.19, 0, 0.2525, 0.065, 0.315, 0.1275, 0.3775, 0.19, 0, 0.2525, 0.065, 0.315, 0.1275, 0.3775, 0.19, 0, 0.2525, 0.065, 0.315, 0.1275, 0.3775, 0.19, 0, 0.2525, 0.065, 0.315, 0.1275, 0.3775, 0.19, 0, 0.2525, 0.065, 0.315, 0.1275, 0.3775, 0.19, 0, 0.2525, 0.065, 0.315, 0.1275, 0.3775, 0.19],
  "SoftwareVersions": "syngo MR E11",
  "SpacingBetweenSlices": 2.7,
  "StationName": "AWP66112",
  "TaskName": "social",
  "TotalReadoutTime": 0.03969,
  "TxRefAmp": 226.139,
  "WipMemBlock": "fcdaf1ea-a4ad-45b7-b1a7-f88c7d4c290a||Sequence: R016 ve11e/master r/434b28f1; Aug  7 2019 18:53:46 by eja",
  "dcmmeta_affine": [
    [-2.664259433746338, 0.020460477098822594, 0.31728261709213257, 102.99951171875],
    [-0.014621859416365623, 2.666440963745117, -0.29849421977996826, -82.27925872802734],
    [0.31560102105140686, 0.2962612509727478, 2.664626359939575, -99.25590515136719],
    [0.0, 0.0, 0.0, 1.0]
],
  "dcmmeta_reorient_transform": [
    [0.0, -1.0, 0.0, 81.0],
    [1.0, 0.0, 0.0, 0.0],
    [0.0, 0.0, 1.0, 0.0],
    [0.0, 0.0, 0.0, 1.0]
],
  "dcmmeta_shape": [82, 82, 56, 872],
  "dcmmeta_slice_dim": 2,
  "dcmmeta_version": 0.6,
  "global": {
    "const": {
      "AccessionNumber": "A004029",
      "AcquisitionMatrix": [82, 0, 0, 82],
      "AngioFlag": "N",
      "BitsAllocated": 16,
      "BitsStored": 16,
      "BodyPartExamined": "BRAIN",
      "Columns": 656,
      "EchoNumbers": 1,
      "EchoTime": 27.2,
      "EchoTrainLength": 82,
      "FlipAngle": 44.0,
      "HighBit": 15,
      "ImageOrientationPatient": [0.99304217004852, 0.00544996567658, 0.11763310069637, 0.00762617756663, 0.99385524104692, -0.1104246406346],
      "ImagePositionPatient": [-875.17145651945, -903.16748967798, -80.809257688676],
      "ImageType": [
        "ORIGINAL",
        "PRIMARY",
        "M",
        "MB",
        "ND",
        "NORM",
        "MOSAIC"
],
      "ImagedNucleus": "1H",
      "ImagingFrequency": 123.252345,
      "InPlanePhaseEncodingDirection": "COL",
      "MRAcquisitionType": "2D",
      "MagneticFieldStrength": 3.0,
      "Manufacturer": "SIEMENS",
      "ManufacturerModelName": "Prisma",
      "Modality": "MR",
      "NumberOfAverages": 1.0,
      "NumberOfPhaseEncodingSteps": 82,
      "PercentPhaseFieldOfView": 100.0,
      "PercentSampling": 100.0,
      "PerformedProcedureStepStartTime": "083059.022000",
      "PhotometricInterpretation": "MONOCHROME2",
      "PixelBandwidth": 3050.0,
      "PixelRepresentation": 0,
      "PixelSpacing": [2.6829268932343, 2.6829268932343],
      "ProtocolName": "func_run-06_task-social_acq-ap-mb8",
      "RepetitionTime": 460.0,
      "Rows": 656,
      "SAR": 0.08128647189234,
      "SamplesPerPixel": 1,
      "ScanOptions": "FS",
      "ScanningSequence": "EP",
      "SequenceName": "epfid2d1_82",
      "SequenceVariant": [
        "SK",
        "SS"
],
      "SeriesDescription": "func_run-06_task-social_acq-ap-mb8",
      "SeriesNumber": 14,
      "SeriesTime": "090718.509000",
      "SliceLocation": -76.755572580857,
      "SliceThickness": 2.7000000476837,
      "SmallestImagePixelValue": 0,
      "SoftwareVersions": "syngo MR E11",
      "SpacingBetweenSlices": 2.7000000170487,
      "SpecificCharacterSet": "ISO_IR 100",
      "StudyID": "3",
      "StudyTime": "083058.941000",
      "TransmitCoilName": "Body",
      "VariableFlipAngleFlag": "N",
      "WindowCenterWidthExplanation": "Algo1"
    },
    "slices": {}
  },
  "time": {
    "samples": {
      "AcquisitionNumber": [1, 2, 3, 4, 5, 6, 7, 8, 9, 10, 11, 12, 13, 14, 15, 16, 17, 18, 19, 20, 21, 22, 23, 24, 25, 26, 27, 28, 29, 30, 31, 32, 33, 34, 35, 36, 37, 38, 39, 40, 41, 42, 43, 44, 45, 46, 47, 48, 49, 50, 51, 52, 53, 54, 55, 56, 57, 58, 59, 60, 61, 62, 63, 64, 65, 66, 67, 68, 69, 70, 71, 72, 73, 74, 75, 76, 77, 78, 79, 80, 81, 82, 83, 84, 85, 86, 87, 88, 89, 90, 91, 92, 93, 94, 95, 96, 97, 98, 99, 100, 101, 102, 103, 104, 105, 106, 107, 108, 109, 110, 111, 112, 113, 114, 115, 116, 117, 118, 119, 120, 121, 122, 123, 124, 125, 126, 127, 128, 129, 130, 131, 132, 133, 134, 135, 136, 137, 138, 139, 140, 141, 142, 143, 144, 145, 146, 147, 148, 149, 150, 151, 152, 153, 154, 155, 156, 157, 158, 159, 160, 161, 162, 163, 164, 165, 166, 167, 168, 169, 170, 171, 172, 173, 174, 175, 176, 177, 178, 179, 180, 181, 182, 183, 184, 185, 186, 187, 188, 189, 190, 191, 192, 193, 194, 195, 196, 197, 198, 199, 200, 201, 202, 203, 204, 205, 206, 207, 208, 209, 210, 211, 212, 213, 214, 215, 216, 217, 218, 219, 220, 221, 222, 223, 224, 225, 226, 227, 228, 229, 230, 231, 232, 233, 234, 235, 236, 237, 238, 239, 240, 241, 242, 243, 244, 245, 246, 247, 248, 249, 250, 251, 252, 253, 254, 255, 256, 257, 258, 259, 260, 261, 262, 263, 264, 265, 266, 267, 268, 269, 270, 271, 272, 273, 274, 275, 276, 277, 278, 279, 280, 281, 282, 283, 284, 285, 286, 287, 288, 289, 290, 291, 292, 293, 294, 295, 296, 297, 298, 299, 300, 301, 302, 303, 304, 305, 306, 307, 308, 309, 310, 311, 312, 313, 314, 315, 316, 317, 318, 319, 320, 321, 322, 323, 324, 325, 326, 327, 328, 329, 330, 331, 332, 333, 334, 335, 336, 337, 338, 339, 340, 341, 342, 343, 344, 345, 346, 347, 348, 349, 350, 351, 352, 353, 354, 355, 356, 357, 358, 359, 360, 361, 362, 363, 364, 365, 366, 367, 368, 369, 370, 371, 372, 373, 374, 375, 376, 377, 378, 379, 380, 381, 382, 383, 384, 385, 386, 387, 388, 389, 390, 391, 392, 393, 394, 395, 396, 397, 398, 399, 400, 401, 402, 403, 404, 405, 406, 407, 408, 409, 410, 411, 412, 413, 414, 415, 416, 417, 418, 419, 420, 421, 422, 423, 424, 425, 426, 427, 428, 429, 430, 431, 432, 433, 434, 435, 436, 437, 438, 439, 440, 441, 442, 443, 444, 445, 446, 447, 448, 449, 450, 451, 452, 453, 454, 455, 456, 457, 458, 459, 460, 461, 462, 463, 464, 465, 466, 467, 468, 469, 470, 471, 472, 473, 474, 475, 476, 477, 478, 479, 480, 481, 482, 483, 484, 485, 486, 487, 488, 489, 490, 491, 492, 493, 494, 495, 496, 497, 498, 499, 500, 501, 502, 503, 504, 505, 506, 507, 508, 509, 510, 511, 512, 513, 514, 515, 516, 517, 518, 519, 520, 521, 522, 523, 524, 525, 526, 527, 528, 529, 530, 531, 532, 533, 534, 535, 536, 537, 538, 539, 540, 541, 542, 543, 544, 545, 546, 547, 548, 549, 550, 551, 552, 553, 554, 555, 556, 557, 558, 559, 560, 561, 562, 563, 564, 565, 566, 567, 568, 569, 570, 571, 572, 573, 574, 575, 576, 577, 578, 579, 580, 581, 582, 583, 584, 585, 586, 587, 588, 589, 590, 591, 592, 593, 594, 595, 596, 597, 598, 599, 600, 601, 602, 603, 604, 605, 606, 607, 608, 609, 610, 611, 612, 613, 614, 615, 616, 617, 618, 619, 620, 621, 622, 623, 624, 625, 626, 627, 628, 629, 630, 631, 632, 633, 634, 635, 636, 637, 638, 639, 640, 641, 642, 643, 644, 645, 646, 647, 648, 649, 650, 651, 652, 653, 654, 655, 656, 657, 658, 659, 660, 661, 662, 663, 664, 665, 666, 667, 668, 669, 670, 671, 672, 673, 674, 675, 676, 677, 678, 679, 680, 681, 682, 683, 684, 685, 686, 687, 688, 689, 690, 691, 692, 693, 694, 695, 696, 697, 698, 699, 700, 701, 702, 703, 704, 705, 706, 707, 708, 709, 710, 711, 712, 713, 714, 715, 716, 717, 718, 719, 720, 721, 722, 723, 724, 725, 726, 727, 728, 729, 730, 731, 732, 733, 734, 735, 736, 737, 738, 739, 740, 741, 742, 743, 744, 745, 746, 747, 748, 749, 750, 751, 752, 753, 754, 755, 756, 757, 758, 759, 760, 761, 762, 763, 764, 765, 766, 767, 768, 769, 770, 771, 772, 773, 774, 775, 776, 777, 778, 779, 780, 781, 782, 783, 784, 785, 786, 787, 788, 789, 790, 791, 792, 793, 794, 795, 796, 797, 798, 799, 800, 801, 802, 803, 804, 805, 806, 807, 808, 809, 810, 811, 812, 813, 814, 815, 816, 817, 818, 819, 820, 821, 822, 823, 824, 825, 826, 827, 828, 829, 830, 831, 832, 833, 834, 835, 836, 837, 838, 839, 840, 841, 842, 843, 844, 845, 846, 847, 848, 849, 850, 851, 852, 853, 854, 855, 856, 857, 858, 859, 860, 861, 862, 863, 864, 865, 866, 867, 868, 869, 870, 871, 872],
      "AcquisitionTime": ["090649.837500", "090650.297500", "090650.757500", "090651.217500", "090651.677500", "090652.137500", "090652.597500", "090653.057500", "090653.517500", "090653.977500", "090654.437500", "090654.897500", "090655.357500", "090655.817500", "090656.277500", "090656.737500", "090657.197500", "090657.657500", "090658.117500", "090658.577500", "090659.037500", "090659.497500", "090659.957500", "090700.417500", "090700.877500", "090701.337500", "090701.797500", "090702.257500", "090702.717500", "090703.177500", "090703.637500", "090704.097500", "090704.557500", "090705.017500", "090705.477500", "090705.937500", "090706.397500", "090706.857500", "090707.317500", "090707.777500", "090708.237500", "090708.697500", "090709.157500", "090709.617500", "090710.077500", "090710.537500", "090710.997500", "090711.457500", "090711.917500", "090712.377500", "090712.837500", "090713.297500", "090713.757500", "090714.217500", "090714.677500", "090715.137500", "090715.597500", "090716.057500", "090716.517500", "090716.977500", "090717.437500", "090717.897500", "090718.357500", "090718.817500", "090719.277500", "090719.737500", "090720.197500", "090720.657500", "090721.117500", "090721.577500", "090722.037500", "090722.497500", "090722.957500", "090723.417500", "090723.877500", "090724.337500", "090724.797500", "090725.257500", "090725.717500", "090726.177500", "090726.637500", "090727.097500", "090727.557500", "090728.017500", "090728.477500", "090728.937500", "090729.397500", "090729.857500", "090730.317500", "090730.777500", "090731.237500", "090731.697500", "090732.157500", "090732.617500", "090733.077500", "090733.537500", "090733.997500", "090734.457500", "090734.917500", "090735.377500", "090735.837500", "090736.297500", "090736.757500", "090737.217500", "090737.677500", "090738.137500", "090738.597500", "090739.057500", "090739.517500", "090739.977500", "090740.437500", "090740.897500", "090741.357500", "090741.817500", "090742.277500", "090742.737500", "090743.197500", "090743.657500", "090744.117500", "090744.577500", "090745.037500", "090745.497500", "090745.957500", "090746.417500", "090746.877500", "090747.337500", "090747.797500", "090748.257500", "090748.717500", "090749.177500", "090749.637500", "090750.097500", "090750.557500", "090751.017500", "090751.477500", "090751.937500", "090752.397500", "090752.857500", "090753.317500", "090753.777500", "090754.237500", "090754.697500", "090755.157500", "090755.617500", "090756.077500", "090756.537500", "090756.997500", "090757.457500", "090757.917500", "090758.377500", "090758.837500", "090759.297500", "090759.757500", "090800.217500", "090800.677500", "090801.137500", "090801.597500", "090802.057500", "090802.517500", "090802.977500", "090803.437500", "090803.897500", "090804.357500", "090804.817500", "090805.277500", "090805.737500", "090806.197500", "090806.657500", "090807.117500", "090807.577500", "090808.037500", "090808.497500", "090808.957500", "090809.417500", "090809.877500", "090810.337500", "090810.797500", "090811.257500", "090811.717500", "090812.177500", "090812.637500", "090813.097500", "090813.557500", "090814.017500", "090814.477500", "090814.937500", "090815.397500", "090815.857500", "090816.317500", "090816.777500", "090817.237500", "090817.697500", "090818.157500", "090818.617500", "090819.077500", "090819.537500", "090819.997500", "090820.457500", "090820.917500", "090821.377500", "090821.837500", "090822.297500", "090822.757500", "090823.217500", "090823.677500", "090824.137500", "090824.597500", "090825.057500", "090825.517500", "090825.977500", "090826.437500", "090826.897500", "090827.357500", "090827.817500", "090828.277500", "090828.737500", "090829.197500", "090829.657500", "090830.117500", "090830.577500", "090831.037500", "090831.497500", "090831.957500", "090832.417500", "090832.877500", "090833.337500", "090833.797500", "090834.257500", "090834.717500", "090835.177500", "090835.637500", "090836.097500", "090836.557500", "090837.017500", "090837.477500", "090837.937500", "090838.397500", "090838.857500", "090839.317500", "090839.777500", "090840.237500", "090840.697500", "090841.157500", "090841.617500", "090842.077500", "090842.537500", "090842.997500", "090843.457500", "090843.917500", "090844.377500", "090844.837500", "090845.297500", "090845.757500", "090846.217500", "090846.677500", "090847.137500", "090847.597500", "090848.057500", "090848.517500", "090848.977500", "090849.437500", "090849.897500", "090850.357500", "090850.817500", "090851.277500", "090851.737500", "090852.197500", "090852.657500", "090853.117500", "090853.577500", "090854.037500", "090854.497500", "090854.957500", "090855.417500", "090855.877500", "090856.337500", "090856.797500", "090857.257500", "090857.717500", "090858.177500", "090858.637500", "090859.097500", "090859.557500", "090900.017500", "090900.477500", "090900.937500", "090901.397500", "090901.857500", "090902.317500", "090902.777500", "090903.237500", "090903.697500", "090904.157500", "090904.617500", "090905.077500", "090905.537500", "090905.997500", "090906.457500", "090906.917500", "090907.377500", "090907.837500", "090908.297500", "090908.757500", "090909.217500", "090909.677500", "090910.137500", "090910.597500", "090911.057500", "090911.517500", "090911.977500", "090912.437500", "090912.897500", "090913.357500", "090913.817500", "090914.277500", "090914.737500", "090915.197500", "090915.657500", "090916.117500", "090916.577500", "090917.037500", "090917.497500", "090917.957500", "090918.417500", "090918.877500", "090919.337500", "090919.797500", "090920.257500", "090920.717500", "090921.177500", "090921.637500", "090922.097500", "090922.557500", "090923.017500", "090923.477500", "090923.937500", "090924.397500", "090924.857500", "090925.317500", "090925.777500", "090926.237500", "090926.697500", "090927.157500", "090927.617500", "090928.077500", "090928.537500", "090928.997500", "090929.457500", "090929.917500", "090930.377500", "090930.837500", "090931.297500", "090931.757500", "090932.217500", "090932.677500", "090933.137500", "090933.597500", "090934.057500", "090934.517500", "090934.977500", "090935.437500", "090935.897500", "090936.357500", "090936.817500", "090937.277500", "090937.737500", "090938.197500", "090938.657500", "090939.117500", "090939.577500", "090940.037500", "090940.497500", "090940.957500", "090941.417500", "090941.877500", "090942.337500", "090942.797500", "090943.257500", "090943.717500", "090944.177500", "090944.637500", "090945.097500", "090945.557500", "090946.017500", "090946.477500", "090946.937500", "090947.397500", "090947.857500", "090948.317500", "090948.777500", "090949.237500", "090949.697500", "090950.157500", "090950.617500", "090951.077500", "090951.537500", "090951.997500", "090952.457500", "090952.917500", "090953.377500", "090953.837500", "090954.297500", "090954.757500", "090955.217500", "090955.677500", "090956.137500", "090956.597500", "090957.057500", "090957.517500", "090957.977500", "090958.437500", "090958.897500", "090959.357500", "090959.817500", "091000.277500", "091000.737500", "091001.197500", "091001.657500", "091002.117500", "091002.577500", "091003.037500", "091003.497500", "091003.957500", "091004.417500", "091004.877500", "091005.337500", "091005.797500", "091006.257500", "091006.717500", "091007.177500", "091007.637500", "091008.097500", "091008.557500", "091009.017500", "091009.477500", "091009.937500", "091010.397500", "091010.857500", "091011.317500", "091011.777500", "091012.237500", "091012.697500", "091013.157500", "091013.617500", "091014.077500", "091014.537500", "091014.997500", "091015.457500", "091015.917500", "091016.377500", "091016.837500", "091017.297500", "091017.757500", "091018.217500", "091018.677500", "091019.137500", "091019.597500", "091020.057500", "091020.517500", "091020.977500", "091021.437500", "091021.897500", "091022.357500", "091022.817500", "091023.277500", "091023.737500", "091024.197500", "091024.657500", "091025.117500", "091025.577500", "091026.037500", "091026.497500", "091026.957500", "091027.417500", "091027.877500", "091028.337500", "091028.797500", "091029.257500", "091029.717500", "091030.177500", "091030.637500", "091031.097500", "091031.557500", "091032.017500", "091032.477500", "091032.937500", "091033.397500", "091033.857500", "091034.317500", "091034.777500", "091035.237500", "091035.697500", "091036.157500", "091036.617500", "091037.077500", "091037.537500", "091037.997500", "091038.457500", "091038.917500", "091039.377500", "091039.837500", "091040.297500", "091040.757500", "091041.217500", "091041.677500", "091042.137500", "091042.597500", "091043.057500", "091043.517500", "091043.977500", "091044.437500", "091044.897500", "091045.357500", "091045.817500", "091046.277500", "091046.737500", "091047.197500", "091047.657500", "091048.117500", "091048.577500", "091049.037500", "091049.497500", "091049.957500", "091050.417500", "091050.877500", "091051.337500", "091051.797500", "091052.257500", "091052.717500", "091053.177500", "091053.637500", "091054.097500", "091054.557500", "091055.017500", "091055.477500", "091055.937500", "091056.397500", "091056.857500", "091057.317500", "091057.777500", "091058.237500", "091058.697500", "091059.157500", "091059.617500", "091100.077500", "091100.537500", "091100.997500", "091101.457500", "091101.917500", "091102.377500", "091102.837500", "091103.297500", "091103.757500", "091104.217500", "091104.677500", "091105.137500", "091105.597500", "091106.057500", "091106.517500", "091106.977500", "091107.437500", "091107.897500", "091108.357500", "091108.817500", "091109.277500", "091109.737500", "091110.197500", "091110.657500", "091111.117500", "091111.577500", "091112.037500", "091112.497500", "091112.957500", "091113.417500", "091113.877500", "091114.337500", "091114.797500", "091115.257500", "091115.717500", "091116.177500", "091116.637500", "091117.097500", "091117.557500", "091118.017500", "091118.477500", "091118.937500", "091119.397500", "091119.857500", "091120.317500", "091120.777500", "091121.237500", "091121.697500", "091122.157500", "091122.617500", "091123.077500", "091123.537500", "091123.997500", "091124.457500", "091124.917500", "091125.377500", "091125.837500", "091126.297500", "091126.757500", "091127.217500", "091127.677500", "091128.137500", "091128.597500", "091129.057500", "091129.517500", "091129.977500", "091130.437500", "091130.897500", "091131.357500", "091131.817500", "091132.277500", "091132.737500", "091133.197500", "091133.657500", "091134.117500", "091134.577500", "091135.037500", "091135.497500", "091135.957500", "091136.417500", "091136.877500", "091137.337500", "091137.797500", "091138.257500", "091138.717500", "091139.177500", "091139.637500", "091140.097500", "091140.557500", "091141.017500", "091141.477500", "091141.937500", "091142.397500", "091142.857500", "091143.317500", "091143.777500", "091144.237500", "091144.697500", "091145.157500", "091145.617500", "091146.077500", "091146.537500", "091146.997500", "091147.457500", "091147.917500", "091148.377500", "091148.837500", "091149.297500", "091149.757500", "091150.217500", "091150.677500", "091151.137500", "091151.597500", "091152.057500", "091152.517500", "091152.977500", "091153.437500", "091153.897500", "091154.357500", "091154.817500", "091155.277500", "091155.737500", "091156.197500", "091156.657500", "091157.117500", "091157.577500", "091158.037500", "091158.497500", "091158.957500", "091159.417500", "091159.877500", "091200.337500", "091200.797500", "091201.257500", "091201.717500", "091202.177500", "091202.637500", "091203.097500", "091203.557500", "091204.017500", "091204.477500", "091204.937500", "091205.397500", "091205.857500", "091206.317500", "091206.777500", "091207.237500", "091207.697500", "091208.157500", "091208.617500", "091209.077500", "091209.537500", "091209.997500", "091210.457500", "091210.917500", "091211.377500", "091211.837500", "091212.297500", "091212.757500", "091213.217500", "091213.677500", "091214.137500", "091214.597500", "091215.057500", "091215.517500", "091215.977500", "091216.437500", "091216.897500", "091217.357500", "091217.817500", "091218.277500", "091218.737500", "091219.197500", "091219.657500", "091220.117500", "091220.577500", "091221.037500", "091221.497500", "091221.957500", "091222.417500", "091222.877500", "091223.337500", "091223.797500", "091224.257500", "091224.717500", "091225.177500", "091225.637500", "091226.097500", "091226.557500", "091227.017500", "091227.477500", "091227.937500", "091228.397500", "091228.857500", "091229.317500", "091229.777500", "091230.237500", "091230.697500", "091231.157500", "091231.617500", "091232.077500", "091232.537500", "091232.997500", "091233.457500", "091233.917500", "091234.377500", "091234.837500", "091235.297500", "091235.757500", "091236.217500", "091236.677500", "091237.137500", "091237.597500", "091238.057500", "091238.517500", "091238.977500", "091239.437500", "091239.897500", "091240.357500", "091240.817500", "091241.277500", "091241.737500", "091242.197500", "091242.657500", "091243.117500", "091243.577500", "091244.037500", "091244.497500", "091244.957500", "091245.417500", "091245.877500", "091246.337500", "091246.797500", "091247.257500", "091247.717500", "091248.177500", "091248.637500", "091249.097500", "091249.557500", "091250.017500", "091250.477500", "091250.937500", "091251.397500", "091251.857500", "091252.317500", "091252.777500", "091253.237500", "091253.697500", "091254.157500", "091254.617500", "091255.077500", "091255.537500", "091255.997500", "091256.457500", "091256.917500", "091257.377500", "091257.837500", "091258.297500", "091258.757500", "091259.217500", "091259.677500", "091300.137500", "091300.597500", "091301.057500", "091301.517500", "091301.977500", "091302.437500", "091302.897500", "091303.357500", "091303.817500", "091304.277500", "091304.737500", "091305.197500", "091305.657500", "091306.117500", "091306.577500", "091307.037500", "091307.497500", "091307.957500", "091308.417500", "091308.877500", "091309.337500", "091309.797500", "091310.257500", "091310.717500", "091311.177500", "091311.637500", "091312.097500", "091312.557500", "091313.017500", "091313.477500", "091313.937500", "091314.397500", "091314.857500", "091315.317500", "091315.777500", "091316.237500", "091316.697500", "091317.157500", "091317.617500", "091318.077500", "091318.537500", "091318.997500", "091319.457500", "091319.917500", "091320.377500", "091320.837500", "091321.297500", "091321.757500", "091322.217500", "091322.677500", "091323.137500", "091323.597500", "091324.057500", "091324.517500", "091324.977500", "091325.437500", "091325.897500", "091326.357500", "091326.817500", "091327.277500", "091327.737500", "091328.197500", "091328.657500", "091329.117500", "091329.577500", "091330.037500", "091330.497500"],
