{
  "AcquisitionMatrixPE": 82,
  "AcquisitionNumber": 1,
  "AcquisitionTime": "08:58:53.837500",
  "BandwidthPerPixelPhaseEncode": 24.888,
  "BaseResolution": 82,
  "BodyPartExamined": "BRAIN",
  "ConsistencyInfo": "N4_VE11E_LATEST_20181129",
  "ConversionSoftware": "dcm2niix",
  "ConversionSoftwareVersion": "v1.0.20201102",
  "DerivedVendorReportedEchoSpacing": 0.00049,
  "DeviceSerialNumber": "66112",
  "DwellTime": 2e-06,
  "EchoTime": 0.0272,
  "EchoTrainLength": 82,
  "EffectiveEchoSpacing": 0.00049,
  "FlipAngle": 44,
  "ImageComments": "Unaliased MB8/PE3",
  "ImageOrientationPatientDICOM": [0.993042, 0.00544997, 0.117633, 0.00762618, 0.993855, -0.110425],
  "ImageType": [
    "ORIGINAL",
    "PRIMARY",
    "M",
    "MB",
    "ND",
    "NORM",
    "MOSAIC"
],
  "ImagingFrequency": 123.252,
  "InPlanePhaseEncodingDirectionDICOM": "COL",
  "InstitutionAddress": "Maynard 3,Hanover,NH,US,03755",
  "InstitutionName": "Dartmouth College - PBS",
  "InstitutionalDepartmentName": "Department",
  "MRAcquisitionType": "2D",
  "MagneticFieldStrength": 3,
  "Manufacturer": "Siemens",
  "ManufacturersModelName": "Prisma",
  "Modality": "MR",
  "MultibandAccelerationFactor": 8,
  "PartialFourier": 1,
  "PatientPosition": "HFS",
  "PercentPhaseFOV": 100,
  "PercentSampling": 100,
  "PhaseEncodingDirection": "j-",
  "PhaseEncodingSteps": 82,
  "PhaseResolution": 1,
  "PixelBandwidth": 3050,
  "ProcedureStepDescription": "Wager_Wager^1076_spacetop",
  "ProtocolName": "func_run-04_task-social_acq-ap-mb8",
  "PulseSequenceDetails": "%CustomerSeq%\\cmrr_mbep2d_bold",
  "ReceiveCoilActiveElements": "HEA;HEP",
  "ReceiveCoilName": "Head_32",
  "ReconMatrixPE": 82,
  "RepetitionTime": 0.46,
  "SAR": 0.0812865,
  "ScanOptions": "FS",
  "ScanningSequence": "EP",
  "SequenceName": "epfid2d1_82",
  "SequenceVariant": "SK\\SS",
  "SeriesDescription": "func_run-04_task-social_acq-ap-mb8",
  "SeriesNumber": 12,
  "ShimSetting": [4182, -7669, -7258, 492, -42, -37, 17, 35],
  "SliceThickness": 2.7,
  "SliceTiming": [0, 0.25, 0.0625, 0.315, 0.125, 0.3775, 0.1875, 0, 0.25, 0.0625, 0.315, 0.125, 0.3775, 0.1875, 0, 0.25, 0.0625, 0.315, 0.125, 0.3775, 0.1875, 0, 0.25, 0.0625, 0.315, 0.125, 0.3775, 0.1875, 0, 0.25, 0.0625, 0.315, 0.125, 0.3775, 0.1875, 0, 0.25, 0.0625, 0.315, 0.125, 0.3775, 0.1875, 0, 0.25, 0.0625, 0.315, 0.125, 0.3775, 0.1875, 0, 0.25, 0.0625, 0.315, 0.125, 0.3775, 0.1875],
  "SoftwareVersions": "syngo MR E11",
  "SpacingBetweenSlices": 2.7,
  "StationName": "AWP66112",
  "TaskName": "social",
  "TotalReadoutTime": 0.03969,
  "TxRefAmp": 226.139,
  "WipMemBlock": "29181e41-db76-4ddc-822e-2c6dafda50b9||Sequence: R016 ve11e/master r/434b28f1; Aug  7 2019 18:53:46 by eja",
  "dcmmeta_affine": [
    [-2.664259433746338, 0.020460477098822594, 0.31728261709213257, 102.99951171875],
    [-0.014621859416365623, 2.666440963745117, -0.29849421977996826, -82.27925872802734],
    [0.31560102105140686, 0.2962612509727478, 2.664626359939575, -99.25590515136719],
    [0.0, 0.0, 0.0, 1.0]
],
  "dcmmeta_reorient_transform": [
    [0.0, -1.0, 0.0, 81.0],
    [1.0, 0.0, 0.0, 0.0],
    [0.0, 0.0, 1.0, 0.0],
    [0.0, 0.0, 0.0, 1.0]
],
  "dcmmeta_shape": [82, 82, 56, 872],
  "dcmmeta_slice_dim": 2,
  "dcmmeta_version": 0.6,
  "global": {
    "const": {
      "AccessionNumber": "A004029",
      "AcquisitionMatrix": [82, 0, 0, 82],
      "AngioFlag": "N",
      "BitsAllocated": 16,
      "BitsStored": 16,
      "BodyPartExamined": "BRAIN",
      "Columns": 656,
      "EchoNumbers": 1,
      "EchoTime": 27.2,
      "EchoTrainLength": 82,
      "FlipAngle": 44.0,
      "HighBit": 15,
      "ImageOrientationPatient": [0.99304217004852, 0.00544996567658, 0.11763310069637, 0.00762617756663, 0.99385524104692, -0.1104246406346],
      "ImagePositionPatient": [-875.17145651945, -903.16748967798, -80.809257688676],
      "ImageType": [
        "ORIGINAL",
        "PRIMARY",
        "M",
        "MB",
        "ND",
        "NORM",
        "MOSAIC"
],
      "ImagedNucleus": "1H",
      "ImagingFrequency": 123.25234,
      "InPlanePhaseEncodingDirection": "COL",
      "MRAcquisitionType": "2D",
      "MagneticFieldStrength": 3.0,
      "Manufacturer": "SIEMENS",
      "ManufacturerModelName": "Prisma",
      "Modality": "MR",
      "NumberOfAverages": 1.0,
      "NumberOfPhaseEncodingSteps": 82,
      "PercentPhaseFieldOfView": 100.0,
      "PercentSampling": 100.0,
      "PerformedProcedureStepStartTime": "083059.022000",
      "PhotometricInterpretation": "MONOCHROME2",
      "PixelBandwidth": 3050.0,
      "PixelRepresentation": 0,
      "PixelSpacing": [2.6829268932343, 2.6829268932343],
      "ProtocolName": "func_run-04_task-social_acq-ap-mb8",
      "RepetitionTime": 460.0,
      "Rows": 656,
      "SAR": 0.08128647189234,
      "SamplesPerPixel": 1,
      "ScanOptions": "FS",
      "ScanningSequence": "EP",
      "SequenceName": "epfid2d1_82",
      "SequenceVariant": [
        "SK",
        "SS"
],
      "SeriesDescription": "func_run-04_task-social_acq-ap-mb8",
      "SeriesNumber": 12,
      "SeriesTime": "085918.700000",
      "SliceLocation": -76.755572580857,
      "SliceThickness": 2.7000000476837,
      "SmallestImagePixelValue": 0,
      "SoftwareVersions": "syngo MR E11",
      "SpacingBetweenSlices": 2.7000000170487,
      "SpecificCharacterSet": "ISO_IR 100",
      "StudyID": "3",
      "StudyTime": "083058.941000",
      "TransmitCoilName": "Body",
      "VariableFlipAngleFlag": "N",
      "WindowCenterWidthExplanation": "Algo1"
    },
    "slices": {}
  },
  "time": {
    "samples": {
      "AcquisitionNumber": [1, 2, 3, 4, 5, 6, 7, 8, 9, 10, 11, 12, 13, 14, 15, 16, 17, 18, 19, 20, 21, 22, 23, 24, 25, 26, 27, 28, 29, 30, 31, 32, 33, 34, 35, 36, 37, 38, 39, 40, 41, 42, 43, 44, 45, 46, 47, 48, 49, 50, 51, 52, 53, 54, 55, 56, 57, 58, 59, 60, 61, 62, 63, 64, 65, 66, 67, 68, 69, 70, 71, 72, 73, 74, 75, 76, 77, 78, 79, 80, 81, 82, 83, 84, 85, 86, 87, 88, 89, 90, 91, 92, 93, 94, 95, 96, 97, 98, 99, 100, 101, 102, 103, 104, 105, 106, 107, 108, 109, 110, 111, 112, 113, 114, 115, 116, 117, 118, 119, 120, 121, 122, 123, 124, 125, 126, 127, 128, 129, 130, 131, 132, 133, 134, 135, 136, 137, 138, 139, 140, 141, 142, 143, 144, 145, 146, 147, 148, 149, 150, 151, 152, 153, 154, 155, 156, 157, 158, 159, 160, 161, 162, 163, 164, 165, 166, 167, 168, 169, 170, 171, 172, 173, 174, 175, 176, 177, 178, 179, 180, 181, 182, 183, 184, 185, 186, 187, 188, 189, 190, 191, 192, 193, 194, 195, 196, 197, 198, 199, 200, 201, 202, 203, 204, 205, 206, 207, 208, 209, 210, 211, 212, 213, 214, 215, 216, 217, 218, 219, 220, 221, 222, 223, 224, 225, 226, 227, 228, 229, 230, 231, 232, 233, 234, 235, 236, 237, 238, 239, 240, 241, 242, 243, 244, 245, 246, 247, 248, 249, 250, 251, 252, 253, 254, 255, 256, 257, 258, 259, 260, 261, 262, 263, 264, 265, 266, 267, 268, 269, 270, 271, 272, 273, 274, 275, 276, 277, 278, 279, 280, 281, 282, 283, 284, 285, 286, 287, 288, 289, 290, 291, 292, 293, 294, 295, 296, 297, 298, 299, 300, 301, 302, 303, 304, 305, 306, 307, 308, 309, 310, 311, 312, 313, 314, 315, 316, 317, 318, 319, 320, 321, 322, 323, 324, 325, 326, 327, 328, 329, 330, 331, 332, 333, 334, 335, 336, 337, 338, 339, 340, 341, 342, 343, 344, 345, 346, 347, 348, 349, 350, 351, 352, 353, 354, 355, 356, 357, 358, 359, 360, 361, 362, 363, 364, 365, 366, 367, 368, 369, 370, 371, 372, 373, 374, 375, 376, 377, 378, 379, 380, 381, 382, 383, 384, 385, 386, 387, 388, 389, 390, 391, 392, 393, 394, 395, 396, 397, 398, 399, 400, 401, 402, 403, 404, 405, 406, 407, 408, 409, 410, 411, 412, 413, 414, 415, 416, 417, 418, 419, 420, 421, 422, 423, 424, 425, 426, 427, 428, 429, 430, 431, 432, 433, 434, 435, 436, 437, 438, 439, 440, 441, 442, 443, 444, 445, 446, 447, 448, 449, 450, 451, 452, 453, 454, 455, 456, 457, 458, 459, 460, 461, 462, 463, 464, 465, 466, 467, 468, 469, 470, 471, 472, 473, 474, 475, 476, 477, 478, 479, 480, 481, 482, 483, 484, 485, 486, 487, 488, 489, 490, 491, 492, 493, 494, 495, 496, 497, 498, 499, 500, 501, 502, 503, 504, 505, 506, 507, 508, 509, 510, 511, 512, 513, 514, 515, 516, 517, 518, 519, 520, 521, 522, 523, 524, 525, 526, 527, 528, 529, 530, 531, 532, 533, 534, 535, 536, 537, 538, 539, 540, 541, 542, 543, 544, 545, 546, 547, 548, 549, 550, 551, 552, 553, 554, 555, 556, 557, 558, 559, 560, 561, 562, 563, 564, 565, 566, 567, 568, 569, 570, 571, 572, 573, 574, 575, 576, 577, 578, 579, 580, 581, 582, 583, 584, 585, 586, 587, 588, 589, 590, 591, 592, 593, 594, 595, 596, 597, 598, 599, 600, 601, 602, 603, 604, 605, 606, 607, 608, 609, 610, 611, 612, 613, 614, 615, 616, 617, 618, 619, 620, 621, 622, 623, 624, 625, 626, 627, 628, 629, 630, 631, 632, 633, 634, 635, 636, 637, 638, 639, 640, 641, 642, 643, 644, 645, 646, 647, 648, 649, 650, 651, 652, 653, 654, 655, 656, 657, 658, 659, 660, 661, 662, 663, 664, 665, 666, 667, 668, 669, 670, 671, 672, 673, 674, 675, 676, 677, 678, 679, 680, 681, 682, 683, 684, 685, 686, 687, 688, 689, 690, 691, 692, 693, 694, 695, 696, 697, 698, 699, 700, 701, 702, 703, 704, 705, 706, 707, 708, 709, 710, 711, 712, 713, 714, 715, 716, 717, 718, 719, 720, 721, 722, 723, 724, 725, 726, 727, 728, 729, 730, 731, 732, 733, 734, 735, 736, 737, 738, 739, 740, 741, 742, 743, 744, 745, 746, 747, 748, 749, 750, 751, 752, 753, 754, 755, 756, 757, 758, 759, 760, 761, 762, 763, 764, 765, 766, 767, 768, 769, 770, 771, 772, 773, 774, 775, 776, 777, 778, 779, 780, 781, 782, 783, 784, 785, 786, 787, 788, 789, 790, 791, 792, 793, 794, 795, 796, 797, 798, 799, 800, 801, 802, 803, 804, 805, 806, 807, 808, 809, 810, 811, 812, 813, 814, 815, 816, 817, 818, 819, 820, 821, 822, 823, 824, 825, 826, 827, 828, 829, 830, 831, 832, 833, 834, 835, 836, 837, 838, 839, 840, 841, 842, 843, 844, 845, 846, 847, 848, 849, 850, 851, 852, 853, 854, 855, 856, 857, 858, 859, 860, 861, 862, 863, 864, 865, 866, 867, 868, 869, 870, 871, 872],
      "AcquisitionTime": ["085853.837500", "085854.297500", "085854.757500", "085855.217500", "085855.677500", "085856.137500", "085856.597500", "085857.057500", "085857.517500", "085857.977500", "085858.437500", "085858.897500", "085859.357500", "085859.817500", "085900.277500", "085900.737500", "085901.197500", "085901.657500", "085902.117500", "085902.577500", "085903.037500", "085903.497500", "085903.957500", "085904.417500", "085904.877500", "085905.337500", "085905.797500", "085906.257500", "085906.717500", "085907.177500", "085907.637500", "085908.097500", "085908.557500", "085909.017500", "085909.477500", "085909.937500", "085910.397500", "085910.857500", "085911.317500", "085911.777500", "085912.237500", "085912.697500", "085913.157500", "085913.617500", "085914.077500", "085914.537500", "085914.997500", "085915.457500", "085915.917500", "085916.377500", "085916.837500", "085917.297500", "085917.757500", "085918.217500", "085918.677500", "085919.137500", "085919.597500", "085920.057500", "085920.517500", "085920.977500", "085921.437500", "085921.897500", "085922.357500", "085922.817500", "085923.277500", "085923.737500", "085924.197500", "085924.657500", "085925.117500", "085925.577500", "085926.037500", "085926.497500", "085926.957500", "085927.417500", "085927.877500", "085928.337500", "085928.797500", "085929.257500", "085929.717500", "085930.177500", "085930.637500", "085931.097500", "085931.557500", "085932.017500", "085932.477500", "085932.937500", "085933.397500", "085933.857500", "085934.317500", "085934.777500", "085935.237500", "085935.697500", "085936.157500", "085936.617500", "085937.077500", "085937.537500", "085937.997500", "085938.457500", "085938.917500", "085939.377500", "085939.837500", "085940.297500", "085940.757500", "085941.217500", "085941.677500", "085942.137500", "085942.597500", "085943.057500", "085943.517500", "085943.977500", "085944.437500", "085944.897500", "085945.357500", "085945.817500", "085946.277500", "085946.737500", "085947.197500", "085947.657500", "085948.117500", "085948.577500", "085949.037500", "085949.497500", "085949.957500", "085950.417500", "085950.877500", "085951.337500", "085951.797500", "085952.257500", "085952.717500", "085953.177500", "085953.637500", "085954.097500", "085954.557500", "085955.017500", "085955.477500", "085955.937500", "085956.397500", "085956.857500", "085957.317500", "085957.777500", "085958.237500", "085958.697500", "085959.157500", "085959.617500", "090000.077500", "090000.537500", "090000.997500", "090001.457500", "090001.917500", "090002.377500", "090002.837500", "090003.297500", "090003.757500", "090004.217500", "090004.677500", "090005.137500", "090005.597500", "090006.057500", "090006.517500", "090006.977500", "090007.437500", "090007.897500", "090008.357500", "090008.817500", "090009.277500", "090009.737500", "090010.197500", "090010.657500", "090011.117500", "090011.577500", "090012.037500", "090012.497500", "090012.957500", "090013.417500", "090013.877500", "090014.337500", "090014.797500", "090015.257500", "090015.717500", "090016.177500", "090016.637500", "090017.097500", "090017.557500", "090018.017500", "090018.477500", "090018.937500", "090019.397500", "090019.857500", "090020.317500", "090020.777500", "090021.237500", "090021.697500", "090022.157500", "090022.617500", "090023.077500", "090023.537500", "090023.997500", "090024.457500", "090024.917500", "090025.377500", "090025.837500", "090026.297500", "090026.757500", "090027.217500", "090027.677500", "090028.137500", "090028.597500", "090029.057500", "090029.517500", "090029.977500", "090030.437500", "090030.897500", "090031.357500", "090031.817500", "090032.277500", "090032.737500", "090033.197500", "090033.657500", "090034.117500", "090034.577500", "090035.037500", "090035.497500", "090035.957500", "090036.417500", "090036.877500", "090037.337500", "090037.797500", "090038.257500", "090038.717500", "090039.177500", "090039.637500", "090040.097500", "090040.557500", "090041.017500", "090041.477500", "090041.937500", "090042.397500", "090042.857500", "090043.317500", "090043.777500", "090044.237500", "090044.697500", "090045.157500", "090045.617500", "090046.077500", "090046.537500", "090046.997500", "090047.457500", "090047.917500", "090048.377500", "090048.837500", "090049.297500", "090049.757500", "090050.217500", "090050.677500", "090051.137500", "090051.597500", "090052.057500", "090052.517500", "090052.977500", "090053.437500", "090053.897500", "090054.357500", "090054.817500", "090055.277500", "090055.737500", "090056.197500", "090056.657500", "090057.117500", "090057.577500", "090058.037500", "090058.497500", "090058.957500", "090059.417500", "090059.877500", "090100.337500", "090100.797500", "090101.257500", "090101.717500", "090102.177500", "090102.637500", "090103.097500", "090103.557500", "090104.017500", "090104.477500", "090104.937500", "090105.397500", "090105.857500", "090106.317500", "090106.777500", "090107.237500", "090107.697500", "090108.157500", "090108.617500", "090109.077500", "090109.537500", "090109.997500", "090110.457500", "090110.917500", "090111.377500", "090111.837500", "090112.297500", "090112.757500", "090113.217500", "090113.677500", "090114.137500", "090114.597500", "090115.057500", "090115.517500", "090115.977500", "090116.437500", "090116.897500", "090117.357500", "090117.817500", "090118.277500", "090118.737500", "090119.197500", "090119.657500", "090120.117500", "090120.577500", "090121.037500", "090121.497500", "090121.957500", "090122.417500", "090122.877500", "090123.337500", "090123.797500", "090124.257500", "090124.717500", "090125.177500", "090125.637500", "090126.097500", "090126.557500", "090127.017500", "090127.477500", "090127.937500", "090128.397500", "090128.857500", "090129.317500", "090129.777500", "090130.237500", "090130.697500", "090131.157500", "090131.617500", "090132.077500", "090132.537500", "090132.997500", "090133.457500", "090133.917500", "090134.377500", "090134.837500", "090135.297500", "090135.757500", "090136.217500", "090136.677500", "090137.137500", "090137.597500", "090138.057500", "090138.517500", "090138.977500", "090139.437500", "090139.897500", "090140.357500", "090140.817500", "090141.277500", "090141.737500", "090142.197500", "090142.657500", "090143.117500", "090143.577500", "090144.037500", "090144.497500", "090144.957500", "090145.417500", "090145.877500", "090146.337500", "090146.797500", "090147.257500", "090147.717500", "090148.177500", "090148.637500", "090149.097500", "090149.557500", "090150.017500", "090150.477500", "090150.937500", "090151.397500", "090151.857500", "090152.317500", "090152.777500", "090153.237500", "090153.697500", "090154.157500", "090154.617500", "090155.077500", "090155.537500", "090155.997500", "090156.457500", "090156.917500", "090157.377500", "090157.837500", "090158.297500", "090158.757500", "090159.217500", "090159.677500", "090200.137500", "090200.597500", "090201.057500", "090201.517500", "090201.977500", "090202.437500", "090202.897500", "090203.357500", "090203.817500", "090204.277500", "090204.737500", "090205.197500", "090205.657500", "090206.117500", "090206.577500", "090207.037500", "090207.497500", "090207.957500", "090208.417500", "090208.877500", "090209.337500", "090209.797500", "090210.257500", "090210.717500", "090211.177500", "090211.637500", "090212.097500", "090212.557500", "090213.017500", "090213.477500", "090213.937500", "090214.397500", "090214.857500", "090215.317500", "090215.777500", "090216.237500", "090216.697500", "090217.157500", "090217.617500", "090218.077500", "090218.537500", "090218.997500", "090219.457500", "090219.917500", "090220.377500", "090220.837500", "090221.297500", "090221.757500", "090222.217500", "090222.677500", "090223.137500", "090223.597500", "090224.057500", "090224.517500", "090224.977500", "090225.437500", "090225.897500", "090226.357500", "090226.817500", "090227.277500", "090227.737500", "090228.197500", "090228.657500", "090229.117500", "090229.577500", "090230.037500", "090230.497500", "090230.957500", "090231.417500", "090231.877500", "090232.337500", "090232.797500", "090233.257500", "090233.717500", "090234.177500", "090234.637500", "090235.097500", "090235.557500", "090236.017500", "090236.477500", "090236.937500", "090237.397500", "090237.857500", "090238.317500", "090238.777500", "090239.237500", "090239.697500", "090240.157500", "090240.617500", "090241.077500", "090241.537500", "090241.997500", "090242.457500", "090242.917500", "090243.377500", "090243.837500", "090244.297500", "090244.757500", "090245.217500", "090245.677500", "090246.137500", "090246.597500", "090247.057500", "090247.517500", "090247.977500", "090248.437500", "090248.897500", "090249.357500", "090249.817500", "090250.277500", "090250.737500", "090251.197500", "090251.657500", "090252.117500", "090252.577500", "090253.037500", "090253.497500", "090253.957500", "090254.417500", "090254.877500", "090255.337500", "090255.797500", "090256.257500", "090256.717500", "090257.177500", "090257.637500", "090258.097500", "090258.557500", "090259.017500", "090259.477500", "090259.937500", "090300.397500", "090300.857500", "090301.317500", "090301.777500", "090302.237500", "090302.697500", "090303.157500", "090303.617500", "090304.077500", "090304.537500", "090304.997500", "090305.457500", "090305.917500", "090306.377500", "090306.837500", "090307.297500", "090307.757500", "090308.217500", "090308.677500", "090309.137500", "090309.597500", "090310.057500", "090310.517500", "090310.977500", "090311.437500", "090311.897500", "090312.357500", "090312.817500", "090313.277500", "090313.737500", "090314.197500", "090314.657500", "090315.117500", "090315.577500", "090316.037500", "090316.497500", "090316.957500", "090317.417500", "090317.877500", "090318.337500", "090318.797500", "090319.257500", "090319.717500", "090320.177500", "090320.637500", "090321.097500", "090321.557500", "090322.017500", "090322.477500", "090322.937500", "090323.397500", "090323.857500", "090324.317500", "090324.777500", "090325.237500", "090325.697500", "090326.157500", "090326.617500", "090327.077500", "090327.537500", "090327.997500", "090328.457500", "090328.917500", "090329.377500", "090329.837500", "090330.297500", "090330.757500", "090331.217500", "090331.677500", "090332.137500", "090332.597500", "090333.057500", "090333.517500", "090333.977500", "090334.437500", "090334.897500", "090335.357500", "090335.817500", "090336.277500", "090336.737500", "090337.197500", "090337.657500", "090338.117500", "090338.577500", "090339.037500", "090339.497500", "090339.957500", "090340.417500", "090340.877500", "090341.337500", "090341.797500", "090342.257500", "090342.717500", "090343.177500", "090343.637500", "090344.097500", "090344.557500", "090345.017500", "090345.477500", "090345.937500", "090346.397500", "090346.857500", "090347.317500", "090347.777500", "090348.237500", "090348.697500", "090349.157500", "090349.617500", "090350.077500", "090350.537500", "090350.997500", "090351.457500", "090351.917500", "090352.377500", "090352.837500", "090353.297500", "090353.757500", "090354.217500", "090354.677500", "090355.137500", "090355.597500", "090356.057500", "090356.517500", "090356.977500", "090357.437500", "090357.897500", "090358.357500", "090358.817500", "090359.277500", "090359.737500", "090400.197500", "090400.657500", "090401.117500", "090401.577500", "090402.037500", "090402.497500", "090402.957500", "090403.417500", "090403.877500", "090404.337500", "090404.797500", "090405.257500", "090405.717500", "090406.177500", "090406.637500", "090407.097500", "090407.557500", "090408.017500", "090408.477500", "090408.937500", "090409.397500", "090409.857500", "090410.317500", "090410.777500", "090411.237500", "090411.697500", "090412.157500", "090412.617500", "090413.077500", "090413.537500", "090413.997500", "090414.457500", "090414.917500", "090415.377500", "090415.837500", "090416.297500", "090416.757500", "090417.217500", "090417.677500", "090418.137500", "090418.597500", "090419.057500", "090419.517500", "090419.977500", "090420.437500", "090420.897500", "090421.357500", "090421.817500", "090422.277500", "090422.737500", "090423.197500", "090423.657500", "090424.117500", "090424.577500", "090425.037500", "090425.497500", "090425.957500", "090426.417500", "090426.877500", "090427.337500", "090427.797500", "090428.257500", "090428.717500", "090429.177500", "090429.637500", "090430.097500", "090430.557500", "090431.017500", "090431.477500", "090431.937500", "090432.397500", "090432.857500", "090433.317500", "090433.777500", "090434.237500", "090434.697500", "090435.157500", "090435.617500", "090436.077500", "090436.537500", "090436.997500", "090437.457500", "090437.917500", "090438.377500", "090438.837500", "090439.297500", "090439.757500", "090440.217500", "090440.677500", "090441.137500", "090441.597500", "090442.057500", "090442.517500", "090442.977500", "090443.437500", "090443.897500", "090444.357500", "090444.817500", "090445.277500", "090445.737500", "090446.197500", "090446.657500", "090447.117500", "090447.577500", "090448.037500", "090448.497500", "090448.957500", "090449.417500", "090449.877500", "090450.337500", "090450.797500", "090451.257500", "090451.717500", "090452.177500", "090452.637500", "090453.097500", "090453.557500", "090454.017500", "090454.477500", "090454.937500", "090455.397500", "090455.857500", "090456.317500", "090456.777500", "090457.237500", "090457.697500", "090458.157500", "090458.617500", "090459.077500", "090459.537500", "090459.997500", "090500.457500", "090500.917500", "090501.377500", "090501.837500", "090502.297500", "090502.757500", "090503.217500", "090503.677500", "090504.137500", "090504.597500", "090505.057500", "090505.517500", "090505.977500", "090506.437500", "090506.897500", "090507.357500", "090507.817500", "090508.277500", "090508.737500", "090509.197500", "090509.657500", "090510.117500", "090510.577500", "090511.037500", "090511.497500", "090511.957500", "090512.417500", "090512.877500", "090513.337500", "090513.797500", "090514.257500", "090514.717500", "090515.177500", "090515.637500", "090516.097500", "090516.557500", "090517.017500", "090517.477500", "090517.937500", "090518.397500", "090518.857500", "090519.317500", "090519.777500", "090520.237500", "090520.697500", "090521.157500", "090521.617500", "090522.077500", "090522.537500", "090522.997500", "090523.457500", "090523.917500", "090524.377500", "090524.837500", "090525.297500", "090525.757500", "090526.217500", "090526.677500", "090527.137500", "090527.597500", "090528.057500", "090528.517500", "090528.977500", "090529.437500", "090529.897500", "090530.357500", "090530.817500", "090531.277500", "090531.737500", "090532.197500", "090532.657500", "090533.117500", "090533.577500", "090534.037500", "090534.497500"],
