{
  "AcquisitionMatrixPE": 82,
  "AcquisitionNumber": 1,
  "AcquisitionTime": "08:43:29.327500",
  "BandwidthPerPixelPhaseEncode": 24.888,
  "BaseResolution": 82,
  "BodyPartExamined": "BRAIN",
  "ConsistencyInfo": "N4_VE11E_LATEST_20181129",
  "ConversionSoftware": "dcm2niix",
  "ConversionSoftwareVersion": "v1.0.20201102",
  "DerivedVendorReportedEchoSpacing": 0.00049,
  "DeviceSerialNumber": "66112",
  "DwellTime": 2e-06,
  "EchoTime": 0.0272,
  "EchoTrainLength": 82,
  "EffectiveEchoSpacing": 0.00049,
  "FlipAngle": 44,
  "ImageComments": "Unaliased MB8/PE3",
  "ImageOrientationPatientDICOM": [0.993042, 0.00544997, 0.117633, 0.00762618, 0.993855, -0.110425],
  "ImageType": [
    "ORIGINAL",
    "PRIMARY",
    "M",
    "MB",
    "ND",
    "NORM",
    "MOSAIC"
],
  "ImagingFrequency": 123.252,
  "InPlanePhaseEncodingDirectionDICOM": "COL",
  "InstitutionAddress": "Maynard 3,Hanover,NH,US,03755",
  "InstitutionName": "Dartmouth College - PBS",
  "InstitutionalDepartmentName": "Department",
  "MRAcquisitionType": "2D",
  "MagneticFieldStrength": 3,
  "Manufacturer": "Siemens",
  "ManufacturersModelName": "Prisma",
  "Modality": "MR",
  "MultibandAccelerationFactor": 8,
  "PartialFourier": 1,
  "PatientPosition": "HFS",
  "PercentPhaseFOV": 100,
  "PercentSampling": 100,
  "PhaseEncodingDirection": "j-",
  "PhaseEncodingSteps": 82,
  "PhaseResolution": 1,
  "PixelBandwidth": 3050,
  "ProcedureStepDescription": "Wager_Wager^1076_spacetop",
  "ProtocolName": "func_run-01_task-social_acq-ap-mb8",
  "PulseSequenceDetails": "%CustomerSeq%\\cmrr_mbep2d_bold",
  "ReceiveCoilActiveElements": "HEA;HEP",
  "ReceiveCoilName": "Head_32",
  "ReconMatrixPE": 82,
  "RepetitionTime": 0.46,
  "SAR": 0.0812865,
  "ScanOptions": "FS",
  "ScanningSequence": "EP",
  "SequenceName": "epfid2d1_82",
  "SequenceVariant": "SK\\SS",
  "SeriesDescription": "func_run-01_task-social_acq-ap-mb8",
  "SeriesNumber": 8,
  "ShimSetting": [4182, -7669, -7258, 492, -42, -37, 17, 35],
  "SliceThickness": 2.7,
  "SliceTiming": [0, 0.2525, 0.065, 0.315, 0.1275, 0.3775, 0.19, 0, 0.2525, 0.065, 0.315, 0.1275, 0.3775, 0.19, 0, 0.2525, 0.065, 0.315, 0.1275, 0.3775, 0.19, 0, 0.2525, 0.065, 0.315, 0.1275, 0.3775, 0.19, 0, 0.2525, 0.065, 0.315, 0.1275, 0.3775, 0.19, 0, 0.2525, 0.065, 0.315, 0.1275, 0.3775, 0.19, 0, 0.2525, 0.065, 0.315, 0.1275, 0.3775, 0.19, 0, 0.2525, 0.065, 0.315, 0.1275, 0.3775, 0.19],
  "SoftwareVersions": "syngo MR E11",
  "SpacingBetweenSlices": 2.7,
  "StationName": "AWP66112",
  "TaskName": "social",
  "TotalReadoutTime": 0.03969,
  "TxRefAmp": 226.139,
  "WipMemBlock": "0f65be92-75e2-47b0-9510-cc57c3d2910c||Sequence: R016 ve11e/master r/434b28f1; Aug  7 2019 18:53:46 by eja",
  "dcmmeta_affine": [
    [-2.664259433746338, 0.020460477098822594, 0.31728261709213257, 102.99951171875],
    [-0.014621859416365623, 2.666440963745117, -0.29849421977996826, -82.27925872802734],
    [0.31560102105140686, 0.2962612509727478, 2.664626359939575, -99.25590515136719],
    [0.0, 0.0, 0.0, 1.0]
],
  "dcmmeta_reorient_transform": [
    [0.0, -1.0, 0.0, 81.0],
    [1.0, 0.0, 0.0, 0.0],
    [0.0, 0.0, 1.0, 0.0],
    [0.0, 0.0, 0.0, 1.0]
],
  "dcmmeta_shape": [82, 82, 56, 872],
  "dcmmeta_slice_dim": 2,
  "dcmmeta_version": 0.6,
  "global": {
    "const": {
      "AccessionNumber": "A004029",
      "AcquisitionMatrix": [82, 0, 0, 82],
      "AngioFlag": "N",
      "BitsAllocated": 16,
      "BitsStored": 16,
      "BodyPartExamined": "BRAIN",
      "Columns": 656,
      "EchoNumbers": 1,
      "EchoTime": 27.2,
      "EchoTrainLength": 82,
      "FlipAngle": 44.0,
      "HighBit": 15,
      "ImageOrientationPatient": [0.99304217004852, 0.00544996567658, 0.11763310069637, 0.00762617756663, 0.99385524104692, -0.1104246406346],
      "ImagePositionPatient": [-875.17145651945, -903.16748967798, -80.809257688676],
      "ImageType": [
        "ORIGINAL",
        "PRIMARY",
        "M",
        "MB",
        "ND",
        "NORM",
        "MOSAIC"
],
      "ImagedNucleus": "1H",
      "ImagingFrequency": 123.252323,
      "InPlanePhaseEncodingDirection": "COL",
      "MRAcquisitionType": "2D",
      "MagneticFieldStrength": 3.0,
      "Manufacturer": "SIEMENS",
      "ManufacturerModelName": "Prisma",
      "Modality": "MR",
      "NumberOfAverages": 1.0,
      "NumberOfPhaseEncodingSteps": 82,
      "PercentPhaseFieldOfView": 100.0,
      "PercentSampling": 100.0,
      "PerformedProcedureStepStartTime": "083059.022000",
      "PhotometricInterpretation": "MONOCHROME2",
      "PixelBandwidth": 3050.0,
      "PixelRepresentation": 0,
      "PixelSpacing": [2.6829268932343, 2.6829268932343],
      "ProtocolName": "func_run-01_task-social_acq-ap-mb8",
      "RepetitionTime": 460.0,
      "Rows": 656,
      "SAR": 0.08128647189234,
      "SamplesPerPixel": 1,
      "ScanOptions": "FS",
      "ScanningSequence": "EP",
      "SequenceName": "epfid2d1_82",
      "SequenceVariant": [
        "SK",
        "SS"
],
      "SeriesDescription": "func_run-01_task-social_acq-ap-mb8",
      "SeriesNumber": 8,
      "SeriesTime": "084358.489000",
      "SliceLocation": -76.755572580857,
      "SliceThickness": 2.7000000476837,
      "SmallestImagePixelValue": 0,
      "SoftwareVersions": "syngo MR E11",
      "SpacingBetweenSlices": 2.7000000170487,
      "SpecificCharacterSet": "ISO_IR 100",
      "StudyID": "3",
      "StudyTime": "083058.941000",
      "TransmitCoilName": "Body",
      "VariableFlipAngleFlag": "N",
      "WindowCenterWidthExplanation": "Algo1"
    },
    "slices": {}
  },
  "time": {
    "samples": {
      "AcquisitionNumber": [1, 2, 3, 4, 5, 6, 7, 8, 9, 10, 11, 12, 13, 14, 15, 16, 17, 18, 19, 20, 21, 22, 23, 24, 25, 26, 27, 28, 29, 30, 31, 32, 33, 34, 35, 36, 37, 38, 39, 40, 41, 42, 43, 44, 45, 46, 47, 48, 49, 50, 51, 52, 53, 54, 55, 56, 57, 58, 59, 60, 61, 62, 63, 64, 65, 66, 67, 68, 69, 70, 71, 72, 73, 74, 75, 76, 77, 78, 79, 80, 81, 82, 83, 84, 85, 86, 87, 88, 89, 90, 91, 92, 93, 94, 95, 96, 97, 98, 99, 100, 101, 102, 103, 104, 105, 106, 107, 108, 109, 110, 111, 112, 113, 114, 115, 116, 117, 118, 119, 120, 121, 122, 123, 124, 125, 126, 127, 128, 129, 130, 131, 132, 133, 134, 135, 136, 137, 138, 139, 140, 141, 142, 143, 144, 145, 146, 147, 148, 149, 150, 151, 152, 153, 154, 155, 156, 157, 158, 159, 160, 161, 162, 163, 164, 165, 166, 167, 168, 169, 170, 171, 172, 173, 174, 175, 176, 177, 178, 179, 180, 181, 182, 183, 184, 185, 186, 187, 188, 189, 190, 191, 192, 193, 194, 195, 196, 197, 198, 199, 200, 201, 202, 203, 204, 205, 206, 207, 208, 209, 210, 211, 212, 213, 214, 215, 216, 217, 218, 219, 220, 221, 222, 223, 224, 225, 226, 227, 228, 229, 230, 231, 232, 233, 234, 235, 236, 237, 238, 239, 240, 241, 242, 243, 244, 245, 246, 247, 248, 249, 250, 251, 252, 253, 254, 255, 256, 257, 258, 259, 260, 261, 262, 263, 264, 265, 266, 267, 268, 269, 270, 271, 272, 273, 274, 275, 276, 277, 278, 279, 280, 281, 282, 283, 284, 285, 286, 287, 288, 289, 290, 291, 292, 293, 294, 295, 296, 297, 298, 299, 300, 301, 302, 303, 304, 305, 306, 307, 308, 309, 310, 311, 312, 313, 314, 315, 316, 317, 318, 319, 320, 321, 322, 323, 324, 325, 326, 327, 328, 329, 330, 331, 332, 333, 334, 335, 336, 337, 338, 339, 340, 341, 342, 343, 344, 345, 346, 347, 348, 349, 350, 351, 352, 353, 354, 355, 356, 357, 358, 359, 360, 361, 362, 363, 364, 365, 366, 367, 368, 369, 370, 371, 372, 373, 374, 375, 376, 377, 378, 379, 380, 381, 382, 383, 384, 385, 386, 387, 388, 389, 390, 391, 392, 393, 394, 395, 396, 397, 398, 399, 400, 401, 402, 403, 404, 405, 406, 407, 408, 409, 410, 411, 412, 413, 414, 415, 416, 417, 418, 419, 420, 421, 422, 423, 424, 425, 426, 427, 428, 429, 430, 431, 432, 433, 434, 435, 436, 437, 438, 439, 440, 441, 442, 443, 444, 445, 446, 447, 448, 449, 450, 451, 452, 453, 454, 455, 456, 457, 458, 459, 460, 461, 462, 463, 464, 465, 466, 467, 468, 469, 470, 471, 472, 473, 474, 475, 476, 477, 478, 479, 480, 481, 482, 483, 484, 485, 486, 487, 488, 489, 490, 491, 492, 493, 494, 495, 496, 497, 498, 499, 500, 501, 502, 503, 504, 505, 506, 507, 508, 509, 510, 511, 512, 513, 514, 515, 516, 517, 518, 519, 520, 521, 522, 523, 524, 525, 526, 527, 528, 529, 530, 531, 532, 533, 534, 535, 536, 537, 538, 539, 540, 541, 542, 543, 544, 545, 546, 547, 548, 549, 550, 551, 552, 553, 554, 555, 556, 557, 558, 559, 560, 561, 562, 563, 564, 565, 566, 567, 568, 569, 570, 571, 572, 573, 574, 575, 576, 577, 578, 579, 580, 581, 582, 583, 584, 585, 586, 587, 588, 589, 590, 591, 592, 593, 594, 595, 596, 597, 598, 599, 600, 601, 602, 603, 604, 605, 606, 607, 608, 609, 610, 611, 612, 613, 614, 615, 616, 617, 618, 619, 620, 621, 622, 623, 624, 625, 626, 627, 628, 629, 630, 631, 632, 633, 634, 635, 636, 637, 638, 639, 640, 641, 642, 643, 644, 645, 646, 647, 648, 649, 650, 651, 652, 653, 654, 655, 656, 657, 658, 659, 660, 661, 662, 663, 664, 665, 666, 667, 668, 669, 670, 671, 672, 673, 674, 675, 676, 677, 678, 679, 680, 681, 682, 683, 684, 685, 686, 687, 688, 689, 690, 691, 692, 693, 694, 695, 696, 697, 698, 699, 700, 701, 702, 703, 704, 705, 706, 707, 708, 709, 710, 711, 712, 713, 714, 715, 716, 717, 718, 719, 720, 721, 722, 723, 724, 725, 726, 727, 728, 729, 730, 731, 732, 733, 734, 735, 736, 737, 738, 739, 740, 741, 742, 743, 744, 745, 746, 747, 748, 749, 750, 751, 752, 753, 754, 755, 756, 757, 758, 759, 760, 761, 762, 763, 764, 765, 766, 767, 768, 769, 770, 771, 772, 773, 774, 775, 776, 777, 778, 779, 780, 781, 782, 783, 784, 785, 786, 787, 788, 789, 790, 791, 792, 793, 794, 795, 796, 797, 798, 799, 800, 801, 802, 803, 804, 805, 806, 807, 808, 809, 810, 811, 812, 813, 814, 815, 816, 817, 818, 819, 820, 821, 822, 823, 824, 825, 826, 827, 828, 829, 830, 831, 832, 833, 834, 835, 836, 837, 838, 839, 840, 841, 842, 843, 844, 845, 846, 847, 848, 849, 850, 851, 852, 853, 854, 855, 856, 857, 858, 859, 860, 861, 862, 863, 864, 865, 866, 867, 868, 869, 870, 871, 872],
      "AcquisitionTime": ["084329.327500", "084329.787500", "084330.247500", "084330.707500", "084331.167500", "084331.627500", "084332.087500", "084332.547500", "084333.007500", "084333.467500", "084333.927500", "084334.387500", "084334.847500", "084335.307500", "084335.767500", "084336.227500", "084336.687500", "084337.147500", "084337.607500", "084338.067500", "084338.527500", "084338.987500", "084339.447500", "084339.907500", "084340.367500", "084340.827500", "084341.287500", "084341.747500", "084342.207500", "084342.667500", "084343.127500", "084343.587500", "084344.047500", "084344.507500", "084344.967500", "084345.427500", "084345.887500", "084346.347500", "084346.807500", "084347.267500", "084347.727500", "084348.187500", "084348.647500", "084349.107500", "084349.567500", "084350.027500", "084350.487500", "084350.947500", "084351.407500", "084351.867500", "084352.327500", "084352.787500", "084353.247500", "084353.707500", "084354.167500", "084354.627500", "084355.087500", "084355.547500", "084356.007500", "084356.467500", "084356.927500", "084357.387500", "084357.847500", "084358.307500", "084358.767500", "084359.227500", "084359.687500", "084400.147500", "084400.607500", "084401.067500", "084401.527500", "084401.987500", "084402.447500", "084402.907500", "084403.367500", "084403.827500", "084404.287500", "084404.747500", "084405.207500", "084405.667500", "084406.127500", "084406.587500", "084407.047500", "084407.507500", "084407.967500", "084408.427500", "084408.887500", "084409.347500", "084409.807500", "084410.267500", "084410.727500", "084411.187500", "084411.647500", "084412.107500", "084412.567500", "084413.027500", "084413.487500", "084413.947500", "084414.407500", "084414.867500", "084415.327500", "084415.787500", "084416.247500", "084416.707500", "084417.167500", "084417.627500", "084418.087500", "084418.547500", "084419.007500", "084419.467500", "084419.927500", "084420.387500", "084420.847500", "084421.307500", "084421.767500", "084422.227500", "084422.687500", "084423.147500", "084423.607500", "084424.067500", "084424.527500", "084424.987500", "084425.447500", "084425.907500", "084426.367500", "084426.827500", "084427.287500", "084427.747500", "084428.207500", "084428.667500", "084429.127500", "084429.587500", "084430.047500", "084430.507500", "084430.967500", "084431.427500", "084431.887500", "084432.347500", "084432.807500", "084433.267500", "084433.727500", "084434.187500", "084434.647500", "084435.107500", "084435.567500", "084436.027500", "084436.487500", "084436.947500", "084437.407500", "084437.867500", "084438.327500", "084438.787500", "084439.247500", "084439.707500", "084440.167500", "084440.627500", "084441.087500", "084441.547500", "084442.007500", "084442.467500", "084442.927500", "084443.387500", "084443.847500", "084444.307500", "084444.767500", "084445.227500", "084445.687500", "084446.147500", "084446.607500", "084447.067500", "084447.527500", "084447.987500", "084448.447500", "084448.907500", "084449.367500", "084449.827500", "084450.287500", "084450.747500", "084451.207500", "084451.667500", "084452.127500", "084452.587500", "084453.047500", "084453.507500", "084453.967500", "084454.427500", "084454.887500", "084455.347500", "084455.807500", "084456.267500", "084456.727500", "084457.187500", "084457.647500", "084458.107500", "084458.567500", "084459.027500", "084459.487500", "084459.947500", "084500.407500", "084500.867500", "084501.327500", "084501.787500", "084502.247500", "084502.707500", "084503.167500", "084503.627500", "084504.087500", "084504.547500", "084505.007500", "084505.467500", "084505.927500", "084506.387500", "084506.847500", "084507.307500", "084507.767500", "084508.227500", "084508.687500", "084509.147500", "084509.607500", "084510.067500", "084510.527500", "084510.987500", "084511.447500", "084511.907500", "084512.367500", "084512.827500", "084513.287500", "084513.747500", "084514.207500", "084514.667500", "084515.127500", "084515.587500", "084516.047500", "084516.507500", "084516.967500", "084517.427500", "084517.887500", "084518.347500", "084518.807500", "084519.267500", "084519.727500", "084520.187500", "084520.647500", "084521.107500", "084521.567500", "084522.027500", "084522.487500", "084522.947500", "084523.407500", "084523.867500", "084524.327500", "084524.787500", "084525.247500", "084525.707500", "084526.167500", "084526.627500", "084527.087500", "084527.547500", "084528.007500", "084528.467500", "084528.927500", "084529.387500", "084529.847500", "084530.307500", "084530.767500", "084531.227500", "084531.687500", "084532.147500", "084532.607500", "084533.067500", "084533.527500", "084533.987500", "084534.447500", "084534.907500", "084535.367500", "084535.827500", "084536.287500", "084536.747500", "084537.207500", "084537.667500", "084538.127500", "084538.587500", "084539.047500", "084539.507500", "084539.967500", "084540.427500", "084540.887500", "084541.347500", "084541.807500", "084542.267500", "084542.727500", "084543.187500", "084543.647500", "084544.107500", "084544.567500", "084545.027500", "084545.487500", "084545.947500", "084546.407500", "084546.867500", "084547.327500", "084547.787500", "084548.247500", "084548.707500", "084549.167500", "084549.627500", "084550.087500", "084550.547500", "084551.007500", "084551.467500", "084551.927500", "084552.387500", "084552.847500", "084553.307500", "084553.767500", "084554.227500", "084554.687500", "084555.147500", "084555.607500", "084556.067500", "084556.527500", "084556.987500", "084557.447500", "084557.907500", "084558.367500", "084558.827500", "084559.287500", "084559.747500", "084600.207500", "084600.667500", "084601.127500", "084601.587500", "084602.047500", "084602.507500", "084602.967500", "084603.427500", "084603.887500", "084604.347500", "084604.807500", "084605.267500", "084605.727500", "084606.187500", "084606.647500", "084607.107500", "084607.567500", "084608.027500", "084608.487500", "084608.947500", "084609.407500", "084609.867500", "084610.327500", "084610.787500", "084611.247500", "084611.707500", "084612.167500", "084612.627500", "084613.087500", "084613.547500", "084614.007500", "084614.467500", "084614.927500", "084615.387500", "084615.847500", "084616.307500", "084616.767500", "084617.227500", "084617.687500", "084618.147500", "084618.607500", "084619.067500", "084619.527500", "084619.987500", "084620.447500", "084620.907500", "084621.367500", "084621.827500", "084622.287500", "084622.747500", "084623.207500", "084623.667500", "084624.127500", "084624.587500", "084625.047500", "084625.507500", "084625.967500", "084626.427500", "084626.887500", "084627.347500", "084627.807500", "084628.267500", "084628.727500", "084629.187500", "084629.647500", "084630.107500", "084630.567500", "084631.027500", "084631.487500", "084631.947500", "084632.407500", "084632.867500", "084633.327500", "084633.787500", "084634.247500", "084634.707500", "084635.167500", "084635.627500", "084636.087500", "084636.547500", "084637.007500", "084637.467500", "084637.927500", "084638.387500", "084638.847500", "084639.307500", "084639.767500", "084640.227500", "084640.687500", "084641.147500", "084641.607500", "084642.067500", "084642.527500", "084642.987500", "084643.447500", "084643.907500", "084644.367500", "084644.827500", "084645.287500", "084645.747500", "084646.207500", "084646.667500", "084647.127500", "084647.587500", "084648.047500", "084648.507500", "084648.967500", "084649.427500", "084649.887500", "084650.347500", "084650.807500", "084651.267500", "084651.727500", "084652.187500", "084652.647500", "084653.107500", "084653.567500", "084654.027500", "084654.487500", "084654.947500", "084655.407500", "084655.867500", "084656.327500", "084656.787500", "084657.247500", "084657.707500", "084658.167500", "084658.627500", "084659.087500", "084659.547500", "084700.007500", "084700.467500", "084700.927500", "084701.387500", "084701.847500", "084702.307500", "084702.767500", "084703.227500", "084703.687500", "084704.147500", "084704.607500", "084705.067500", "084705.527500", "084705.987500", "084706.447500", "084706.907500", "084707.367500", "084707.827500", "084708.287500", "084708.747500", "084709.207500", "084709.667500", "084710.127500", "084710.587500", "084711.047500", "084711.507500", "084711.967500", "084712.427500", "084712.887500", "084713.347500", "084713.807500", "084714.267500", "084714.727500", "084715.187500", "084715.647500", "084716.107500", "084716.567500", "084717.027500", "084717.487500", "084717.947500", "084718.407500", "084718.867500", "084719.327500", "084719.787500", "084720.247500", "084720.707500", "084721.167500", "084721.627500", "084722.087500", "084722.547500", "084723.007500", "084723.467500", "084723.927500", "084724.387500", "084724.847500", "084725.307500", "084725.767500", "084726.227500", "084726.687500", "084727.147500", "084727.607500", "084728.067500", "084728.527500", "084728.987500", "084729.447500", "084729.907500", "084730.367500", "084730.827500", "084731.287500", "084731.747500", "084732.207500", "084732.667500", "084733.127500", "084733.587500", "084734.047500", "084734.507500", "084734.967500", "084735.427500", "084735.887500", "084736.347500", "084736.807500", "084737.267500", "084737.727500", "084738.187500", "084738.647500", "084739.107500", "084739.567500", "084740.027500", "084740.487500", "084740.947500", "084741.407500", "084741.867500", "084742.327500", "084742.787500", "084743.247500", "084743.707500", "084744.167500", "084744.627500", "084745.087500", "084745.547500", "084746.007500", "084746.467500", "084746.927500", "084747.387500", "084747.847500", "084748.307500", "084748.767500", "084749.227500", "084749.687500", "084750.147500", "084750.607500", "084751.067500", "084751.527500", "084751.987500", "084752.447500", "084752.907500", "084753.367500", "084753.827500", "084754.287500", "084754.747500", "084755.207500", "084755.667500", "084756.127500", "084756.587500", "084757.047500", "084757.507500", "084757.967500", "084758.427500", "084758.887500", "084759.347500", "084759.807500", "084800.267500", "084800.727500", "084801.187500", "084801.647500", "084802.107500", "084802.567500", "084803.027500", "084803.487500", "084803.947500", "084804.407500", "084804.867500", "084805.327500", "084805.787500", "084806.247500", "084806.707500", "084807.167500", "084807.627500", "084808.087500", "084808.547500", "084809.007500", "084809.467500", "084809.927500", "084810.387500", "084810.847500", "084811.307500", "084811.767500", "084812.227500", "084812.687500", "084813.147500", "084813.607500", "084814.067500", "084814.527500", "084814.987500", "084815.447500", "084815.907500", "084816.367500", "084816.827500", "084817.287500", "084817.747500", "084818.207500", "084818.667500", "084819.127500", "084819.587500", "084820.047500", "084820.507500", "084820.967500", "084821.427500", "084821.887500", "084822.347500", "084822.807500", "084823.267500", "084823.727500", "084824.187500", "084824.647500", "084825.107500", "084825.567500", "084826.027500", "084826.487500", "084826.947500", "084827.407500", "084827.867500", "084828.327500", "084828.787500", "084829.247500", "084829.707500", "084830.167500", "084830.627500", "084831.087500", "084831.547500", "084832.007500", "084832.467500", "084832.927500", "084833.387500", "084833.847500", "084834.307500", "084834.767500", "084835.227500", "084835.687500", "084836.147500", "084836.607500", "084837.067500", "084837.527500", "084837.987500", "084838.447500", "084838.907500", "084839.367500", "084839.827500", "084840.287500", "084840.747500", "084841.207500", "084841.667500", "084842.127500", "084842.587500", "084843.047500", "084843.507500", "084843.967500", "084844.427500", "084844.887500", "084845.347500", "084845.807500", "084846.267500", "084846.727500", "084847.187500", "084847.647500", "084848.107500", "084848.567500", "084849.027500", "084849.487500", "084849.947500", "084850.407500", "084850.867500", "084851.327500", "084851.787500", "084852.247500", "084852.707500", "084853.167500", "084853.627500", "084854.087500", "084854.547500", "084855.007500", "084855.467500", "084855.927500", "084856.387500", "084856.847500", "084857.307500", "084857.767500", "084858.227500", "084858.687500", "084859.147500", "084859.607500", "084900.067500", "084900.527500", "084900.987500", "084901.447500", "084901.907500", "084902.367500", "084902.827500", "084903.287500", "084903.747500", "084904.207500", "084904.667500", "084905.127500", "084905.587500", "084906.047500", "084906.507500", "084906.967500", "084907.427500", "084907.887500", "084908.347500", "084908.807500", "084909.267500", "084909.727500", "084910.187500", "084910.647500", "084911.107500", "084911.567500", "084912.027500", "084912.487500", "084912.947500", "084913.407500", "084913.867500", "084914.327500", "084914.787500", "084915.247500", "084915.707500", "084916.167500", "084916.627500", "084917.087500", "084917.547500", "084918.007500", "084918.467500", "084918.927500", "084919.387500", "084919.847500", "084920.307500", "084920.767500", "084921.227500", "084921.687500", "084922.147500", "084922.607500", "084923.067500", "084923.527500", "084923.987500", "084924.447500", "084924.907500", "084925.367500", "084925.827500", "084926.287500", "084926.747500", "084927.207500", "084927.667500", "084928.127500", "084928.587500", "084929.047500", "084929.507500", "084929.967500", "084930.427500", "084930.887500", "084931.347500", "084931.807500", "084932.267500", "084932.727500", "084933.187500", "084933.647500", "084934.107500", "084934.567500", "084935.027500", "084935.487500", "084935.947500", "084936.407500", "084936.867500", "084937.327500", "084937.787500", "084938.247500", "084938.707500", "084939.167500", "084939.627500", "084940.087500", "084940.547500", "084941.007500", "084941.467500", "084941.927500", "084942.387500", "084942.847500", "084943.307500", "084943.767500", "084944.227500", "084944.687500", "084945.147500", "084945.607500", "084946.067500", "084946.527500", "084946.987500", "084947.447500", "084947.907500", "084948.367500", "084948.827500", "084949.287500", "084949.747500", "084950.207500", "084950.667500", "084951.127500", "084951.587500", "084952.047500", "084952.507500", "084952.967500", "084953.427500", "084953.887500", "084954.347500", "084954.807500", "084955.267500", "084955.727500", "084956.187500", "084956.647500", "084957.107500", "084957.567500", "084958.027500", "084958.487500", "084958.947500", "084959.407500", "084959.867500", "085000.327500", "085000.787500", "085001.247500", "085001.707500", "085002.167500", "085002.627500", "085003.087500", "085003.547500", "085004.007500", "085004.467500", "085004.927500", "085005.387500", "085005.847500", "085006.307500", "085006.767500", "085007.227500", "085007.687500", "085008.147500", "085008.607500", "085009.067500", "085009.527500", "085009.987500"],
