{
  "AcquisitionMatrixPE": 140,
  "AcquisitionNumber": 1,
  "AcquisitionTime": "13:48:18.785000",
  "BandwidthPerPixelPhaseEncode": 10.352,
  "BaseResolution": 140,
  "BodyPartExamined": "BRAIN",
  "ConsistencyInfo": "N4_VE11C_LATEST_20160120",
  "ConversionSoftware": "dcm2niix",
  "ConversionSoftwareVersion": "v1.0.20201102",
  "DerivedVendorReportedEchoSpacing": 0.000689998,
  "DeviceSerialNumber": "66112",
  "DiffusionScheme": "Monopolar",
  "DwellTime": 2.1e-06,
  "EchoTime": 0.088,
  "EchoTrainLength": 105,
  "EffectiveEchoSpacing": 0.000689998,
  "FlipAngle": 90,
  "ImageComments": "Unaliased MB3/PE3",
  "ImageOrientationPatientDICOM": [0.991428, 0.0736406, 0.107921, -0.0888315, 0.985657, 0.143491],
  "ImageType": [
    "ORIGINAL",
    "PRIMARY",
    "DIFFUSION",
    "NONE",
    "MB",
    "ND"
],
  "ImagingFrequency": 123.252,
  "InPlanePhaseEncodingDirectionDICOM": "COL",
  "InstitutionAddress": "Maynard 3,Hanover,NH,US,03755",
  "InstitutionName": "Dartmouth College - PBS",
  "InstitutionalDepartmentName": "Department",
  "IntendedFor": [
    "ses-01/dwi/sub-0028_ses-01_acq-96dirX6b0Xmb_dwi.nii.gz"
],
  "MRAcquisitionType": "2D",
  "MagneticFieldStrength": 3,
  "Manufacturer": "Siemens",
  "ManufacturersModelName": "Prisma",
  "Modality": "MR",
  "MultibandAccelerationFactor": 3,
  "PartialFourier": 0.75,
  "PatientPosition": "HFS",
  "PercentPhaseFOV": 100,
  "PercentSampling": 100,
  "PhaseEncodingDirection": "j",
  "PhaseEncodingSteps": 105,
  "PhaseResolution": 1,
  "PixelBandwidth": 1700,
  "ProcedureStepDescription": "Wager_Wager^1076_spacetop",
  "ProtocolName": "dwi_acq-discorr-PA",
  "PulseSequenceDetails": "%CustomerSeq%\\cmrr_mbep2d_diff",
  "ReceiveCoilActiveElements": "HEA;HEP",
  "ReceiveCoilName": "Head_32",
  "ReconMatrixPE": 140,
  "RepetitionTime": 4.1,
  "SAR": 0.176655,
  "ScanOptions": "PFP\\FS",
  "ScanningSequence": "EP",
  "SequenceName": "ep_b0",
  "SequenceVariant": "SK\\SS",
  "SeriesDescription": "dwi_acq-discorr-PA",
  "SeriesNumber": 6,
  "ShimSetting": [4177, -7747, -7144, 715, -15, -45, -184, -7],
  "SliceThickness": 1.7,
  "SliceTiming": [0, 2.125, 0.15625, 2.26562, 0.3125, 2.42188, 0.45312, 2.57812, 0.60938, 2.71875, 0.76562, 2.875, 0.90625, 3.03125, 1.0625, 3.17188, 1.21875, 3.32812, 1.35938, 3.48438, 1.51562, 3.625, 1.67188, 3.78125, 1.8125, 3.9375, 1.96875, 0, 2.125, 0.15625, 2.26562, 0.3125, 2.42188, 0.45312, 2.57812, 0.60938, 2.71875, 0.76562, 2.875, 0.90625, 3.03125, 1.0625, 3.17188, 1.21875, 3.32812, 1.35938, 3.48438, 1.51562, 3.625, 1.67188, 3.78125, 1.8125, 3.9375, 1.96875, 0, 2.125, 0.15625, 2.26562, 0.3125, 2.42188, 0.45312, 2.57812, 0.60938, 2.71875, 0.76562, 2.875, 0.90625, 3.03125, 1.0625, 3.17188, 1.21875, 3.32812, 1.35938, 3.48438, 1.51562, 3.625, 1.67188, 3.78125, 1.8125, 3.9375, 1.96875],
  "SoftwareVersions": "syngo MR E11",
  "SpacingBetweenSlices": 1.7,
  "StationName": "AWP66112",
  "TotalReadoutTime": 0.0959097,
  "TxRefAmp": 241.786,
  "WipMemBlock": "231f8e72-fffb-4a8b-9ade-7b49c89fede1||Sequence: R016 ve11c/master r/e634e98; Dec 19 2017 11:11:25 by eja",
  "dcmmeta_affine": [
    [-1.6995913982391357, -0.15228252112865448, 0.1628704071044922, 129.50416564941406],
    [-0.12624099850654602, 1.689697265625, 0.25814247131347656, -99.23133087158203],
    [0.18500719964504242, -0.2459850311279297, 1.6723709106445312, -20.314062118530273],
    [0.0, 0.0, 0.0, 1.0]
],
  "dcmmeta_reorient_transform": [
    [0.0, -1.0, 0.0, 139.0],
    [1.0, 0.0, 0.0, 0.0],
    [0.0, 0.0, -1.0, 80.0],
    [0.0, 0.0, 0.0, 1.0]
],
  "dcmmeta_shape": [140, 140, 81],
  "dcmmeta_slice_dim": 2,
  "dcmmeta_version": 0.6,
  "global": {
    "const": {
      "AccessionNumber": "A003748",
      "AcquisitionMatrix": [140, 0, 0, 140],
      "AcquisitionNumber": 1,
      "AngioFlag": "N",
      "BitsAllocated": 16,
      "BitsStored": 16,
      "BodyPartExamined": "BRAIN",
      "Columns": 140,
      "EchoNumbers": 1,
      "EchoTime": 88.0,
      "EchoTrainLength": 105,
      "FlipAngle": 90.0,
      "HighBit": 15,
      "ImageOrientationPatient": [0.99142833919375, 0.07364058404853, 0.1079208627862, -0.0888314730237, 0.98565674870443, 0.1434912650089],
      "ImageType": [
        "ORIGINAL",
        "PRIMARY",
        "DIFFUSION",
        "NONE",
        "MB",
        "ND"
],
      "ImagedNucleus": "1H",
      "ImagingFrequency": 123.252238,
      "InPlanePhaseEncodingDirection": "COL",
      "MRAcquisitionType": "2D",
      "MagneticFieldStrength": 3.0,
      "Manufacturer": "SIEMENS",
      "ManufacturerModelName": "Prisma",
      "Modality": "MR",
      "NumberOfAverages": 1.0,
      "NumberOfPhaseEncodingSteps": 105,
      "PercentPhaseFieldOfView": 100.0,
      "PercentSampling": 100.0,
      "PerformedProcedureStepStartTime": "134056.968000",
      "PhotometricInterpretation": "MONOCHROME2",
      "PixelBandwidth": 1700.0,
      "PixelRepresentation": 0,
      "PixelSpacing": [1.7142857313156, 1.7142857313156],
      "ProtocolName": "dwi_acq-discorr-PA",
      "RepetitionTime": 4100.0,
      "Rows": 140,
      "SAR": 0.17665483549826,
      "SamplesPerPixel": 1,
      "ScanOptions": [
        "PFP",
        "FS"
],
      "ScanningSequence": "EP",
      "SequenceName": "ep_b0",
      "SequenceVariant": [
        "SK",
        "SS"
],
      "SeriesDescription": "dwi_acq-discorr-PA",
      "SeriesNumber": 6,
      "SeriesTime": "134822.952000",
      "SliceThickness": 1.7000000476837,
      "SmallestImagePixelValue": 0,
      "SoftwareVersions": "syngo MR E11",
      "SpacingBetweenSlices": 1.7,
      "SpecificCharacterSet": "ISO_IR 100",
      "StudyID": "1",
      "StudyTime": "134056.860000",
      "TransmitCoilName": "Body",
      "VariableFlipAngleFlag": "N",
      "WindowCenterWidthExplanation": "Algo1",
      "dBdt": 0.0},
    "slices": {
      "AcquisitionTime": ["134818.785000", "134820.900000", "134818.935000", "134821.052500", "134819.087500", "134821.202500", "134819.237500", "134821.355000", "134819.390000", "134821.505000", "134819.540000", "134821.655000", "134819.692500", "134821.807500", "134819.842500", "134821.957500", "134819.995000", "134822.110000", "134820.145000", "134822.260000", "134820.295000", "134822.412500", "134820.447500", "134822.562500", "134820.597500", "134822.715000", "134820.750000", "134818.785000", "134820.900000", "134818.935000", "134821.052500", "134819.087500", "134821.202500", "134819.237500", "134821.355000", "134819.390000", "134821.505000", "134819.540000", "134821.655000", "134819.692500", "134821.807500", "134819.842500", "134821.957500", "134819.995000", "134822.110000", "134820.145000", "134822.260000", "134820.295000", "134822.412500", "134820.447500", "134822.562500", "134820.597500", "134822.715000", "134820.750000", "134818.785000", "134820.900000", "134818.935000", "134821.052500", "134819.087500", "134821.202500", "134819.237500", "134821.355000", "134819.390000", "134821.505000", "134819.540000", "134821.655000", "134819.692500", "134821.807500", "134819.842500", "134821.957500", "134819.995000", "134822.110000", "134820.145000", "134822.260000", "134820.295000", "134822.412500", "134820.447500", "134822.562500", "134820.597500", "134822.715000", "134820.750000"],
      "ContentTime": ["134822.956000", "134823.113000", "134822.964000", "134823.119000", "134822.971000", "134823.126000", "134822.978000", "134823.133000", "134822.987000", "134823.139000", "134822.998000", "134823.146000", "134823.051000", "134823.153000", "134823.058000", "134823.159000", "134823.065000", "134823.166000", "134823.073000", "134823.173000", "134823.081000", "134823.182000", "134823.089000", "134823.189000", "134823.100000", "134823.196000", "134823.106000", "134822.960000", "134823.115000", "134822.966000", "134823.122000", "134822.973000", "134823.128000", "134822.980000", "134823.135000", "134822.991000", "134823.141000", "134823.002000", "134823.148000", "134823.053000", "134823.155000", "134823.060000", "134823.161000", "134823.068000", "134823.168000", "134823.076000", "134823.176000", "134823.084000", "134823.184000", "134823.095000", "134823.191000", "134823.102000", "134823.200000", "134823.109000", "134822.962000", "134823.117000", "134822.969000", "134823.124000", "134822.976000", "134823.130000", "134822.984000", "134823.137000", "134822.994000", "134823.144000", "134823.048000", "134823.150000", "134823.055000", "134823.157000", "134823.063000", "134823.164000", "134823.070000", "134823.171000", "134823.079000", "134823.179000", "134823.087000", "134823.186000", "134823.097000", "134823.194000", "134823.104000", "134823.202000", "134823.111000"],
      "CsaImage.ICE_Dims": [
        "X_1_1_1_1_1_1_1_1_1_1_1_103",
        "X_1_1_1_1_1_1_42_1_1_2_1_103",
        "X_1_1_1_1_1_1_2_1_1_3_1_103",
        "X_1_1_1_1_1_1_43_1_1_4_1_103",
        "X_1_1_1_1_1_1_3_1_1_5_1_103",
        "X_1_1_1_1_1_1_44_1_1_6_1_103",
        "X_1_1_1_1_1_1_4_1_1_7_1_103",
        "X_1_1_1_1_1_1_45_1_1_8_1_103",
        "X_1_1_1_1_1_1_5_1_1_9_1_103",
        "X_1_1_1_1_1_1_46_1_1_10_1_103",
        "X_1_1_1_1_1_1_6_1_1_11_1_103",
        "X_1_1_1_1_1_1_47_1_1_12_1_103",
        "X_1_1_1_1_1_1_7_1_1_13_1_103",
        "X_1_1_1_1_1_1_48_1_1_14_1_103",
        "X_1_1_1_1_1_1_8_1_1_15_1_103",
        "X_1_1_1_1_1_1_49_1_1_16_1_103",
        "X_1_1_1_1_1_1_9_1_1_17_1_103",
        "X_1_1_1_1_1_1_50_1_1_18_1_103",
        "X_1_1_1_1_1_1_10_1_1_19_1_103",
        "X_1_1_1_1_1_1_51_1_1_20_1_103",
        "X_1_1_1_1_1_1_11_1_1_21_1_103",
        "X_1_1_1_1_1_1_52_1_1_22_1_103",
        "X_1_1_1_1_1_1_12_1_1_23_1_103",
        "X_1_1_1_1_1_1_53_1_1_24_1_103",
        "X_1_1_1_1_1_1_13_1_1_25_1_103",
        "X_1_1_1_1_1_1_54_1_1_26_1_103",
        "X_1_1_1_1_1_1_14_1_1_27_1_103",
        "X_1_1_1_1_1_1_55_1_1_28_1_103",
        "X_1_1_1_1_1_1_15_1_1_29_1_103",
        "X_1_1_1_1_1_1_56_1_1_30_1_103",
        "X_1_1_1_1_1_1_16_1_1_31_1_103",
        "X_1_1_1_1_1_1_57_1_1_32_1_103",
        "X_1_1_1_1_1_1_17_1_1_33_1_103",
        "X_1_1_1_1_1_1_58_1_1_34_1_103",
        "X_1_1_1_1_1_1_18_1_1_35_1_103",
        "X_1_1_1_1_1_1_59_1_1_36_1_103",
        "X_1_1_1_1_1_1_19_1_1_37_1_103",
        "X_1_1_1_1_1_1_60_1_1_38_1_103",
        "X_1_1_1_1_1_1_20_1_1_39_1_103",
        "X_1_1_1_1_1_1_61_1_1_40_1_103",
        "X_1_1_1_1_1_1_21_1_1_41_1_103",
        "X_1_1_1_1_1_1_62_1_1_42_1_103",
        "X_1_1_1_1_1_1_22_1_1_43_1_103",
        "X_1_1_1_1_1_1_63_1_1_44_1_103",
        "X_1_1_1_1_1_1_23_1_1_45_1_103",
        "X_1_1_1_1_1_1_64_1_1_46_1_103",
        "X_1_1_1_1_1_1_24_1_1_47_1_103",
        "X_1_1_1_1_1_1_65_1_1_48_1_103",
        "X_1_1_1_1_1_1_25_1_1_49_1_103",
        "X_1_1_1_1_1_1_66_1_1_50_1_103",
        "X_1_1_1_1_1_1_26_1_1_51_1_103",
        "X_1_1_1_1_1_1_67_1_1_52_1_103",
        "X_1_1_1_1_1_1_27_1_1_53_1_103",
        "X_1_1_1_1_1_1_68_1_1_54_1_103",
        "X_1_1_1_1_1_1_28_1_1_55_1_103",
        "X_1_1_1_1_1_1_69_1_1_56_1_103",
        "X_1_1_1_1_1_1_29_1_1_57_1_103",
        "X_1_1_1_1_1_1_70_1_1_58_1_103",
        "X_1_1_1_1_1_1_30_1_1_59_1_103",
        "X_1_1_1_1_1_1_71_1_1_60_1_103",
        "X_1_1_1_1_1_1_31_1_1_61_1_103",
        "X_1_1_1_1_1_1_72_1_1_62_1_103",
        "X_1_1_1_1_1_1_32_1_1_63_1_103",
        "X_1_1_1_1_1_1_73_1_1_64_1_103",
        "X_1_1_1_1_1_1_33_1_1_65_1_103",
        "X_1_1_1_1_1_1_74_1_1_66_1_103",
        "X_1_1_1_1_1_1_34_1_1_67_1_103",
        "X_1_1_1_1_1_1_75_1_1_68_1_103",
        "X_1_1_1_1_1_1_35_1_1_69_1_103",
        "X_1_1_1_1_1_1_76_1_1_70_1_103",
        "X_1_1_1_1_1_1_36_1_1_71_1_103",
        "X_1_1_1_1_1_1_77_1_1_72_1_103",
        "X_1_1_1_1_1_1_37_1_1_73_1_103",
        "X_1_1_1_1_1_1_78_1_1_74_1_103",
        "X_1_1_1_1_1_1_38_1_1_75_1_103",
        "X_1_1_1_1_1_1_79_1_1_76_1_103",
        "X_1_1_1_1_1_1_39_1_1_77_1_103",
        "X_1_1_1_1_1_1_80_1_1_78_1_103",
        "X_1_1_1_1_1_1_40_1_1_79_1_103",
        "X_1_1_1_1_1_1_81_1_1_80_1_103",
        "X_1_1_1_1_1_1_41_1_1_81_1_103"
],
      "CsaImage.ProtocolSliceNumber": [0, 1, 2, 3, 4, 5, 6, 7, 8, 9, 10, 11, 12, 13, 14, 15, 16, 17, 18, 19, 20, 21, 22, 23, 24, 25, 26, 27, 28, 29, 30, 31, 32, 33, 34, 35, 36, 37, 38, 39, 40, 41, 42, 43, 44, 45, 46, 47, 48, 49, 50, 51, 52, 53, 54, 55, 56, 57, 58, 59, 60, 61, 62, 63, 64, 65, 66, 67, 68, 69, 70, 71, 72, 73, 74, 75, 76, 77, 78, 79, 80],
      "CsaImage.RFSWDDataType": [
        "predicted",
        "predicted",
        "predicted",
        "predicted",
        "predicted",
        "predicted",
        "predicted",
        "predicted",
        "predicted",
        "predicted",
        "predicted",
        "predicted",
        "predicted",
        "predicted",
        "predicted",
        "predicted",
        "predicted",
        "predicted",
        "predicted",
        "predicted",
        "predicted",
        "predicted",
        "predicted",
        "predicted",
        "predicted",
        "measured",
        "predicted",
        "predicted",
        "predicted",
        "predicted",
        "predicted",
        "predicted",
        "predicted",
        "predicted",
        "predicted",
        "predicted",
        "predicted",
        "predicted",
        "predicted",
        "predicted",
        "predicted",
        "predicted",
        "predicted",
        "predicted",
        "predicted",
        "predicted",
        "predicted",
        "predicted",
        "predicted",
        "predicted",
        "predicted",
        "predicted",
        "measured",
        "predicted",
        "predicted",
        "predicted",
        "predicted",
        "predicted",
        "predicted",
        "predicted",
        "predicted",
        "predicted",
        "predicted",
        "predicted",
        "predicted",
        "predicted",
        "predicted",
        "predicted",
        "predicted",
        "predicted",
        "predicted",
        "predicted",
        "predicted",
        "predicted",
        "predicted",
        "predicted",
        "predicted",
        "predicted",
        "predicted",
        "measured",
        "predicted"
],
      "CsaImage.SlicePosition_PCS": [
        [-108.336888, -135.63665058, -54.50625716],
        [-108.49975845, -135.8947921, -52.83388244],
        [-108.6626289, -136.15293457, -51.16150962],
        [-108.82549937, -136.41107609, -49.4891349],
        [-108.98836984, -136.66921761, -47.81676017],
        [-109.15124024, -136.92735913, -46.14438544],
        [-109.31411077, -137.1855016, -44.47201167],
        [-109.47698118, -137.44364311, -42.79963695],
        [-109.63985158, -137.70178463, -41.12726222],
        [-109.80272211, -137.95992615, -39.45488845],
        [-109.96559252, -138.21806767, -37.78251373],
        [-110.12846292, -138.47621014, -36.11013948],
        [-110.29133345, -138.73435166, -34.43776475],
        [-110.45420386, -138.99249317, -32.7653905],
        [-110.61707426, -139.25063469, -31.09301625],
        [-110.77994467, -139.50877716, -29.42064183],
        [-110.94281532, -139.76691868, -27.74826752],
        [-111.10568572, -140.0250602, -26.07589303],
        [-111.26855613, -140.28320172, -24.40351878],
        [-111.43142654, -140.54134323, -22.73114454],
        [-111.59429694, -140.79948571, -21.05877029],
        [-111.75716759, -141.05762722, -19.38639556],
        [-111.920038, -141.31576874, -17.71402084],
        [-112.0829084, -141.57391026, -16.04164706],
        [-112.24577881, -141.83205273, -14.36927234],
        [-112.40864946, -142.09019425, -12.69689857],
        [-112.57151986, -142.34833576, -11.02452384],
        [-112.73439027, -142.60647728, -9.35214912],
        [-112.89726068, -142.8646188, -7.67977439],
        [-113.06013109, -143.12276127, -6.00739967],
        [-113.22300149, -143.38090184, -4.33502685],
        [-113.3858719, -143.63904431, -2.66265212],
        [-113.54874231, -143.89718678, -0.9902774],
        [-113.71161271, -144.15532734, 0.68209733],
        [-113.8744836, -144.41346981, 2.35447015],
        [-114.03735401, -144.67161228, 4.02684487],
        [-114.20022441, -144.92975285, 5.6992196],
        [-114.36309482, -145.18789532, 7.37159432],
        [-114.52596523, -145.44603588, 9.04396905],
        [-114.68883563, -145.70417836, 10.71634377],
        [-114.85170604, -145.96232083, 12.3887185],
        [-115.01457645, -146.22046139, 14.06109322],
        [-115.17744685, -146.47860386, 15.73346795],
        [-115.34031726, -146.73674443, 17.40583886],
        [-115.50318815, -146.9948869, 19.07821358],
        [-115.66605855, -147.25302937, 20.75058831],
        [-115.82892896, -147.51116993, 22.42296304],
        [-115.99179937, -147.7693124, 24.09533776],
        [-116.15466977, -148.02745297, 25.76771249],
        [-116.31754066, -148.28559544, 27.44008721],
        [-116.48041107, -148.54373791, 29.11246194],
        [-116.64328147, -148.80187847, 30.78483666],
        [-116.80615188, -149.06002095, 32.45721139],
        [-116.96902229, -149.31816342, 34.12958611],
        [-117.13189269, -149.57630398, 35.80195702],
        [-117.2947631, -149.83444645, 37.47433556],
        [-117.45763351, -150.09258702, 39.14670647],
        [-117.62050392, -150.35072949, 40.81908501],
        [-117.78337432, -150.60887196, 42.49145592],
        [-117.94624473, -150.86701252, 44.16383446],
        [-118.10911514, -151.12515499, 45.83620538],
        [-118.27198554, -151.38329556, 47.50857629],
        [-118.43485595, -151.64143803, 49.18095483],
        [-118.59772636, -151.8995805, 50.85332574],
        [-118.76059676, -152.15772106, 52.52570428],
        [-118.92346717, -152.41586354, 54.19807519],
        [-119.08633758, -152.6740041, 55.87045373],
        [-119.24920799, -152.93214657, 57.54282464],
        [-119.41207839, -153.19028904, 59.21520318],
        [-119.5749488, -153.44842961, 60.88757409],
        [-119.73782016, -153.70657208, 62.55995263],
        [-119.90069057, -153.96471455, 64.23232354],
        [-120.06356098, -154.22285511, 65.90469445],
        [-120.22643138, -154.48099758, 67.57707299],
        [-120.38930179, -154.73913815, 69.2494439],
        [-120.5521722, -154.99728062, 70.92182244],
        [-120.7150426, -155.25542309, 72.59419335],
        [-120.87791301, -155.51356365, 74.26657189],
        [-121.04078342, -155.77170613, 75.9389428],
        [-121.20365382, -156.02984669, 77.61132134],
        [-121.36652423, -156.28798916, 79.28369225]
],
      "CsaImage.TimeAfterStart": [16.4, 18.515, 16.55, 18.665, 16.7025, 18.8175, 16.8525, 18.9675, 17.005, 19.12, 17.155, 19.27, 17.305, 19.4225, 17.4575, 19.5725, 17.6075, 19.725, 17.76, 19.875, 17.91, 20.025, 18.0625, 20.1775, 18.2125, 20.3275, 18.365, 16.4, 18.515, 16.55, 18.665, 16.7025, 18.8175, 16.8525, 18.9675, 17.005, 19.12, 17.155, 19.27, 17.305, 19.4225, 17.4575, 19.5725, 17.6075, 19.725, 17.76, 19.875, 17.91, 20.025, 18.0625, 20.1775, 18.2125, 20.3275, 18.365, 16.4, 18.515, 16.55, 18.665, 16.7025, 18.8175, 16.8525, 18.9675, 17.005, 19.12, 17.155, 19.27, 17.305, 19.4225, 17.4575, 19.5725, 17.6075, 19.725, 17.76, 19.875, 17.91, 20.025, 18.0625, 20.1775, 18.2125, 20.3275, 18.365],
      "ImagePositionPatient": [
        [-108.33688799618, -135.63665058401, -54.506257164049],
        [-108.49975844985, -135.89479210164, -52.833882438707],
        [-108.66262890166, -136.15293457296, -51.161509620714],
        [-108.82549936836, -136.4110760906, -49.489134895373],
        [-108.98836983507, -136.66921760824, -47.816760170031],
        [-109.15124024218, -136.92735912588, -46.144385444689],
        [-109.31411076849, -137.18550159719, -44.472011673021],
        [-109.4769811756, -137.44364311483, -42.79963694768],
        [-109.6398515827, -137.70178463247, -41.127262222338],
        [-109.80272210901, -137.95992615011, -39.45488845067],
        [-109.96559251612, -138.21806766775, -37.782513725329],
        [-110.12846292322, -138.47621013906, -36.110139476824],
        [-110.29133344954, -138.7343516567, -34.437764751482],
        [-110.45420385664, -138.99249317434, -32.765390502977],
        [-110.61707426375, -139.25063469198, -31.093016254473],
        [-110.77994467085, -139.50877716329, -29.420641827154],
        [-110.94281531637, -139.76691868093, -27.748267519045],
        [-111.10568572348, -140.02506019857, -26.075893032122],
        [-111.26855613058, -140.28320171621, -24.403518783617],
        [-111.43142653769, -140.54134323385, -22.731144535113],
        [-111.59429694479, -140.79948570516, -21.058770286608],
        [-111.75716759032, -141.0576272228, -19.386395561266],
        [-111.92003799742, -141.31576874044, -17.714020835924],
        [-112.08290840452, -141.57391025808, -16.041647064257],
        [-112.24577881163, -141.83205272939, -14.369272338915],
        [-112.40864945715, -142.09019424703, -12.696898567248],
        [-112.57151986426, -142.34833576467, -11.024523841906],
        [-112.73439027136, -142.60647728231, -9.3521491165639],
        [-112.89726067847, -142.86461879995, -7.6797743912221],
        [-113.06013108557, -143.12276127126, -6.0073996658803],
        [-113.22300149267, -143.38090183523, -4.3350268478872],
        [-113.38587189978, -143.63904430654, -2.6626521225454],
        [-113.54874230688, -143.89718677785, -0.9902773972036],
        [-113.71161271399, -144.15532734182, 0.68209732813823],
        [-113.87448359793, -144.41346981313, 2.3544701461314],
        [-114.03735400503, -144.67161228444, 4.0268448714732],
        [-114.20022441214, -144.92975284841, 5.699219596815],
        [-114.36309481924, -145.18789531972, 7.3715943221568],
        [-114.52596522635, -145.44603588369, 9.0439690474986],
        [-114.68883563345, -145.704178355, 10.71634377284],
        [-114.85170604056, -145.96232082631, 12.388718498182],
        [-115.01457644766, -146.22046139028, 14.061093223524],
        [-115.17744685477, -146.47860386159, 15.733467948866],
        [-115.34031726187, -146.73674442556, 17.40583885951],
        [-115.50318814581, -146.99488689687, 19.078213584852],
        [-115.66605855292, -147.25302936818, 20.750588310194],
        [-115.82892896002, -147.51116993215, 22.422963035536],
        [-115.99179936712, -147.76931240346, 24.095337760877],
        [-116.15466977423, -148.02745296743, 25.767712486219],
        [-116.31754065817, -148.28559543874, 27.440087211561],
        [-116.48041106528, -148.54373791005, 29.112461936903],
        [-116.64328147238, -148.80187847402, 30.784836662245],
        [-116.80615187948, -149.06002094533, 32.457211387586],
        [-116.96902228659, -149.31816341665, 34.129586112928],
        [-117.13189269369, -149.57630398061, 35.801957023573],
        [-117.2947631008, -149.83444645192, 37.474335563612],
        [-117.4576335079, -150.09258701589, 39.146706474256],
        [-117.62050391501, -150.3507294872, 40.819085014295],
        [-117.78337432211, -150.60887195852, 42.49145592494],
        [-117.94624472922, -150.86701252248, 44.163834464979],
        [-118.10911513632, -151.1251549938, 45.836205375624],
        [-118.27198554342, -151.38329555776, 47.508576286268],
        [-118.43485595053, -151.64143802907, 49.180954826307],
        [-118.59772635763, -151.89958050039, 50.853325736952],
        [-118.76059676474, -152.15772106435, 52.525704276991],
        [-118.92346717184, -152.41586353567, 54.198075187635],
        [-119.08633757895, -152.67400409963, 55.870453727674],
        [-119.24920798605, -152.93214657094, 57.542824638319],
        [-119.41207839316, -153.19028904226, 59.215203178358],
        [-119.57494880026, -153.44842960622, 60.887574089002],
        [-119.73782016104, -153.70657207754, 62.559952629042],
        [-119.90069056814, -153.96471454885, 64.232323539686],
        [-120.06356097525, -154.22285511281, 65.904694450331],
        [-120.22643138235, -154.48099758413, 67.57707299037],
        [-120.38930178946, -154.73913814809, 69.249443901014],
        [-120.55217219656, -154.99728061941, 70.921822441053],
        [-120.71504260367, -155.25542309072, 72.594193351698],
        [-120.87791301077, -155.51356365468, 74.266571891737],
        [-121.04078341788, -155.771706126, 75.938942802381],
        [-121.20365382498, -156.02984668996, 77.61132134242],
        [-121.36652423208, -156.28798916128, 79.283692253065]
],
      "InstanceCreationTime": ["134822.956000", "134823.113000", "134822.964000", "134823.119000", "134822.971000", "134823.126000", "134822.978000", "134823.133000", "134822.987000", "134823.139000", "134822.998000", "134823.146000", "134823.051000", "134823.153000", "134823.058000", "134823.159000", "134823.065000", "134823.166000", "134823.073000", "134823.173000", "134823.081000", "134823.182000", "134823.089000", "134823.189000", "134823.100000", "134823.196000", "134823.106000", "134822.960000", "134823.115000", "134822.966000", "134823.122000", "134822.973000", "134823.128000", "134822.980000", "134823.135000", "134822.991000", "134823.141000", "134823.002000", "134823.148000", "134823.053000", "134823.155000", "134823.060000", "134823.161000", "134823.068000", "134823.168000", "134823.076000", "134823.176000", "134823.084000", "134823.184000", "134823.095000", "134823.191000", "134823.102000", "134823.200000", "134823.109000", "134822.962000", "134823.117000", "134822.969000", "134823.124000", "134822.976000", "134823.130000", "134822.984000", "134823.137000", "134822.994000", "134823.144000", "134823.048000", "134823.150000", "134823.055000", "134823.157000", "134823.063000", "134823.164000", "134823.070000", "134823.171000", "134823.079000", "134823.179000", "134823.087000", "134823.186000", "134823.097000", "134823.194000", "134823.104000", "134823.202000", "134823.111000"],
      "InstanceNumber": [1, 2, 3, 4, 5, 6, 7, 8, 9, 10, 11, 12, 13, 14, 15, 16, 17, 18, 19, 20, 21, 22, 23, 24, 25, 26, 27, 28, 29, 30, 31, 32, 33, 34, 35, 36, 37, 38, 39, 40, 41, 42, 43, 44, 45, 46, 47, 48, 49, 50, 51, 52, 53, 54, 55, 56, 57, 58, 59, 60, 61, 62, 63, 64, 65, 66, 67, 68, 69, 70, 71, 72, 73, 74, 75, 76, 77, 78, 79, 80, 81],
      "LargestImagePixelValue": [29781, 31088, 24771, 18124, 22897, 29833, 34108, 42517, 50201, 31956, 34067, 34117, 30168, 34248, 34513, 34058, 35536, 31893, 30794, 26776, 43224, 45401, 51112, 59979, 62859, 52256, 58866, 58440, 65535, 65535, 65535, 65535, 65535, 60315, 45989, 43123, 34225, 35672, 46655, 35821, 47498, 41636, 42728, 47350, 42280, 43011, 49568, 45112, 43163, 40049, 49232, 41504, 48019, 42690, 42404, 43723, 43700, 37823, 34480, 38963, 38073, 39646, 42531, 42600, 48960, 38800, 39657, 39104, 41871, 37535, 40148, 37435, 45437, 46130, 38068, 22644, 11692, 9475, 9512, 9198, 7769],
      "SliceLocation": [-22.645006465241, -20.945006156485, -19.245007579448, -17.545007269443, -15.845006959438, -14.145006655143, -12.445007132791, -10.745006828497, -9.0450065242021, -7.3450071466634, -5.6450068423689, -3.9450068623492, -2.2450065466337, -0.5450067114275, 1.1549931237786, 2.8549932797065, 4.5549931963906, 6.2549932661409, 7.954993101347, 9.6549929365532, 11.354992916573, 13.054993243709, 14.754993548004, 16.454992914122, 18.15499336323, 19.854992752189, 21.554993056484, 23.254993360778, 24.954993665073, 26.654994114181, 28.354992397308, 30.054992846417, 31.754993295525, 33.454993455006, 35.154992073444, 36.854992522552, 38.554992682033, 40.254993131141, 41.954993290622, 43.65499373973, 45.354994188838, 47.054994348319, 48.754994797427, 50.454991204201, 52.154991698993, 53.854992148101, 55.554992307582, 57.25499275669, 58.954992916171, 60.654993410963, 62.354993860071, 64.054994019552, 65.75499446866, 67.454994917769, 69.154991324542, 70.854995526358, 72.554991933131, 74.254996134947, 75.954992831348, 77.654996743536, 79.354993439937, 81.05498984671, 82.754994048526, 84.454990744927, 86.154994657115, 87.854991353516, 89.554995265704, 91.254991962105, 92.95499616392, 94.654992570694, 96.354996863877, 98.054993560278, 99.754989967052, 101.45499416887, 103.15499057564, 104.85499477746, 106.55499147386, 108.25499538604, 109.95499208245, 111.65499599463, 113.35499269103],
      "WindowCenter": [4047.0, 4328.0, 4263.0, 3910.0, 4703.0, 5549.0, 6103.0, 6717.0, 6769.0, 6442.0, 6556.0, 6999.0, 7080.0, 7053.0, 7029.0, 7055.0, 7219.0, 7185.0, 7041.0, 7079.0, 7386.0, 7557.0, 7922.0, 8331.0, 8664.0, 8385.0, 8618.0, 8447.0, 8415.0, 8933.0, 8780.0, 9159.0, 8974.0, 8659.0, 8546.0, 8699.0, 8619.0, 8653.0, 8804.0, 8715.0, 8878.0, 9049.0, 9072.0, 9169.0, 9118.0, 9176.0, 9310.0, 9323.0, 9368.0, 9230.0, 9452.0, 9484.0, 9697.0, 9668.0, 9281.0, 9373.0, 9565.0, 9346.0, 9415.0, 9399.0, 9506.0, 9428.0, 9800.0, 9867.0, 9893.0, 9659.0, 9657.0, 9790.0, 9990.0, 9919.0, 10137.0, 10140.0, 10146.0, 9584.0, 7212.0, 4664.0, 2276.0, 1572.0, 1565.0, 1503.0, 1316.0],
      "WindowWidth": [10202.0, 10398.0, 10102.0, 9425.0, 10800.0, 12255.0, 13147.0, 14163.0, 14471.0, 13788.0, 13949.0, 14768.0, 15036.0, 15040.0, 15377.0, 15495.0, 15829.0, 15641.0, 15205.0, 15338.0, 16012.0, 16547.0, 17527.0, 18791.0, 20108.0, 19380.0, 19854.0, 19629.0, 20123.0, 21149.0, 20661.0, 21706.0, 20988.0, 19168.0, 18622.0, 18930.0, 18790.0, 18856.0, 19239.0, 19071.0, 19453.0, 19721.0, 19739.0, 19823.0, 19822.0, 19991.0, 20418.0, 20342.0, 20516.0, 20232.0, 20856.0, 20983.0, 21402.0, 21183.0, 20361.0, 20576.0, 21107.0, 20381.0, 20528.0, 20431.0, 20664.0, 20496.0, 21462.0, 21564.0, 21656.0, 21052.0, 21128.0, 21428.0, 21965.0, 21776.0, 22552.0, 22699.0, 23064.0, 20952.0, 15448.0, 10555.0, 6117.0, 4717.0, 4673.0, 4502.0, 3668.0]
    }
  }
}