{
  "AcquisitionMatrixPE": 140,
  "AcquisitionNumber": 1,
  "AcquisitionTime": "16:08:30.982500",
  "BandwidthPerPixelPhaseEncode": 10.352,
  "BaseResolution": 140,
  "BodyPartExamined": "BRAIN",
  "ConsistencyInfo": "N4_VE11E_LATEST_20181129",
  "ConversionSoftware": "dcm2niix",
  "ConversionSoftwareVersion": "v1.0.20201102",
  "DerivedVendorReportedEchoSpacing": 0.000689998,
  "DeviceSerialNumber": "66112",
  "DiffusionScheme": "Monopolar",
  "DwellTime": 2.1e-06,
  "EchoTime": 0.088,
  "EchoTrainLength": 105,
  "EffectiveEchoSpacing": 0.000689998,
  "FlipAngle": 90,
  "ImageComments": "Unaliased MB3/PE3",
  "ImageOrientationPatientDICOM": [0.999733, -0.00515745, -0.0225397, 0.00994607, 0.975933, 0.217842],
  "ImageType": [
    "ORIGINAL",
    "PRIMARY",
    "DIFFUSION",
    "NONE",
    "MB",
    "ND"
],
  "ImagingFrequency": 123.259,
  "InPlanePhaseEncodingDirectionDICOM": "COL",
  "InstitutionAddress": "Maynard 3,Hanover,NH,US,03755",
  "InstitutionName": "Dartmouth College - PBS",
  "InstitutionalDepartmentName": "Department",
  "IntendedFor": [
    "ses-01/dwi/sub-0122_ses-01_acq-96dirX6b0Xmb_dwi.nii.gz"
],
  "MRAcquisitionType": "2D",
  "MagneticFieldStrength": 3,
  "Manufacturer": "Siemens",
  "ManufacturersModelName": "Prisma",
  "Modality": "MR",
  "MultibandAccelerationFactor": 3,
  "PartialFourier": 0.75,
  "PatientPosition": "HFS",
  "PercentPhaseFOV": 100,
  "PercentSampling": 100,
  "PhaseEncodingDirection": "j-",
  "PhaseEncodingSteps": 105,
  "PhaseResolution": 1,
  "PixelBandwidth": 1700,
  "ProcedureStepDescription": "Wager_Wager^1076_spacetop",
  "ProtocolName": "dwi_acq-discorr-AP",
  "PulseSequenceDetails": "%CustomerSeq%\\cmrr_mbep2d_diff",
  "ReceiveCoilActiveElements": "HEA;HEP",
  "ReceiveCoilName": "Head_32",
  "ReconMatrixPE": 140,
  "RepetitionTime": 4.1,
  "SAR": 0.142967,
  "ScanOptions": "PFP\\FS",
  "ScanningSequence": "EP",
  "SequenceName": "ep_b0",
  "SequenceVariant": "SK\\SS",
  "SeriesDescription": "dwi_acq-discorr-AP",
  "SeriesNumber": 7,
  "ShimSetting": [4209, -7747, -7204, 344, -141, 119, 59, 58],
  "SliceThickness": 1.7,
  "SliceTiming": [0, 2.10938, 0.15625, 2.26562, 0.29688, 2.42188, 0.45312, 2.5625, 0.60938, 2.71875, 0.75, 2.875, 0.90625, 3.01562, 1.0625, 3.17188, 1.20312, 3.32812, 1.35938, 3.46875, 1.51562, 3.625, 1.65625, 3.78125, 1.8125, 3.92188, 1.96875, 0, 2.10938, 0.15625, 2.26562, 0.29688, 2.42188, 0.45312, 2.5625, 0.60938, 2.71875, 0.75, 2.875, 0.90625, 3.01562, 1.0625, 3.17188, 1.20312, 3.32812, 1.35938, 3.46875, 1.51562, 3.625, 1.65625, 3.78125, 1.8125, 3.92188, 1.96875, 0, 2.10938, 0.15625, 2.26562, 0.29688, 2.42188, 0.45312, 2.5625, 0.60938, 2.71875, 0.75, 2.875, 0.90625, 3.01562, 1.0625, 3.17188, 1.20312, 3.32812, 1.35938, 3.46875, 1.51562, 3.625, 1.65625, 3.78125, 1.8125, 3.92188, 1.96875],
  "SoftwareVersions": "syngo MR E11",
  "SpacingBetweenSlices": 1.7,
  "StationName": "AWP66112",
  "TotalReadoutTime": 0.0959097,
  "TxRefAmp": 237.137,
  "WipMemBlock": "16a15752-c42d-431b-a484-9a617e70c70d||Sequence: R016 ve11e/master r/434b28f1; Aug  7 2019 19:06:17 by eja",
  "dcmmeta_affine": [
    [-1.71382737159729, 0.017050402238965034, -0.035485267639160156, 123.32467651367188],
    [0.008841334842145443, 1.6730287075042725, 0.37061309814453125, -108.12268829345703],
    [-0.038639456033706665, -0.3734431266784668, 1.6587295532226562, -33.16652297973633],
    [0.0, 0.0, 0.0, 1.0]
],
  "dcmmeta_reorient_transform": [
    [0.0, -1.0, 0.0, 139.0],
    [1.0, 0.0, 0.0, 0.0],
    [0.0, 0.0, -1.0, 80.0],
    [0.0, 0.0, 0.0, 1.0]
],
  "dcmmeta_shape": [140, 140, 81],
  "dcmmeta_slice_dim": 2,
  "dcmmeta_version": 0.6,
  "global": {
    "const": {
      "AccessionNumber": "A004656",
      "AcquisitionMatrix": [140, 0, 0, 140],
      "AcquisitionNumber": 1,
      "AngioFlag": "N",
      "BitsAllocated": 16,
      "BitsStored": 16,
      "BodyPartExamined": "BRAIN",
      "Columns": 140,
      "EchoNumbers": 1,
      "EchoTime": 88.0,
      "EchoTrainLength": 105,
      "FlipAngle": 90.0,
      "HighBit": 15,
      "ImageOrientationPatient": [0.9997326459922, -0.0051574451653, -0.0225396827128, 0.00994606775488, 0.97593340721904, 0.21784182429014],
      "ImageType": [
        "ORIGINAL",
        "PRIMARY",
        "DIFFUSION",
        "NONE",
        "MB",
        "ND"
],
      "ImagedNucleus": "1H",
      "ImagingFrequency": 123.259069,
      "InPlanePhaseEncodingDirection": "COL",
      "MRAcquisitionType": "2D",
      "MagneticFieldStrength": 3.0,
      "Manufacturer": "SIEMENS",
      "ManufacturerModelName": "Prisma",
      "Modality": "MR",
      "NumberOfAverages": 1.0,
      "NumberOfPhaseEncodingSteps": 105,
      "PercentPhaseFieldOfView": 100.0,
      "PercentSampling": 100.0,
      "PerformedProcedureStepStartTime": "154150.417000",
      "PhotometricInterpretation": "MONOCHROME2",
      "PixelBandwidth": 1700.0,
      "PixelRepresentation": 0,
      "PixelSpacing": [1.7142857313156, 1.7142857313156],
      "ProtocolName": "dwi_acq-discorr-AP",
      "RepetitionTime": 4100.0,
      "Rows": 140,
      "SAR": 0.14296706494604,
      "SamplesPerPixel": 1,
      "ScanOptions": [
        "PFP",
        "FS"
],
      "ScanningSequence": "EP",
      "SequenceName": "ep_b0",
      "SequenceVariant": [
        "SK",
        "SS"
],
      "SeriesDescription": "dwi_acq-discorr-AP",
      "SeriesNumber": 7,
      "SeriesTime": "160835.968000",
      "SliceThickness": 1.7000000476837,
      "SmallestImagePixelValue": 0,
      "SoftwareVersions": "syngo MR E11",
      "SpacingBetweenSlices": 1.7,
      "SpecificCharacterSet": "ISO_IR 100",
      "StudyID": "1",
      "StudyTime": "154150.364000",
      "TransmitCoilName": "Body",
      "VariableFlipAngleFlag": "N",
      "WindowCenterWidthExplanation": "Algo1"
    },
    "slices": {
      "AcquisitionTime": ["160830.982500", "160833.100000", "160831.135000", "160833.250000", "160831.285000", "160833.402500", "160831.437500", "160833.552500", "160831.587500", "160833.702500", "160831.740000", "160833.855000", "160831.890000", "160834.005000", "160832.042500", "160834.157500", "160832.192500", "160834.307500", "160832.342500", "160834.460000", "160832.495000", "160834.610000", "160832.645000", "160834.762500", "160832.797500", "160834.912500", "160832.947500", "160830.982500", "160833.100000", "160831.135000", "160833.250000", "160831.285000", "160833.402500", "160831.437500", "160833.552500", "160831.587500", "160833.702500", "160831.740000", "160833.855000", "160831.890000", "160834.005000", "160832.042500", "160834.157500", "160832.192500", "160834.307500", "160832.342500", "160834.460000", "160832.495000", "160834.610000", "160832.645000", "160834.762500", "160832.797500", "160834.912500", "160832.947500", "160830.982500", "160833.100000", "160831.135000", "160833.250000", "160831.285000", "160833.402500", "160831.437500", "160833.552500", "160831.587500", "160833.702500", "160831.740000", "160833.855000", "160831.890000", "160834.005000", "160832.042500", "160834.157500", "160832.192500", "160834.307500", "160832.342500", "160834.460000", "160832.495000", "160834.610000", "160832.645000", "160834.762500", "160832.797500", "160834.912500", "160832.947500"],
      "ContentTime": ["160835.970000", "160836.055000", "160835.977000", "160836.062000", "160835.983000", "160836.069000", "160835.989000", "160836.076000", "160835.995000", "160836.084000", "160836.002000", "160836.092000", "160836.008000", "160836.098000", "160836.014000", "160836.109000", "160836.020000", "160836.115000", "160836.026000", "160836.121000", "160836.032000", "160836.127000", "160836.037000", "160836.134000", "160836.043000", "160836.140000", "160836.049000", "160835.973000", "160836.057000", "160835.979000", "160836.064000", "160835.985000", "160836.071000", "160835.991000", "160836.078000", "160835.997000", "160836.086000", "160836.004000", "160836.094000", "160836.010000", "160836.104000", "160836.016000", "160836.111000", "160836.022000", "160836.117000", "160836.028000", "160836.123000", "160836.034000", "160836.129000", "160836.039000", "160836.136000", "160836.045000", "160836.142000", "160836.051000", "160835.975000", "160836.059000", "160835.981000", "160836.065000", "160835.987000", "160836.073000", "160835.993000", "160836.081000", "160836.000000", "160836.089000", "160836.006000", "160836.096000", "160836.012000", "160836.107000", "160836.018000", "160836.113000", "160836.024000", "160836.119000", "160836.030000", "160836.125000", "160836.035000", "160836.132000", "160836.041000", "160836.138000", "160836.047000", "160836.143000", "160836.053000"],
      "CsaImage.GSWDDataType": [
        "predicted",
        "predicted",
        "predicted",
        "predicted",
        "predicted",
        "predicted",
        "predicted",
        "predicted",
        "predicted",
        "predicted",
        "predicted",
        "predicted",
        "predicted",
        "predicted",
        "predicted",
        "predicted",
        "predicted",
        "predicted",
        "predicted",
        "predicted",
        "predicted",
        "predicted",
        "predicted",
        "measured",
        "predicted",
        "measured",
        "predicted",
        "predicted",
        "predicted",
        "predicted",
        "predicted",
        "predicted",
        "predicted",
        "predicted",
        "predicted",
        "predicted",
        "predicted",
        "predicted",
        "predicted",
        "predicted",
        "predicted",
        "predicted",
        "predicted",
        "predicted",
        "predicted",
        "predicted",
        "predicted",
        "predicted",
        "predicted",
        "predicted",
        "measured",
        "predicted",
        "measured",
        "predicted",
        "predicted",
        "predicted",
        "predicted",
        "predicted",
        "predicted",
        "predicted",
        "predicted",
        "predicted",
        "predicted",
        "predicted",
        "predicted",
        "predicted",
        "predicted",
        "predicted",
        "predicted",
        "predicted",
        "predicted",
        "predicted",
        "predicted",
        "predicted",
        "predicted",
        "predicted",
        "predicted",
        "measured",
        "predicted",
        "measured",
        "predicted"
],
      "CsaImage.ICE_Dims": [
        "X_1_1_1_1_1_1_1_1_1_1_1_169",
        "X_1_1_1_1_1_1_42_1_1_2_1_169",
        "X_1_1_1_1_1_1_2_1_1_3_1_169",
        "X_1_1_1_1_1_1_43_1_1_4_1_169",
        "X_1_1_1_1_1_1_3_1_1_5_1_169",
        "X_1_1_1_1_1_1_44_1_1_6_1_169",
        "X_1_1_1_1_1_1_4_1_1_7_1_169",
        "X_1_1_1_1_1_1_45_1_1_8_1_169",
        "X_1_1_1_1_1_1_5_1_1_9_1_169",
        "X_1_1_1_1_1_1_46_1_1_10_1_169",
        "X_1_1_1_1_1_1_6_1_1_11_1_169",
        "X_1_1_1_1_1_1_47_1_1_12_1_169",
        "X_1_1_1_1_1_1_7_1_1_13_1_169",
        "X_1_1_1_1_1_1_48_1_1_14_1_169",
        "X_1_1_1_1_1_1_8_1_1_15_1_169",
        "X_1_1_1_1_1_1_49_1_1_16_1_169",
        "X_1_1_1_1_1_1_9_1_1_17_1_169",
        "X_1_1_1_1_1_1_50_1_1_18_1_169",
        "X_1_1_1_1_1_1_10_1_1_19_1_169",
        "X_1_1_1_1_1_1_51_1_1_20_1_169",
        "X_1_1_1_1_1_1_11_1_1_21_1_169",
        "X_1_1_1_1_1_1_52_1_1_22_1_169",
        "X_1_1_1_1_1_1_12_1_1_23_1_169",
        "X_1_1_1_1_1_1_53_1_1_24_1_169",
        "X_1_1_1_1_1_1_13_1_1_25_1_169",
        "X_1_1_1_1_1_1_54_1_1_26_1_169",
        "X_1_1_1_1_1_1_14_1_1_27_1_169",
        "X_1_1_1_1_1_1_55_1_1_28_1_169",
        "X_1_1_1_1_1_1_15_1_1_29_1_169",
        "X_1_1_1_1_1_1_56_1_1_30_1_169",
        "X_1_1_1_1_1_1_16_1_1_31_1_169",
        "X_1_1_1_1_1_1_57_1_1_32_1_169",
        "X_1_1_1_1_1_1_17_1_1_33_1_169",
        "X_1_1_1_1_1_1_58_1_1_34_1_169",
        "X_1_1_1_1_1_1_18_1_1_35_1_169",
        "X_1_1_1_1_1_1_59_1_1_36_1_169",
        "X_1_1_1_1_1_1_19_1_1_37_1_169",
        "X_1_1_1_1_1_1_60_1_1_38_1_169",
        "X_1_1_1_1_1_1_20_1_1_39_1_169",
        "X_1_1_1_1_1_1_61_1_1_40_1_169",
        "X_1_1_1_1_1_1_21_1_1_41_1_169",
        "X_1_1_1_1_1_1_62_1_1_42_1_169",
        "X_1_1_1_1_1_1_22_1_1_43_1_169",
        "X_1_1_1_1_1_1_63_1_1_44_1_169",
        "X_1_1_1_1_1_1_23_1_1_45_1_169",
        "X_1_1_1_1_1_1_64_1_1_46_1_169",
        "X_1_1_1_1_1_1_24_1_1_47_1_169",
        "X_1_1_1_1_1_1_65_1_1_48_1_169",
        "X_1_1_1_1_1_1_25_1_1_49_1_169",
        "X_1_1_1_1_1_1_66_1_1_50_1_169",
        "X_1_1_1_1_1_1_26_1_1_51_1_169",
        "X_1_1_1_1_1_1_67_1_1_52_1_169",
        "X_1_1_1_1_1_1_27_1_1_53_1_169",
        "X_1_1_1_1_1_1_68_1_1_54_1_169",
        "X_1_1_1_1_1_1_28_1_1_55_1_169",
        "X_1_1_1_1_1_1_69_1_1_56_1_169",
        "X_1_1_1_1_1_1_29_1_1_57_1_169",
        "X_1_1_1_1_1_1_70_1_1_58_1_169",
        "X_1_1_1_1_1_1_30_1_1_59_1_169",
        "X_1_1_1_1_1_1_71_1_1_60_1_169",
        "X_1_1_1_1_1_1_31_1_1_61_1_169",
        "X_1_1_1_1_1_1_72_1_1_62_1_169",
        "X_1_1_1_1_1_1_32_1_1_63_1_169",
        "X_1_1_1_1_1_1_73_1_1_64_1_169",
        "X_1_1_1_1_1_1_33_1_1_65_1_169",
        "X_1_1_1_1_1_1_74_1_1_66_1_169",
        "X_1_1_1_1_1_1_34_1_1_67_1_169",
        "X_1_1_1_1_1_1_75_1_1_68_1_169",
        "X_1_1_1_1_1_1_35_1_1_69_1_169",
        "X_1_1_1_1_1_1_76_1_1_70_1_169",
        "X_1_1_1_1_1_1_36_1_1_71_1_169",
        "X_1_1_1_1_1_1_77_1_1_72_1_169",
        "X_1_1_1_1_1_1_37_1_1_73_1_169",
        "X_1_1_1_1_1_1_78_1_1_74_1_169",
        "X_1_1_1_1_1_1_38_1_1_75_1_169",
        "X_1_1_1_1_1_1_79_1_1_76_1_169",
        "X_1_1_1_1_1_1_39_1_1_77_1_169",
        "X_1_1_1_1_1_1_80_1_1_78_1_169",
        "X_1_1_1_1_1_1_40_1_1_79_1_169",
        "X_1_1_1_1_1_1_81_1_1_80_1_169",
        "X_1_1_1_1_1_1_41_1_1_81_1_169"
],
      "CsaImage.ProtocolSliceNumber": [0, 1, 2, 3, 4, 5, 6, 7, 8, 9, 10, 11, 12, 13, 14, 15, 16, 17, 18, 19, 20, 21, 22, 23, 24, 25, 26, 27, 28, 29, 30, 31, 32, 33, 34, 35, 36, 37, 38, 39, 40, 41, 42, 43, 44, 45, 46, 47, 48, 49, 50, 51, 52, 53, 54, 55, 56, 57, 58, 59, 60, 61, 62, 63, 64, 65, 66, 67, 68, 69, 70, 71, 72, 73, 74, 75, 76, 77, 78, 79, 80],
      "CsaImage.RFSWDDataType": [
        "predicted",
        "predicted",
        "predicted",
        "predicted",
        "predicted",
        "predicted",
        "predicted",
        "predicted",
        "predicted",
        "predicted",
        "predicted",
        "predicted",
        "predicted",
        "predicted",
        "predicted",
        "predicted",
        "predicted",
        "predicted",
        "predicted",
        "predicted",
        "predicted",
        "predicted",
        "predicted",
        "measured",
        "predicted",
        "measured",
        "predicted",
        "predicted",
        "predicted",
        "predicted",
        "predicted",
        "predicted",
        "predicted",
        "predicted",
        "predicted",
        "predicted",
        "predicted",
        "predicted",
        "predicted",
        "predicted",
        "predicted",
        "predicted",
        "predicted",
        "predicted",
        "predicted",
        "predicted",
        "predicted",
        "predicted",
        "predicted",
        "predicted",
        "measured",
        "predicted",
        "measured",
        "predicted",
        "predicted",
        "predicted",
        "predicted",
        "predicted",
        "predicted",
        "predicted",
        "predicted",
        "predicted",
        "predicted",
        "predicted",
        "predicted",
        "predicted",
        "predicted",
        "predicted",
        "predicted",
        "predicted",
        "predicted",
        "predicted",
        "predicted",
        "predicted",
        "predicted",
        "predicted",
        "predicted",
        "measured",
        "predicted",
        "measured",
        "predicted"
],
      "CsaImage.SlicePosition_PCS": [
        [-125.69469099, -124.4282925, -85.07519231],
        [-125.65920572, -124.7989056, -83.41646276],
        [-125.62372045, -125.1695187, -81.75772939],
        [-125.58823518, -125.54013179, -80.09899984],
        [-125.55274992, -125.91074489, -78.44027028],
        [-125.51726465, -126.28135894, -76.78154073],
        [-125.4817789, -126.65197204, -75.12280736],
        [-125.44629364, -127.02258514, -73.46407781],
        [-125.41080837, -127.39319824, -71.80534826],
        [-125.3753231, -127.76381134, -70.1466187],
        [-125.33983783, -128.13442443, -68.48788533],
        [-125.30435257, -128.50503753, -66.82915578],
        [-125.2688673, -128.87565063, -65.17042623],
        [-125.23338155, -129.24626373, -63.51169668],
        [-125.19789629, -129.61687778, -61.85296712],
        [-125.16241102, -129.98749088, -60.19423375],
        [-125.12692575, -130.35810398, -58.5355042],
        [-125.09144048, -130.72871708, -56.87677465],
        [-125.05595522, -131.09933017, -55.21804319],
        [-125.02046971, -131.46994327, -53.55931363],
        [-124.98498444, -131.84055637, -51.90058217],
        [-124.94949917, -132.21116947, -50.24185262],
        [-124.91401391, -132.58178352, -48.58312116],
        [-124.8785284, -132.95239662, -46.92439161],
        [-124.84304313, -133.32300972, -45.26566015],
        [-124.80755786, -133.69362281, -43.60693059],
        [-124.77207236, -134.06423591, -41.94820104],
        [-124.73658709, -134.43484901, -40.28946958],
        [-124.70110182, -134.80546211, -38.63073907],
        [-124.66561656, -135.17607521, -36.97200856],
        [-124.63013105, -135.5466883, -35.31327806],
        [-124.59464578, -135.9173014, -33.65454755],
        [-124.55916051, -136.2879145, -31.99581704],
        [-124.52367501, -136.6585276, -30.33708701],
        [-124.48818974, -137.0291407, -28.67835651],
        [-124.45270447, -137.3997538, -27.01962624],
        [-124.41721921, -137.77036689, -25.36089573],
        [-124.3817337, -138.14097999, -23.70216534],
        [-124.34624843, -138.511595, -22.04343496],
        [-124.31076316, -138.8822081, -20.38470445],
        [-124.2752779, -139.25282119, -18.72597394],
        [-124.23979239, -139.62343429, -17.06724344],
        [-124.20430712, -139.99404739, -15.40851293],
        [-124.16882186, -140.36466049, -13.74978242],
        [-124.13333635, -140.73527359, -12.09105192],
        [-124.09785108, -141.10588668, -10.43232236],
        [-124.06236581, -141.47649978, -8.77359185],
        [-124.02688055, -141.84711288, -7.11486135],
        [-123.99139504, -142.21772598, -5.45612989],
        [-123.95590977, -142.58833908, -3.79740033],
        [-123.9204245, -142.95895217, -2.13866887],
        [-123.884939, -143.32956527, -0.47993932],
        [-123.84945373, -143.70017837, 1.17879023],
        [-123.81396846, -144.07079147, 2.83752169],
        [-123.7784832, -144.44140457, 4.49625125],
        [-123.74299769, -144.81201767, 6.15498271],
        [-123.70751242, -145.18263267, 7.81371226],
        [-123.67202715, -145.55324577, 9.47244181],
        [-123.63654189, -145.92385887, 11.13117518],
        [-123.60105638, -146.29447197, 12.78990473],
        [-123.56557111, -146.66508506, 14.44863429],
        [-123.53008585, -147.03569816, 16.10736384],
        [-123.49460034, -147.40631126, 17.76609721],
        [-123.45911507, -147.77692436, 19.42482676],
        [-123.4236298, -148.14753746, 21.08355632],
        [-123.38814454, -148.51814865, 22.74228587],
        [-123.35265903, -148.88876556, 24.40101542],
        [-123.31717376, -149.25937866, 26.05974879],
        [-123.2816885, -149.62999176, 27.71847834],
        [-123.24620299, -150.00060485, 29.3772079],
        [-123.21071772, -150.37121795, 31.03593745],
        [-123.17523245, -150.74183105, 32.69467082],
        [-123.13974707, -151.11244415, 34.35340037],
        [-123.1042618, -151.48305725, 36.01212992],
        [-123.06877641, -151.85367035, 37.67085948],
        [-123.03329114, -152.22428344, 39.32959285],
        [-122.99780576, -152.59489654, 40.98831858],
        [-122.96232049, -152.96550964, 42.64704814],
        [-122.9268351, -153.33612274, 44.30578532],
        [-122.89134972, -153.70673584, 45.96451487],
        [-122.85586445, -154.07734893, 47.62324443]
],
      "CsaImage.TimeAfterStart": [16.4, 18.515, 16.5525, 18.6675, 16.7025, 18.8175, 16.855, 18.97, 17.005, 19.12, 17.155, 19.2725, 17.3075, 19.4225, 17.4575, 19.575, 17.61, 19.725, 17.76, 19.875, 17.9125, 20.0275, 18.0625, 20.1775, 18.215, 20.33, 18.365, 16.4, 18.515, 16.5525, 18.6675, 16.7025, 18.8175, 16.855, 18.97, 17.005, 19.12, 17.155, 19.2725, 17.3075, 19.4225, 17.4575, 19.575, 17.61, 19.725, 17.76, 19.875, 17.9125, 20.0275, 18.0625, 20.1775, 18.215, 20.33, 18.365, 16.4, 18.515, 16.5525, 18.6675, 16.7025, 18.8175, 16.855, 18.97, 17.005, 19.12, 17.155, 19.2725, 17.3075, 19.4225, 17.4575, 19.575, 17.61, 19.725, 17.76, 19.875, 17.9125, 20.0275, 18.0625, 20.1775, 18.215, 20.33, 18.365],
      "ImagePositionPatient": [
        [-125.69469098628, -124.42829249939, -85.07519231121],
        [-125.65920571864, -124.79890559754, -83.416462757987],
        [-125.623720451, -125.16951869568, -81.757729390067],
        [-125.58823518336, -125.54013179383, -80.098999836844],
        [-125.55274991572, -125.91074489197, -78.440270283622],
        [-125.51726464808, -126.28135894379, -76.781540730399],
        [-125.4817789036, -126.65197204194, -75.122807362479],
        [-125.44629363597, -127.02258514008, -73.464077809256],
        [-125.41080836833, -127.39319823822, -71.805348256034],
        [-125.37532310069, -127.76381133637, -70.146618702811],
        [-125.33983783305, -128.13442443451, -68.487885334891],
        [-125.30435256541, -128.50503753266, -66.829155781669],
        [-125.26886729777, -128.8756506308, -65.170426228446],
        [-125.23338155329, -129.24626372895, -63.511696675223],
        [-125.19789628565, -129.61687778077, -61.852967122001],
        [-125.16241101801, -129.98749087891, -60.194233754081],
        [-125.12692575038, -130.35810397705, -58.535504200858],
        [-125.09144048274, -130.7287170752, -56.876774647635],
        [-125.0559552151, -131.09933017334, -55.218043187064],
        [-125.02046970904, -131.46994327149, -53.559313633841],
        [-124.9849844414, -131.84055636963, -51.90058217327],
        [-124.94949917376, -132.21116946778, -50.241852620047],
        [-124.91401390612, -132.5817835196, -48.583121159476],
        [-124.87852840006, -132.95239661774, -46.924391606254],
        [-124.84304313243, -133.32300971589, -45.265660145682],
        [-124.80755786479, -133.69362281403, -43.60693059246],
        [-124.77207235873, -134.06423591217, -41.948201039237],
        [-124.73658709109, -134.43484901032, -40.289469578666],
        [-124.70110182345, -134.80546210846, -38.630739071769],
        [-124.66561655581, -135.17607520661, -36.972008564872],
        [-124.63013104975, -135.54668830475, -35.313278057975],
        [-124.59464578211, -135.9173014029, -33.654547551078],
        [-124.55916051447, -136.28791450104, -31.995817044181],
        [-124.52367500842, -136.65852759919, -30.337087014121],
        [-124.48818974078, -137.02914069733, -28.678356507224],
        [-124.45270447314, -137.39975379548, -27.019626238746],
        [-124.4172192055, -137.77036689362, -25.360895731849],
        [-124.38173369944, -138.14097999176, -23.702165344161],
        [-124.3462484318, -138.51159499726, -22.043434956473],
        [-124.31076316416, -138.8822080954, -20.384704449576],
        [-124.27527789652, -139.25282119355, -18.725973942679],
        [-124.23979239047, -139.62343429169, -17.067243435782],
        [-124.20430712283, -139.99404738984, -15.408512928885],
        [-124.16882185519, -140.36466048798, -13.749782421988],
        [-124.13333634913, -140.73527358612, -12.091051915091],
        [-124.09785108149, -141.10588668427, -10.432322361869],
        [-124.06236581385, -141.47649978241, -8.7735918549718],
        [-124.02688054621, -141.84711288056, -7.1148613480748],
        [-123.99139504016, -142.2177259787, -5.4561298875035],
        [-123.95590977252, -142.58833907685, -3.7974003342809],
        [-123.92042450488, -142.95895217499, -2.1386688737096],
        [-123.88493899882, -143.32956527314, -0.4799393204869],
        [-123.84945373118, -143.70017837128, 1.1787902327357],
        [-123.81396846354, -144.07079146943, 2.837521693307],
        [-123.7784831959, -144.44140456757, 4.4962512465297],
        [-123.74299768984, -144.81201766571, 6.154982707101],
        [-123.7075124222, -145.18263267121, 7.8137122603236],
        [-123.67202715457, -145.55324576935, 9.4724418135463],
        [-123.63654188693, -145.9238588675, 11.131175181466],
        [-123.60105638087, -146.29447196564, 12.789904734689],
        [-123.56557111323, -146.66508506379, 14.448634287912],
        [-123.53008584559, -147.03569816193, 16.107363841134],
        [-123.49460033953, -147.40631126007, 17.766097209054],
        [-123.45911507189, -147.77692435822, 19.424826762277],
        [-123.42362980425, -148.14753745636, 21.083556315499],
        [-123.38814453662, -148.51814864716, 22.742285868722],
        [-123.35265903056, -148.88876556, 24.401015421945],
        [-123.31717376292, -149.25937865815, 26.059748789865],
        [-123.28168849528, -149.62999175629, 27.718478343087],
        [-123.24620298922, -150.00060485444, 29.37720789631],
        [-123.21071772158, -150.37121795258, 31.035937449533],
        [-123.17523245394, -150.74183105072, 32.694670817453],
        [-123.13974706709, -151.11244414887, 34.353400370675],
        [-123.10426179946, -151.48305724701, 36.012129923898],
        [-123.06877641261, -151.85367034516, 37.67085947712],
        [-123.03329114497, -152.2242834433, 39.32959284504],
        [-122.99780575812, -152.59489654145, 40.988318583566],
        [-122.96232049048, -152.96550963959, 42.647048136788],
        [-122.92683510363, -153.33612273774, 44.305785319406],
        [-122.89134971678, -153.70673583588, 45.964514872628],
        [-122.85586444914, -154.07734893402, 47.623244425851]
],
      "InstanceCreationTime": ["160835.970000", "160836.055000", "160835.977000", "160836.062000", "160835.983000", "160836.069000", "160835.989000", "160836.076000", "160835.995000", "160836.084000", "160836.002000", "160836.092000", "160836.008000", "160836.098000", "160836.014000", "160836.109000", "160836.020000", "160836.115000", "160836.026000", "160836.121000", "160836.032000", "160836.127000", "160836.037000", "160836.134000", "160836.043000", "160836.140000", "160836.049000", "160835.973000", "160836.057000", "160835.979000", "160836.064000", "160835.985000", "160836.071000", "160835.991000", "160836.078000", "160835.997000", "160836.086000", "160836.004000", "160836.094000", "160836.010000", "160836.104000", "160836.016000", "160836.111000", "160836.022000", "160836.117000", "160836.028000", "160836.123000", "160836.034000", "160836.129000", "160836.039000", "160836.136000", "160836.045000", "160836.142000", "160836.051000", "160835.975000", "160836.059000", "160835.981000", "160836.065000", "160835.987000", "160836.073000", "160835.993000", "160836.081000", "160836.000000", "160836.089000", "160836.006000", "160836.096000", "160836.012000", "160836.107000", "160836.018000", "160836.113000", "160836.024000", "160836.119000", "160836.030000", "160836.125000", "160836.035000", "160836.132000", "160836.041000", "160836.138000", "160836.047000", "160836.143000", "160836.053000"],
      "InstanceNumber": [1, 2, 3, 4, 5, 6, 7, 8, 9, 10, 11, 12, 13, 14, 15, 16, 17, 18, 19, 20, 21, 22, 23, 24, 25, 26, 27, 28, 29, 30, 31, 32, 33, 34, 35, 36, 37, 38, 39, 40, 41, 42, 43, 44, 45, 46, 47, 48, 49, 50, 51, 52, 53, 54, 55, 56, 57, 58, 59, 60, 61, 62, 63, 64, 65, 66, 67, 68, 69, 70, 71, 72, 73, 74, 75, 76, 77, 78, 79, 80, 81],
      "LargestImagePixelValue": [63618, 27573, 19267, 19453, 21946, 24282, 31779, 21626, 22642, 21370, 29030, 26454, 29135, 39922, 26509, 26683, 27865, 26212, 30540, 42268, 59873, 57107, 65535, 65535, 63306, 59317, 57528, 43081, 41039, 50342, 50922, 58352, 44005, 45689, 47416, 40589, 48998, 42281, 30870, 38908, 38398, 40200, 37035, 39219, 40067, 40329, 34840, 38685, 44695, 44490, 50371, 65535, 60798, 47208, 39282, 39434, 47992, 49728, 52082, 49344, 46404, 39760, 38089, 34995, 37935, 52165, 59983, 51629, 45156, 45925, 54701, 57583, 61674, 65107, 55181, 64221, 65535, 43722, 51903, 54879, 9839],
      "SliceLocation": [-58.507270694498, -56.80727157583, -55.107268735072, -53.407269616405, -51.707270497737, -50.007271171162, -48.30726832045, -46.607269201783, -44.907270083115, -43.207270964448, -41.50726812369, -39.807269005022, -38.107269886355, -36.407270757734, -34.707271431158, -33.0072685904, -31.307269471733, -29.607270353065, -27.907269373352, -26.207270249708, -24.507269269995, -22.807270151328, -21.107268963707, -19.407269840063, -17.70726886035, -16.007269741682, -14.307270618038, -12.607269638326, -10.907269589135, -9.2072695399453, -7.5072694857785, -5.8072694365884, -4.1072693873983, -2.4072697984929, -0.7072697493027, 0.99273006725669, 2.6927301164468, 4.3927300542983, 6.0927304029898, 7.79273045218, 9.4927305013701, 11.192730555537, 12.892730604727, 14.592730653917, 16.292730708084, 17.992729826751, 19.692729875941, 21.392729925131, 23.092730909821, 24.792730028488, 26.492731008201, 28.192730131845, 29.892729250513, 31.592730230226, 33.292729348893, 34.992730333582, 36.692729868067, 38.392728986734, 40.092731827492, 41.792730951136, 43.492730069804, 45.192729188471, 46.892732034206, 48.592731152874, 50.292730271541, 51.992728974391, 53.692728929669, 55.392731770427, 57.092730889095, 58.792730012739, 60.492729131406, 62.192731972165, 63.89273109332, 65.592730211988, 67.292729333143, 68.992732173902, 70.692727572967, 72.392726691634, 74.092733256971, 75.792732378127, 77.492731496795],
