{
  "AcquisitionMatrixPE": 82,
  "AcquisitionNumber": 1,
  "AcquisitionTime": "12:59:11.445000",
  "BandwidthPerPixelPhaseEncode": 24.888,
  "BaseResolution": 82,
  "BodyPartExamined": "BRAIN",
  "ConsistencyInfo": "N4_VE11E_LATEST_20181129",
  "ConversionSoftware": "dcm2niix",
  "ConversionSoftwareVersion": "v1.0.20201102",
  "DerivedVendorReportedEchoSpacing": 0.00049,
  "DeviceSerialNumber": "66112",
  "DwellTime": 2e-06,
  "EchoTime": 0.0272,
  "EchoTrainLength": 82,
  "EffectiveEchoSpacing": 0.00049,
  "FlipAngle": 44,
  "ImageComments": "Unaliased MB8/PE3",
  "ImageOrientationPatientDICOM": [0.99958, 0.0289634, 0.000597829, -0.0289684, 0.999148, 0.0293822],
  "ImageType": [
    "ORIGINAL",
    "PRIMARY",
    "M",
    "MB",
    "ND",
    "NORM",
    "MOSAIC"
],
  "ImagingFrequency": 123.252,
  "InPlanePhaseEncodingDirectionDICOM": "COL",
  "InstitutionAddress": "Maynard 3,Hanover,NH,US,03755",
  "InstitutionName": "Dartmouth College - PBS",
  "InstitutionalDepartmentName": "Department",
  "MRAcquisitionType": "2D",
  "MagneticFieldStrength": 3,
  "Manufacturer": "Siemens",
  "ManufacturersModelName": "Prisma",
  "Modality": "MR",
  "MultibandAccelerationFactor": 8,
  "PartialFourier": 1,
  "PatientPosition": "HFS",
  "PercentPhaseFOV": 100,
  "PercentSampling": 100,
  "PhaseEncodingDirection": "j-",
  "PhaseEncodingSteps": 82,
  "PhaseResolution": 1,
  "PixelBandwidth": 3050,
  "ProcedureStepDescription": "Wager_Wager^1076_spacetop",
  "ProtocolName": "func_run-04_task-social_acq-ap-mb8",
  "PulseSequenceDetails": "%CustomerSeq%\\cmrr_mbep2d_bold",
  "ReceiveCoilActiveElements": "HEA;HEP",
  "ReceiveCoilName": "Head_32",
  "ReconMatrixPE": 82,
  "RepetitionTime": 0.46,
  "SAR": 0.101043,
  "ScanOptions": "FS",
  "ScanningSequence": "EP",
  "SequenceName": "epfid2d1_82",
  "SequenceVariant": "SK\\SS",
  "SeriesDescription": "func_run-04_task-social_acq-ap-mb8",
  "SeriesNumber": 18,
  "ShimSetting": [4158, -7753, -7273, 484, 22, -95, 31, 54],
  "SliceThickness": 2.7,
  "SliceTiming": [0, 0.2525, 0.065, 0.315, 0.1275, 0.3775, 0.19, 0, 0.2525, 0.065, 0.315, 0.1275, 0.3775, 0.19, 0, 0.2525, 0.065, 0.315, 0.1275, 0.3775, 0.19, 0, 0.2525, 0.065, 0.315, 0.1275, 0.3775, 0.19, 0, 0.2525, 0.065, 0.315, 0.1275, 0.3775, 0.19, 0, 0.2525, 0.065, 0.315, 0.1275, 0.3775, 0.19, 0, 0.2525, 0.065, 0.315, 0.1275, 0.3775, 0.19, 0, 0.2525, 0.065, 0.315, 0.1275, 0.3775, 0.19],
  "SoftwareVersions": "syngo MR E11",
  "SpacingBetweenSlices": 2.7,
  "StationName": "AWP66112",
  "TaskName": "social",
  "TotalReadoutTime": 0.03969,
  "TxRefAmp": 253.769,
  "WipMemBlock": "d87b5d2f-5a0a-4fc3-93fa-3d01bfac746d||Sequence: R016 ve11e/master r/434b28f1; Aug  7 2019 18:53:46 by eja",
  "dcmmeta_affine": [
    [-2.6818008422851562, -0.07772020995616913, -0.0006849534693174064, 115.65560913085938],
    [-0.07770664244890213, 2.6806421279907227, 0.07934527099132538, -92.53898620605469],
    [0.0016039317706599832, -0.07883016020059586, 2.698833703994751, -68.0265121459961],
    [0.0, 0.0, 0.0, 1.0]
],
  "dcmmeta_reorient_transform": [
    [0.0, -1.0, 0.0, 81.0],
    [1.0, 0.0, 0.0, 0.0],
    [0.0, 0.0, 1.0, 0.0],
    [0.0, 0.0, 0.0, 1.0]
],
  "dcmmeta_shape": [82, 82, 56, 872],
  "dcmmeta_slice_dim": 2,
  "dcmmeta_version": 0.6,
  "global": {
    "const": {
      "AccessionNumber": "A004113",
      "AcquisitionMatrix": [82, 0, 0, 82],
      "AngioFlag": "N",
      "BitsAllocated": 16,
      "BitsStored": 16,
      "BodyPartExamined": "BRAIN",
      "Columns": 656,
      "EchoNumbers": 1,
      "EchoTime": 27.2,
      "EchoTrainLength": 82,
      "FlipAngle": 44.0,
      "HighBit": 15,
      "ImageOrientationPatient": [0.99958029444202, 0.02896338315089, 0.00059782911766, -0.0289684415594, 0.99914839671814, 0.02938214983959],
      "ImagePositionPatient": [-856.73141960328, -916.23911455522, -97.496342377496],
      "ImageType": [
        "ORIGINAL",
        "PRIMARY",
        "M",
        "MB",
        "ND",
        "NORM",
        "MOSAIC"
],
      "ImagedNucleus": "1H",
      "ImagingFrequency": 123.252187,
      "InPlanePhaseEncodingDirection": "COL",
      "MRAcquisitionType": "2D",
      "MagneticFieldStrength": 3.0,
      "Manufacturer": "SIEMENS",
      "ManufacturerModelName": "Prisma",
      "Modality": "MR",
      "NumberOfAverages": 1.0,
      "NumberOfPhaseEncodingSteps": 82,
      "PercentPhaseFieldOfView": 100.0,
      "PercentSampling": 100.0,
      "PerformedProcedureStepStartTime": "115558.229000",
      "PhotometricInterpretation": "MONOCHROME2",
      "PixelBandwidth": 3050.0,
      "PixelRepresentation": 0,
      "PixelSpacing": [2.6829268932343, 2.6829268932343],
      "ProtocolName": "func_run-04_task-social_acq-ap-mb8",
      "RepetitionTime": 460.0,
      "Rows": 656,
      "SAR": 0.10104278144311,
      "SamplesPerPixel": 1,
      "ScanOptions": "FS",
      "ScanningSequence": "EP",
      "SequenceName": "epfid2d1_82",
      "SequenceVariant": [
        "SK",
        "SS"
],
      "SeriesDescription": "func_run-04_task-social_acq-ap-mb8",
      "SeriesNumber": 18,
      "SeriesTime": "125927.465000",
      "SliceLocation": -70.745928581575,
      "SliceThickness": 2.7000000476837,
      "SmallestImagePixelValue": 0,
      "SoftwareVersions": "syngo MR E11",
      "SpacingBetweenSlices": 2.7000000162503,
      "SpecificCharacterSet": "ISO_IR 100",
      "StudyID": "1",
      "StudyTime": "115558.120000",
      "TransmitCoilName": "Body",
      "VariableFlipAngleFlag": "N",
      "WindowCenterWidthExplanation": "Algo1"
    },
    "slices": {}
  },
  "time": {
    "samples": {
      "AcquisitionNumber": [1, 2, 3, 4, 5, 6, 7, 8, 9, 10, 11, 12, 13, 14, 15, 16, 17, 18, 19, 20, 21, 22, 23, 24, 25, 26, 27, 28, 29, 30, 31, 32, 33, 34, 35, 36, 37, 38, 39, 40, 41, 42, 43, 44, 45, 46, 47, 48, 49, 50, 51, 52, 53, 54, 55, 56, 57, 58, 59, 60, 61, 62, 63, 64, 65, 66, 67, 68, 69, 70, 71, 72, 73, 74, 75, 76, 77, 78, 79, 80, 81, 82, 83, 84, 85, 86, 87, 88, 89, 90, 91, 92, 93, 94, 95, 96, 97, 98, 99, 100, 101, 102, 103, 104, 105, 106, 107, 108, 109, 110, 111, 112, 113, 114, 115, 116, 117, 118, 119, 120, 121, 122, 123, 124, 125, 126, 127, 128, 129, 130, 131, 132, 133, 134, 135, 136, 137, 138, 139, 140, 141, 142, 143, 144, 145, 146, 147, 148, 149, 150, 151, 152, 153, 154, 155, 156, 157, 158, 159, 160, 161, 162, 163, 164, 165, 166, 167, 168, 169, 170, 171, 172, 173, 174, 175, 176, 177, 178, 179, 180, 181, 182, 183, 184, 185, 186, 187, 188, 189, 190, 191, 192, 193, 194, 195, 196, 197, 198, 199, 200, 201, 202, 203, 204, 205, 206, 207, 208, 209, 210, 211, 212, 213, 214, 215, 216, 217, 218, 219, 220, 221, 222, 223, 224, 225, 226, 227, 228, 229, 230, 231, 232, 233, 234, 235, 236, 237, 238, 239, 240, 241, 242, 243, 244, 245, 246, 247, 248, 249, 250, 251, 252, 253, 254, 255, 256, 257, 258, 259, 260, 261, 262, 263, 264, 265, 266, 267, 268, 269, 270, 271, 272, 273, 274, 275, 276, 277, 278, 279, 280, 281, 282, 283, 284, 285, 286, 287, 288, 289, 290, 291, 292, 293, 294, 295, 296, 297, 298, 299, 300, 301, 302, 303, 304, 305, 306, 307, 308, 309, 310, 311, 312, 313, 314, 315, 316, 317, 318, 319, 320, 321, 322, 323, 324, 325, 326, 327, 328, 329, 330, 331, 332, 333, 334, 335, 336, 337, 338, 339, 340, 341, 342, 343, 344, 345, 346, 347, 348, 349, 350, 351, 352, 353, 354, 355, 356, 357, 358, 359, 360, 361, 362, 363, 364, 365, 366, 367, 368, 369, 370, 371, 372, 373, 374, 375, 376, 377, 378, 379, 380, 381, 382, 383, 384, 385, 386, 387, 388, 389, 390, 391, 392, 393, 394, 395, 396, 397, 398, 399, 400, 401, 402, 403, 404, 405, 406, 407, 408, 409, 410, 411, 412, 413, 414, 415, 416, 417, 418, 419, 420, 421, 422, 423, 424, 425, 426, 427, 428, 429, 430, 431, 432, 433, 434, 435, 436, 437, 438, 439, 440, 441, 442, 443, 444, 445, 446, 447, 448, 449, 450, 451, 452, 453, 454, 455, 456, 457, 458, 459, 460, 461, 462, 463, 464, 465, 466, 467, 468, 469, 470, 471, 472, 473, 474, 475, 476, 477, 478, 479, 480, 481, 482, 483, 484, 485, 486, 487, 488, 489, 490, 491, 492, 493, 494, 495, 496, 497, 498, 499, 500, 501, 502, 503, 504, 505, 506, 507, 508, 509, 510, 511, 512, 513, 514, 515, 516, 517, 518, 519, 520, 521, 522, 523, 524, 525, 526, 527, 528, 529, 530, 531, 532, 533, 534, 535, 536, 537, 538, 539, 540, 541, 542, 543, 544, 545, 546, 547, 548, 549, 550, 551, 552, 553, 554, 555, 556, 557, 558, 559, 560, 561, 562, 563, 564, 565, 566, 567, 568, 569, 570, 571, 572, 573, 574, 575, 576, 577, 578, 579, 580, 581, 582, 583, 584, 585, 586, 587, 588, 589, 590, 591, 592, 593, 594, 595, 596, 597, 598, 599, 600, 601, 602, 603, 604, 605, 606, 607, 608, 609, 610, 611, 612, 613, 614, 615, 616, 617, 618, 619, 620, 621, 622, 623, 624, 625, 626, 627, 628, 629, 630, 631, 632, 633, 634, 635, 636, 637, 638, 639, 640, 641, 642, 643, 644, 645, 646, 647, 648, 649, 650, 651, 652, 653, 654, 655, 656, 657, 658, 659, 660, 661, 662, 663, 664, 665, 666, 667, 668, 669, 670, 671, 672, 673, 674, 675, 676, 677, 678, 679, 680, 681, 682, 683, 684, 685, 686, 687, 688, 689, 690, 691, 692, 693, 694, 695, 696, 697, 698, 699, 700, 701, 702, 703, 704, 705, 706, 707, 708, 709, 710, 711, 712, 713, 714, 715, 716, 717, 718, 719, 720, 721, 722, 723, 724, 725, 726, 727, 728, 729, 730, 731, 732, 733, 734, 735, 736, 737, 738, 739, 740, 741, 742, 743, 744, 745, 746, 747, 748, 749, 750, 751, 752, 753, 754, 755, 756, 757, 758, 759, 760, 761, 762, 763, 764, 765, 766, 767, 768, 769, 770, 771, 772, 773, 774, 775, 776, 777, 778, 779, 780, 781, 782, 783, 784, 785, 786, 787, 788, 789, 790, 791, 792, 793, 794, 795, 796, 797, 798, 799, 800, 801, 802, 803, 804, 805, 806, 807, 808, 809, 810, 811, 812, 813, 814, 815, 816, 817, 818, 819, 820, 821, 822, 823, 824, 825, 826, 827, 828, 829, 830, 831, 832, 833, 834, 835, 836, 837, 838, 839, 840, 841, 842, 843, 844, 845, 846, 847, 848, 849, 850, 851, 852, 853, 854, 855, 856, 857, 858, 859, 860, 861, 862, 863, 864, 865, 866, 867, 868, 869, 870, 871, 872],
      "AcquisitionTime": ["125911.445000", "125911.905000", "125912.365000", "125912.825000", "125913.285000", "125913.745000", "125914.205000", "125914.665000", "125915.125000", "125915.585000", "125916.045000", "125916.505000", "125916.965000", "125917.425000", "125917.885000", "125918.345000", "125918.805000", "125919.265000", "125919.725000", "125920.185000", "125920.645000", "125921.105000", "125921.565000", "125922.025000", "125922.485000", "125922.945000", "125923.405000", "125923.865000", "125924.325000", "125924.785000", "125925.245000", "125925.705000", "125926.165000", "125926.625000", "125927.085000", "125927.545000", "125928.005000", "125928.465000", "125928.925000", "125929.385000", "125929.845000", "125930.305000", "125930.765000", "125931.225000", "125931.685000", "125932.145000", "125932.605000", "125933.065000", "125933.525000", "125933.985000", "125934.445000", "125934.905000", "125935.365000", "125935.825000", "125936.285000", "125936.745000", "125937.205000", "125937.665000", "125938.125000", "125938.585000", "125939.045000", "125939.505000", "125939.965000", "125940.425000", "125940.885000", "125941.345000", "125941.805000", "125942.265000", "125942.725000", "125943.185000", "125943.645000", "125944.105000", "125944.565000", "125945.025000", "125945.485000", "125945.945000", "125946.405000", "125946.865000", "125947.325000", "125947.785000", "125948.245000", "125948.705000", "125949.165000", "125949.625000", "125950.085000", "125950.545000", "125951.005000", "125951.465000", "125951.925000", "125952.385000", "125952.845000", "125953.305000", "125953.765000", "125954.225000", "125954.685000", "125955.145000", "125955.605000", "125956.065000", "125956.525000", "125956.985000", "125957.445000", "125957.905000", "125958.365000", "125958.825000", "125959.285000", "125959.745000", "130000.205000", "130000.665000", "130001.125000", "130001.585000", "130002.045000", "130002.505000", "130002.965000", "130003.425000", "130003.885000", "130004.345000", "130004.805000", "130005.265000", "130005.725000", "130006.185000", "130006.645000", "130007.105000", "130007.565000", "130008.025000", "130008.485000", "130008.945000", "130009.405000", "130009.865000", "130010.325000", "130010.785000", "130011.245000", "130011.705000", "130012.165000", "130012.625000", "130013.085000", "130013.545000", "130014.005000", "130014.465000", "130014.925000", "130015.385000", "130015.845000", "130016.305000", "130016.765000", "130017.225000", "130017.685000", "130018.145000", "130018.605000", "130019.065000", "130019.525000", "130019.985000", "130020.445000", "130020.905000", "130021.365000", "130021.825000", "130022.285000", "130022.745000", "130023.205000", "130023.665000", "130024.125000", "130024.585000", "130025.045000", "130025.505000", "130025.965000", "130026.425000", "130026.885000", "130027.345000", "130027.805000", "130028.265000", "130028.725000", "130029.185000", "130029.645000", "130030.105000", "130030.565000", "130031.025000", "130031.485000", "130031.945000", "130032.405000", "130032.865000", "130033.325000", "130033.785000", "130034.245000", "130034.705000", "130035.165000", "130035.625000", "130036.085000", "130036.545000", "130037.005000", "130037.465000", "130037.925000", "130038.385000", "130038.845000", "130039.305000", "130039.765000", "130040.225000", "130040.685000", "130041.145000", "130041.605000", "130042.065000", "130042.525000", "130042.985000", "130043.445000", "130043.905000", "130044.365000", "130044.825000", "130045.285000", "130045.745000", "130046.205000", "130046.665000", "130047.125000", "130047.585000", "130048.045000", "130048.505000", "130048.965000", "130049.425000", "130049.885000", "130050.345000", "130050.805000", "130051.265000", "130051.725000", "130052.185000", "130052.645000", "130053.105000", "130053.565000", "130054.025000", "130054.485000", "130054.945000", "130055.405000", "130055.865000", "130056.325000", "130056.785000", "130057.245000", "130057.705000", "130058.165000", "130058.625000", "130059.085000", "130059.545000", "130100.005000", "130100.465000", "130100.925000", "130101.385000", "130101.845000", "130102.305000", "130102.765000", "130103.225000", "130103.685000", "130104.145000", "130104.605000", "130105.065000", "130105.525000", "130105.985000", "130106.445000", "130106.905000", "130107.365000", "130107.825000", "130108.285000", "130108.745000", "130109.205000", "130109.665000", "130110.125000", "130110.585000", "130111.045000", "130111.505000", "130111.965000", "130112.425000", "130112.885000", "130113.345000", "130113.805000", "130114.265000", "130114.725000", "130115.185000", "130115.645000", "130116.105000", "130116.565000", "130117.025000", "130117.485000", "130117.945000", "130118.405000", "130118.865000", "130119.325000", "130119.785000", "130120.245000", "130120.705000", "130121.165000", "130121.625000", "130122.085000", "130122.545000", "130123.005000", "130123.465000", "130123.925000", "130124.385000", "130124.845000", "130125.305000", "130125.765000", "130126.225000", "130126.685000", "130127.145000", "130127.605000", "130128.065000", "130128.525000", "130128.985000", "130129.445000", "130129.905000", "130130.365000", "130130.825000", "130131.285000", "130131.745000", "130132.205000", "130132.665000", "130133.125000", "130133.585000", "130134.045000", "130134.505000", "130134.965000", "130135.425000", "130135.885000", "130136.345000", "130136.805000", "130137.265000", "130137.725000", "130138.185000", "130138.645000", "130139.105000", "130139.565000", "130140.025000", "130140.485000", "130140.945000", "130141.405000", "130141.865000", "130142.325000", "130142.785000", "130143.245000", "130143.705000", "130144.165000", "130144.625000", "130145.085000", "130145.545000", "130146.005000", "130146.465000", "130146.925000", "130147.385000", "130147.845000", "130148.305000", "130148.765000", "130149.225000", "130149.685000", "130150.145000", "130150.605000", "130151.065000", "130151.525000", "130151.985000", "130152.445000", "130152.905000", "130153.365000", "130153.825000", "130154.285000", "130154.745000", "130155.205000", "130155.665000", "130156.125000", "130156.585000", "130157.045000", "130157.505000", "130157.965000", "130158.425000", "130158.885000", "130159.345000", "130159.805000", "130200.265000", "130200.725000", "130201.185000", "130201.645000", "130202.105000", "130202.565000", "130203.025000", "130203.485000", "130203.945000", "130204.405000", "130204.865000", "130205.325000", "130205.785000", "130206.245000", "130206.705000", "130207.165000", "130207.625000", "130208.085000", "130208.545000", "130209.005000", "130209.465000", "130209.925000", "130210.385000", "130210.845000", "130211.305000", "130211.765000", "130212.225000", "130212.685000", "130213.145000", "130213.605000", "130214.065000", "130214.525000", "130214.985000", "130215.445000", "130215.905000", "130216.365000", "130216.825000", "130217.285000", "130217.745000", "130218.205000", "130218.665000", "130219.125000", "130219.585000", "130220.045000", "130220.505000", "130220.965000", "130221.425000", "130221.885000", "130222.345000", "130222.805000", "130223.265000", "130223.725000", "130224.185000", "130224.645000", "130225.105000", "130225.565000", "130226.025000", "130226.485000", "130226.945000", "130227.405000", "130227.865000", "130228.325000", "130228.785000", "130229.245000", "130229.705000", "130230.165000", "130230.625000", "130231.085000", "130231.545000", "130232.005000", "130232.465000", "130232.925000", "130233.385000", "130233.845000", "130234.305000", "130234.765000", "130235.225000", "130235.685000", "130236.145000", "130236.605000", "130237.065000", "130237.525000", "130237.985000", "130238.445000", "130238.905000", "130239.365000", "130239.825000", "130240.285000", "130240.745000", "130241.205000", "130241.665000", "130242.125000", "130242.585000", "130243.045000", "130243.505000", "130243.965000", "130244.425000", "130244.885000", "130245.345000", "130245.805000", "130246.265000", "130246.725000", "130247.185000", "130247.645000", "130248.105000", "130248.565000", "130249.025000", "130249.485000", "130249.945000", "130250.405000", "130250.865000", "130251.325000", "130251.785000", "130252.245000", "130252.705000", "130253.165000", "130253.625000", "130254.085000", "130254.545000", "130255.005000", "130255.465000", "130255.925000", "130256.385000", "130256.845000", "130257.305000", "130257.765000", "130258.225000", "130258.685000", "130259.145000", "130259.605000", "130300.065000", "130300.525000", "130300.985000", "130301.445000", "130301.905000", "130302.365000", "130302.825000", "130303.285000", "130303.745000", "130304.205000", "130304.665000", "130305.125000", "130305.585000", "130306.045000", "130306.505000", "130306.965000", "130307.425000", "130307.885000", "130308.345000", "130308.805000", "130309.265000", "130309.725000", "130310.185000", "130310.645000", "130311.105000", "130311.565000", "130312.025000", "130312.485000", "130312.945000", "130313.405000", "130313.865000", "130314.325000", "130314.785000", "130315.245000", "130315.705000", "130316.165000", "130316.625000", "130317.085000", "130317.545000", "130318.005000", "130318.465000", "130318.925000", "130319.385000", "130319.845000", "130320.305000", "130320.765000", "130321.225000", "130321.685000", "130322.145000", "130322.605000", "130323.065000", "130323.525000", "130323.985000", "130324.445000", "130324.905000", "130325.365000", "130325.825000", "130326.285000", "130326.745000", "130327.205000", "130327.665000", "130328.125000", "130328.585000", "130329.045000", "130329.505000", "130329.965000", "130330.425000", "130330.885000", "130331.345000", "130331.805000", "130332.265000", "130332.725000", "130333.185000", "130333.645000", "130334.105000", "130334.565000", "130335.025000", "130335.485000", "130335.945000", "130336.405000", "130336.865000", "130337.325000", "130337.785000", "130338.245000", "130338.705000", "130339.165000", "130339.625000", "130340.085000", "130340.545000", "130341.005000", "130341.465000", "130341.925000", "130342.385000", "130342.845000", "130343.305000", "130343.765000", "130344.225000", "130344.685000", "130345.145000", "130345.605000", "130346.065000", "130346.525000", "130346.985000", "130347.445000", "130347.905000", "130348.365000", "130348.825000", "130349.285000", "130349.745000", "130350.205000", "130350.665000", "130351.125000", "130351.585000", "130352.045000", "130352.505000", "130352.965000", "130353.425000", "130353.885000", "130354.345000", "130354.805000", "130355.265000", "130355.725000", "130356.185000", "130356.645000", "130357.105000", "130357.565000", "130358.025000", "130358.485000", "130358.945000", "130359.405000", "130359.865000", "130400.325000", "130400.785000", "130401.245000", "130401.705000", "130402.165000", "130402.625000", "130403.085000", "130403.545000", "130404.005000", "130404.465000", "130404.925000", "130405.385000", "130405.845000", "130406.305000", "130406.765000", "130407.225000", "130407.685000", "130408.145000", "130408.605000", "130409.065000", "130409.525000", "130409.985000", "130410.445000", "130410.905000", "130411.365000", "130411.825000", "130412.285000", "130412.745000", "130413.205000", "130413.665000", "130414.125000", "130414.585000", "130415.045000", "130415.505000", "130415.965000", "130416.425000", "130416.885000", "130417.345000", "130417.805000", "130418.265000", "130418.725000", "130419.185000", "130419.645000", "130420.105000", "130420.565000", "130421.025000", "130421.485000", "130421.945000", "130422.405000", "130422.865000", "130423.325000", "130423.785000", "130424.245000", "130424.705000", "130425.165000", "130425.625000", "130426.085000", "130426.545000", "130427.005000", "130427.465000", "130427.925000", "130428.385000", "130428.845000", "130429.305000", "130429.765000", "130430.225000", "130430.685000", "130431.145000", "130431.605000", "130432.065000", "130432.525000", "130432.985000", "130433.445000", "130433.905000", "130434.365000", "130434.825000", "130435.285000", "130435.745000", "130436.205000", "130436.665000", "130437.125000", "130437.585000", "130438.045000", "130438.505000", "130438.965000", "130439.425000", "130439.885000", "130440.345000", "130440.805000", "130441.265000", "130441.725000", "130442.185000", "130442.645000", "130443.105000", "130443.565000", "130444.025000", "130444.485000", "130444.945000", "130445.405000", "130445.865000", "130446.325000", "130446.785000", "130447.245000", "130447.705000", "130448.165000", "130448.625000", "130449.085000", "130449.545000", "130450.005000", "130450.465000", "130450.925000", "130451.385000", "130451.845000", "130452.305000", "130452.765000", "130453.225000", "130453.685000", "130454.145000", "130454.605000", "130455.065000", "130455.525000", "130455.985000", "130456.445000", "130456.905000", "130457.365000", "130457.825000", "130458.285000", "130458.745000", "130459.205000", "130459.665000", "130500.125000", "130500.585000", "130501.045000", "130501.505000", "130501.965000", "130502.425000", "130502.885000", "130503.345000", "130503.805000", "130504.265000", "130504.725000", "130505.185000", "130505.645000", "130506.105000", "130506.565000", "130507.025000", "130507.485000", "130507.945000", "130508.405000", "130508.865000", "130509.325000", "130509.785000", "130510.245000", "130510.705000", "130511.165000", "130511.625000", "130512.085000", "130512.545000", "130513.005000", "130513.465000", "130513.925000", "130514.385000", "130514.845000", "130515.305000", "130515.765000", "130516.225000", "130516.685000", "130517.145000", "130517.605000", "130518.065000", "130518.525000", "130518.985000", "130519.445000", "130519.905000", "130520.365000", "130520.825000", "130521.285000", "130521.745000", "130522.205000", "130522.665000", "130523.125000", "130523.585000", "130524.045000", "130524.505000", "130524.965000", "130525.425000", "130525.885000", "130526.345000", "130526.805000", "130527.265000", "130527.725000", "130528.185000", "130528.645000", "130529.105000", "130529.565000", "130530.025000", "130530.485000", "130530.945000", "130531.405000", "130531.865000", "130532.325000", "130532.785000", "130533.245000", "130533.705000", "130534.165000", "130534.625000", "130535.085000", "130535.545000", "130536.005000", "130536.465000", "130536.925000", "130537.385000", "130537.845000", "130538.305000", "130538.765000", "130539.225000", "130539.685000", "130540.145000", "130540.605000", "130541.065000", "130541.525000", "130541.985000", "130542.445000", "130542.905000", "130543.365000", "130543.825000", "130544.285000", "130544.745000", "130545.205000", "130545.665000", "130546.125000", "130546.585000", "130547.045000", "130547.505000", "130547.965000", "130548.425000", "130548.885000", "130549.345000", "130549.805000", "130550.265000", "130550.725000", "130551.185000", "130551.645000", "130552.105000"],
