{
  "AcquisitionMatrixPE": 82,
  "AcquisitionNumber": 1,
  "AcquisitionTime": "12:44:54.812500",
  "BandwidthPerPixelPhaseEncode": 24.888,
  "BaseResolution": 82,
  "BodyPartExamined": "BRAIN",
  "ConsistencyInfo": "N4_VE11E_LATEST_20181129",
  "ConversionSoftware": "dcm2niix",
  "ConversionSoftwareVersion": "v1.0.20201102",
  "DerivedVendorReportedEchoSpacing": 0.00049,
  "DeviceSerialNumber": "66112",
  "DwellTime": 2e-06,
  "EchoTime": 0.0272,
  "EchoTrainLength": 82,
  "EffectiveEchoSpacing": 0.00049,
  "FlipAngle": 44,
  "ImageComments": "Unaliased MB8/PE3",
  "ImageOrientationPatientDICOM": [0.99958, 0.0289634, 0.000597829, -0.0289684, 0.999148, 0.0293822],
  "ImageType": [
    "ORIGINAL",
    "PRIMARY",
    "M",
    "MB",
    "ND",
    "NORM",
    "MOSAIC"
],
  "ImagingFrequency": 123.252,
  "InPlanePhaseEncodingDirectionDICOM": "COL",
  "InstitutionAddress": "Maynard 3,Hanover,NH,US,03755",
  "InstitutionName": "Dartmouth College - PBS",
  "InstitutionalDepartmentName": "Department",
  "MRAcquisitionType": "2D",
  "MagneticFieldStrength": 3,
  "Manufacturer": "Siemens",
  "ManufacturersModelName": "Prisma",
  "Modality": "MR",
  "MultibandAccelerationFactor": 8,
  "PartialFourier": 1,
  "PatientPosition": "HFS",
  "PercentPhaseFOV": 100,
  "PercentSampling": 100,
  "PhaseEncodingDirection": "j-",
  "PhaseEncodingSteps": 82,
  "PhaseResolution": 1,
  "PixelBandwidth": 3050,
  "ProcedureStepDescription": "Wager_Wager^1076_spacetop",
  "ProtocolName": "func_run-02_task-social_acq-ap-mb8",
  "PulseSequenceDetails": "%CustomerSeq%\\cmrr_mbep2d_bold",
  "ReceiveCoilActiveElements": "HEA;HEP",
  "ReceiveCoilName": "Head_32",
  "ReconMatrixPE": 82,
  "RepetitionTime": 0.46,
  "SAR": 0.101043,
  "ScanOptions": "FS",
  "ScanningSequence": "EP",
  "SequenceName": "epfid2d1_82",
  "SequenceVariant": "SK\\SS",
  "SeriesDescription": "func_run-02_task-social_acq-ap-mb8",
  "SeriesNumber": 14,
  "ShimSetting": [4158, -7753, -7273, 484, 22, -95, 31, 54],
  "SliceThickness": 2.7,
  "SliceTiming": [0, 0.25, 0.0625, 0.3125, 0.125, 0.3775, 0.1875, 0, 0.25, 0.0625, 0.3125, 0.125, 0.3775, 0.1875, 0, 0.25, 0.0625, 0.3125, 0.125, 0.3775, 0.1875, 0, 0.25, 0.0625, 0.3125, 0.125, 0.3775, 0.1875, 0, 0.25, 0.0625, 0.3125, 0.125, 0.3775, 0.1875, 0, 0.25, 0.0625, 0.3125, 0.125, 0.3775, 0.1875, 0, 0.25, 0.0625, 0.3125, 0.125, 0.3775, 0.1875, 0, 0.25, 0.0625, 0.3125, 0.125, 0.3775, 0.1875],
  "SoftwareVersions": "syngo MR E11",
  "SpacingBetweenSlices": 2.7,
  "StationName": "AWP66112",
  "TaskName": "social",
  "TotalReadoutTime": 0.03969,
  "TxRefAmp": 253.769,
  "WipMemBlock": "80cd6208-0c0d-47dd-834d-96f611b5869b||Sequence: R016 ve11e/master r/434b28f1; Aug  7 2019 18:53:46 by eja",
  "dcmmeta_affine": [
    [-2.6818008422851562, -0.07772020995616913, -0.0006849534693174064, 115.65560913085938],
    [-0.07770664244890213, 2.6806421279907227, 0.07934527099132538, -92.53898620605469],
    [0.0016039317706599832, -0.07883016020059586, 2.698833703994751, -68.0265121459961],
    [0.0, 0.0, 0.0, 1.0]
],
  "dcmmeta_reorient_transform": [
    [0.0, -1.0, 0.0, 81.0],
    [1.0, 0.0, 0.0, 0.0],
    [0.0, 0.0, 1.0, 0.0],
    [0.0, 0.0, 0.0, 1.0]
],
  "dcmmeta_shape": [82, 82, 56, 872],
  "dcmmeta_slice_dim": 2,
  "dcmmeta_version": 0.6,
  "global": {
    "const": {
      "AccessionNumber": "A004113",
      "AcquisitionMatrix": [82, 0, 0, 82],
      "AngioFlag": "N",
      "BitsAllocated": 16,
      "BitsStored": 16,
      "BodyPartExamined": "BRAIN",
      "Columns": 656,
      "EchoNumbers": 1,
      "EchoTime": 27.2,
      "EchoTrainLength": 82,
      "FlipAngle": 44.0,
      "HighBit": 15,
      "ImageOrientationPatient": [0.99958029444202, 0.02896338315089, 0.00059782911766, -0.0289684415594, 0.99914839671814, 0.02938214983959],
      "ImagePositionPatient": [-856.73141960328, -916.23911455522, -97.496342377496],
      "ImageType": [
        "ORIGINAL",
        "PRIMARY",
        "M",
        "MB",
        "ND",
        "NORM",
        "MOSAIC"
],
      "ImagedNucleus": "1H",
      "ImagingFrequency": 123.252182,
      "InPlanePhaseEncodingDirection": "COL",
      "MRAcquisitionType": "2D",
      "MagneticFieldStrength": 3.0,
      "Manufacturer": "SIEMENS",
      "ManufacturerModelName": "Prisma",
      "Modality": "MR",
      "NumberOfAverages": 1.0,
      "NumberOfPhaseEncodingSteps": 82,
      "PercentPhaseFieldOfView": 100.0,
      "PercentSampling": 100.0,
      "PerformedProcedureStepStartTime": "115558.229000",
      "PhotometricInterpretation": "MONOCHROME2",
      "PixelBandwidth": 3050.0,
      "PixelRepresentation": 0,
      "PixelSpacing": [2.6829268932343, 2.6829268932343],
      "ProtocolName": "func_run-02_task-social_acq-ap-mb8",
      "RepetitionTime": 460.0,
      "Rows": 656,
      "SAR": 0.10104278144311,
      "SamplesPerPixel": 1,
      "ScanOptions": "FS",
      "ScanningSequence": "EP",
      "SequenceName": "epfid2d1_82",
      "SequenceVariant": [
        "SK",
        "SS"
],
      "SeriesDescription": "func_run-02_task-social_acq-ap-mb8",
      "SeriesNumber": 14,
      "SeriesTime": "124507.560000",
      "SliceLocation": -70.745928581575,
      "SliceThickness": 2.7000000476837,
      "SmallestImagePixelValue": 0,
      "SoftwareVersions": "syngo MR E11",
      "SpacingBetweenSlices": 2.7000000162503,
      "SpecificCharacterSet": "ISO_IR 100",
      "StudyID": "1",
      "StudyTime": "115558.120000",
      "TransmitCoilName": "Body",
      "VariableFlipAngleFlag": "N",
      "WindowCenterWidthExplanation": "Algo1"
    },
    "slices": {}
  },
  "time": {
    "samples": {
      "AcquisitionNumber": [1, 2, 3, 4, 5, 6, 7, 8, 9, 10, 11, 12, 13, 14, 15, 16, 17, 18, 19, 20, 21, 22, 23, 24, 25, 26, 27, 28, 29, 30, 31, 32, 33, 34, 35, 36, 37, 38, 39, 40, 41, 42, 43, 44, 45, 46, 47, 48, 49, 50, 51, 52, 53, 54, 55, 56, 57, 58, 59, 60, 61, 62, 63, 64, 65, 66, 67, 68, 69, 70, 71, 72, 73, 74, 75, 76, 77, 78, 79, 80, 81, 82, 83, 84, 85, 86, 87, 88, 89, 90, 91, 92, 93, 94, 95, 96, 97, 98, 99, 100, 101, 102, 103, 104, 105, 106, 107, 108, 109, 110, 111, 112, 113, 114, 115, 116, 117, 118, 119, 120, 121, 122, 123, 124, 125, 126, 127, 128, 129, 130, 131, 132, 133, 134, 135, 136, 137, 138, 139, 140, 141, 142, 143, 144, 145, 146, 147, 148, 149, 150, 151, 152, 153, 154, 155, 156, 157, 158, 159, 160, 161, 162, 163, 164, 165, 166, 167, 168, 169, 170, 171, 172, 173, 174, 175, 176, 177, 178, 179, 180, 181, 182, 183, 184, 185, 186, 187, 188, 189, 190, 191, 192, 193, 194, 195, 196, 197, 198, 199, 200, 201, 202, 203, 204, 205, 206, 207, 208, 209, 210, 211, 212, 213, 214, 215, 216, 217, 218, 219, 220, 221, 222, 223, 224, 225, 226, 227, 228, 229, 230, 231, 232, 233, 234, 235, 236, 237, 238, 239, 240, 241, 242, 243, 244, 245, 246, 247, 248, 249, 250, 251, 252, 253, 254, 255, 256, 257, 258, 259, 260, 261, 262, 263, 264, 265, 266, 267, 268, 269, 270, 271, 272, 273, 274, 275, 276, 277, 278, 279, 280, 281, 282, 283, 284, 285, 286, 287, 288, 289, 290, 291, 292, 293, 294, 295, 296, 297, 298, 299, 300, 301, 302, 303, 304, 305, 306, 307, 308, 309, 310, 311, 312, 313, 314, 315, 316, 317, 318, 319, 320, 321, 322, 323, 324, 325, 326, 327, 328, 329, 330, 331, 332, 333, 334, 335, 336, 337, 338, 339, 340, 341, 342, 343, 344, 345, 346, 347, 348, 349, 350, 351, 352, 353, 354, 355, 356, 357, 358, 359, 360, 361, 362, 363, 364, 365, 366, 367, 368, 369, 370, 371, 372, 373, 374, 375, 376, 377, 378, 379, 380, 381, 382, 383, 384, 385, 386, 387, 388, 389, 390, 391, 392, 393, 394, 395, 396, 397, 398, 399, 400, 401, 402, 403, 404, 405, 406, 407, 408, 409, 410, 411, 412, 413, 414, 415, 416, 417, 418, 419, 420, 421, 422, 423, 424, 425, 426, 427, 428, 429, 430, 431, 432, 433, 434, 435, 436, 437, 438, 439, 440, 441, 442, 443, 444, 445, 446, 447, 448, 449, 450, 451, 452, 453, 454, 455, 456, 457, 458, 459, 460, 461, 462, 463, 464, 465, 466, 467, 468, 469, 470, 471, 472, 473, 474, 475, 476, 477, 478, 479, 480, 481, 482, 483, 484, 485, 486, 487, 488, 489, 490, 491, 492, 493, 494, 495, 496, 497, 498, 499, 500, 501, 502, 503, 504, 505, 506, 507, 508, 509, 510, 511, 512, 513, 514, 515, 516, 517, 518, 519, 520, 521, 522, 523, 524, 525, 526, 527, 528, 529, 530, 531, 532, 533, 534, 535, 536, 537, 538, 539, 540, 541, 542, 543, 544, 545, 546, 547, 548, 549, 550, 551, 552, 553, 554, 555, 556, 557, 558, 559, 560, 561, 562, 563, 564, 565, 566, 567, 568, 569, 570, 571, 572, 573, 574, 575, 576, 577, 578, 579, 580, 581, 582, 583, 584, 585, 586, 587, 588, 589, 590, 591, 592, 593, 594, 595, 596, 597, 598, 599, 600, 601, 602, 603, 604, 605, 606, 607, 608, 609, 610, 611, 612, 613, 614, 615, 616, 617, 618, 619, 620, 621, 622, 623, 624, 625, 626, 627, 628, 629, 630, 631, 632, 633, 634, 635, 636, 637, 638, 639, 640, 641, 642, 643, 644, 645, 646, 647, 648, 649, 650, 651, 652, 653, 654, 655, 656, 657, 658, 659, 660, 661, 662, 663, 664, 665, 666, 667, 668, 669, 670, 671, 672, 673, 674, 675, 676, 677, 678, 679, 680, 681, 682, 683, 684, 685, 686, 687, 688, 689, 690, 691, 692, 693, 694, 695, 696, 697, 698, 699, 700, 701, 702, 703, 704, 705, 706, 707, 708, 709, 710, 711, 712, 713, 714, 715, 716, 717, 718, 719, 720, 721, 722, 723, 724, 725, 726, 727, 728, 729, 730, 731, 732, 733, 734, 735, 736, 737, 738, 739, 740, 741, 742, 743, 744, 745, 746, 747, 748, 749, 750, 751, 752, 753, 754, 755, 756, 757, 758, 759, 760, 761, 762, 763, 764, 765, 766, 767, 768, 769, 770, 771, 772, 773, 774, 775, 776, 777, 778, 779, 780, 781, 782, 783, 784, 785, 786, 787, 788, 789, 790, 791, 792, 793, 794, 795, 796, 797, 798, 799, 800, 801, 802, 803, 804, 805, 806, 807, 808, 809, 810, 811, 812, 813, 814, 815, 816, 817, 818, 819, 820, 821, 822, 823, 824, 825, 826, 827, 828, 829, 830, 831, 832, 833, 834, 835, 836, 837, 838, 839, 840, 841, 842, 843, 844, 845, 846, 847, 848, 849, 850, 851, 852, 853, 854, 855, 856, 857, 858, 859, 860, 861, 862, 863, 864, 865, 866, 867, 868, 869, 870, 871, 872],
      "AcquisitionTime": ["124454.812500", "124455.272500", "124455.732500", "124456.192500", "124456.652500", "124457.112500", "124457.572500", "124458.032500", "124458.492500", "124458.952500", "124459.412500", "124459.872500", "124500.332500", "124500.792500", "124501.252500", "124501.712500", "124502.172500", "124502.632500", "124503.092500", "124503.552500", "124504.012500", "124504.472500", "124504.932500", "124505.392500", "124505.852500", "124506.312500", "124506.772500", "124507.232500", "124507.692500", "124508.152500", "124508.612500", "124509.072500", "124509.532500", "124509.992500", "124510.452500", "124510.912500", "124511.372500", "124511.832500", "124512.292500", "124512.752500", "124513.212500", "124513.672500", "124514.132500", "124514.592500", "124515.052500", "124515.512500", "124515.972500", "124516.432500", "124516.892500", "124517.352500", "124517.812500", "124518.272500", "124518.732500", "124519.192500", "124519.652500", "124520.112500", "124520.572500", "124521.032500", "124521.492500", "124521.952500", "124522.412500", "124522.872500", "124523.332500", "124523.792500", "124524.252500", "124524.712500", "124525.172500", "124525.632500", "124526.092500", "124526.552500", "124527.012500", "124527.472500", "124527.932500", "124528.392500", "124528.852500", "124529.312500", "124529.772500", "124530.232500", "124530.692500", "124531.152500", "124531.612500", "124532.072500", "124532.532500", "124532.992500", "124533.452500", "124533.912500", "124534.372500", "124534.832500", "124535.292500", "124535.752500", "124536.212500", "124536.672500", "124537.132500", "124537.592500", "124538.052500", "124538.512500", "124538.972500", "124539.432500", "124539.892500", "124540.352500", "124540.812500", "124541.272500", "124541.732500", "124542.192500", "124542.652500", "124543.112500", "124543.572500", "124544.032500", "124544.492500", "124544.952500", "124545.412500", "124545.872500", "124546.332500", "124546.792500", "124547.252500", "124547.712500", "124548.172500", "124548.632500", "124549.092500", "124549.552500", "124550.012500", "124550.472500", "124550.932500", "124551.392500", "124551.852500", "124552.312500", "124552.772500", "124553.232500", "124553.692500", "124554.152500", "124554.612500", "124555.072500", "124555.532500", "124555.992500", "124556.452500", "124556.912500", "124557.372500", "124557.832500", "124558.292500", "124558.752500", "124559.212500", "124559.672500", "124600.132500", "124600.592500", "124601.052500", "124601.512500", "124601.972500", "124602.432500", "124602.892500", "124603.352500", "124603.812500", "124604.272500", "124604.732500", "124605.192500", "124605.652500", "124606.112500", "124606.572500", "124607.032500", "124607.492500", "124607.952500", "124608.412500", "124608.872500", "124609.332500", "124609.792500", "124610.252500", "124610.712500", "124611.172500", "124611.632500", "124612.092500", "124612.552500", "124613.012500", "124613.472500", "124613.932500", "124614.392500", "124614.852500", "124615.312500", "124615.772500", "124616.232500", "124616.692500", "124617.152500", "124617.612500", "124618.072500", "124618.532500", "124618.992500", "124619.452500", "124619.912500", "124620.372500", "124620.832500", "124621.292500", "124621.752500", "124622.212500", "124622.672500", "124623.132500", "124623.592500", "124624.052500", "124624.512500", "124624.972500", "124625.432500", "124625.892500", "124626.352500", "124626.812500", "124627.272500", "124627.732500", "124628.192500", "124628.652500", "124629.112500", "124629.572500", "124630.032500", "124630.492500", "124630.952500", "124631.412500", "124631.872500", "124632.332500", "124632.792500", "124633.252500", "124633.712500", "124634.172500", "124634.632500", "124635.092500", "124635.552500", "124636.012500", "124636.472500", "124636.932500", "124637.392500", "124637.852500", "124638.312500", "124638.772500", "124639.232500", "124639.692500", "124640.152500", "124640.612500", "124641.072500", "124641.532500", "124641.992500", "124642.452500", "124642.912500", "124643.372500", "124643.832500", "124644.292500", "124644.752500", "124645.212500", "124645.672500", "124646.132500", "124646.592500", "124647.052500", "124647.512500", "124647.972500", "124648.432500", "124648.892500", "124649.352500", "124649.812500", "124650.272500", "124650.732500", "124651.192500", "124651.652500", "124652.112500", "124652.572500", "124653.032500", "124653.492500", "124653.952500", "124654.412500", "124654.872500", "124655.332500", "124655.792500", "124656.252500", "124656.712500", "124657.172500", "124657.632500", "124658.092500", "124658.552500", "124659.012500", "124659.472500", "124659.932500", "124700.392500", "124700.852500", "124701.312500", "124701.772500", "124702.232500", "124702.692500", "124703.152500", "124703.612500", "124704.072500", "124704.532500", "124704.992500", "124705.452500", "124705.912500", "124706.372500", "124706.832500", "124707.292500", "124707.752500", "124708.212500", "124708.672500", "124709.132500", "124709.592500", "124710.052500", "124710.512500", "124710.972500", "124711.432500", "124711.892500", "124712.352500", "124712.812500", "124713.272500", "124713.732500", "124714.192500", "124714.652500", "124715.112500", "124715.572500", "124716.032500", "124716.492500", "124716.952500", "124717.412500", "124717.872500", "124718.332500", "124718.792500", "124719.252500", "124719.712500", "124720.172500", "124720.632500", "124721.092500", "124721.552500", "124722.012500", "124722.472500", "124722.932500", "124723.392500", "124723.852500", "124724.312500", "124724.772500", "124725.232500", "124725.692500", "124726.152500", "124726.612500", "124727.072500", "124727.532500", "124727.992500", "124728.452500", "124728.912500", "124729.372500", "124729.832500", "124730.292500", "124730.752500", "124731.212500", "124731.672500", "124732.132500", "124732.592500", "124733.052500", "124733.512500", "124733.972500", "124734.432500", "124734.892500", "124735.352500", "124735.812500", "124736.272500", "124736.732500", "124737.192500", "124737.652500", "124738.112500", "124738.572500", "124739.032500", "124739.492500", "124739.952500", "124740.412500", "124740.872500", "124741.332500", "124741.792500", "124742.252500", "124742.712500", "124743.172500", "124743.632500", "124744.092500", "124744.552500", "124745.012500", "124745.472500", "124745.932500", "124746.392500", "124746.852500", "124747.312500", "124747.772500", "124748.232500", "124748.692500", "124749.152500", "124749.612500", "124750.072500", "124750.532500", "124750.992500", "124751.452500", "124751.912500", "124752.372500", "124752.832500", "124753.292500", "124753.752500", "124754.212500", "124754.672500", "124755.132500", "124755.592500", "124756.052500", "124756.512500", "124756.972500", "124757.432500", "124757.892500", "124758.352500", "124758.812500", "124759.272500", "124759.732500", "124800.192500", "124800.652500", "124801.112500", "124801.572500", "124802.032500", "124802.492500", "124802.952500", "124803.412500", "124803.872500", "124804.332500", "124804.792500", "124805.252500", "124805.712500", "124806.172500", "124806.632500", "124807.092500", "124807.552500", "124808.012500", "124808.472500", "124808.932500", "124809.392500", "124809.852500", "124810.312500", "124810.772500", "124811.232500", "124811.692500", "124812.152500", "124812.612500", "124813.072500", "124813.532500", "124813.992500", "124814.452500", "124814.912500", "124815.372500", "124815.832500", "124816.292500", "124816.752500", "124817.212500", "124817.672500", "124818.132500", "124818.592500", "124819.052500", "124819.512500", "124819.972500", "124820.432500", "124820.892500", "124821.352500", "124821.812500", "124822.272500", "124822.732500", "124823.192500", "124823.652500", "124824.112500", "124824.572500", "124825.032500", "124825.492500", "124825.952500", "124826.412500", "124826.872500", "124827.332500", "124827.792500", "124828.252500", "124828.712500", "124829.172500", "124829.632500", "124830.092500", "124830.552500", "124831.012500", "124831.472500", "124831.932500", "124832.392500", "124832.852500", "124833.312500", "124833.772500", "124834.232500", "124834.692500", "124835.152500", "124835.612500", "124836.072500", "124836.532500", "124836.992500", "124837.452500", "124837.912500", "124838.372500", "124838.832500", "124839.292500", "124839.752500", "124840.212500", "124840.672500", "124841.132500", "124841.592500", "124842.052500", "124842.512500", "124842.972500", "124843.432500", "124843.892500", "124844.352500", "124844.812500", "124845.272500", "124845.732500", "124846.192500", "124846.652500", "124847.112500", "124847.572500", "124848.032500", "124848.492500", "124848.952500", "124849.412500", "124849.872500", "124850.332500", "124850.792500", "124851.252500", "124851.712500", "124852.172500", "124852.632500", "124853.092500", "124853.552500", "124854.012500", "124854.472500", "124854.932500", "124855.392500", "124855.852500", "124856.312500", "124856.772500", "124857.232500", "124857.692500", "124858.152500", "124858.612500", "124859.072500", "124859.532500", "124859.992500", "124900.452500", "124900.912500", "124901.372500", "124901.832500", "124902.292500", "124902.752500", "124903.212500", "124903.672500", "124904.132500", "124904.592500", "124905.052500", "124905.512500", "124905.972500", "124906.432500", "124906.892500", "124907.352500", "124907.812500", "124908.272500", "124908.732500", "124909.192500", "124909.652500", "124910.112500", "124910.572500", "124911.032500", "124911.492500", "124911.952500", "124912.412500", "124912.872500", "124913.332500", "124913.792500", "124914.252500", "124914.712500", "124915.172500", "124915.632500", "124916.092500", "124916.552500", "124917.012500", "124917.472500", "124917.932500", "124918.392500", "124918.852500", "124919.312500", "124919.772500", "124920.232500", "124920.692500", "124921.152500", "124921.612500", "124922.072500", "124922.532500", "124922.992500", "124923.452500", "124923.912500", "124924.372500", "124924.832500", "124925.292500", "124925.752500", "124926.212500", "124926.672500", "124927.132500", "124927.592500", "124928.052500", "124928.512500", "124928.972500", "124929.432500", "124929.892500", "124930.352500", "124930.812500", "124931.272500", "124931.732500", "124932.192500", "124932.652500", "124933.112500", "124933.572500", "124934.032500", "124934.492500", "124934.952500", "124935.412500", "124935.872500", "124936.332500", "124936.792500", "124937.252500", "124937.712500", "124938.172500", "124938.632500", "124939.092500", "124939.552500", "124940.012500", "124940.472500", "124940.932500", "124941.392500", "124941.852500", "124942.312500", "124942.772500", "124943.232500", "124943.692500", "124944.152500", "124944.612500", "124945.072500", "124945.532500", "124945.992500", "124946.452500", "124946.912500", "124947.372500", "124947.832500", "124948.292500", "124948.752500", "124949.212500", "124949.672500", "124950.132500", "124950.592500", "124951.052500", "124951.512500", "124951.972500", "124952.432500", "124952.892500", "124953.352500", "124953.812500", "124954.272500", "124954.732500", "124955.192500", "124955.652500", "124956.112500", "124956.572500", "124957.032500", "124957.492500", "124957.952500", "124958.412500", "124958.872500", "124959.332500", "124959.792500", "125000.252500", "125000.712500", "125001.172500", "125001.632500", "125002.092500", "125002.552500", "125003.012500", "125003.472500", "125003.932500", "125004.392500", "125004.852500", "125005.312500", "125005.772500", "125006.232500", "125006.692500", "125007.152500", "125007.612500", "125008.072500", "125008.532500", "125008.992500", "125009.452500", "125009.912500", "125010.372500", "125010.832500", "125011.292500", "125011.752500", "125012.212500", "125012.672500", "125013.132500", "125013.592500", "125014.052500", "125014.512500", "125014.972500", "125015.432500", "125015.892500", "125016.352500", "125016.812500", "125017.272500", "125017.732500", "125018.192500", "125018.652500", "125019.112500", "125019.572500", "125020.032500", "125020.492500", "125020.952500", "125021.412500", "125021.872500", "125022.332500", "125022.792500", "125023.252500", "125023.712500", "125024.172500", "125024.632500", "125025.092500", "125025.552500", "125026.012500", "125026.472500", "125026.932500", "125027.392500", "125027.852500", "125028.312500", "125028.772500", "125029.232500", "125029.692500", "125030.152500", "125030.612500", "125031.072500", "125031.532500", "125031.992500", "125032.452500", "125032.912500", "125033.372500", "125033.832500", "125034.292500", "125034.752500", "125035.212500", "125035.672500", "125036.132500", "125036.592500", "125037.052500", "125037.512500", "125037.972500", "125038.432500", "125038.892500", "125039.352500", "125039.812500", "125040.272500", "125040.732500", "125041.192500", "125041.652500", "125042.112500", "125042.572500", "125043.032500", "125043.492500", "125043.952500", "125044.412500", "125044.872500", "125045.332500", "125045.792500", "125046.252500", "125046.712500", "125047.172500", "125047.632500", "125048.092500", "125048.552500", "125049.012500", "125049.472500", "125049.932500", "125050.392500", "125050.852500", "125051.312500", "125051.772500", "125052.232500", "125052.692500", "125053.152500", "125053.612500", "125054.072500", "125054.532500", "125054.992500", "125055.452500", "125055.912500", "125056.372500", "125056.832500", "125057.292500", "125057.752500", "125058.212500", "125058.672500", "125059.132500", "125059.592500", "125100.052500", "125100.512500", "125100.972500", "125101.432500", "125101.892500", "125102.352500", "125102.812500", "125103.272500", "125103.732500", "125104.192500", "125104.652500", "125105.112500", "125105.572500", "125106.032500", "125106.492500", "125106.952500", "125107.412500", "125107.872500", "125108.332500", "125108.792500", "125109.252500", "125109.712500", "125110.172500", "125110.632500", "125111.092500", "125111.552500", "125112.012500", "125112.472500", "125112.932500", "125113.392500", "125113.852500", "125114.312500", "125114.772500", "125115.232500", "125115.692500", "125116.152500", "125116.612500", "125117.072500", "125117.532500", "125117.992500", "125118.452500", "125118.912500", "125119.372500", "125119.832500", "125120.292500", "125120.752500", "125121.212500", "125121.672500", "125122.132500", "125122.592500", "125123.052500", "125123.512500", "125123.972500", "125124.432500", "125124.892500", "125125.352500", "125125.812500", "125126.272500", "125126.732500", "125127.192500", "125127.652500", "125128.112500", "125128.572500", "125129.032500", "125129.492500", "125129.952500", "125130.412500", "125130.872500", "125131.332500", "125131.792500", "125132.252500", "125132.712500", "125133.172500", "125133.632500", "125134.092500", "125134.552500", "125135.012500", "125135.472500"],
