{
  "AcquisitionMatrixPE": 82,
  "AcquisitionNumber": 1,
  "AcquisitionTime": "13:44:43.545000",
  "BandwidthPerPixelPhaseEncode": 24.888,
  "BaseResolution": 82,
  "BodyPartExamined": "BRAIN",
  "ConsistencyInfo": "N4_VE11E_LATEST_20181129",
  "ConversionSoftware": "dcm2niix",
  "ConversionSoftwareVersion": "v1.0.20201102",
  "DerivedVendorReportedEchoSpacing": 0.00049,
  "DeviceSerialNumber": "66112",
  "DwellTime": 2e-06,
  "EchoTime": 0.0272,
  "EchoTrainLength": 82,
  "EffectiveEchoSpacing": 0.00049,
  "FlipAngle": 44,
  "ImageComments": "Unaliased MB8/PE3",
  "ImageOrientationPatientDICOM": [0.998979, 0.0363529, 0.0268139, -0.0385515, 0.995494, 0.0866394],
  "ImageType": [
    "ORIGINAL",
    "PRIMARY",
    "M",
    "MB",
    "ND",
    "NORM",
    "MOSAIC"
],
  "ImagingFrequency": 123.252,
  "InPlanePhaseEncodingDirectionDICOM": "COL",
  "InstitutionAddress": "Maynard 3,Hanover,NH,US,03755",
  "InstitutionName": "Dartmouth College - PBS",
  "InstitutionalDepartmentName": "Department",
  "MRAcquisitionType": "2D",
  "MagneticFieldStrength": 3,
  "Manufacturer": "Siemens",
  "ManufacturersModelName": "Prisma",
  "Modality": "MR",
  "MultibandAccelerationFactor": 8,
  "PartialFourier": 1,
  "PatientPosition": "HFS",
  "PercentPhaseFOV": 100,
  "PercentSampling": 100,
  "PhaseEncodingDirection": "j-",
  "PhaseEncodingSteps": 82,
  "PhaseResolution": 1,
  "PixelBandwidth": 3050,
  "ProcedureStepDescription": "Wager_Wager^1076_spacetop",
  "ProtocolName": "func_run-02_task-alignvideo_acq-ap-mb8",
  "PulseSequenceDetails": "%CustomerSeq%\\cmrr_mbep2d_bold",
  "ReceiveCoilActiveElements": "HEA;HEP",
  "ReceiveCoilName": "Head_32",
  "ReconMatrixPE": 82,
  "RepetitionTime": 0.46,
  "SAR": 0.101079,
  "ScanOptions": "FS",
  "ScanningSequence": "EP",
  "SequenceName": "epfid2d1_82",
  "SequenceVariant": "SK\\SS",
  "SeriesDescription": "func_run-02_task-alignvideo_acq-ap-mb8",
  "SeriesNumber": 34,
  "ShimSetting": [4158, -7752, -7274, 486, 20, -87, 32, 57],
  "SliceThickness": 2.7,
  "SliceTiming": [0, 0.25, 0.0625, 0.3125, 0.125, 0.3775, 0.1875, 0, 0.25, 0.0625, 0.3125, 0.125, 0.3775, 0.1875, 0, 0.25, 0.0625, 0.3125, 0.125, 0.3775, 0.1875, 0, 0.25, 0.0625, 0.3125, 0.125, 0.3775, 0.1875, 0, 0.25, 0.0625, 0.3125, 0.125, 0.3775, 0.1875, 0, 0.25, 0.0625, 0.3125, 0.125, 0.3775, 0.1875, 0, 0.25, 0.0625, 0.3125, 0.125, 0.3775, 0.1875, 0, 0.25, 0.0625, 0.3125, 0.125, 0.3775, 0.1875],
  "SoftwareVersions": "syngo MR E11",
  "SpacingBetweenSlices": 2.7,
  "StationName": "AWP66112",
  "TaskName": "alignvideo",
  "TotalReadoutTime": 0.03969,
  "TxRefAmp": 253.769,
  "WipMemBlock": "1291e01e-2005-4fb2-aa53-f5b297125298||Sequence: R016 ve11e/master r/434b28f1; Aug  7 2019 18:53:46 by eja",
  "dcmmeta_affine": [
    [-2.6801881790161133, -0.10343097895383835, 0.06356741487979889, 114.43152618408203],
    [-0.09753210842609406, 2.6708364486694336, 0.23647858202457428, -95.29612731933594],
    [0.07193976640701294, -0.23244713246822357, 2.688872814178467, -61.38540267944336],
    [0.0, 0.0, 0.0, 1.0]
],
  "dcmmeta_reorient_transform": [
    [0.0, -1.0, 0.0, 81.0],
    [1.0, 0.0, 0.0, 0.0],
    [0.0, 0.0, 1.0, 0.0],
    [0.0, 0.0, 0.0, 1.0]
],
  "dcmmeta_shape": [82, 82, 56, 926],
  "dcmmeta_slice_dim": 2,
  "dcmmeta_version": 0.6,
  "global": {
    "const": {
      "AccessionNumber": "A004113",
      "AcquisitionMatrix": [82, 0, 0, 82],
      "AngioFlag": "N",
      "BitsAllocated": 16,
      "BitsStored": 16,
      "BodyPartExamined": "BRAIN",
      "Columns": 656,
      "EchoNumbers": 1,
      "EchoTime": 27.2,
      "EchoTrainLength": 82,
      "FlipAngle": 44.0,
      "HighBit": 15,
      "ImageOrientationPatient": [0.99897922026754, 0.03635287552779, 0.02681391270456, -0.0385515463616, 0.99549354376212, 0.08663938250629],
      "ImagePositionPatient": [-845.58294400981, -915.56338666874, -167.57265918494],
      "ImageType": [
        "ORIGINAL",
        "PRIMARY",
        "M",
        "MB",
        "ND",
        "NORM",
        "MOSAIC"
],
      "ImagedNucleus": "1H",
      "ImagingFrequency": 123.25219,
      "InPlanePhaseEncodingDirection": "COL",
      "MRAcquisitionType": "2D",
      "MagneticFieldStrength": 3.0,
      "Manufacturer": "SIEMENS",
      "ManufacturerModelName": "Prisma",
      "Modality": "MR",
      "NumberOfAverages": 1.0,
      "NumberOfPhaseEncodingSteps": 82,
      "PercentPhaseFieldOfView": 100.0,
      "PercentSampling": 100.0,
      "PerformedProcedureStepStartTime": "115558.229000",
      "PhotometricInterpretation": "MONOCHROME2",
      "PixelBandwidth": 3050.0,
      "PixelRepresentation": 0,
      "PixelSpacing": [2.6829268932343, 2.6829268932343],
      "ProtocolName": "func_run-02_task-alignvideo_acq-ap-mb8",
      "RepetitionTime": 460.0,
      "Rows": 656,
      "SAR": 0.10107938261549,
      "SamplesPerPixel": 1,
      "ScanOptions": "FS",
      "ScanningSequence": "EP",
      "SequenceName": "epfid2d1_82",
      "SequenceVariant": [
        "SK",
        "SS"
],
      "SeriesDescription": "func_run-02_task-alignvideo_acq-ap-mb8",
      "SeriesNumber": 34,
      "SeriesTime": "134507.643000",
      "SliceLocation": -66.784783800962,
      "SliceThickness": 2.7000000476837,
      "SmallestImagePixelValue": 0,
      "SoftwareVersions": "syngo MR E11",
      "SpacingBetweenSlices": 2.7000000502133,
      "SpecificCharacterSet": "ISO_IR 100",
      "StudyID": "1",
      "StudyTime": "115558.120000",
      "TransmitCoilName": "Body",
      "VariableFlipAngleFlag": "N",
      "WindowCenterWidthExplanation": "Algo1"
    },
    "slices": {}
  },
  "time": {
    "samples": {
      "AcquisitionNumber": [1, 2, 3, 4, 5, 6, 7, 8, 9, 10, 11, 12, 13, 14, 15, 16, 17, 18, 19, 20, 21, 22, 23, 24, 25, 26, 27, 28, 29, 30, 31, 32, 33, 34, 35, 36, 37, 38, 39, 40, 41, 42, 43, 44, 45, 46, 47, 48, 49, 50, 51, 52, 53, 54, 55, 56, 57, 58, 59, 60, 61, 62, 63, 64, 65, 66, 67, 68, 69, 70, 71, 72, 73, 74, 75, 76, 77, 78, 79, 80, 81, 82, 83, 84, 85, 86, 87, 88, 89, 90, 91, 92, 93, 94, 95, 96, 97, 98, 99, 100, 101, 102, 103, 104, 105, 106, 107, 108, 109, 110, 111, 112, 113, 114, 115, 116, 117, 118, 119, 120, 121, 122, 123, 124, 125, 126, 127, 128, 129, 130, 131, 132, 133, 134, 135, 136, 137, 138, 139, 140, 141, 142, 143, 144, 145, 146, 147, 148, 149, 150, 151, 152, 153, 154, 155, 156, 157, 158, 159, 160, 161, 162, 163, 164, 165, 166, 167, 168, 169, 170, 171, 172, 173, 174, 175, 176, 177, 178, 179, 180, 181, 182, 183, 184, 185, 186, 187, 188, 189, 190, 191, 192, 193, 194, 195, 196, 197, 198, 199, 200, 201, 202, 203, 204, 205, 206, 207, 208, 209, 210, 211, 212, 213, 214, 215, 216, 217, 218, 219, 220, 221, 222, 223, 224, 225, 226, 227, 228, 229, 230, 231, 232, 233, 234, 235, 236, 237, 238, 239, 240, 241, 242, 243, 244, 245, 246, 247, 248, 249, 250, 251, 252, 253, 254, 255, 256, 257, 258, 259, 260, 261, 262, 263, 264, 265, 266, 267, 268, 269, 270, 271, 272, 273, 274, 275, 276, 277, 278, 279, 280, 281, 282, 283, 284, 285, 286, 287, 288, 289, 290, 291, 292, 293, 294, 295, 296, 297, 298, 299, 300, 301, 302, 303, 304, 305, 306, 307, 308, 309, 310, 311, 312, 313, 314, 315, 316, 317, 318, 319, 320, 321, 322, 323, 324, 325, 326, 327, 328, 329, 330, 331, 332, 333, 334, 335, 336, 337, 338, 339, 340, 341, 342, 343, 344, 345, 346, 347, 348, 349, 350, 351, 352, 353, 354, 355, 356, 357, 358, 359, 360, 361, 362, 363, 364, 365, 366, 367, 368, 369, 370, 371, 372, 373, 374, 375, 376, 377, 378, 379, 380, 381, 382, 383, 384, 385, 386, 387, 388, 389, 390, 391, 392, 393, 394, 395, 396, 397, 398, 399, 400, 401, 402, 403, 404, 405, 406, 407, 408, 409, 410, 411, 412, 413, 414, 415, 416, 417, 418, 419, 420, 421, 422, 423, 424, 425, 426, 427, 428, 429, 430, 431, 432, 433, 434, 435, 436, 437, 438, 439, 440, 441, 442, 443, 444, 445, 446, 447, 448, 449, 450, 451, 452, 453, 454, 455, 456, 457, 458, 459, 460, 461, 462, 463, 464, 465, 466, 467, 468, 469, 470, 471, 472, 473, 474, 475, 476, 477, 478, 479, 480, 481, 482, 483, 484, 485, 486, 487, 488, 489, 490, 491, 492, 493, 494, 495, 496, 497, 498, 499, 500, 501, 502, 503, 504, 505, 506, 507, 508, 509, 510, 511, 512, 513, 514, 515, 516, 517, 518, 519, 520, 521, 522, 523, 524, 525, 526, 527, 528, 529, 530, 531, 532, 533, 534, 535, 536, 537, 538, 539, 540, 541, 542, 543, 544, 545, 546, 547, 548, 549, 550, 551, 552, 553, 554, 555, 556, 557, 558, 559, 560, 561, 562, 563, 564, 565, 566, 567, 568, 569, 570, 571, 572, 573, 574, 575, 576, 577, 578, 579, 580, 581, 582, 583, 584, 585, 586, 587, 588, 589, 590, 591, 592, 593, 594, 595, 596, 597, 598, 599, 600, 601, 602, 603, 604, 605, 606, 607, 608, 609, 610, 611, 612, 613, 614, 615, 616, 617, 618, 619, 620, 621, 622, 623, 624, 625, 626, 627, 628, 629, 630, 631, 632, 633, 634, 635, 636, 637, 638, 639, 640, 641, 642, 643, 644, 645, 646, 647, 648, 649, 650, 651, 652, 653, 654, 655, 656, 657, 658, 659, 660, 661, 662, 663, 664, 665, 666, 667, 668, 669, 670, 671, 672, 673, 674, 675, 676, 677, 678, 679, 680, 681, 682, 683, 684, 685, 686, 687, 688, 689, 690, 691, 692, 693, 694, 695, 696, 697, 698, 699, 700, 701, 702, 703, 704, 705, 706, 707, 708, 709, 710, 711, 712, 713, 714, 715, 716, 717, 718, 719, 720, 721, 722, 723, 724, 725, 726, 727, 728, 729, 730, 731, 732, 733, 734, 735, 736, 737, 738, 739, 740, 741, 742, 743, 744, 745, 746, 747, 748, 749, 750, 751, 752, 753, 754, 755, 756, 757, 758, 759, 760, 761, 762, 763, 764, 765, 766, 767, 768, 769, 770, 771, 772, 773, 774, 775, 776, 777, 778, 779, 780, 781, 782, 783, 784, 785, 786, 787, 788, 789, 790, 791, 792, 793, 794, 795, 796, 797, 798, 799, 800, 801, 802, 803, 804, 805, 806, 807, 808, 809, 810, 811, 812, 813, 814, 815, 816, 817, 818, 819, 820, 821, 822, 823, 824, 825, 826, 827, 828, 829, 830, 831, 832, 833, 834, 835, 836, 837, 838, 839, 840, 841, 842, 843, 844, 845, 846, 847, 848, 849, 850, 851, 852, 853, 854, 855, 856, 857, 858, 859, 860, 861, 862, 863, 864, 865, 866, 867, 868, 869, 870, 871, 872, 873, 874, 875, 876, 877, 878, 879, 880, 881, 882, 883, 884, 885, 886, 887, 888, 889, 890, 891, 892, 893, 894, 895, 896, 897, 898, 899, 900, 901, 902, 903, 904, 905, 906, 907, 908, 909, 910, 911, 912, 913, 914, 915, 916, 917, 918, 919, 920, 921, 922, 923, 924, 925, 926],
      "AcquisitionTime": ["134443.545000", "134444.005000", "134444.465000", "134444.925000", "134445.385000", "134445.845000", "134446.305000", "134446.765000", "134447.225000", "134447.685000", "134448.145000", "134448.605000", "134449.065000", "134449.525000", "134449.985000", "134450.445000", "134450.905000", "134451.365000", "134451.825000", "134452.285000", "134452.745000", "134453.205000", "134453.665000", "134454.125000", "134454.585000", "134455.045000", "134455.505000", "134455.965000", "134456.425000", "134456.885000", "134457.345000", "134457.805000", "134458.265000", "134458.725000", "134459.185000", "134459.645000", "134500.105000", "134500.565000", "134501.025000", "134501.485000", "134501.945000", "134502.405000", "134502.865000", "134503.325000", "134503.785000", "134504.245000", "134504.705000", "134505.165000", "134505.625000", "134506.085000", "134506.545000", "134507.005000", "134507.465000", "134507.925000", "134508.385000", "134508.845000", "134509.305000", "134509.765000", "134510.225000", "134510.685000", "134511.145000", "134511.605000", "134512.065000", "134512.525000", "134512.985000", "134513.445000", "134513.905000", "134514.365000", "134514.825000", "134515.285000", "134515.745000", "134516.205000", "134516.665000", "134517.125000", "134517.585000", "134518.045000", "134518.505000", "134518.965000", "134519.425000", "134519.885000", "134520.345000", "134520.805000", "134521.265000", "134521.725000", "134522.185000", "134522.645000", "134523.105000", "134523.565000", "134524.025000", "134524.485000", "134524.945000", "134525.405000", "134525.865000", "134526.325000", "134526.785000", "134527.245000", "134527.705000", "134528.165000", "134528.625000", "134529.085000", "134529.545000", "134530.005000", "134530.465000", "134530.925000", "134531.385000", "134531.845000", "134532.305000", "134532.765000", "134533.225000", "134533.685000", "134534.145000", "134534.605000", "134535.065000", "134535.525000", "134535.985000", "134536.445000", "134536.905000", "134537.365000", "134537.825000", "134538.285000", "134538.745000", "134539.205000", "134539.665000", "134540.125000", "134540.585000", "134541.045000", "134541.505000", "134541.965000", "134542.425000", "134542.885000", "134543.345000", "134543.805000", "134544.265000", "134544.725000", "134545.185000", "134545.645000", "134546.105000", "134546.565000", "134547.025000", "134547.485000", "134547.945000", "134548.405000", "134548.865000", "134549.325000", "134549.785000", "134550.245000", "134550.705000", "134551.165000", "134551.625000", "134552.085000", "134552.545000", "134553.005000", "134553.465000", "134553.925000", "134554.385000", "134554.845000", "134555.305000", "134555.765000", "134556.225000", "134556.685000", "134557.145000", "134557.605000", "134558.065000", "134558.525000", "134558.985000", "134559.445000", "134559.905000", "134600.365000", "134600.825000", "134601.285000", "134601.745000", "134602.205000", "134602.665000", "134603.125000", "134603.585000", "134604.045000", "134604.505000", "134604.965000", "134605.425000", "134605.885000", "134606.345000", "134606.805000", "134607.265000", "134607.725000", "134608.185000", "134608.645000", "134609.105000", "134609.565000", "134610.025000", "134610.485000", "134610.945000", "134611.405000", "134611.865000", "134612.325000", "134612.785000", "134613.245000", "134613.705000", "134614.165000", "134614.625000", "134615.085000", "134615.545000", "134616.005000", "134616.465000", "134616.925000", "134617.385000", "134617.845000", "134618.305000", "134618.765000", "134619.225000", "134619.685000", "134620.145000", "134620.605000", "134621.065000", "134621.525000", "134621.985000", "134622.445000", "134622.905000", "134623.365000", "134623.825000", "134624.285000", "134624.745000", "134625.205000", "134625.665000", "134626.125000", "134626.585000", "134627.045000", "134627.505000", "134627.965000", "134628.425000", "134628.885000", "134629.345000", "134629.805000", "134630.265000", "134630.725000", "134631.185000", "134631.645000", "134632.105000", "134632.565000", "134633.025000", "134633.485000", "134633.945000", "134634.405000", "134634.865000", "134635.325000", "134635.785000", "134636.245000", "134636.705000", "134637.165000", "134637.625000", "134638.085000", "134638.545000", "134639.005000", "134639.465000", "134639.925000", "134640.385000", "134640.845000", "134641.305000", "134641.765000", "134642.225000", "134642.685000", "134643.145000", "134643.605000", "134644.065000", "134644.525000", "134644.985000", "134645.445000", "134645.905000", "134646.365000", "134646.825000", "134647.285000", "134647.745000", "134648.205000", "134648.665000", "134649.125000", "134649.585000", "134650.045000", "134650.505000", "134650.965000", "134651.425000", "134651.885000", "134652.345000", "134652.805000", "134653.265000", "134653.725000", "134654.185000", "134654.645000", "134655.105000", "134655.565000", "134656.025000", "134656.485000", "134656.945000", "134657.405000", "134657.865000", "134658.325000", "134658.785000", "134659.245000", "134659.705000", "134700.165000", "134700.625000", "134701.085000", "134701.545000", "134702.005000", "134702.465000", "134702.925000", "134703.385000", "134703.845000", "134704.305000", "134704.765000", "134705.225000", "134705.685000", "134706.145000", "134706.605000", "134707.065000", "134707.525000", "134707.985000", "134708.445000", "134708.905000", "134709.365000", "134709.825000", "134710.285000", "134710.745000", "134711.205000", "134711.665000", "134712.125000", "134712.585000", "134713.045000", "134713.505000", "134713.965000", "134714.425000", "134714.885000", "134715.345000", "134715.805000", "134716.265000", "134716.725000", "134717.185000", "134717.645000", "134718.105000", "134718.565000", "134719.025000", "134719.485000", "134719.945000", "134720.405000", "134720.865000", "134721.325000", "134721.785000", "134722.245000", "134722.705000", "134723.165000", "134723.625000", "134724.085000", "134724.545000", "134725.005000", "134725.465000", "134725.925000", "134726.385000", "134726.845000", "134727.305000", "134727.765000", "134728.225000", "134728.685000", "134729.145000", "134729.605000", "134730.065000", "134730.525000", "134730.985000", "134731.445000", "134731.905000", "134732.365000", "134732.825000", "134733.285000", "134733.745000", "134734.205000", "134734.665000", "134735.125000", "134735.585000", "134736.045000", "134736.505000", "134736.965000", "134737.425000", "134737.885000", "134738.345000", "134738.805000", "134739.265000", "134739.725000", "134740.185000", "134740.645000", "134741.105000", "134741.565000", "134742.025000", "134742.485000", "134742.945000", "134743.405000", "134743.865000", "134744.325000", "134744.785000", "134745.245000", "134745.705000", "134746.165000", "134746.625000", "134747.085000", "134747.545000", "134748.005000", "134748.465000", "134748.925000", "134749.385000", "134749.845000", "134750.305000", "134750.765000", "134751.225000", "134751.685000", "134752.145000", "134752.605000", "134753.065000", "134753.525000", "134753.985000", "134754.445000", "134754.905000", "134755.365000", "134755.825000", "134756.285000", "134756.745000", "134757.205000", "134757.665000", "134758.125000", "134758.585000", "134759.045000", "134759.505000", "134759.965000", "134800.425000", "134800.885000", "134801.345000", "134801.805000", "134802.265000", "134802.725000", "134803.185000", "134803.645000", "134804.105000", "134804.565000", "134805.025000", "134805.485000", "134805.945000", "134806.405000", "134806.865000", "134807.325000", "134807.785000", "134808.245000", "134808.705000", "134809.165000", "134809.625000", "134810.085000", "134810.545000", "134811.005000", "134811.465000", "134811.925000", "134812.385000", "134812.845000", "134813.305000", "134813.765000", "134814.225000", "134814.685000", "134815.145000", "134815.605000", "134816.065000", "134816.525000", "134816.985000", "134817.445000", "134817.905000", "134818.365000", "134818.825000", "134819.285000", "134819.745000", "134820.205000", "134820.665000", "134821.125000", "134821.585000", "134822.045000", "134822.505000", "134822.965000", "134823.425000", "134823.885000", "134824.345000", "134824.805000", "134825.265000", "134825.725000", "134826.185000", "134826.645000", "134827.105000", "134827.565000", "134828.025000", "134828.485000", "134828.945000", "134829.405000", "134829.865000", "134830.325000", "134830.785000", "134831.245000", "134831.705000", "134832.165000", "134832.625000", "134833.085000", "134833.545000", "134834.005000", "134834.465000", "134834.925000", "134835.385000", "134835.845000", "134836.305000", "134836.765000", "134837.225000", "134837.685000", "134838.145000", "134838.605000", "134839.065000", "134839.525000", "134839.985000", "134840.445000", "134840.905000", "134841.365000", "134841.825000", "134842.285000", "134842.745000", "134843.205000", "134843.665000", "134844.125000", "134844.585000", "134845.045000", "134845.505000", "134845.965000", "134846.425000", "134846.885000", "134847.345000", "134847.805000", "134848.265000", "134848.725000", "134849.185000", "134849.645000", "134850.105000", "134850.565000", "134851.025000", "134851.485000", "134851.945000", "134852.405000", "134852.865000", "134853.325000", "134853.785000", "134854.245000", "134854.705000", "134855.165000", "134855.625000", "134856.085000", "134856.545000", "134857.005000", "134857.465000", "134857.925000", "134858.385000", "134858.845000", "134859.305000", "134859.765000", "134900.225000", "134900.685000", "134901.145000", "134901.605000", "134902.065000", "134902.525000", "134902.985000", "134903.445000", "134903.905000", "134904.365000", "134904.825000", "134905.285000", "134905.745000", "134906.205000", "134906.665000", "134907.125000", "134907.585000", "134908.045000", "134908.505000", "134908.965000", "134909.425000", "134909.885000", "134910.345000", "134910.805000", "134911.265000", "134911.725000", "134912.185000", "134912.645000", "134913.105000", "134913.565000", "134914.025000", "134914.485000", "134914.945000", "134915.405000", "134915.865000", "134916.325000", "134916.785000", "134917.245000", "134917.705000", "134918.165000", "134918.625000", "134919.085000", "134919.545000", "134920.005000", "134920.465000", "134920.925000", "134921.385000", "134921.845000", "134922.305000", "134922.765000", "134923.225000", "134923.685000", "134924.145000", "134924.605000", "134925.065000", "134925.525000", "134925.985000", "134926.445000", "134926.905000", "134927.365000", "134927.825000", "134928.285000", "134928.745000", "134929.205000", "134929.665000", "134930.125000", "134930.585000", "134931.045000", "134931.505000", "134931.965000", "134932.425000", "134932.885000", "134933.345000", "134933.805000", "134934.265000", "134934.725000", "134935.185000", "134935.645000", "134936.105000", "134936.565000", "134937.025000", "134937.485000", "134937.945000", "134938.405000", "134938.865000", "134939.325000", "134939.785000", "134940.245000", "134940.705000", "134941.165000", "134941.625000", "134942.085000", "134942.545000", "134943.005000", "134943.465000", "134943.925000", "134944.385000", "134944.845000", "134945.305000", "134945.765000", "134946.225000", "134946.685000", "134947.145000", "134947.605000", "134948.065000", "134948.525000", "134948.985000", "134949.445000", "134949.905000", "134950.365000", "134950.825000", "134951.285000", "134951.745000", "134952.205000", "134952.665000", "134953.125000", "134953.585000", "134954.045000", "134954.505000", "134954.965000", "134955.425000", "134955.885000", "134956.345000", "134956.805000", "134957.265000", "134957.725000", "134958.185000", "134958.645000", "134959.105000", "134959.565000", "135000.025000", "135000.485000", "135000.945000", "135001.405000", "135001.865000", "135002.325000", "135002.785000", "135003.245000", "135003.705000", "135004.165000", "135004.625000", "135005.085000", "135005.545000", "135006.005000", "135006.465000", "135006.925000", "135007.385000", "135007.845000", "135008.305000", "135008.765000", "135009.225000", "135009.685000", "135010.145000", "135010.605000", "135011.065000", "135011.525000", "135011.985000", "135012.445000", "135012.905000", "135013.365000", "135013.825000", "135014.285000", "135014.745000", "135015.205000", "135015.665000", "135016.125000", "135016.585000", "135017.045000", "135017.505000", "135017.965000", "135018.425000", "135018.885000", "135019.345000", "135019.805000", "135020.265000", "135020.725000", "135021.185000", "135021.645000", "135022.105000", "135022.565000", "135023.025000", "135023.485000", "135023.945000", "135024.405000", "135024.865000", "135025.325000", "135025.785000", "135026.245000", "135026.705000", "135027.165000", "135027.625000", "135028.085000", "135028.545000", "135029.005000", "135029.465000", "135029.925000", "135030.385000", "135030.845000", "135031.305000", "135031.765000", "135032.225000", "135032.685000", "135033.145000", "135033.605000", "135034.065000", "135034.525000", "135034.985000", "135035.445000", "135035.905000", "135036.365000", "135036.825000", "135037.285000", "135037.745000", "135038.205000", "135038.665000", "135039.125000", "135039.585000", "135040.045000", "135040.505000", "135040.965000", "135041.425000", "135041.885000", "135042.345000", "135042.805000", "135043.265000", "135043.725000", "135044.185000", "135044.645000", "135045.105000", "135045.565000", "135046.025000", "135046.485000", "135046.945000", "135047.405000", "135047.865000", "135048.325000", "135048.785000", "135049.245000", "135049.705000", "135050.165000", "135050.625000", "135051.085000", "135051.545000", "135052.005000", "135052.465000", "135052.925000", "135053.385000", "135053.845000", "135054.305000", "135054.765000", "135055.225000", "135055.685000", "135056.145000", "135056.605000", "135057.065000", "135057.525000", "135057.985000", "135058.445000", "135058.905000", "135059.365000", "135059.825000", "135100.285000", "135100.745000", "135101.205000", "135101.665000", "135102.125000", "135102.585000", "135103.045000", "135103.505000", "135103.965000", "135104.425000", "135104.885000", "135105.345000", "135105.805000", "135106.265000", "135106.725000", "135107.185000", "135107.645000", "135108.105000", "135108.565000", "135109.025000", "135109.485000", "135109.945000", "135110.405000", "135110.865000", "135111.325000", "135111.785000", "135112.245000", "135112.705000", "135113.165000", "135113.625000", "135114.085000", "135114.545000", "135115.005000", "135115.465000", "135115.925000", "135116.385000", "135116.845000", "135117.305000", "135117.765000", "135118.225000", "135118.685000", "135119.145000", "135119.605000", "135120.065000", "135120.525000", "135120.985000", "135121.445000", "135121.905000", "135122.365000", "135122.825000", "135123.285000", "135123.745000", "135124.205000", "135124.665000", "135125.125000", "135125.585000", "135126.045000", "135126.505000", "135126.965000", "135127.425000", "135127.885000", "135128.345000", "135128.805000", "135129.265000", "135129.725000", "135130.185000", "135130.645000", "135131.105000", "135131.565000", "135132.025000", "135132.485000", "135132.945000", "135133.405000", "135133.865000", "135134.325000", "135134.785000", "135135.245000", "135135.705000", "135136.165000", "135136.625000", "135137.085000", "135137.545000", "135138.005000", "135138.465000", "135138.925000", "135139.385000", "135139.845000", "135140.305000", "135140.765000", "135141.225000", "135141.685000", "135142.145000", "135142.605000", "135143.065000", "135143.525000", "135143.985000", "135144.445000", "135144.905000", "135145.365000", "135145.825000", "135146.285000", "135146.745000", "135147.205000", "135147.665000", "135148.125000", "135148.585000", "135149.045000"],
