{
  "AcquisitionMatrixPE": 82,
  "AcquisitionNumber": 1,
  "AcquisitionTime": "16:20:43.795000",
  "BandwidthPerPixelPhaseEncode": 24.888,
  "BaseResolution": 82,
  "BodyPartExamined": "BRAIN",
  "ConsistencyInfo": "N4_VE11C_LATEST_20160120",
  "ConversionSoftware": "dcm2niix",
  "ConversionSoftwareVersion": "v1.0.20201102",
  "DerivedVendorReportedEchoSpacing": 0.00049,
  "DeviceSerialNumber": "66112",
  "DwellTime": 2e-06,
  "EchoTime": 0.0272,
  "EchoTrainLength": 82,
  "EffectiveEchoSpacing": 0.00049,
  "FlipAngle": 44,
  "ImageComments": "Unaliased MB8/PE3",
  "ImageOrientationPatientDICOM": [0.995038, 0.0980108, 0.0171137, -0.0994935, 0.979852, 0.173182],
  "ImageType": [
    "ORIGINAL",
    "PRIMARY",
    "M",
    "MB",
    "ND",
    "NORM",
    "MOSAIC"
],
  "ImagingFrequency": 123.252,
  "InPlanePhaseEncodingDirectionDICOM": "COL",
  "InstitutionAddress": "Maynard 3,Hanover,NH,US,03755",
  "InstitutionName": "Dartmouth College - PBS",
  "InstitutionalDepartmentName": "Department",
  "MRAcquisitionType": "2D",
  "MagneticFieldStrength": 3,
  "Manufacturer": "Siemens",
  "ManufacturersModelName": "Prisma",
  "Modality": "MR",
  "MultibandAccelerationFactor": 8,
  "PartialFourier": 1,
  "PatientPosition": "HFS",
  "PercentPhaseFOV": 100,
  "PercentSampling": 100,
  "PhaseEncodingDirection": "j-",
  "PhaseEncodingSteps": 82,
  "PhaseResolution": 1,
  "PixelBandwidth": 3050,
  "ProcedureStepDescription": "Wager_Wager^1076_spacetop",
  "ProtocolName": "func_run-05_task-social_acq-ap-mb8",
  "PulseSequenceDetails": "%CustomerSeq%\\cmrr_mbep2d_bold",
  "ReceiveCoilActiveElements": "HEA;HEP",
  "ReceiveCoilName": "Head_32",
  "ReconMatrixPE": 82,
  "RepetitionTime": 0.46,
  "SAR": 0.0834549,
  "ScanOptions": "FS",
  "ScanningSequence": "EP",
  "SequenceName": "epfid2d1_82",
  "SequenceVariant": "SK\\SS",
  "SeriesDescription": "func_run-05_task-social_acq-ap-mb8",
  "SeriesNumber": 20,
  "ShimSetting": [4155, -7777, -7250, 557, 55, -228, 94, -3],
  "SliceThickness": 2.7,
  "SliceTiming": [0, 0.2525, 0.065, 0.315, 0.1275, 0.3775, 0.19, 0, 0.2525, 0.065, 0.315, 0.1275, 0.3775, 0.19, 0, 0.2525, 0.065, 0.315, 0.1275, 0.3775, 0.19, 0, 0.2525, 0.065, 0.315, 0.1275, 0.3775, 0.19, 0, 0.2525, 0.065, 0.315, 0.1275, 0.3775, 0.19, 0, 0.2525, 0.065, 0.315, 0.1275, 0.3775, 0.19, 0, 0.2525, 0.065, 0.315, 0.1275, 0.3775, 0.19, 0, 0.2525, 0.065, 0.315, 0.1275, 0.3775, 0.19],
  "SoftwareVersions": "syngo MR E11",
  "SpacingBetweenSlices": 2.7,
  "StationName": "AWP66112",
  "TaskName": "social",
  "TotalReadoutTime": 0.03969,
  "TxRefAmp": 237.359,
  "WipMemBlock": "7bb36d9d-ab2c-4f98-aec9-789e62724d7a||Sequence: R016 ve11c/master r/e634e98; Dec 19 2017 11:00:25 by eja",
  "dcmmeta_affine": [
    [-2.669614791870117, -0.2669336497783661, -0.0005529859336093068, 133.8319091796875],
    [-0.2629557251930237, 2.6288700103759766, 0.46986839175224304, -102.70856475830078],
    [0.045914798974990845, -0.46463441848754883, 2.6588010787963867, -48.75532150268555],
    [0.0, 0.0, 0.0, 1.0]
],
  "dcmmeta_reorient_transform": [
    [0.0, -1.0, 0.0, 81.0],
    [1.0, 0.0, 0.0, 0.0],
    [0.0, 0.0, 1.0, 0.0],
    [0.0, 0.0, 0.0, 1.0]
],
  "dcmmeta_shape": [82, 82, 56, 872],
  "dcmmeta_slice_dim": 2,
  "dcmmeta_version": 0.6,
  "global": {
    "const": {
      "AccessionNumber": "A003641",
      "AcquisitionMatrix": [82, 0, 0, 82],
      "AngioFlag": "N",
      "BitsAllocated": 16,
      "BitsStored": 16,
      "BodyPartExamined": "BRAIN",
      "Columns": 656,
      "EchoNumbers": 1,
      "EchoTime": 27.2,
      "EchoTrainLength": 82,
      "FlipAngle": 44.0,
      "HighBit": 15,
      "ImageOrientationPatient": [0.99503819594507, 0.09801076461653, 0.01711369713609, -0.0994934503543, 0.97985155809624, 0.17318192005219],
      "ImagePositionPatient": [-801.77974948523, -940.18392092298, -232.91833803622],
      "ImageType": [
        "ORIGINAL",
        "PRIMARY",
        "M",
        "MB",
        "ND",
        "NORM",
        "MOSAIC"
],
      "ImagedNucleus": "1H",
      "ImagingFrequency": 123.252183,
      "InPlanePhaseEncodingDirection": "COL",
      "MRAcquisitionType": "2D",
      "MagneticFieldStrength": 3.0,
      "Manufacturer": "SIEMENS",
      "ManufacturerModelName": "Prisma",
      "Modality": "MR",
      "NumberOfAverages": 1.0,
      "NumberOfPhaseEncodingSteps": 82,
      "PercentPhaseFieldOfView": 100.0,
      "PercentSampling": 100.0,
      "PerformedProcedureStepStartTime": "151839.846000",
      "PhotometricInterpretation": "MONOCHROME2",
      "PixelBandwidth": 3050.0,
      "PixelRepresentation": 0,
      "PixelSpacing": [2.6829268932343, 2.6829268932343],
      "ProtocolName": "func_run-05_task-social_acq-ap-mb8",
      "RepetitionTime": 460.0,
      "Rows": 656,
      "SAR": 0.08345490942035,
      "SamplesPerPixel": 1,
      "ScanOptions": "FS",
      "ScanningSequence": "EP",
      "SequenceName": "epfid2d1_82",
      "SequenceVariant": [
        "SK",
        "SS"
],
      "SeriesDescription": "func_run-05_task-social_acq-ap-mb8",
      "SeriesNumber": 20,
      "SeriesTime": "162104.018000",
      "SliceLocation": -65.912672185183,
      "SliceThickness": 2.7000000476837,
      "SmallestImagePixelValue": 0,
      "SoftwareVersions": "syngo MR E11",
      "SpacingBetweenSlices": 2.7000000073373,
      "SpecificCharacterSet": "ISO_IR 100",
      "StudyID": "2",
      "StudyTime": "151839.798000",
      "TransmitCoilName": "Body",
      "VariableFlipAngleFlag": "N",
      "WindowCenterWidthExplanation": "Algo1",
      "dBdt": 0.0},
    "slices": {}
  },
  "time": {
    "samples": {
      "AcquisitionNumber": [1, 2, 3, 4, 5, 6, 7, 8, 9, 10, 11, 12, 13, 14, 15, 16, 17, 18, 19, 20, 21, 22, 23, 24, 25, 26, 27, 28, 29, 30, 31, 32, 33, 34, 35, 36, 37, 38, 39, 40, 41, 42, 43, 44, 45, 46, 47, 48, 49, 50, 51, 52, 53, 54, 55, 56, 57, 58, 59, 60, 61, 62, 63, 64, 65, 66, 67, 68, 69, 70, 71, 72, 73, 74, 75, 76, 77, 78, 79, 80, 81, 82, 83, 84, 85, 86, 87, 88, 89, 90, 91, 92, 93, 94, 95, 96, 97, 98, 99, 100, 101, 102, 103, 104, 105, 106, 107, 108, 109, 110, 111, 112, 113, 114, 115, 116, 117, 118, 119, 120, 121, 122, 123, 124, 125, 126, 127, 128, 129, 130, 131, 132, 133, 134, 135, 136, 137, 138, 139, 140, 141, 142, 143, 144, 145, 146, 147, 148, 149, 150, 151, 152, 153, 154, 155, 156, 157, 158, 159, 160, 161, 162, 163, 164, 165, 166, 167, 168, 169, 170, 171, 172, 173, 174, 175, 176, 177, 178, 179, 180, 181, 182, 183, 184, 185, 186, 187, 188, 189, 190, 191, 192, 193, 194, 195, 196, 197, 198, 199, 200, 201, 202, 203, 204, 205, 206, 207, 208, 209, 210, 211, 212, 213, 214, 215, 216, 217, 218, 219, 220, 221, 222, 223, 224, 225, 226, 227, 228, 229, 230, 231, 232, 233, 234, 235, 236, 237, 238, 239, 240, 241, 242, 243, 244, 245, 246, 247, 248, 249, 250, 251, 252, 253, 254, 255, 256, 257, 258, 259, 260, 261, 262, 263, 264, 265, 266, 267, 268, 269, 270, 271, 272, 273, 274, 275, 276, 277, 278, 279, 280, 281, 282, 283, 284, 285, 286, 287, 288, 289, 290, 291, 292, 293, 294, 295, 296, 297, 298, 299, 300, 301, 302, 303, 304, 305, 306, 307, 308, 309, 310, 311, 312, 313, 314, 315, 316, 317, 318, 319, 320, 321, 322, 323, 324, 325, 326, 327, 328, 329, 330, 331, 332, 333, 334, 335, 336, 337, 338, 339, 340, 341, 342, 343, 344, 345, 346, 347, 348, 349, 350, 351, 352, 353, 354, 355, 356, 357, 358, 359, 360, 361, 362, 363, 364, 365, 366, 367, 368, 369, 370, 371, 372, 373, 374, 375, 376, 377, 378, 379, 380, 381, 382, 383, 384, 385, 386, 387, 388, 389, 390, 391, 392, 393, 394, 395, 396, 397, 398, 399, 400, 401, 402, 403, 404, 405, 406, 407, 408, 409, 410, 411, 412, 413, 414, 415, 416, 417, 418, 419, 420, 421, 422, 423, 424, 425, 426, 427, 428, 429, 430, 431, 432, 433, 434, 435, 436, 437, 438, 439, 440, 441, 442, 443, 444, 445, 446, 447, 448, 449, 450, 451, 452, 453, 454, 455, 456, 457, 458, 459, 460, 461, 462, 463, 464, 465, 466, 467, 468, 469, 470, 471, 472, 473, 474, 475, 476, 477, 478, 479, 480, 481, 482, 483, 484, 485, 486, 487, 488, 489, 490, 491, 492, 493, 494, 495, 496, 497, 498, 499, 500, 501, 502, 503, 504, 505, 506, 507, 508, 509, 510, 511, 512, 513, 514, 515, 516, 517, 518, 519, 520, 521, 522, 523, 524, 525, 526, 527, 528, 529, 530, 531, 532, 533, 534, 535, 536, 537, 538, 539, 540, 541, 542, 543, 544, 545, 546, 547, 548, 549, 550, 551, 552, 553, 554, 555, 556, 557, 558, 559, 560, 561, 562, 563, 564, 565, 566, 567, 568, 569, 570, 571, 572, 573, 574, 575, 576, 577, 578, 579, 580, 581, 582, 583, 584, 585, 586, 587, 588, 589, 590, 591, 592, 593, 594, 595, 596, 597, 598, 599, 600, 601, 602, 603, 604, 605, 606, 607, 608, 609, 610, 611, 612, 613, 614, 615, 616, 617, 618, 619, 620, 621, 622, 623, 624, 625, 626, 627, 628, 629, 630, 631, 632, 633, 634, 635, 636, 637, 638, 639, 640, 641, 642, 643, 644, 645, 646, 647, 648, 649, 650, 651, 652, 653, 654, 655, 656, 657, 658, 659, 660, 661, 662, 663, 664, 665, 666, 667, 668, 669, 670, 671, 672, 673, 674, 675, 676, 677, 678, 679, 680, 681, 682, 683, 684, 685, 686, 687, 688, 689, 690, 691, 692, 693, 694, 695, 696, 697, 698, 699, 700, 701, 702, 703, 704, 705, 706, 707, 708, 709, 710, 711, 712, 713, 714, 715, 716, 717, 718, 719, 720, 721, 722, 723, 724, 725, 726, 727, 728, 729, 730, 731, 732, 733, 734, 735, 736, 737, 738, 739, 740, 741, 742, 743, 744, 745, 746, 747, 748, 749, 750, 751, 752, 753, 754, 755, 756, 757, 758, 759, 760, 761, 762, 763, 764, 765, 766, 767, 768, 769, 770, 771, 772, 773, 774, 775, 776, 777, 778, 779, 780, 781, 782, 783, 784, 785, 786, 787, 788, 789, 790, 791, 792, 793, 794, 795, 796, 797, 798, 799, 800, 801, 802, 803, 804, 805, 806, 807, 808, 809, 810, 811, 812, 813, 814, 815, 816, 817, 818, 819, 820, 821, 822, 823, 824, 825, 826, 827, 828, 829, 830, 831, 832, 833, 834, 835, 836, 837, 838, 839, 840, 841, 842, 843, 844, 845, 846, 847, 848, 849, 850, 851, 852, 853, 854, 855, 856, 857, 858, 859, 860, 861, 862, 863, 864, 865, 866, 867, 868, 869, 870, 871, 872],
      "AcquisitionTime": ["162043.795000", "162044.255000", "162044.715000", "162045.175000", "162045.635000", "162046.095000", "162046.555000", "162047.015000", "162047.475000", "162047.935000", "162048.395000", "162048.855000", "162049.315000", "162049.775000", "162050.235000", "162050.695000", "162051.155000", "162051.615000", "162052.075000", "162052.535000", "162052.995000", "162053.455000", "162053.915000", "162054.375000", "162054.835000", "162055.295000", "162055.755000", "162056.215000", "162056.675000", "162057.135000", "162057.595000", "162058.055000", "162058.515000", "162058.975000", "162059.435000", "162059.895000", "162100.355000", "162100.815000", "162101.275000", "162101.735000", "162102.195000", "162102.655000", "162103.115000", "162103.575000", "162104.035000", "162104.495000", "162104.955000", "162105.415000", "162105.875000", "162106.335000", "162106.795000", "162107.255000", "162107.715000", "162108.175000", "162108.635000", "162109.095000", "162109.555000", "162110.015000", "162110.475000", "162110.935000", "162111.395000", "162111.855000", "162112.315000", "162112.775000", "162113.235000", "162113.695000", "162114.155000", "162114.615000", "162115.075000", "162115.535000", "162115.995000", "162116.455000", "162116.915000", "162117.375000", "162117.835000", "162118.295000", "162118.755000", "162119.215000", "162119.675000", "162120.135000", "162120.595000", "162121.055000", "162121.515000", "162121.975000", "162122.435000", "162122.895000", "162123.355000", "162123.815000", "162124.275000", "162124.735000", "162125.195000", "162125.655000", "162126.115000", "162126.575000", "162127.035000", "162127.495000", "162127.955000", "162128.415000", "162128.875000", "162129.335000", "162129.795000", "162130.255000", "162130.715000", "162131.175000", "162131.635000", "162132.095000", "162132.555000", "162133.015000", "162133.475000", "162133.935000", "162134.395000", "162134.855000", "162135.315000", "162135.775000", "162136.235000", "162136.695000", "162137.155000", "162137.615000", "162138.075000", "162138.535000", "162138.995000", "162139.455000", "162139.915000", "162140.375000", "162140.835000", "162141.295000", "162141.755000", "162142.215000", "162142.675000", "162143.135000", "162143.595000", "162144.055000", "162144.515000", "162144.975000", "162145.435000", "162145.895000", "162146.355000", "162146.815000", "162147.275000", "162147.735000", "162148.195000", "162148.655000", "162149.115000", "162149.575000", "162150.035000", "162150.495000", "162150.955000", "162151.415000", "162151.875000", "162152.335000", "162152.795000", "162153.255000", "162153.715000", "162154.175000", "162154.635000", "162155.095000", "162155.555000", "162156.015000", "162156.475000", "162156.935000", "162157.395000", "162157.855000", "162158.315000", "162158.775000", "162159.235000", "162159.695000", "162200.155000", "162200.615000", "162201.075000", "162201.535000", "162201.995000", "162202.455000", "162202.915000", "162203.375000", "162203.835000", "162204.295000", "162204.755000", "162205.215000", "162205.675000", "162206.135000", "162206.595000", "162207.055000", "162207.515000", "162207.975000", "162208.435000", "162208.895000", "162209.355000", "162209.815000", "162210.275000", "162210.735000", "162211.195000", "162211.655000", "162212.115000", "162212.575000", "162213.035000", "162213.495000", "162213.955000", "162214.415000", "162214.875000", "162215.335000", "162215.795000", "162216.255000", "162216.715000", "162217.175000", "162217.635000", "162218.095000", "162218.555000", "162219.015000", "162219.475000", "162219.935000", "162220.395000", "162220.855000", "162221.315000", "162221.775000", "162222.235000", "162222.695000", "162223.155000", "162223.615000", "162224.075000", "162224.535000", "162224.995000", "162225.455000", "162225.915000", "162226.375000", "162226.835000", "162227.295000", "162227.755000", "162228.215000", "162228.675000", "162229.135000", "162229.595000", "162230.055000", "162230.515000", "162230.975000", "162231.435000", "162231.895000", "162232.355000", "162232.815000", "162233.275000", "162233.735000", "162234.195000", "162234.655000", "162235.115000", "162235.575000", "162236.035000", "162236.495000", "162236.955000", "162237.415000", "162237.875000", "162238.335000", "162238.795000", "162239.255000", "162239.715000", "162240.175000", "162240.635000", "162241.095000", "162241.555000", "162242.015000", "162242.475000", "162242.935000", "162243.395000", "162243.855000", "162244.315000", "162244.775000", "162245.235000", "162245.695000", "162246.155000", "162246.615000", "162247.075000", "162247.535000", "162247.995000", "162248.455000", "162248.915000", "162249.375000", "162249.835000", "162250.295000", "162250.755000", "162251.215000", "162251.675000", "162252.135000", "162252.595000", "162253.055000", "162253.515000", "162253.975000", "162254.435000", "162254.895000", "162255.355000", "162255.815000", "162256.275000", "162256.735000", "162257.195000", "162257.655000", "162258.115000", "162258.575000", "162259.035000", "162259.495000", "162259.955000", "162300.415000", "162300.875000", "162301.335000", "162301.795000", "162302.255000", "162302.715000", "162303.175000", "162303.635000", "162304.095000", "162304.555000", "162305.015000", "162305.475000", "162305.935000", "162306.395000", "162306.855000", "162307.315000", "162307.775000", "162308.235000", "162308.695000", "162309.155000", "162309.615000", "162310.075000", "162310.535000", "162310.995000", "162311.455000", "162311.915000", "162312.375000", "162312.835000", "162313.295000", "162313.755000", "162314.215000", "162314.675000", "162315.135000", "162315.595000", "162316.055000", "162316.515000", "162316.975000", "162317.435000", "162317.895000", "162318.355000", "162318.815000", "162319.275000", "162319.735000", "162320.195000", "162320.655000", "162321.115000", "162321.575000", "162322.035000", "162322.495000", "162322.955000", "162323.415000", "162323.875000", "162324.335000", "162324.795000", "162325.255000", "162325.715000", "162326.175000", "162326.635000", "162327.095000", "162327.555000", "162328.015000", "162328.475000", "162328.935000", "162329.395000", "162329.855000", "162330.315000", "162330.775000", "162331.235000", "162331.695000", "162332.155000", "162332.615000", "162333.075000", "162333.535000", "162333.995000", "162334.455000", "162334.915000", "162335.375000", "162335.835000", "162336.295000", "162336.755000", "162337.215000", "162337.675000", "162338.135000", "162338.595000", "162339.055000", "162339.515000", "162339.975000", "162340.435000", "162340.895000", "162341.355000", "162341.815000", "162342.275000", "162342.735000", "162343.195000", "162343.655000", "162344.115000", "162344.575000", "162345.035000", "162345.495000", "162345.955000", "162346.415000", "162346.875000", "162347.335000", "162347.795000", "162348.255000", "162348.715000", "162349.175000", "162349.635000", "162350.095000", "162350.555000", "162351.015000", "162351.475000", "162351.935000", "162352.395000", "162352.855000", "162353.315000", "162353.775000", "162354.235000", "162354.695000", "162355.155000", "162355.615000", "162356.075000", "162356.535000", "162356.995000", "162357.455000", "162357.915000", "162358.375000", "162358.835000", "162359.295000", "162359.755000", "162400.215000", "162400.675000", "162401.135000", "162401.595000", "162402.055000", "162402.515000", "162402.975000", "162403.435000", "162403.895000", "162404.355000", "162404.815000", "162405.275000", "162405.735000", "162406.195000", "162406.655000", "162407.115000", "162407.575000", "162408.035000", "162408.495000", "162408.955000", "162409.415000", "162409.875000", "162410.335000", "162410.795000", "162411.255000", "162411.715000", "162412.175000", "162412.635000", "162413.095000", "162413.555000", "162414.015000", "162414.475000", "162414.935000", "162415.395000", "162415.855000", "162416.315000", "162416.775000", "162417.235000", "162417.695000", "162418.155000", "162418.615000", "162419.075000", "162419.535000", "162419.995000", "162420.455000", "162420.915000", "162421.375000", "162421.835000", "162422.295000", "162422.755000", "162423.215000", "162423.675000", "162424.135000", "162424.595000", "162425.055000", "162425.515000", "162425.975000", "162426.435000", "162426.895000", "162427.355000", "162427.815000", "162428.275000", "162428.735000", "162429.195000", "162429.655000", "162430.115000", "162430.575000", "162431.035000", "162431.495000", "162431.955000", "162432.415000", "162432.875000", "162433.335000", "162433.795000", "162434.255000", "162434.715000", "162435.175000", "162435.635000", "162436.095000", "162436.555000", "162437.015000", "162437.475000", "162437.935000", "162438.395000", "162438.855000", "162439.315000", "162439.775000", "162440.235000", "162440.695000", "162441.155000", "162441.615000", "162442.075000", "162442.535000", "162442.995000", "162443.455000", "162443.915000", "162444.375000", "162444.835000", "162445.295000", "162445.755000", "162446.215000", "162446.675000", "162447.135000", "162447.595000", "162448.055000", "162448.515000", "162448.975000", "162449.435000", "162449.895000", "162450.355000", "162450.815000", "162451.275000", "162451.735000", "162452.195000", "162452.655000", "162453.115000", "162453.575000", "162454.035000", "162454.495000", "162454.955000", "162455.415000", "162455.875000", "162456.335000", "162456.795000", "162457.255000", "162457.715000", "162458.175000", "162458.635000", "162459.095000", "162459.555000", "162500.015000", "162500.475000", "162500.935000", "162501.395000", "162501.855000", "162502.315000", "162502.775000", "162503.235000", "162503.695000", "162504.155000", "162504.615000", "162505.075000", "162505.535000", "162505.995000", "162506.455000", "162506.915000", "162507.375000", "162507.835000", "162508.295000", "162508.755000", "162509.215000", "162509.675000", "162510.135000", "162510.595000", "162511.055000", "162511.515000", "162511.975000", "162512.435000", "162512.895000", "162513.355000", "162513.815000", "162514.275000", "162514.735000", "162515.195000", "162515.655000", "162516.115000", "162516.575000", "162517.035000", "162517.495000", "162517.955000", "162518.415000", "162518.875000", "162519.335000", "162519.795000", "162520.255000", "162520.715000", "162521.175000", "162521.635000", "162522.095000", "162522.555000", "162523.015000", "162523.475000", "162523.935000", "162524.395000", "162524.855000", "162525.315000", "162525.775000", "162526.235000", "162526.695000", "162527.155000", "162527.615000", "162528.075000", "162528.535000", "162528.995000", "162529.455000", "162529.915000", "162530.375000", "162530.835000", "162531.295000", "162531.755000", "162532.215000", "162532.675000", "162533.135000", "162533.595000", "162534.055000", "162534.515000", "162534.975000", "162535.435000", "162535.895000", "162536.355000", "162536.815000", "162537.275000", "162537.735000", "162538.195000", "162538.655000", "162539.115000", "162539.575000", "162540.035000", "162540.495000", "162540.955000", "162541.415000", "162541.875000", "162542.335000", "162542.795000", "162543.255000", "162543.715000", "162544.175000", "162544.635000", "162545.095000", "162545.555000", "162546.015000", "162546.475000", "162546.935000", "162547.395000", "162547.855000", "162548.315000", "162548.775000", "162549.235000", "162549.695000", "162550.155000", "162550.615000", "162551.075000", "162551.535000", "162551.995000", "162552.455000", "162552.915000", "162553.375000", "162553.835000", "162554.295000", "162554.755000", "162555.215000", "162555.675000", "162556.135000", "162556.595000", "162557.055000", "162557.515000", "162557.975000", "162558.435000", "162558.895000", "162559.355000", "162559.815000", "162600.275000", "162600.735000", "162601.195000", "162601.655000", "162602.115000", "162602.575000", "162603.035000", "162603.495000", "162603.955000", "162604.415000", "162604.875000", "162605.335000", "162605.795000", "162606.255000", "162606.715000", "162607.175000", "162607.635000", "162608.095000", "162608.555000", "162609.015000", "162609.475000", "162609.935000", "162610.395000", "162610.855000", "162611.315000", "162611.775000", "162612.235000", "162612.695000", "162613.155000", "162613.615000", "162614.075000", "162614.535000", "162614.995000", "162615.455000", "162615.915000", "162616.375000", "162616.835000", "162617.295000", "162617.755000", "162618.215000", "162618.675000", "162619.135000", "162619.595000", "162620.055000", "162620.515000", "162620.975000", "162621.435000", "162621.895000", "162622.355000", "162622.815000", "162623.275000", "162623.735000", "162624.195000", "162624.655000", "162625.115000", "162625.575000", "162626.035000", "162626.495000", "162626.955000", "162627.415000", "162627.875000", "162628.335000", "162628.795000", "162629.255000", "162629.715000", "162630.175000", "162630.635000", "162631.095000", "162631.555000", "162632.015000", "162632.475000", "162632.935000", "162633.395000", "162633.855000", "162634.315000", "162634.775000", "162635.235000", "162635.695000", "162636.155000", "162636.615000", "162637.075000", "162637.535000", "162637.995000", "162638.455000", "162638.915000", "162639.375000", "162639.835000", "162640.295000", "162640.755000", "162641.215000", "162641.675000", "162642.135000", "162642.595000", "162643.055000", "162643.515000", "162643.975000", "162644.435000", "162644.895000", "162645.355000", "162645.815000", "162646.275000", "162646.735000", "162647.195000", "162647.655000", "162648.115000", "162648.575000", "162649.035000", "162649.495000", "162649.955000", "162650.415000", "162650.875000", "162651.335000", "162651.795000", "162652.255000", "162652.715000", "162653.175000", "162653.635000", "162654.095000", "162654.555000", "162655.015000", "162655.475000", "162655.935000", "162656.395000", "162656.855000", "162657.315000", "162657.775000", "162658.235000", "162658.695000", "162659.155000", "162659.615000", "162700.075000", "162700.535000", "162700.995000", "162701.455000", "162701.915000", "162702.375000", "162702.835000", "162703.295000", "162703.755000", "162704.215000", "162704.675000", "162705.135000", "162705.595000", "162706.055000", "162706.515000", "162706.975000", "162707.435000", "162707.895000", "162708.355000", "162708.815000", "162709.275000", "162709.735000", "162710.195000", "162710.655000", "162711.115000", "162711.575000", "162712.035000", "162712.495000", "162712.955000", "162713.415000", "162713.875000", "162714.335000", "162714.795000", "162715.255000", "162715.715000", "162716.175000", "162716.635000", "162717.095000", "162717.555000", "162718.015000", "162718.475000", "162718.935000", "162719.395000", "162719.855000", "162720.315000", "162720.775000", "162721.235000", "162721.695000", "162722.155000", "162722.615000", "162723.075000", "162723.535000", "162723.995000", "162724.455000"],
