{
  "AcquisitionMatrixPE": 82,
  "AcquisitionNumber": 1,
  "AcquisitionTime": "15:47:34.245000",
  "BandwidthPerPixelPhaseEncode": 24.888,
  "BaseResolution": 82,
  "BodyPartExamined": "BRAIN",
  "ConsistencyInfo": "N4_VE11C_LATEST_20160120",
  "ConversionSoftware": "dcm2niix",
  "ConversionSoftwareVersion": "v1.0.20201102",
  "DerivedVendorReportedEchoSpacing": 0.00049,
  "DeviceSerialNumber": "66112",
  "DwellTime": 2e-06,
  "EchoTime": 0.0272,
  "EchoTrainLength": 82,
  "EffectiveEchoSpacing": 0.00049,
  "FlipAngle": 44,
  "ImageComments": "Unaliased MB8/PE3",
  "ImageOrientationPatientDICOM": [0.995038, 0.0980108, 0.0171137, -0.0994935, 0.979852, 0.173182],
  "ImageType": [
    "ORIGINAL",
    "PRIMARY",
    "M",
    "MB",
    "ND",
    "NORM",
    "MOSAIC"
],
  "ImagingFrequency": 123.252,
  "InPlanePhaseEncodingDirectionDICOM": "COL",
  "InstitutionAddress": "Maynard 3,Hanover,NH,US,03755",
  "InstitutionName": "Dartmouth College - PBS",
  "InstitutionalDepartmentName": "Department",
  "MRAcquisitionType": "2D",
  "MagneticFieldStrength": 3,
  "Manufacturer": "Siemens",
  "ManufacturersModelName": "Prisma",
  "Modality": "MR",
  "MultibandAccelerationFactor": 8,
  "PartialFourier": 1,
  "PatientPosition": "HFS",
  "PercentPhaseFOV": 100,
  "PercentSampling": 100,
  "PhaseEncodingDirection": "j-",
  "PhaseEncodingSteps": 82,
  "PhaseResolution": 1,
  "PixelBandwidth": 3050,
  "ProcedureStepDescription": "Wager_Wager^1076_spacetop",
  "ProtocolName": "func_run-01_task-social_acq-ap-mb8",
  "PulseSequenceDetails": "%CustomerSeq%\\cmrr_mbep2d_bold",
  "ReceiveCoilActiveElements": "HEA;HEP",
  "ReceiveCoilName": "Head_32",
  "ReconMatrixPE": 82,
  "RepetitionTime": 0.46,
  "SAR": 0.0834549,
  "ScanOptions": "FS",
  "ScanningSequence": "EP",
  "SequenceName": "epfid2d1_82",
  "SequenceVariant": "SK\\SS",
  "SeriesDescription": "func_run-01_task-social_acq-ap-mb8",
  "SeriesNumber": 12,
  "ShimSetting": [4155, -7777, -7250, 557, 55, -228, 94, -3],
  "SliceThickness": 2.7,
  "SliceTiming": [0, 0.25, 0.0625, 0.3125, 0.125, 0.375, 0.1875, 0, 0.25, 0.0625, 0.3125, 0.125, 0.375, 0.1875, 0, 0.25, 0.0625, 0.3125, 0.125, 0.375, 0.1875, 0, 0.25, 0.0625, 0.3125, 0.125, 0.375, 0.1875, 0, 0.25, 0.0625, 0.3125, 0.125, 0.375, 0.1875, 0, 0.25, 0.0625, 0.3125, 0.125, 0.375, 0.1875, 0, 0.25, 0.0625, 0.3125, 0.125, 0.375, 0.1875, 0, 0.25, 0.0625, 0.3125, 0.125, 0.375, 0.1875],
  "SoftwareVersions": "syngo MR E11",
  "SpacingBetweenSlices": 2.7,
  "StationName": "AWP66112",
  "TaskName": "social",
  "TotalReadoutTime": 0.03969,
  "TxRefAmp": 237.359,
  "WipMemBlock": "9a50f674-4632-4129-b8ba-707217147a62||Sequence: R016 ve11c/master r/e634e98; Dec 19 2017 11:00:25 by eja",
  "dcmmeta_affine": [
    [-2.669614791870117, -0.2669336497783661, -0.0005529859336093068, 133.8319091796875],
    [-0.2629557251930237, 2.6288700103759766, 0.46986839175224304, -102.70856475830078],
    [0.045914798974990845, -0.46463441848754883, 2.6588010787963867, -48.75532150268555],
    [0.0, 0.0, 0.0, 1.0]
],
  "dcmmeta_reorient_transform": [
    [0.0, -1.0, 0.0, 81.0],
    [1.0, 0.0, 0.0, 0.0],
    [0.0, 0.0, 1.0, 0.0],
    [0.0, 0.0, 0.0, 1.0]
],
  "dcmmeta_shape": [82, 82, 56, 872],
  "dcmmeta_slice_dim": 2,
  "dcmmeta_version": 0.6,
  "global": {
    "const": {
      "AccessionNumber": "A003641",
      "AcquisitionMatrix": [82, 0, 0, 82],
      "AngioFlag": "N",
      "BitsAllocated": 16,
      "BitsStored": 16,
      "BodyPartExamined": "BRAIN",
      "Columns": 656,
      "EchoNumbers": 1,
      "EchoTime": 27.2,
      "EchoTrainLength": 82,
      "FlipAngle": 44.0,
      "HighBit": 15,
      "ImageOrientationPatient": [0.99503819594507, 0.09801076461653, 0.01711369713609, -0.0994934503543, 0.97985155809624, 0.17318192005219],
      "ImagePositionPatient": [-801.77974948523, -940.18392092298, -232.91833803622],
      "ImageType": [
        "ORIGINAL",
        "PRIMARY",
        "M",
        "MB",
        "ND",
        "NORM",
        "MOSAIC"
],
      "ImagedNucleus": "1H",
      "ImagingFrequency": 123.25218,
      "InPlanePhaseEncodingDirection": "COL",
      "MRAcquisitionType": "2D",
      "MagneticFieldStrength": 3.0,
      "Manufacturer": "SIEMENS",
      "ManufacturerModelName": "Prisma",
      "Modality": "MR",
      "NumberOfAverages": 1.0,
      "NumberOfPhaseEncodingSteps": 82,
      "PercentPhaseFieldOfView": 100.0,
      "PercentSampling": 100.0,
      "PerformedProcedureStepStartTime": "151839.846000",
      "PhotometricInterpretation": "MONOCHROME2",
      "PixelBandwidth": 3050.0,
      "PixelRepresentation": 0,
      "PixelSpacing": [2.6829268932343, 2.6829268932343],
      "ProtocolName": "func_run-01_task-social_acq-ap-mb8",
      "RepetitionTime": 460.0,
      "Rows": 656,
      "SAR": 0.08345490942035,
      "SamplesPerPixel": 1,
      "ScanOptions": "FS",
      "ScanningSequence": "EP",
      "SequenceName": "epfid2d1_82",
      "SequenceVariant": [
        "SK",
        "SS"
],
      "SeriesDescription": "func_run-01_task-social_acq-ap-mb8",
      "SeriesNumber": 12,
      "SeriesTime": "154743.944000",
      "SliceLocation": -65.912672185183,
      "SliceThickness": 2.7000000476837,
      "SmallestImagePixelValue": 0,
      "SoftwareVersions": "syngo MR E11",
      "SpacingBetweenSlices": 2.7000000073373,
      "SpecificCharacterSet": "ISO_IR 100",
      "StudyID": "2",
      "StudyTime": "151839.798000",
      "TransmitCoilName": "Body",
      "VariableFlipAngleFlag": "N",
      "WindowCenterWidthExplanation": "Algo1",
      "dBdt": 0.0},
    "slices": {}
  },
  "time": {
    "samples": {
      "AcquisitionNumber": [1, 2, 3, 4, 5, 6, 7, 8, 9, 10, 11, 12, 13, 14, 15, 16, 17, 18, 19, 20, 21, 22, 23, 24, 25, 26, 27, 28, 29, 30, 31, 32, 33, 34, 35, 36, 37, 38, 39, 40, 41, 42, 43, 44, 45, 46, 47, 48, 49, 50, 51, 52, 53, 54, 55, 56, 57, 58, 59, 60, 61, 62, 63, 64, 65, 66, 67, 68, 69, 70, 71, 72, 73, 74, 75, 76, 77, 78, 79, 80, 81, 82, 83, 84, 85, 86, 87, 88, 89, 90, 91, 92, 93, 94, 95, 96, 97, 98, 99, 100, 101, 102, 103, 104, 105, 106, 107, 108, 109, 110, 111, 112, 113, 114, 115, 116, 117, 118, 119, 120, 121, 122, 123, 124, 125, 126, 127, 128, 129, 130, 131, 132, 133, 134, 135, 136, 137, 138, 139, 140, 141, 142, 143, 144, 145, 146, 147, 148, 149, 150, 151, 152, 153, 154, 155, 156, 157, 158, 159, 160, 161, 162, 163, 164, 165, 166, 167, 168, 169, 170, 171, 172, 173, 174, 175, 176, 177, 178, 179, 180, 181, 182, 183, 184, 185, 186, 187, 188, 189, 190, 191, 192, 193, 194, 195, 196, 197, 198, 199, 200, 201, 202, 203, 204, 205, 206, 207, 208, 209, 210, 211, 212, 213, 214, 215, 216, 217, 218, 219, 220, 221, 222, 223, 224, 225, 226, 227, 228, 229, 230, 231, 232, 233, 234, 235, 236, 237, 238, 239, 240, 241, 242, 243, 244, 245, 246, 247, 248, 249, 250, 251, 252, 253, 254, 255, 256, 257, 258, 259, 260, 261, 262, 263, 264, 265, 266, 267, 268, 269, 270, 271, 272, 273, 274, 275, 276, 277, 278, 279, 280, 281, 282, 283, 284, 285, 286, 287, 288, 289, 290, 291, 292, 293, 294, 295, 296, 297, 298, 299, 300, 301, 302, 303, 304, 305, 306, 307, 308, 309, 310, 311, 312, 313, 314, 315, 316, 317, 318, 319, 320, 321, 322, 323, 324, 325, 326, 327, 328, 329, 330, 331, 332, 333, 334, 335, 336, 337, 338, 339, 340, 341, 342, 343, 344, 345, 346, 347, 348, 349, 350, 351, 352, 353, 354, 355, 356, 357, 358, 359, 360, 361, 362, 363, 364, 365, 366, 367, 368, 369, 370, 371, 372, 373, 374, 375, 376, 377, 378, 379, 380, 381, 382, 383, 384, 385, 386, 387, 388, 389, 390, 391, 392, 393, 394, 395, 396, 397, 398, 399, 400, 401, 402, 403, 404, 405, 406, 407, 408, 409, 410, 411, 412, 413, 414, 415, 416, 417, 418, 419, 420, 421, 422, 423, 424, 425, 426, 427, 428, 429, 430, 431, 432, 433, 434, 435, 436, 437, 438, 439, 440, 441, 442, 443, 444, 445, 446, 447, 448, 449, 450, 451, 452, 453, 454, 455, 456, 457, 458, 459, 460, 461, 462, 463, 464, 465, 466, 467, 468, 469, 470, 471, 472, 473, 474, 475, 476, 477, 478, 479, 480, 481, 482, 483, 484, 485, 486, 487, 488, 489, 490, 491, 492, 493, 494, 495, 496, 497, 498, 499, 500, 501, 502, 503, 504, 505, 506, 507, 508, 509, 510, 511, 512, 513, 514, 515, 516, 517, 518, 519, 520, 521, 522, 523, 524, 525, 526, 527, 528, 529, 530, 531, 532, 533, 534, 535, 536, 537, 538, 539, 540, 541, 542, 543, 544, 545, 546, 547, 548, 549, 550, 551, 552, 553, 554, 555, 556, 557, 558, 559, 560, 561, 562, 563, 564, 565, 566, 567, 568, 569, 570, 571, 572, 573, 574, 575, 576, 577, 578, 579, 580, 581, 582, 583, 584, 585, 586, 587, 588, 589, 590, 591, 592, 593, 594, 595, 596, 597, 598, 599, 600, 601, 602, 603, 604, 605, 606, 607, 608, 609, 610, 611, 612, 613, 614, 615, 616, 617, 618, 619, 620, 621, 622, 623, 624, 625, 626, 627, 628, 629, 630, 631, 632, 633, 634, 635, 636, 637, 638, 639, 640, 641, 642, 643, 644, 645, 646, 647, 648, 649, 650, 651, 652, 653, 654, 655, 656, 657, 658, 659, 660, 661, 662, 663, 664, 665, 666, 667, 668, 669, 670, 671, 672, 673, 674, 675, 676, 677, 678, 679, 680, 681, 682, 683, 684, 685, 686, 687, 688, 689, 690, 691, 692, 693, 694, 695, 696, 697, 698, 699, 700, 701, 702, 703, 704, 705, 706, 707, 708, 709, 710, 711, 712, 713, 714, 715, 716, 717, 718, 719, 720, 721, 722, 723, 724, 725, 726, 727, 728, 729, 730, 731, 732, 733, 734, 735, 736, 737, 738, 739, 740, 741, 742, 743, 744, 745, 746, 747, 748, 749, 750, 751, 752, 753, 754, 755, 756, 757, 758, 759, 760, 761, 762, 763, 764, 765, 766, 767, 768, 769, 770, 771, 772, 773, 774, 775, 776, 777, 778, 779, 780, 781, 782, 783, 784, 785, 786, 787, 788, 789, 790, 791, 792, 793, 794, 795, 796, 797, 798, 799, 800, 801, 802, 803, 804, 805, 806, 807, 808, 809, 810, 811, 812, 813, 814, 815, 816, 817, 818, 819, 820, 821, 822, 823, 824, 825, 826, 827, 828, 829, 830, 831, 832, 833, 834, 835, 836, 837, 838, 839, 840, 841, 842, 843, 844, 845, 846, 847, 848, 849, 850, 851, 852, 853, 854, 855, 856, 857, 858, 859, 860, 861, 862, 863, 864, 865, 866, 867, 868, 869, 870, 871, 872],
      "AcquisitionTime": ["154734.245000", "154734.705000", "154735.165000", "154735.625000", "154736.085000", "154736.545000", "154737.005000", "154737.465000", "154737.925000", "154738.385000", "154738.845000", "154739.305000", "154739.765000", "154740.225000", "154740.685000", "154741.145000", "154741.605000", "154742.065000", "154742.525000", "154742.985000", "154743.445000", "154743.905000", "154744.365000", "154744.825000", "154745.285000", "154745.745000", "154746.205000", "154746.665000", "154747.125000", "154747.585000", "154748.045000", "154748.505000", "154748.965000", "154749.425000", "154749.885000", "154750.345000", "154750.805000", "154751.265000", "154751.725000", "154752.185000", "154752.645000", "154753.105000", "154753.565000", "154754.025000", "154754.485000", "154754.945000", "154755.405000", "154755.865000", "154756.325000", "154756.785000", "154757.245000", "154757.705000", "154758.165000", "154758.625000", "154759.085000", "154759.545000", "154800.005000", "154800.465000", "154800.925000", "154801.385000", "154801.845000", "154802.305000", "154802.765000", "154803.225000", "154803.685000", "154804.145000", "154804.605000", "154805.065000", "154805.525000", "154805.985000", "154806.445000", "154806.905000", "154807.365000", "154807.825000", "154808.285000", "154808.745000", "154809.205000", "154809.665000", "154810.125000", "154810.585000", "154811.045000", "154811.505000", "154811.965000", "154812.425000", "154812.885000", "154813.345000", "154813.805000", "154814.265000", "154814.725000", "154815.185000", "154815.645000", "154816.105000", "154816.565000", "154817.025000", "154817.485000", "154817.945000", "154818.405000", "154818.865000", "154819.325000", "154819.785000", "154820.245000", "154820.705000", "154821.165000", "154821.625000", "154822.085000", "154822.545000", "154823.005000", "154823.465000", "154823.925000", "154824.385000", "154824.845000", "154825.305000", "154825.765000", "154826.225000", "154826.685000", "154827.145000", "154827.605000", "154828.065000", "154828.525000", "154828.985000", "154829.445000", "154829.905000", "154830.365000", "154830.825000", "154831.285000", "154831.745000", "154832.205000", "154832.665000", "154833.125000", "154833.585000", "154834.045000", "154834.505000", "154834.965000", "154835.425000", "154835.885000", "154836.345000", "154836.805000", "154837.265000", "154837.725000", "154838.185000", "154838.645000", "154839.105000", "154839.565000", "154840.025000", "154840.485000", "154840.945000", "154841.405000", "154841.865000", "154842.325000", "154842.785000", "154843.245000", "154843.705000", "154844.165000", "154844.625000", "154845.085000", "154845.545000", "154846.005000", "154846.465000", "154846.925000", "154847.385000", "154847.845000", "154848.305000", "154848.765000", "154849.225000", "154849.685000", "154850.145000", "154850.605000", "154851.065000", "154851.525000", "154851.985000", "154852.445000", "154852.905000", "154853.365000", "154853.825000", "154854.285000", "154854.745000", "154855.205000", "154855.665000", "154856.125000", "154856.585000", "154857.045000", "154857.505000", "154857.965000", "154858.425000", "154858.885000", "154859.345000", "154859.805000", "154900.265000", "154900.725000", "154901.185000", "154901.645000", "154902.105000", "154902.565000", "154903.025000", "154903.485000", "154903.945000", "154904.405000", "154904.865000", "154905.325000", "154905.785000", "154906.245000", "154906.705000", "154907.165000", "154907.625000", "154908.085000", "154908.545000", "154909.005000", "154909.465000", "154909.925000", "154910.385000", "154910.845000", "154911.305000", "154911.765000", "154912.225000", "154912.685000", "154913.145000", "154913.605000", "154914.065000", "154914.525000", "154914.985000", "154915.445000", "154915.905000", "154916.365000", "154916.825000", "154917.285000", "154917.745000", "154918.205000", "154918.665000", "154919.125000", "154919.585000", "154920.045000", "154920.505000", "154920.965000", "154921.425000", "154921.885000", "154922.345000", "154922.805000", "154923.265000", "154923.725000", "154924.185000", "154924.645000", "154925.105000", "154925.565000", "154926.025000", "154926.485000", "154926.945000", "154927.405000", "154927.865000", "154928.325000", "154928.785000", "154929.245000", "154929.705000", "154930.165000", "154930.625000", "154931.085000", "154931.545000", "154932.005000", "154932.465000", "154932.925000", "154933.385000", "154933.845000", "154934.305000", "154934.765000", "154935.225000", "154935.685000", "154936.145000", "154936.605000", "154937.065000", "154937.525000", "154937.985000", "154938.445000", "154938.905000", "154939.365000", "154939.825000", "154940.285000", "154940.745000", "154941.205000", "154941.665000", "154942.125000", "154942.585000", "154943.045000", "154943.505000", "154943.965000", "154944.425000", "154944.885000", "154945.345000", "154945.805000", "154946.265000", "154946.725000", "154947.185000", "154947.645000", "154948.105000", "154948.565000", "154949.025000", "154949.485000", "154949.945000", "154950.405000", "154950.865000", "154951.325000", "154951.785000", "154952.245000", "154952.705000", "154953.165000", "154953.625000", "154954.085000", "154954.545000", "154955.005000", "154955.465000", "154955.925000", "154956.385000", "154956.845000", "154957.305000", "154957.765000", "154958.225000", "154958.685000", "154959.145000", "154959.605000", "155000.065000", "155000.525000", "155000.985000", "155001.445000", "155001.905000", "155002.365000", "155002.825000", "155003.285000", "155003.745000", "155004.205000", "155004.665000", "155005.125000", "155005.585000", "155006.045000", "155006.505000", "155006.965000", "155007.425000", "155007.885000", "155008.345000", "155008.805000", "155009.265000", "155009.725000", "155010.185000", "155010.645000", "155011.105000", "155011.565000", "155012.025000", "155012.485000", "155012.945000", "155013.405000", "155013.865000", "155014.325000", "155014.785000", "155015.245000", "155015.705000", "155016.165000", "155016.625000", "155017.085000", "155017.545000", "155018.005000", "155018.465000", "155018.925000", "155019.385000", "155019.845000", "155020.305000", "155020.765000", "155021.225000", "155021.685000", "155022.145000", "155022.605000", "155023.065000", "155023.525000", "155023.985000", "155024.445000", "155024.905000", "155025.365000", "155025.825000", "155026.285000", "155026.745000", "155027.205000", "155027.665000", "155028.125000", "155028.585000", "155029.045000", "155029.505000", "155029.965000", "155030.425000", "155030.885000", "155031.345000", "155031.805000", "155032.265000", "155032.725000", "155033.185000", "155033.645000", "155034.105000", "155034.565000", "155035.025000", "155035.485000", "155035.945000", "155036.405000", "155036.865000", "155037.325000", "155037.785000", "155038.245000", "155038.705000", "155039.165000", "155039.625000", "155040.085000", "155040.545000", "155041.005000", "155041.465000", "155041.925000", "155042.385000", "155042.845000", "155043.305000", "155043.765000", "155044.225000", "155044.685000", "155045.145000", "155045.605000", "155046.065000", "155046.525000", "155046.985000", "155047.445000", "155047.905000", "155048.365000", "155048.825000", "155049.285000", "155049.745000", "155050.205000", "155050.665000", "155051.125000", "155051.585000", "155052.045000", "155052.505000", "155052.965000", "155053.425000", "155053.885000", "155054.345000", "155054.805000", "155055.265000", "155055.725000", "155056.185000", "155056.645000", "155057.105000", "155057.565000", "155058.025000", "155058.485000", "155058.945000", "155059.405000", "155059.865000", "155100.325000", "155100.785000", "155101.245000", "155101.705000", "155102.165000", "155102.625000", "155103.085000", "155103.545000", "155104.005000", "155104.465000", "155104.925000", "155105.385000", "155105.845000", "155106.305000", "155106.765000", "155107.225000", "155107.685000", "155108.145000", "155108.605000", "155109.065000", "155109.525000", "155109.985000", "155110.445000", "155110.905000", "155111.365000", "155111.825000", "155112.285000", "155112.745000", "155113.205000", "155113.665000", "155114.125000", "155114.585000", "155115.045000", "155115.505000", "155115.965000", "155116.425000", "155116.885000", "155117.345000", "155117.805000", "155118.265000", "155118.725000", "155119.185000", "155119.645000", "155120.105000", "155120.565000", "155121.025000", "155121.485000", "155121.945000", "155122.405000", "155122.865000", "155123.325000", "155123.785000", "155124.245000", "155124.705000", "155125.165000", "155125.625000", "155126.085000", "155126.545000", "155127.005000", "155127.465000", "155127.925000", "155128.385000", "155128.845000", "155129.305000", "155129.765000", "155130.225000", "155130.685000", "155131.145000", "155131.605000", "155132.065000", "155132.525000", "155132.985000", "155133.445000", "155133.905000", "155134.365000", "155134.825000", "155135.285000", "155135.745000", "155136.205000", "155136.665000", "155137.125000", "155137.585000", "155138.045000", "155138.505000", "155138.965000", "155139.425000", "155139.885000", "155140.345000", "155140.805000", "155141.265000", "155141.725000", "155142.185000", "155142.645000", "155143.105000", "155143.565000", "155144.025000", "155144.485000", "155144.945000", "155145.405000", "155145.865000", "155146.325000", "155146.785000", "155147.245000", "155147.705000", "155148.165000", "155148.625000", "155149.085000", "155149.545000", "155150.005000", "155150.465000", "155150.925000", "155151.385000", "155151.845000", "155152.305000", "155152.765000", "155153.225000", "155153.685000", "155154.145000", "155154.605000", "155155.065000", "155155.525000", "155155.985000", "155156.445000", "155156.905000", "155157.365000", "155157.825000", "155158.285000", "155158.745000", "155159.205000", "155159.665000", "155200.125000", "155200.585000", "155201.045000", "155201.505000", "155201.965000", "155202.425000", "155202.885000", "155203.345000", "155203.805000", "155204.265000", "155204.725000", "155205.185000", "155205.645000", "155206.105000", "155206.565000", "155207.025000", "155207.485000", "155207.945000", "155208.405000", "155208.865000", "155209.325000", "155209.785000", "155210.245000", "155210.705000", "155211.165000", "155211.625000", "155212.085000", "155212.545000", "155213.005000", "155213.465000", "155213.925000", "155214.385000", "155214.845000", "155215.305000", "155215.765000", "155216.225000", "155216.685000", "155217.145000", "155217.605000", "155218.065000", "155218.525000", "155218.985000", "155219.445000", "155219.905000", "155220.365000", "155220.825000", "155221.285000", "155221.745000", "155222.205000", "155222.665000", "155223.125000", "155223.585000", "155224.045000", "155224.505000", "155224.965000", "155225.425000", "155225.885000", "155226.345000", "155226.805000", "155227.265000", "155227.725000", "155228.185000", "155228.645000", "155229.105000", "155229.565000", "155230.025000", "155230.485000", "155230.945000", "155231.405000", "155231.865000", "155232.325000", "155232.785000", "155233.245000", "155233.705000", "155234.165000", "155234.625000", "155235.085000", "155235.545000", "155236.005000", "155236.465000", "155236.925000", "155237.385000", "155237.845000", "155238.305000", "155238.765000", "155239.225000", "155239.685000", "155240.145000", "155240.605000", "155241.065000", "155241.525000", "155241.985000", "155242.445000", "155242.905000", "155243.365000", "155243.825000", "155244.285000", "155244.745000", "155245.205000", "155245.665000", "155246.125000", "155246.585000", "155247.045000", "155247.505000", "155247.965000", "155248.425000", "155248.885000", "155249.345000", "155249.805000", "155250.265000", "155250.725000", "155251.185000", "155251.645000", "155252.105000", "155252.565000", "155253.025000", "155253.485000", "155253.945000", "155254.405000", "155254.865000", "155255.325000", "155255.785000", "155256.245000", "155256.705000", "155257.165000", "155257.625000", "155258.085000", "155258.545000", "155259.005000", "155259.465000", "155259.925000", "155300.385000", "155300.845000", "155301.305000", "155301.765000", "155302.225000", "155302.685000", "155303.145000", "155303.605000", "155304.065000", "155304.525000", "155304.985000", "155305.445000", "155305.905000", "155306.365000", "155306.825000", "155307.285000", "155307.745000", "155308.205000", "155308.665000", "155309.125000", "155309.585000", "155310.045000", "155310.505000", "155310.965000", "155311.425000", "155311.885000", "155312.345000", "155312.805000", "155313.265000", "155313.725000", "155314.185000", "155314.645000", "155315.105000", "155315.565000", "155316.025000", "155316.485000", "155316.945000", "155317.405000", "155317.865000", "155318.325000", "155318.785000", "155319.245000", "155319.705000", "155320.165000", "155320.625000", "155321.085000", "155321.545000", "155322.005000", "155322.465000", "155322.925000", "155323.385000", "155323.845000", "155324.305000", "155324.765000", "155325.225000", "155325.685000", "155326.145000", "155326.605000", "155327.065000", "155327.525000", "155327.985000", "155328.445000", "155328.905000", "155329.365000", "155329.825000", "155330.285000", "155330.745000", "155331.205000", "155331.665000", "155332.125000", "155332.585000", "155333.045000", "155333.505000", "155333.965000", "155334.425000", "155334.885000", "155335.345000", "155335.805000", "155336.265000", "155336.725000", "155337.185000", "155337.645000", "155338.105000", "155338.565000", "155339.025000", "155339.485000", "155339.945000", "155340.405000", "155340.865000", "155341.325000", "155341.785000", "155342.245000", "155342.705000", "155343.165000", "155343.625000", "155344.085000", "155344.545000", "155345.005000", "155345.465000", "155345.925000", "155346.385000", "155346.845000", "155347.305000", "155347.765000", "155348.225000", "155348.685000", "155349.145000", "155349.605000", "155350.065000", "155350.525000", "155350.985000", "155351.445000", "155351.905000", "155352.365000", "155352.825000", "155353.285000", "155353.745000", "155354.205000", "155354.665000", "155355.125000", "155355.585000", "155356.045000", "155356.505000", "155356.965000", "155357.425000", "155357.885000", "155358.345000", "155358.805000", "155359.265000", "155359.725000", "155400.185000", "155400.645000", "155401.105000", "155401.565000", "155402.025000", "155402.485000", "155402.945000", "155403.405000", "155403.865000", "155404.325000", "155404.785000", "155405.245000", "155405.705000", "155406.165000", "155406.625000", "155407.085000", "155407.545000", "155408.005000", "155408.465000", "155408.925000", "155409.385000", "155409.845000", "155410.305000", "155410.765000", "155411.225000", "155411.685000", "155412.145000", "155412.605000", "155413.065000", "155413.525000", "155413.985000", "155414.445000", "155414.905000"],
