{
  "AcquisitionMatrixPE": 82,
  "AcquisitionNumber": 1,
  "AcquisitionTime": "16:48:36.277500",
  "BandwidthPerPixelPhaseEncode": 24.888,
  "BaseResolution": 82,
  "BodyPartExamined": "BRAIN",
  "ConsistencyInfo": "N4_VE11C_LATEST_20160120",
  "ConversionSoftware": "dcm2niix",
  "ConversionSoftwareVersion": "v1.0.20201102",
  "DerivedVendorReportedEchoSpacing": 0.00049,
  "DeviceSerialNumber": "66112",
  "DwellTime": 2e-06,
  "EchoTime": 0.0272,
  "EchoTrainLength": 82,
  "EffectiveEchoSpacing": 0.00049,
  "FlipAngle": 44,
  "ImageComments": "Unaliased MB8/PE3",
  "ImageOrientationPatientDICOM": [0.994262, 0.106575, 0.00920527, -0.106431, 0.976924, 0.185182],
  "ImageType": [
    "ORIGINAL",
    "PRIMARY",
    "M",
    "MB",
    "ND",
    "NORM",
    "MOSAIC"
],
  "ImagingFrequency": 123.252,
  "InPlanePhaseEncodingDirectionDICOM": "COL",
  "InstitutionAddress": "Maynard 3,Hanover,NH,US,03755",
  "InstitutionName": "Dartmouth College - PBS",
  "InstitutionalDepartmentName": "Department",
  "MRAcquisitionType": "2D",
  "MagneticFieldStrength": 3,
  "Manufacturer": "Siemens",
  "ManufacturersModelName": "Prisma",
  "Modality": "MR",
  "MultibandAccelerationFactor": 8,
  "PartialFourier": 1,
  "PatientPosition": "HFS",
  "PercentPhaseFOV": 100,
  "PercentSampling": 100,
  "PhaseEncodingDirection": "j-",
  "PhaseEncodingSteps": 82,
  "PhaseResolution": 1,
  "PixelBandwidth": 3050,
  "ProcedureStepDescription": "Wager_Wager^1076_spacetop",
  "ProtocolName": "func_run-02_task-alignvideo_acq-ap-mb8",
  "PulseSequenceDetails": "%CustomerSeq%\\cmrr_mbep2d_bold",
  "ReceiveCoilActiveElements": "HEA;HEP",
  "ReceiveCoilName": "Head_32",
  "ReconMatrixPE": 82,
  "RepetitionTime": 0.46,
  "SAR": 0.0834851,
  "ScanOptions": "FS",
  "ScanningSequence": "EP",
  "SequenceName": "epfid2d1_82",
  "SequenceVariant": "SK\\SS",
  "SeriesDescription": "func_run-02_task-alignvideo_acq-ap-mb8",
  "SeriesNumber": 32,
  "ShimSetting": [4156, -7774, -7248, 549, 56, -205, 99, -3],
  "SliceThickness": 2.7,
  "SliceTiming": [0, 0.25, 0.0625, 0.315, 0.125, 0.3775, 0.1875, 0, 0.25, 0.0625, 0.315, 0.125, 0.3775, 0.1875, 0, 0.25, 0.0625, 0.315, 0.125, 0.3775, 0.1875, 0, 0.25, 0.0625, 0.315, 0.125, 0.3775, 0.1875, 0, 0.25, 0.0625, 0.315, 0.125, 0.3775, 0.1875, 0, 0.25, 0.0625, 0.315, 0.125, 0.3775, 0.1875, 0, 0.25, 0.0625, 0.315, 0.125, 0.3775, 0.1875, 0, 0.25, 0.0625, 0.315, 0.125, 0.3775, 0.1875],
  "SoftwareVersions": "syngo MR E11",
  "SpacingBetweenSlices": 2.7,
  "StationName": "AWP66112",
  "TaskName": "alignvideo",
  "TotalReadoutTime": 0.03969,
  "TxRefAmp": 237.359,
  "WipMemBlock": "e239a41d-0730-4d41-8bc8-b02f82fdb353||Sequence: R016 ve11c/master r/e634e98; Dec 19 2017 11:00:25 by eja",
  "dcmmeta_affine": [
    [-2.667532205581665, -0.2855479121208191, -0.02900605835020542, 136.27891540527344],
    [-0.2859342694282532, 2.6210150718688965, 0.49976691603660583, -101.4508285522461],
    [0.024697067216038704, -0.49682897329330444, 2.6531851291656494, -42.28669738769531],
    [0.0, 0.0, 0.0, 1.0]
],
  "dcmmeta_reorient_transform": [
    [0.0, -1.0, 0.0, 81.0],
    [1.0, 0.0, 0.0, 0.0],
    [0.0, 0.0, 1.0, 0.0],
    [0.0, 0.0, 0.0, 1.0]
],
  "dcmmeta_shape": [82, 82, 56, 926],
  "dcmmeta_slice_dim": 2,
  "dcmmeta_version": 0.6,
  "global": {
    "const": {
      "AccessionNumber": "A003641",
      "AcquisitionMatrix": [82, 0, 0, 82],
      "AngioFlag": "N",
      "BitsAllocated": 16,
      "BitsStored": 16,
      "BodyPartExamined": "BRAIN",
      "Columns": 656,
      "EchoNumbers": 1,
      "EchoTime": 27.2,
      "EchoTrainLength": 82,
      "FlipAngle": 44.0,
      "HighBit": 15,
      "ImageOrientationPatient": [0.99426200086572, 0.10657549733028, 0.00920527040833, -0.1064314893186, 0.97692378158082, 0.18518170283068],
      "ImagePositionPatient": [-796.77905276415, -945.14585488744, -232.20781836076],
      "ImageType": [
        "ORIGINAL",
        "PRIMARY",
        "M",
        "MB",
        "ND",
        "NORM",
        "MOSAIC"
],
      "ImagedNucleus": "1H",
      "ImagingFrequency": 123.252181,
      "InPlanePhaseEncodingDirection": "COL",
      "MRAcquisitionType": "2D",
      "MagneticFieldStrength": 3.0,
      "Manufacturer": "SIEMENS",
      "ManufacturerModelName": "Prisma",
      "Modality": "MR",
      "NumberOfAverages": 1.0,
      "NumberOfPhaseEncodingSteps": 82,
      "PercentPhaseFieldOfView": 100.0,
      "PercentSampling": 100.0,
      "PerformedProcedureStepStartTime": "151839.846000",
      "PhotometricInterpretation": "MONOCHROME2",
      "PixelBandwidth": 3050.0,
      "PixelRepresentation": 0,
      "PixelSpacing": [2.6829268932343, 2.6829268932343],
      "ProtocolName": "func_run-02_task-alignvideo_acq-ap-mb8",
      "RepetitionTime": 460.0,
      "Rows": 656,
      "SAR": 0.08348514277706,
      "SamplesPerPixel": 1,
      "ScanOptions": "FS",
      "ScanningSequence": "EP",
      "SequenceName": "epfid2d1_82",
      "SequenceVariant": [
        "SK",
        "SS"
],
      "SeriesDescription": "func_run-02_task-alignvideo_acq-ap-mb8",
      "SeriesNumber": 32,
      "SeriesTime": "164904.042000",
      "SliceLocation": -61.795973191739,
      "SliceThickness": 2.7000000476837,
      "SmallestImagePixelValue": 0,
      "SoftwareVersions": "syngo MR E11",
      "SpacingBetweenSlices": 2.7000000185722,
      "SpecificCharacterSet": "ISO_IR 100",
      "StudyID": "2",
      "StudyTime": "151839.798000",
      "TransmitCoilName": "Body",
      "VariableFlipAngleFlag": "N",
      "WindowCenterWidthExplanation": "Algo1",
      "dBdt": 0.0},
    "slices": {}
  },
  "time": {
    "samples": {
      "AcquisitionNumber": [1, 2, 3, 4, 5, 6, 7, 8, 9, 10, 11, 12, 13, 14, 15, 16, 17, 18, 19, 20, 21, 22, 23, 24, 25, 26, 27, 28, 29, 30, 31, 32, 33, 34, 35, 36, 37, 38, 39, 40, 41, 42, 43, 44, 45, 46, 47, 48, 49, 50, 51, 52, 53, 54, 55, 56, 57, 58, 59, 60, 61, 62, 63, 64, 65, 66, 67, 68, 69, 70, 71, 72, 73, 74, 75, 76, 77, 78, 79, 80, 81, 82, 83, 84, 85, 86, 87, 88, 89, 90, 91, 92, 93, 94, 95, 96, 97, 98, 99, 100, 101, 102, 103, 104, 105, 106, 107, 108, 109, 110, 111, 112, 113, 114, 115, 116, 117, 118, 119, 120, 121, 122, 123, 124, 125, 126, 127, 128, 129, 130, 131, 132, 133, 134, 135, 136, 137, 138, 139, 140, 141, 142, 143, 144, 145, 146, 147, 148, 149, 150, 151, 152, 153, 154, 155, 156, 157, 158, 159, 160, 161, 162, 163, 164, 165, 166, 167, 168, 169, 170, 171, 172, 173, 174, 175, 176, 177, 178, 179, 180, 181, 182, 183, 184, 185, 186, 187, 188, 189, 190, 191, 192, 193, 194, 195, 196, 197, 198, 199, 200, 201, 202, 203, 204, 205, 206, 207, 208, 209, 210, 211, 212, 213, 214, 215, 216, 217, 218, 219, 220, 221, 222, 223, 224, 225, 226, 227, 228, 229, 230, 231, 232, 233, 234, 235, 236, 237, 238, 239, 240, 241, 242, 243, 244, 245, 246, 247, 248, 249, 250, 251, 252, 253, 254, 255, 256, 257, 258, 259, 260, 261, 262, 263, 264, 265, 266, 267, 268, 269, 270, 271, 272, 273, 274, 275, 276, 277, 278, 279, 280, 281, 282, 283, 284, 285, 286, 287, 288, 289, 290, 291, 292, 293, 294, 295, 296, 297, 298, 299, 300, 301, 302, 303, 304, 305, 306, 307, 308, 309, 310, 311, 312, 313, 314, 315, 316, 317, 318, 319, 320, 321, 322, 323, 324, 325, 326, 327, 328, 329, 330, 331, 332, 333, 334, 335, 336, 337, 338, 339, 340, 341, 342, 343, 344, 345, 346, 347, 348, 349, 350, 351, 352, 353, 354, 355, 356, 357, 358, 359, 360, 361, 362, 363, 364, 365, 366, 367, 368, 369, 370, 371, 372, 373, 374, 375, 376, 377, 378, 379, 380, 381, 382, 383, 384, 385, 386, 387, 388, 389, 390, 391, 392, 393, 394, 395, 396, 397, 398, 399, 400, 401, 402, 403, 404, 405, 406, 407, 408, 409, 410, 411, 412, 413, 414, 415, 416, 417, 418, 419, 420, 421, 422, 423, 424, 425, 426, 427, 428, 429, 430, 431, 432, 433, 434, 435, 436, 437, 438, 439, 440, 441, 442, 443, 444, 445, 446, 447, 448, 449, 450, 451, 452, 453, 454, 455, 456, 457, 458, 459, 460, 461, 462, 463, 464, 465, 466, 467, 468, 469, 470, 471, 472, 473, 474, 475, 476, 477, 478, 479, 480, 481, 482, 483, 484, 485, 486, 487, 488, 489, 490, 491, 492, 493, 494, 495, 496, 497, 498, 499, 500, 501, 502, 503, 504, 505, 506, 507, 508, 509, 510, 511, 512, 513, 514, 515, 516, 517, 518, 519, 520, 521, 522, 523, 524, 525, 526, 527, 528, 529, 530, 531, 532, 533, 534, 535, 536, 537, 538, 539, 540, 541, 542, 543, 544, 545, 546, 547, 548, 549, 550, 551, 552, 553, 554, 555, 556, 557, 558, 559, 560, 561, 562, 563, 564, 565, 566, 567, 568, 569, 570, 571, 572, 573, 574, 575, 576, 577, 578, 579, 580, 581, 582, 583, 584, 585, 586, 587, 588, 589, 590, 591, 592, 593, 594, 595, 596, 597, 598, 599, 600, 601, 602, 603, 604, 605, 606, 607, 608, 609, 610, 611, 612, 613, 614, 615, 616, 617, 618, 619, 620, 621, 622, 623, 624, 625, 626, 627, 628, 629, 630, 631, 632, 633, 634, 635, 636, 637, 638, 639, 640, 641, 642, 643, 644, 645, 646, 647, 648, 649, 650, 651, 652, 653, 654, 655, 656, 657, 658, 659, 660, 661, 662, 663, 664, 665, 666, 667, 668, 669, 670, 671, 672, 673, 674, 675, 676, 677, 678, 679, 680, 681, 682, 683, 684, 685, 686, 687, 688, 689, 690, 691, 692, 693, 694, 695, 696, 697, 698, 699, 700, 701, 702, 703, 704, 705, 706, 707, 708, 709, 710, 711, 712, 713, 714, 715, 716, 717, 718, 719, 720, 721, 722, 723, 724, 725, 726, 727, 728, 729, 730, 731, 732, 733, 734, 735, 736, 737, 738, 739, 740, 741, 742, 743, 744, 745, 746, 747, 748, 749, 750, 751, 752, 753, 754, 755, 756, 757, 758, 759, 760, 761, 762, 763, 764, 765, 766, 767, 768, 769, 770, 771, 772, 773, 774, 775, 776, 777, 778, 779, 780, 781, 782, 783, 784, 785, 786, 787, 788, 789, 790, 791, 792, 793, 794, 795, 796, 797, 798, 799, 800, 801, 802, 803, 804, 805, 806, 807, 808, 809, 810, 811, 812, 813, 814, 815, 816, 817, 818, 819, 820, 821, 822, 823, 824, 825, 826, 827, 828, 829, 830, 831, 832, 833, 834, 835, 836, 837, 838, 839, 840, 841, 842, 843, 844, 845, 846, 847, 848, 849, 850, 851, 852, 853, 854, 855, 856, 857, 858, 859, 860, 861, 862, 863, 864, 865, 866, 867, 868, 869, 870, 871, 872, 873, 874, 875, 876, 877, 878, 879, 880, 881, 882, 883, 884, 885, 886, 887, 888, 889, 890, 891, 892, 893, 894, 895, 896, 897, 898, 899, 900, 901, 902, 903, 904, 905, 906, 907, 908, 909, 910, 911, 912, 913, 914, 915, 916, 917, 918, 919, 920, 921, 922, 923, 924, 925, 926],
      "AcquisitionTime": ["164836.277500", "164836.737500", "164837.197500", "164837.657500", "164838.117500", "164838.577500", "164839.037500", "164839.497500", "164839.957500", "164840.417500", "164840.877500", "164841.337500", "164841.797500", "164842.257500", "164842.717500", "164843.177500", "164843.637500", "164844.097500", "164844.557500", "164845.017500", "164845.477500", "164845.937500", "164846.397500", "164846.857500", "164847.317500", "164847.777500", "164848.237500", "164848.697500", "164849.157500", "164849.617500", "164850.077500", "164850.537500", "164850.997500", "164851.457500", "164851.917500", "164852.377500", "164852.837500", "164853.297500", "164853.757500", "164854.217500", "164854.677500", "164855.137500", "164855.597500", "164856.057500", "164856.517500", "164856.977500", "164857.437500", "164857.897500", "164858.357500", "164858.817500", "164859.277500", "164859.737500", "164900.197500", "164900.657500", "164901.117500", "164901.577500", "164902.037500", "164902.497500", "164902.957500", "164903.417500", "164903.877500", "164904.337500", "164904.797500", "164905.257500", "164905.717500", "164906.177500", "164906.637500", "164907.097500", "164907.557500", "164908.017500", "164908.477500", "164908.937500", "164909.397500", "164909.857500", "164910.317500", "164910.777500", "164911.237500", "164911.697500", "164912.157500", "164912.617500", "164913.077500", "164913.537500", "164913.997500", "164914.457500", "164914.917500", "164915.377500", "164915.837500", "164916.297500", "164916.757500", "164917.217500", "164917.677500", "164918.137500", "164918.597500", "164919.057500", "164919.517500", "164919.977500", "164920.437500", "164920.897500", "164921.357500", "164921.817500", "164922.277500", "164922.737500", "164923.197500", "164923.657500", "164924.117500", "164924.577500", "164925.037500", "164925.497500", "164925.957500", "164926.417500", "164926.877500", "164927.337500", "164927.797500", "164928.257500", "164928.717500", "164929.177500", "164929.637500", "164930.097500", "164930.557500", "164931.017500", "164931.477500", "164931.937500", "164932.397500", "164932.857500", "164933.317500", "164933.777500", "164934.237500", "164934.697500", "164935.157500", "164935.617500", "164936.077500", "164936.537500", "164936.997500", "164937.457500", "164937.917500", "164938.377500", "164938.837500", "164939.297500", "164939.757500", "164940.217500", "164940.677500", "164941.137500", "164941.597500", "164942.057500", "164942.517500", "164942.977500", "164943.437500", "164943.897500", "164944.357500", "164944.817500", "164945.277500", "164945.737500", "164946.197500", "164946.657500", "164947.117500", "164947.577500", "164948.037500", "164948.497500", "164948.957500", "164949.417500", "164949.877500", "164950.337500", "164950.797500", "164951.257500", "164951.717500", "164952.177500", "164952.637500", "164953.097500", "164953.557500", "164954.017500", "164954.477500", "164954.937500", "164955.397500", "164955.857500", "164956.317500", "164956.777500", "164957.237500", "164957.697500", "164958.157500", "164958.617500", "164959.077500", "164959.537500", "164959.997500", "165000.457500", "165000.917500", "165001.377500", "165001.837500", "165002.297500", "165002.757500", "165003.217500", "165003.677500", "165004.137500", "165004.597500", "165005.057500", "165005.517500", "165005.977500", "165006.437500", "165006.897500", "165007.357500", "165007.817500", "165008.277500", "165008.737500", "165009.197500", "165009.657500", "165010.117500", "165010.577500", "165011.037500", "165011.497500", "165011.957500", "165012.417500", "165012.877500", "165013.337500", "165013.797500", "165014.257500", "165014.717500", "165015.177500", "165015.637500", "165016.097500", "165016.557500", "165017.017500", "165017.477500", "165017.937500", "165018.397500", "165018.857500", "165019.317500", "165019.777500", "165020.237500", "165020.697500", "165021.157500", "165021.617500", "165022.077500", "165022.537500", "165022.997500", "165023.457500", "165023.917500", "165024.377500", "165024.837500", "165025.297500", "165025.757500", "165026.217500", "165026.677500", "165027.137500", "165027.597500", "165028.057500", "165028.517500", "165028.977500", "165029.437500", "165029.897500", "165030.357500", "165030.817500", "165031.277500", "165031.737500", "165032.197500", "165032.657500", "165033.117500", "165033.577500", "165034.037500", "165034.497500", "165034.957500", "165035.417500", "165035.877500", "165036.337500", "165036.797500", "165037.257500", "165037.717500", "165038.177500", "165038.637500", "165039.097500", "165039.557500", "165040.017500", "165040.477500", "165040.937500", "165041.397500", "165041.857500", "165042.317500", "165042.777500", "165043.237500", "165043.697500", "165044.157500", "165044.617500", "165045.077500", "165045.537500", "165045.997500", "165046.457500", "165046.917500", "165047.377500", "165047.837500", "165048.297500", "165048.757500", "165049.217500", "165049.677500", "165050.137500", "165050.597500", "165051.057500", "165051.517500", "165051.977500", "165052.437500", "165052.897500", "165053.357500", "165053.817500", "165054.277500", "165054.737500", "165055.197500", "165055.657500", "165056.117500", "165056.577500", "165057.037500", "165057.497500", "165057.957500", "165058.417500", "165058.877500", "165059.337500", "165059.797500", "165100.257500", "165100.717500", "165101.177500", "165101.637500", "165102.097500", "165102.557500", "165103.017500", "165103.477500", "165103.937500", "165104.397500", "165104.857500", "165105.317500", "165105.777500", "165106.237500", "165106.697500", "165107.157500", "165107.617500", "165108.077500", "165108.537500", "165108.997500", "165109.457500", "165109.917500", "165110.377500", "165110.837500", "165111.297500", "165111.757500", "165112.217500", "165112.677500", "165113.137500", "165113.597500", "165114.057500", "165114.517500", "165114.977500", "165115.437500", "165115.897500", "165116.357500", "165116.817500", "165117.277500", "165117.737500", "165118.197500", "165118.657500", "165119.117500", "165119.577500", "165120.037500", "165120.497500", "165120.957500", "165121.417500", "165121.877500", "165122.337500", "165122.797500", "165123.257500", "165123.717500", "165124.177500", "165124.637500", "165125.097500", "165125.557500", "165126.017500", "165126.477500", "165126.937500", "165127.397500", "165127.857500", "165128.317500", "165128.777500", "165129.237500", "165129.697500", "165130.157500", "165130.617500", "165131.077500", "165131.537500", "165131.997500", "165132.457500", "165132.917500", "165133.377500", "165133.837500", "165134.297500", "165134.757500", "165135.217500", "165135.677500", "165136.137500", "165136.597500", "165137.057500", "165137.517500", "165137.977500", "165138.437500", "165138.897500", "165139.357500", "165139.817500", "165140.277500", "165140.737500", "165141.197500", "165141.657500", "165142.117500", "165142.577500", "165143.037500", "165143.497500", "165143.957500", "165144.417500", "165144.877500", "165145.337500", "165145.797500", "165146.257500", "165146.717500", "165147.177500", "165147.637500", "165148.097500", "165148.557500", "165149.017500", "165149.477500", "165149.937500", "165150.397500", "165150.857500", "165151.317500", "165151.777500", "165152.237500", "165152.697500", "165153.157500", "165153.617500", "165154.077500", "165154.537500", "165154.997500", "165155.457500", "165155.917500", "165156.377500", "165156.837500", "165157.297500", "165157.757500", "165158.217500", "165158.677500", "165159.137500", "165159.597500", "165200.057500", "165200.517500", "165200.977500", "165201.437500", "165201.897500", "165202.357500", "165202.817500", "165203.277500", "165203.737500", "165204.197500", "165204.657500", "165205.117500", "165205.577500", "165206.037500", "165206.497500", "165206.957500", "165207.417500", "165207.877500", "165208.337500", "165208.797500", "165209.257500", "165209.717500", "165210.177500", "165210.637500", "165211.097500", "165211.557500", "165212.017500", "165212.477500", "165212.937500", "165213.397500", "165213.857500", "165214.317500", "165214.777500", "165215.237500", "165215.697500", "165216.157500", "165216.617500", "165217.077500", "165217.537500", "165217.997500", "165218.457500", "165218.917500", "165219.377500", "165219.837500", "165220.297500", "165220.757500", "165221.217500", "165221.677500", "165222.137500", "165222.597500", "165223.057500", "165223.517500", "165223.977500", "165224.437500", "165224.897500", "165225.357500", "165225.817500", "165226.277500", "165226.737500", "165227.197500", "165227.657500", "165228.117500", "165228.577500", "165229.037500", "165229.497500", "165229.957500", "165230.417500", "165230.877500", "165231.337500", "165231.797500", "165232.257500", "165232.717500", "165233.177500", "165233.637500", "165234.097500", "165234.557500", "165235.017500", "165235.477500", "165235.937500", "165236.397500", "165236.857500", "165237.317500", "165237.777500", "165238.237500", "165238.697500", "165239.157500", "165239.617500", "165240.077500", "165240.537500", "165240.997500", "165241.457500", "165241.917500", "165242.377500", "165242.837500", "165243.297500", "165243.757500", "165244.217500", "165244.677500", "165245.137500", "165245.597500", "165246.057500", "165246.517500", "165246.977500", "165247.437500", "165247.897500", "165248.357500", "165248.817500", "165249.277500", "165249.737500", "165250.197500", "165250.657500", "165251.117500", "165251.577500", "165252.037500", "165252.497500", "165252.957500", "165253.417500", "165253.877500", "165254.337500", "165254.797500", "165255.257500", "165255.717500", "165256.177500", "165256.637500", "165257.097500", "165257.557500", "165258.017500", "165258.477500", "165258.937500", "165259.397500", "165259.857500", "165300.317500", "165300.777500", "165301.237500", "165301.697500", "165302.157500", "165302.617500", "165303.077500", "165303.537500", "165303.997500", "165304.457500", "165304.917500", "165305.377500", "165305.837500", "165306.297500", "165306.757500", "165307.217500", "165307.677500", "165308.137500", "165308.597500", "165309.057500", "165309.517500", "165309.977500", "165310.437500", "165310.897500", "165311.357500", "165311.817500", "165312.277500", "165312.737500", "165313.197500", "165313.657500", "165314.117500", "165314.577500", "165315.037500", "165315.497500", "165315.957500", "165316.417500", "165316.877500", "165317.337500", "165317.797500", "165318.257500", "165318.717500", "165319.177500", "165319.637500", "165320.097500", "165320.557500", "165321.017500", "165321.477500", "165321.937500", "165322.397500", "165322.857500", "165323.317500", "165323.777500", "165324.237500", "165324.697500", "165325.157500", "165325.617500", "165326.077500", "165326.537500", "165326.997500", "165327.457500", "165327.917500", "165328.377500", "165328.837500", "165329.297500", "165329.757500", "165330.217500", "165330.677500", "165331.137500", "165331.597500", "165332.057500", "165332.517500", "165332.977500", "165333.437500", "165333.897500", "165334.357500", "165334.817500", "165335.277500", "165335.737500", "165336.197500", "165336.657500", "165337.117500", "165337.577500", "165338.037500", "165338.497500", "165338.957500", "165339.417500", "165339.877500", "165340.337500", "165340.797500", "165341.257500", "165341.717500", "165342.177500", "165342.637500", "165343.097500", "165343.557500", "165344.017500", "165344.477500", "165344.937500", "165345.397500", "165345.857500", "165346.317500", "165346.777500", "165347.237500", "165347.697500", "165348.157500", "165348.617500", "165349.077500", "165349.537500", "165349.997500", "165350.457500", "165350.917500", "165351.377500", "165351.837500", "165352.297500", "165352.757500", "165353.217500", "165353.677500", "165354.137500", "165354.597500", "165355.057500", "165355.517500", "165355.977500", "165356.437500", "165356.897500", "165357.357500", "165357.817500", "165358.277500", "165358.737500", "165359.197500", "165359.657500", "165400.117500", "165400.577500", "165401.037500", "165401.497500", "165401.957500", "165402.417500", "165402.877500", "165403.337500", "165403.797500", "165404.257500", "165404.717500", "165405.177500", "165405.637500", "165406.097500", "165406.557500", "165407.017500", "165407.477500", "165407.937500", "165408.397500", "165408.857500", "165409.317500", "165409.777500", "165410.237500", "165410.697500", "165411.157500", "165411.617500", "165412.077500", "165412.537500", "165412.997500", "165413.457500", "165413.917500", "165414.377500", "165414.837500", "165415.297500", "165415.757500", "165416.217500", "165416.677500", "165417.137500", "165417.597500", "165418.057500", "165418.517500", "165418.977500", "165419.437500", "165419.897500", "165420.357500", "165420.817500", "165421.277500", "165421.737500", "165422.197500", "165422.657500", "165423.117500", "165423.577500", "165424.037500", "165424.497500", "165424.957500", "165425.417500", "165425.877500", "165426.337500", "165426.797500", "165427.257500", "165427.717500", "165428.177500", "165428.637500", "165429.097500", "165429.557500", "165430.017500", "165430.477500", "165430.937500", "165431.397500", "165431.857500", "165432.317500", "165432.777500", "165433.237500", "165433.697500", "165434.157500", "165434.617500", "165435.077500", "165435.537500", "165435.997500", "165436.457500", "165436.917500", "165437.377500", "165437.837500", "165438.297500", "165438.757500", "165439.217500", "165439.677500", "165440.137500", "165440.597500", "165441.057500", "165441.517500", "165441.977500", "165442.437500", "165442.897500", "165443.357500", "165443.817500", "165444.277500", "165444.737500", "165445.197500", "165445.657500", "165446.117500", "165446.577500", "165447.037500", "165447.497500", "165447.957500", "165448.417500", "165448.877500", "165449.337500", "165449.797500", "165450.257500", "165450.717500", "165451.177500", "165451.637500", "165452.097500", "165452.557500", "165453.017500", "165453.477500", "165453.937500", "165454.397500", "165454.857500", "165455.317500", "165455.777500", "165456.237500", "165456.697500", "165457.157500", "165457.617500", "165458.077500", "165458.537500", "165458.997500", "165459.457500", "165459.917500", "165500.377500", "165500.837500", "165501.297500", "165501.757500", "165502.217500", "165502.677500", "165503.137500", "165503.597500", "165504.057500", "165504.517500", "165504.977500", "165505.437500", "165505.897500", "165506.357500", "165506.817500", "165507.277500", "165507.737500", "165508.197500", "165508.657500", "165509.117500", "165509.577500", "165510.037500", "165510.497500", "165510.957500", "165511.417500", "165511.877500", "165512.337500", "165512.797500", "165513.257500", "165513.717500", "165514.177500", "165514.637500", "165515.097500", "165515.557500", "165516.017500", "165516.477500", "165516.937500", "165517.397500", "165517.857500", "165518.317500", "165518.777500", "165519.237500", "165519.697500", "165520.157500", "165520.617500", "165521.077500", "165521.537500", "165521.997500", "165522.457500", "165522.917500", "165523.377500", "165523.837500", "165524.297500", "165524.757500", "165525.217500", "165525.677500", "165526.137500", "165526.597500", "165527.057500", "165527.517500", "165527.977500", "165528.437500", "165528.897500", "165529.357500", "165529.817500", "165530.277500", "165530.737500", "165531.197500", "165531.657500", "165532.117500", "165532.577500", "165533.037500", "165533.497500", "165533.957500", "165534.417500", "165534.877500", "165535.337500", "165535.797500", "165536.257500", "165536.717500", "165537.177500", "165537.637500", "165538.097500", "165538.557500", "165539.017500", "165539.477500", "165539.937500", "165540.397500", "165540.857500", "165541.317500", "165541.777500"],
