{
  "AcquisitionMatrixPE": 82,
  "AcquisitionNumber": 1,
  "AcquisitionTime": "16:29:14.575000",
  "BandwidthPerPixelPhaseEncode": 24.888,
  "BaseResolution": 82,
  "BodyPartExamined": "BRAIN",
  "ConsistencyInfo": "N4_VE11C_LATEST_20160120",
  "ConversionSoftware": "dcm2niix",
  "ConversionSoftwareVersion": "v1.0.20201102",
  "DerivedVendorReportedEchoSpacing": 0.00049,
  "DeviceSerialNumber": "66112",
  "DwellTime": 2e-06,
  "EchoTime": 0.0272,
  "EchoTrainLength": 82,
  "EffectiveEchoSpacing": 0.00049,
  "FlipAngle": 44,
  "ImageComments": "Unaliased MB8/PE3",
  "ImageOrientationPatientDICOM": [0.995038, 0.0980108, 0.0171137, -0.0994935, 0.979852, 0.173182],
  "ImageType": [
    "ORIGINAL",
    "PRIMARY",
    "M",
    "MB",
    "ND",
    "NORM",
    "MOSAIC"
],
  "ImagingFrequency": 123.252,
  "InPlanePhaseEncodingDirectionDICOM": "COL",
  "InstitutionAddress": "Maynard 3,Hanover,NH,US,03755",
  "InstitutionName": "Dartmouth College - PBS",
  "InstitutionalDepartmentName": "Department",
  "MRAcquisitionType": "2D",
  "MagneticFieldStrength": 3,
  "Manufacturer": "Siemens",
  "ManufacturersModelName": "Prisma",
  "Modality": "MR",
  "MultibandAccelerationFactor": 8,
  "PartialFourier": 1,
  "PatientPosition": "HFS",
  "PercentPhaseFOV": 100,
  "PercentSampling": 100,
  "PhaseEncodingDirection": "j-",
  "PhaseEncodingSteps": 82,
  "PhaseResolution": 1,
  "PixelBandwidth": 3050,
  "ProcedureStepDescription": "Wager_Wager^1076_spacetop",
  "ProtocolName": "func_run-06_task-social_acq-ap-mb8",
  "PulseSequenceDetails": "%CustomerSeq%\\cmrr_mbep2d_bold",
  "ReceiveCoilActiveElements": "HEA;HEP",
  "ReceiveCoilName": "Head_32",
  "ReconMatrixPE": 82,
  "RepetitionTime": 0.46,
  "SAR": 0.0834549,
  "ScanOptions": "FS",
  "ScanningSequence": "EP",
  "SequenceName": "epfid2d1_82",
  "SequenceVariant": "SK\\SS",
  "SeriesDescription": "func_run-06_task-social_acq-ap-mb8",
  "SeriesNumber": 22,
  "ShimSetting": [4155, -7777, -7250, 557, 55, -228, 94, -3],
  "SliceThickness": 2.7,
  "SliceTiming": [0, 0.2525, 0.065, 0.315, 0.1275, 0.3775, 0.19, 0, 0.2525, 0.065, 0.315, 0.1275, 0.3775, 0.19, 0, 0.2525, 0.065, 0.315, 0.1275, 0.3775, 0.19, 0, 0.2525, 0.065, 0.315, 0.1275, 0.3775, 0.19, 0, 0.2525, 0.065, 0.315, 0.1275, 0.3775, 0.19, 0, 0.2525, 0.065, 0.315, 0.1275, 0.3775, 0.19, 0, 0.2525, 0.065, 0.315, 0.1275, 0.3775, 0.19, 0, 0.2525, 0.065, 0.315, 0.1275, 0.3775, 0.19],
  "SoftwareVersions": "syngo MR E11",
  "SpacingBetweenSlices": 2.7,
  "StationName": "AWP66112",
  "TaskName": "social",
  "TotalReadoutTime": 0.03969,
  "TxRefAmp": 237.359,
  "WipMemBlock": "b0b0b427-410d-42e1-b862-06e75de3d676||Sequence: R016 ve11c/master r/e634e98; Dec 19 2017 11:00:25 by eja",
  "dcmmeta_affine": [
    [-2.669614791870117, -0.2669336497783661, -0.0005529859336093068, 133.8319091796875],
    [-0.2629557251930237, 2.6288700103759766, 0.46986839175224304, -102.70856475830078],
    [0.045914798974990845, -0.46463441848754883, 2.6588010787963867, -48.75532150268555],
    [0.0, 0.0, 0.0, 1.0]
],
  "dcmmeta_reorient_transform": [
    [0.0, -1.0, 0.0, 81.0],
    [1.0, 0.0, 0.0, 0.0],
    [0.0, 0.0, 1.0, 0.0],
    [0.0, 0.0, 0.0, 1.0]
],
  "dcmmeta_shape": [82, 82, 56, 872],
  "dcmmeta_slice_dim": 2,
  "dcmmeta_version": 0.6,
  "global": {
    "const": {
      "AccessionNumber": "A003641",
      "AcquisitionMatrix": [82, 0, 0, 82],
      "AngioFlag": "N",
      "BitsAllocated": 16,
      "BitsStored": 16,
      "BodyPartExamined": "BRAIN",
      "Columns": 656,
      "EchoNumbers": 1,
      "EchoTime": 27.2,
      "EchoTrainLength": 82,
      "FlipAngle": 44.0,
      "HighBit": 15,
      "ImageOrientationPatient": [0.99503819594507, 0.09801076461653, 0.01711369713609, -0.0994934503543, 0.97985155809624, 0.17318192005219],
      "ImagePositionPatient": [-801.77974948523, -940.18392092298, -232.91833803622],
      "ImageType": [
        "ORIGINAL",
        "PRIMARY",
        "M",
        "MB",
        "ND",
        "NORM",
        "MOSAIC"
],
      "ImagedNucleus": "1H",
      "ImagingFrequency": 123.252182,
      "InPlanePhaseEncodingDirection": "COL",
      "MRAcquisitionType": "2D",
      "MagneticFieldStrength": 3.0,
      "Manufacturer": "SIEMENS",
      "ManufacturerModelName": "Prisma",
      "Modality": "MR",
      "NumberOfAverages": 1.0,
      "NumberOfPhaseEncodingSteps": 82,
      "PercentPhaseFieldOfView": 100.0,
      "PercentSampling": 100.0,
      "PerformedProcedureStepStartTime": "151839.846000",
      "PhotometricInterpretation": "MONOCHROME2",
      "PixelBandwidth": 3050.0,
      "PixelRepresentation": 0,
      "PixelSpacing": [2.6829268932343, 2.6829268932343],
      "ProtocolName": "func_run-06_task-social_acq-ap-mb8",
      "RepetitionTime": 460.0,
      "Rows": 656,
      "SAR": 0.08345490942035,
      "SamplesPerPixel": 1,
      "ScanOptions": "FS",
      "ScanningSequence": "EP",
      "SequenceName": "epfid2d1_82",
      "SequenceVariant": [
        "SK",
        "SS"
],
      "SeriesDescription": "func_run-06_task-social_acq-ap-mb8",
      "SeriesNumber": 22,
      "SeriesTime": "162943.878000",
      "SliceLocation": -65.912672185183,
      "SliceThickness": 2.7000000476837,
      "SmallestImagePixelValue": 0,
      "SoftwareVersions": "syngo MR E11",
      "SpacingBetweenSlices": 2.7000000073373,
      "SpecificCharacterSet": "ISO_IR 100",
      "StudyID": "2",
      "StudyTime": "151839.798000",
      "TransmitCoilName": "Body",
      "VariableFlipAngleFlag": "N",
      "WindowCenterWidthExplanation": "Algo1",
      "dBdt": 0.0},
    "slices": {}
  },
  "time": {
    "samples": {
      "AcquisitionNumber": [1, 2, 3, 4, 5, 6, 7, 8, 9, 10, 11, 12, 13, 14, 15, 16, 17, 18, 19, 20, 21, 22, 23, 24, 25, 26, 27, 28, 29, 30, 31, 32, 33, 34, 35, 36, 37, 38, 39, 40, 41, 42, 43, 44, 45, 46, 47, 48, 49, 50, 51, 52, 53, 54, 55, 56, 57, 58, 59, 60, 61, 62, 63, 64, 65, 66, 67, 68, 69, 70, 71, 72, 73, 74, 75, 76, 77, 78, 79, 80, 81, 82, 83, 84, 85, 86, 87, 88, 89, 90, 91, 92, 93, 94, 95, 96, 97, 98, 99, 100, 101, 102, 103, 104, 105, 106, 107, 108, 109, 110, 111, 112, 113, 114, 115, 116, 117, 118, 119, 120, 121, 122, 123, 124, 125, 126, 127, 128, 129, 130, 131, 132, 133, 134, 135, 136, 137, 138, 139, 140, 141, 142, 143, 144, 145, 146, 147, 148, 149, 150, 151, 152, 153, 154, 155, 156, 157, 158, 159, 160, 161, 162, 163, 164, 165, 166, 167, 168, 169, 170, 171, 172, 173, 174, 175, 176, 177, 178, 179, 180, 181, 182, 183, 184, 185, 186, 187, 188, 189, 190, 191, 192, 193, 194, 195, 196, 197, 198, 199, 200, 201, 202, 203, 204, 205, 206, 207, 208, 209, 210, 211, 212, 213, 214, 215, 216, 217, 218, 219, 220, 221, 222, 223, 224, 225, 226, 227, 228, 229, 230, 231, 232, 233, 234, 235, 236, 237, 238, 239, 240, 241, 242, 243, 244, 245, 246, 247, 248, 249, 250, 251, 252, 253, 254, 255, 256, 257, 258, 259, 260, 261, 262, 263, 264, 265, 266, 267, 268, 269, 270, 271, 272, 273, 274, 275, 276, 277, 278, 279, 280, 281, 282, 283, 284, 285, 286, 287, 288, 289, 290, 291, 292, 293, 294, 295, 296, 297, 298, 299, 300, 301, 302, 303, 304, 305, 306, 307, 308, 309, 310, 311, 312, 313, 314, 315, 316, 317, 318, 319, 320, 321, 322, 323, 324, 325, 326, 327, 328, 329, 330, 331, 332, 333, 334, 335, 336, 337, 338, 339, 340, 341, 342, 343, 344, 345, 346, 347, 348, 349, 350, 351, 352, 353, 354, 355, 356, 357, 358, 359, 360, 361, 362, 363, 364, 365, 366, 367, 368, 369, 370, 371, 372, 373, 374, 375, 376, 377, 378, 379, 380, 381, 382, 383, 384, 385, 386, 387, 388, 389, 390, 391, 392, 393, 394, 395, 396, 397, 398, 399, 400, 401, 402, 403, 404, 405, 406, 407, 408, 409, 410, 411, 412, 413, 414, 415, 416, 417, 418, 419, 420, 421, 422, 423, 424, 425, 426, 427, 428, 429, 430, 431, 432, 433, 434, 435, 436, 437, 438, 439, 440, 441, 442, 443, 444, 445, 446, 447, 448, 449, 450, 451, 452, 453, 454, 455, 456, 457, 458, 459, 460, 461, 462, 463, 464, 465, 466, 467, 468, 469, 470, 471, 472, 473, 474, 475, 476, 477, 478, 479, 480, 481, 482, 483, 484, 485, 486, 487, 488, 489, 490, 491, 492, 493, 494, 495, 496, 497, 498, 499, 500, 501, 502, 503, 504, 505, 506, 507, 508, 509, 510, 511, 512, 513, 514, 515, 516, 517, 518, 519, 520, 521, 522, 523, 524, 525, 526, 527, 528, 529, 530, 531, 532, 533, 534, 535, 536, 537, 538, 539, 540, 541, 542, 543, 544, 545, 546, 547, 548, 549, 550, 551, 552, 553, 554, 555, 556, 557, 558, 559, 560, 561, 562, 563, 564, 565, 566, 567, 568, 569, 570, 571, 572, 573, 574, 575, 576, 577, 578, 579, 580, 581, 582, 583, 584, 585, 586, 587, 588, 589, 590, 591, 592, 593, 594, 595, 596, 597, 598, 599, 600, 601, 602, 603, 604, 605, 606, 607, 608, 609, 610, 611, 612, 613, 614, 615, 616, 617, 618, 619, 620, 621, 622, 623, 624, 625, 626, 627, 628, 629, 630, 631, 632, 633, 634, 635, 636, 637, 638, 639, 640, 641, 642, 643, 644, 645, 646, 647, 648, 649, 650, 651, 652, 653, 654, 655, 656, 657, 658, 659, 660, 661, 662, 663, 664, 665, 666, 667, 668, 669, 670, 671, 672, 673, 674, 675, 676, 677, 678, 679, 680, 681, 682, 683, 684, 685, 686, 687, 688, 689, 690, 691, 692, 693, 694, 695, 696, 697, 698, 699, 700, 701, 702, 703, 704, 705, 706, 707, 708, 709, 710, 711, 712, 713, 714, 715, 716, 717, 718, 719, 720, 721, 722, 723, 724, 725, 726, 727, 728, 729, 730, 731, 732, 733, 734, 735, 736, 737, 738, 739, 740, 741, 742, 743, 744, 745, 746, 747, 748, 749, 750, 751, 752, 753, 754, 755, 756, 757, 758, 759, 760, 761, 762, 763, 764, 765, 766, 767, 768, 769, 770, 771, 772, 773, 774, 775, 776, 777, 778, 779, 780, 781, 782, 783, 784, 785, 786, 787, 788, 789, 790, 791, 792, 793, 794, 795, 796, 797, 798, 799, 800, 801, 802, 803, 804, 805, 806, 807, 808, 809, 810, 811, 812, 813, 814, 815, 816, 817, 818, 819, 820, 821, 822, 823, 824, 825, 826, 827, 828, 829, 830, 831, 832, 833, 834, 835, 836, 837, 838, 839, 840, 841, 842, 843, 844, 845, 846, 847, 848, 849, 850, 851, 852, 853, 854, 855, 856, 857, 858, 859, 860, 861, 862, 863, 864, 865, 866, 867, 868, 869, 870, 871, 872],
      "AcquisitionTime": ["162914.575000", "162915.035000", "162915.495000", "162915.955000", "162916.415000", "162916.875000", "162917.335000", "162917.795000", "162918.255000", "162918.715000", "162919.175000", "162919.635000", "162920.095000", "162920.555000", "162921.015000", "162921.475000", "162921.935000", "162922.395000", "162922.855000", "162923.315000", "162923.775000", "162924.235000", "162924.695000", "162925.155000", "162925.615000", "162926.075000", "162926.535000", "162926.995000", "162927.455000", "162927.915000", "162928.375000", "162928.835000", "162929.295000", "162929.755000", "162930.215000", "162930.675000", "162931.135000", "162931.595000", "162932.055000", "162932.515000", "162932.975000", "162933.435000", "162933.895000", "162934.355000", "162934.815000", "162935.275000", "162935.735000", "162936.195000", "162936.655000", "162937.115000", "162937.575000", "162938.035000", "162938.495000", "162938.955000", "162939.415000", "162939.875000", "162940.335000", "162940.795000", "162941.255000", "162941.715000", "162942.175000", "162942.635000", "162943.095000", "162943.555000", "162944.015000", "162944.475000", "162944.935000", "162945.395000", "162945.855000", "162946.315000", "162946.775000", "162947.235000", "162947.695000", "162948.155000", "162948.615000", "162949.075000", "162949.535000", "162949.995000", "162950.455000", "162950.915000", "162951.375000", "162951.835000", "162952.295000", "162952.755000", "162953.215000", "162953.675000", "162954.135000", "162954.595000", "162955.055000", "162955.515000", "162955.975000", "162956.435000", "162956.895000", "162957.355000", "162957.815000", "162958.275000", "162958.735000", "162959.195000", "162959.655000", "163000.115000", "163000.575000", "163001.035000", "163001.495000", "163001.955000", "163002.415000", "163002.875000", "163003.335000", "163003.795000", "163004.255000", "163004.715000", "163005.175000", "163005.635000", "163006.095000", "163006.555000", "163007.015000", "163007.475000", "163007.935000", "163008.395000", "163008.855000", "163009.315000", "163009.775000", "163010.235000", "163010.695000", "163011.155000", "163011.615000", "163012.075000", "163012.535000", "163012.995000", "163013.455000", "163013.915000", "163014.375000", "163014.835000", "163015.295000", "163015.755000", "163016.215000", "163016.675000", "163017.135000", "163017.595000", "163018.055000", "163018.515000", "163018.975000", "163019.435000", "163019.895000", "163020.355000", "163020.815000", "163021.275000", "163021.735000", "163022.195000", "163022.655000", "163023.115000", "163023.575000", "163024.035000", "163024.495000", "163024.955000", "163025.415000", "163025.875000", "163026.335000", "163026.795000", "163027.255000", "163027.715000", "163028.175000", "163028.635000", "163029.095000", "163029.555000", "163030.015000", "163030.475000", "163030.935000", "163031.395000", "163031.855000", "163032.315000", "163032.775000", "163033.235000", "163033.695000", "163034.155000", "163034.615000", "163035.075000", "163035.535000", "163035.995000", "163036.455000", "163036.915000", "163037.375000", "163037.835000", "163038.295000", "163038.755000", "163039.215000", "163039.675000", "163040.135000", "163040.595000", "163041.055000", "163041.515000", "163041.975000", "163042.435000", "163042.895000", "163043.355000", "163043.815000", "163044.275000", "163044.735000", "163045.195000", "163045.655000", "163046.115000", "163046.575000", "163047.035000", "163047.495000", "163047.955000", "163048.415000", "163048.875000", "163049.335000", "163049.795000", "163050.255000", "163050.715000", "163051.175000", "163051.635000", "163052.095000", "163052.555000", "163053.015000", "163053.475000", "163053.935000", "163054.395000", "163054.855000", "163055.315000", "163055.775000", "163056.235000", "163056.695000", "163057.155000", "163057.615000", "163058.075000", "163058.535000", "163058.995000", "163059.455000", "163059.915000", "163100.375000", "163100.835000", "163101.295000", "163101.755000", "163102.215000", "163102.675000", "163103.135000", "163103.595000", "163104.055000", "163104.515000", "163104.975000", "163105.435000", "163105.895000", "163106.355000", "163106.815000", "163107.275000", "163107.735000", "163108.195000", "163108.655000", "163109.115000", "163109.575000", "163110.035000", "163110.495000", "163110.955000", "163111.415000", "163111.875000", "163112.335000", "163112.795000", "163113.255000", "163113.715000", "163114.175000", "163114.635000", "163115.095000", "163115.555000", "163116.015000", "163116.475000", "163116.935000", "163117.395000", "163117.855000", "163118.315000", "163118.775000", "163119.235000", "163119.695000", "163120.155000", "163120.615000", "163121.075000", "163121.535000", "163121.995000", "163122.455000", "163122.915000", "163123.375000", "163123.835000", "163124.295000", "163124.755000", "163125.215000", "163125.675000", "163126.135000", "163126.595000", "163127.055000", "163127.515000", "163127.975000", "163128.435000", "163128.895000", "163129.355000", "163129.815000", "163130.275000", "163130.735000", "163131.195000", "163131.655000", "163132.115000", "163132.575000", "163133.035000", "163133.495000", "163133.955000", "163134.415000", "163134.875000", "163135.335000", "163135.795000", "163136.255000", "163136.715000", "163137.175000", "163137.635000", "163138.095000", "163138.555000", "163139.015000", "163139.475000", "163139.935000", "163140.395000", "163140.855000", "163141.315000", "163141.775000", "163142.235000", "163142.695000", "163143.155000", "163143.615000", "163144.075000", "163144.535000", "163144.995000", "163145.455000", "163145.915000", "163146.375000", "163146.835000", "163147.295000", "163147.755000", "163148.215000", "163148.675000", "163149.135000", "163149.595000", "163150.055000", "163150.515000", "163150.975000", "163151.435000", "163151.895000", "163152.355000", "163152.815000", "163153.275000", "163153.735000", "163154.195000", "163154.655000", "163155.115000", "163155.575000", "163156.035000", "163156.495000", "163156.955000", "163157.415000", "163157.875000", "163158.335000", "163158.795000", "163159.255000", "163159.715000", "163200.175000", "163200.635000", "163201.095000", "163201.555000", "163202.015000", "163202.475000", "163202.935000", "163203.395000", "163203.855000", "163204.315000", "163204.775000", "163205.235000", "163205.695000", "163206.155000", "163206.615000", "163207.075000", "163207.535000", "163207.995000", "163208.455000", "163208.915000", "163209.375000", "163209.835000", "163210.295000", "163210.755000", "163211.215000", "163211.675000", "163212.135000", "163212.595000", "163213.055000", "163213.515000", "163213.975000", "163214.435000", "163214.895000", "163215.355000", "163215.815000", "163216.275000", "163216.735000", "163217.195000", "163217.655000", "163218.115000", "163218.575000", "163219.035000", "163219.495000", "163219.955000", "163220.415000", "163220.875000", "163221.335000", "163221.795000", "163222.255000", "163222.715000", "163223.175000", "163223.635000", "163224.095000", "163224.555000", "163225.015000", "163225.475000", "163225.935000", "163226.395000", "163226.855000", "163227.315000", "163227.775000", "163228.235000", "163228.695000", "163229.155000", "163229.615000", "163230.075000", "163230.535000", "163230.995000", "163231.455000", "163231.915000", "163232.375000", "163232.835000", "163233.295000", "163233.755000", "163234.215000", "163234.675000", "163235.135000", "163235.595000", "163236.055000", "163236.515000", "163236.975000", "163237.435000", "163237.895000", "163238.355000", "163238.815000", "163239.275000", "163239.735000", "163240.195000", "163240.655000", "163241.115000", "163241.575000", "163242.035000", "163242.495000", "163242.955000", "163243.415000", "163243.875000", "163244.335000", "163244.795000", "163245.255000", "163245.715000", "163246.175000", "163246.635000", "163247.095000", "163247.555000", "163248.015000", "163248.475000", "163248.935000", "163249.395000", "163249.855000", "163250.315000", "163250.775000", "163251.235000", "163251.695000", "163252.155000", "163252.615000", "163253.075000", "163253.535000", "163253.995000", "163254.455000", "163254.915000", "163255.375000", "163255.835000", "163256.295000", "163256.755000", "163257.215000", "163257.675000", "163258.135000", "163258.595000", "163259.055000", "163259.515000", "163259.975000", "163300.435000", "163300.895000", "163301.355000", "163301.815000", "163302.275000", "163302.735000", "163303.195000", "163303.655000", "163304.115000", "163304.575000", "163305.035000", "163305.495000", "163305.955000", "163306.415000", "163306.875000", "163307.335000", "163307.795000", "163308.255000", "163308.715000", "163309.175000", "163309.635000", "163310.095000", "163310.555000", "163311.015000", "163311.475000", "163311.935000", "163312.395000", "163312.855000", "163313.315000", "163313.775000", "163314.235000", "163314.695000", "163315.155000", "163315.615000", "163316.075000", "163316.535000", "163316.995000", "163317.455000", "163317.915000", "163318.375000", "163318.835000", "163319.295000", "163319.755000", "163320.215000", "163320.675000", "163321.135000", "163321.595000", "163322.055000", "163322.515000", "163322.975000", "163323.435000", "163323.895000", "163324.355000", "163324.815000", "163325.275000", "163325.735000", "163326.195000", "163326.655000", "163327.115000", "163327.575000", "163328.035000", "163328.495000", "163328.955000", "163329.415000", "163329.875000", "163330.335000", "163330.795000", "163331.255000", "163331.715000", "163332.175000", "163332.635000", "163333.095000", "163333.555000", "163334.015000", "163334.475000", "163334.935000", "163335.395000", "163335.855000", "163336.315000", "163336.775000", "163337.235000", "163337.695000", "163338.155000", "163338.615000", "163339.075000", "163339.535000", "163339.995000", "163340.455000", "163340.915000", "163341.375000", "163341.835000", "163342.295000", "163342.755000", "163343.215000", "163343.675000", "163344.135000", "163344.595000", "163345.055000", "163345.515000", "163345.975000", "163346.435000", "163346.895000", "163347.355000", "163347.815000", "163348.275000", "163348.735000", "163349.195000", "163349.655000", "163350.115000", "163350.575000", "163351.035000", "163351.495000", "163351.955000", "163352.415000", "163352.875000", "163353.335000", "163353.795000", "163354.255000", "163354.715000", "163355.175000", "163355.635000", "163356.095000", "163356.555000", "163357.015000", "163357.475000", "163357.935000", "163358.395000", "163358.855000", "163359.315000", "163359.775000", "163400.235000", "163400.695000", "163401.155000", "163401.615000", "163402.075000", "163402.535000", "163402.995000", "163403.455000", "163403.915000", "163404.375000", "163404.835000", "163405.295000", "163405.755000", "163406.215000", "163406.675000", "163407.135000", "163407.595000", "163408.055000", "163408.515000", "163408.975000", "163409.435000", "163409.895000", "163410.355000", "163410.815000", "163411.275000", "163411.735000", "163412.195000", "163412.655000", "163413.115000", "163413.575000", "163414.035000", "163414.495000", "163414.955000", "163415.415000", "163415.875000", "163416.335000", "163416.795000", "163417.255000", "163417.715000", "163418.175000", "163418.635000", "163419.095000", "163419.555000", "163420.015000", "163420.475000", "163420.935000", "163421.395000", "163421.855000", "163422.315000", "163422.775000", "163423.235000", "163423.695000", "163424.155000", "163424.615000", "163425.075000", "163425.535000", "163425.995000", "163426.455000", "163426.915000", "163427.375000", "163427.835000", "163428.295000", "163428.755000", "163429.215000", "163429.675000", "163430.135000", "163430.595000", "163431.055000", "163431.515000", "163431.975000", "163432.435000", "163432.895000", "163433.355000", "163433.815000", "163434.275000", "163434.735000", "163435.195000", "163435.655000", "163436.115000", "163436.575000", "163437.035000", "163437.495000", "163437.955000", "163438.415000", "163438.875000", "163439.335000", "163439.795000", "163440.255000", "163440.715000", "163441.175000", "163441.635000", "163442.095000", "163442.555000", "163443.015000", "163443.475000", "163443.935000", "163444.395000", "163444.855000", "163445.315000", "163445.775000", "163446.235000", "163446.695000", "163447.155000", "163447.615000", "163448.075000", "163448.535000", "163448.995000", "163449.455000", "163449.915000", "163450.375000", "163450.835000", "163451.295000", "163451.755000", "163452.215000", "163452.675000", "163453.135000", "163453.595000", "163454.055000", "163454.515000", "163454.975000", "163455.435000", "163455.895000", "163456.355000", "163456.815000", "163457.275000", "163457.735000", "163458.195000", "163458.655000", "163459.115000", "163459.575000", "163500.035000", "163500.495000", "163500.955000", "163501.415000", "163501.875000", "163502.335000", "163502.795000", "163503.255000", "163503.715000", "163504.175000", "163504.635000", "163505.095000", "163505.555000", "163506.015000", "163506.475000", "163506.935000", "163507.395000", "163507.855000", "163508.315000", "163508.775000", "163509.235000", "163509.695000", "163510.155000", "163510.615000", "163511.075000", "163511.535000", "163511.995000", "163512.455000", "163512.915000", "163513.375000", "163513.835000", "163514.295000", "163514.755000", "163515.215000", "163515.675000", "163516.135000", "163516.595000", "163517.055000", "163517.515000", "163517.975000", "163518.435000", "163518.895000", "163519.355000", "163519.815000", "163520.275000", "163520.735000", "163521.195000", "163521.655000", "163522.115000", "163522.575000", "163523.035000", "163523.495000", "163523.955000", "163524.415000", "163524.875000", "163525.335000", "163525.795000", "163526.255000", "163526.715000", "163527.175000", "163527.635000", "163528.095000", "163528.555000", "163529.015000", "163529.475000", "163529.935000", "163530.395000", "163530.855000", "163531.315000", "163531.775000", "163532.235000", "163532.695000", "163533.155000", "163533.615000", "163534.075000", "163534.535000", "163534.995000", "163535.455000", "163535.915000", "163536.375000", "163536.835000", "163537.295000", "163537.755000", "163538.215000", "163538.675000", "163539.135000", "163539.595000", "163540.055000", "163540.515000", "163540.975000", "163541.435000", "163541.895000", "163542.355000", "163542.815000", "163543.275000", "163543.735000", "163544.195000", "163544.655000", "163545.115000", "163545.575000", "163546.035000", "163546.495000", "163546.955000", "163547.415000", "163547.875000", "163548.335000", "163548.795000", "163549.255000", "163549.715000", "163550.175000", "163550.635000", "163551.095000", "163551.555000", "163552.015000", "163552.475000", "163552.935000", "163553.395000", "163553.855000", "163554.315000", "163554.775000", "163555.235000"],
