{
  "AcquisitionMatrixPE": 82,
  "AcquisitionNumber": 1,
  "AcquisitionTime": "16:04:53.082500",
  "BandwidthPerPixelPhaseEncode": 24.888,
  "BaseResolution": 82,
  "BodyPartExamined": "BRAIN",
  "ConsistencyInfo": "N4_VE11C_LATEST_20160120",
  "ConversionSoftware": "dcm2niix",
  "ConversionSoftwareVersion": "v1.0.20201102",
  "DerivedVendorReportedEchoSpacing": 0.00049,
  "DeviceSerialNumber": "66112",
  "DwellTime": 2e-06,
  "EchoTime": 0.0272,
  "EchoTrainLength": 82,
  "EffectiveEchoSpacing": 0.00049,
  "FlipAngle": 44,
  "ImageComments": "Unaliased MB8/PE3",
  "ImageOrientationPatientDICOM": [0.995038, 0.0980108, 0.0171137, -0.0994935, 0.979852, 0.173182],
  "ImageType": [
    "ORIGINAL",
    "PRIMARY",
    "M",
    "MB",
    "ND",
    "NORM",
    "MOSAIC"
],
  "ImagingFrequency": 123.252,
  "InPlanePhaseEncodingDirectionDICOM": "COL",
  "InstitutionAddress": "Maynard 3,Hanover,NH,US,03755",
  "InstitutionName": "Dartmouth College - PBS",
  "InstitutionalDepartmentName": "Department",
  "MRAcquisitionType": "2D",
  "MagneticFieldStrength": 3,
  "Manufacturer": "Siemens",
  "ManufacturersModelName": "Prisma",
  "Modality": "MR",
  "MultibandAccelerationFactor": 8,
  "PartialFourier": 1,
  "PatientPosition": "HFS",
  "PercentPhaseFOV": 100,
  "PercentSampling": 100,
  "PhaseEncodingDirection": "j-",
  "PhaseEncodingSteps": 82,
  "PhaseResolution": 1,
  "PixelBandwidth": 3050,
  "ProcedureStepDescription": "Wager_Wager^1076_spacetop",
  "ProtocolName": "func_run-03_task-social_acq-ap-mb8",
  "PulseSequenceDetails": "%CustomerSeq%\\cmrr_mbep2d_bold",
  "ReceiveCoilActiveElements": "HEA;HEP",
  "ReceiveCoilName": "Head_32",
  "ReconMatrixPE": 82,
  "RepetitionTime": 0.46,
  "SAR": 0.0834549,
  "ScanOptions": "FS",
  "ScanningSequence": "EP",
  "SequenceName": "epfid2d1_82",
  "SequenceVariant": "SK\\SS",
  "SeriesDescription": "func_run-03_task-social_acq-ap-mb8",
  "SeriesNumber": 16,
  "ShimSetting": [4155, -7777, -7250, 557, 55, -228, 94, -3],
  "SliceThickness": 2.7,
  "SliceTiming": [0, 0.25, 0.0625, 0.3125, 0.125, 0.375, 0.1875, 0, 0.25, 0.0625, 0.3125, 0.125, 0.375, 0.1875, 0, 0.25, 0.0625, 0.3125, 0.125, 0.375, 0.1875, 0, 0.25, 0.0625, 0.3125, 0.125, 0.375, 0.1875, 0, 0.25, 0.0625, 0.3125, 0.125, 0.375, 0.1875, 0, 0.25, 0.0625, 0.3125, 0.125, 0.375, 0.1875, 0, 0.25, 0.0625, 0.3125, 0.125, 0.375, 0.1875, 0, 0.25, 0.0625, 0.3125, 0.125, 0.375, 0.1875],
  "SoftwareVersions": "syngo MR E11",
  "SpacingBetweenSlices": 2.7,
  "StationName": "AWP66112",
  "TaskName": "social",
  "TotalReadoutTime": 0.03969,
  "TxRefAmp": 237.359,
  "WipMemBlock": "742bb17d-2c42-44ee-878f-98cbe682256f||Sequence: R016 ve11c/master r/e634e98; Dec 19 2017 11:00:25 by eja",
  "dcmmeta_affine": [
    [-2.669614791870117, -0.2669336497783661, -0.0005529859336093068, 133.8319091796875],
    [-0.2629557251930237, 2.6288700103759766, 0.46986839175224304, -102.70856475830078],
    [0.045914798974990845, -0.46463441848754883, 2.6588010787963867, -48.75532150268555],
    [0.0, 0.0, 0.0, 1.0]
],
  "dcmmeta_reorient_transform": [
    [0.0, -1.0, 0.0, 81.0],
    [1.0, 0.0, 0.0, 0.0],
    [0.0, 0.0, 1.0, 0.0],
    [0.0, 0.0, 0.0, 1.0]
],
  "dcmmeta_shape": [82, 82, 56, 872],
  "dcmmeta_slice_dim": 2,
  "dcmmeta_version": 0.6,
  "global": {
    "const": {
      "AccessionNumber": "A003641",
      "AcquisitionMatrix": [82, 0, 0, 82],
      "AngioFlag": "N",
      "BitsAllocated": 16,
      "BitsStored": 16,
      "BodyPartExamined": "BRAIN",
      "Columns": 656,
      "EchoNumbers": 1,
      "EchoTime": 27.2,
      "EchoTrainLength": 82,
      "FlipAngle": 44.0,
      "HighBit": 15,
      "ImageOrientationPatient": [0.99503819594507, 0.09801076461653, 0.01711369713609, -0.0994934503543, 0.97985155809624, 0.17318192005219],
      "ImagePositionPatient": [-801.77974948523, -940.18392092298, -232.91833803622],
      "ImageType": [
        "ORIGINAL",
        "PRIMARY",
        "M",
        "MB",
        "ND",
        "NORM",
        "MOSAIC"
],
      "ImagedNucleus": "1H",
      "ImagingFrequency": 123.25218,
      "InPlanePhaseEncodingDirection": "COL",
      "MRAcquisitionType": "2D",
      "MagneticFieldStrength": 3.0,
      "Manufacturer": "SIEMENS",
      "ManufacturerModelName": "Prisma",
      "Modality": "MR",
      "NumberOfAverages": 1.0,
      "NumberOfPhaseEncodingSteps": 82,
      "PercentPhaseFieldOfView": 100.0,
      "PercentSampling": 100.0,
      "PerformedProcedureStepStartTime": "151839.846000",
      "PhotometricInterpretation": "MONOCHROME2",
      "PixelBandwidth": 3050.0,
      "PixelRepresentation": 0,
      "PixelSpacing": [2.6829268932343, 2.6829268932343],
      "ProtocolName": "func_run-03_task-social_acq-ap-mb8",
      "RepetitionTime": 460.0,
      "Rows": 656,
      "SAR": 0.08345490942035,
      "SamplesPerPixel": 1,
      "ScanOptions": "FS",
      "ScanningSequence": "EP",
      "SequenceName": "epfid2d1_82",
      "SequenceVariant": [
        "SK",
        "SS"
],
      "SeriesDescription": "func_run-03_task-social_acq-ap-mb8",
      "SeriesNumber": 16,
      "SeriesTime": "160503.874000",
      "SliceLocation": -65.912672185183,
      "SliceThickness": 2.7000000476837,
      "SmallestImagePixelValue": 0,
      "SoftwareVersions": "syngo MR E11",
      "SpacingBetweenSlices": 2.7000000073373,
      "SpecificCharacterSet": "ISO_IR 100",
      "StudyID": "2",
      "StudyTime": "151839.798000",
      "TransmitCoilName": "Body",
      "VariableFlipAngleFlag": "N",
      "WindowCenterWidthExplanation": "Algo1",
      "dBdt": 0.0},
    "slices": {}
  },
  "time": {
    "samples": {
      "AcquisitionNumber": [1, 2, 3, 4, 5, 6, 7, 8, 9, 10, 11, 12, 13, 14, 15, 16, 17, 18, 19, 20, 21, 22, 23, 24, 25, 26, 27, 28, 29, 30, 31, 32, 33, 34, 35, 36, 37, 38, 39, 40, 41, 42, 43, 44, 45, 46, 47, 48, 49, 50, 51, 52, 53, 54, 55, 56, 57, 58, 59, 60, 61, 62, 63, 64, 65, 66, 67, 68, 69, 70, 71, 72, 73, 74, 75, 76, 77, 78, 79, 80, 81, 82, 83, 84, 85, 86, 87, 88, 89, 90, 91, 92, 93, 94, 95, 96, 97, 98, 99, 100, 101, 102, 103, 104, 105, 106, 107, 108, 109, 110, 111, 112, 113, 114, 115, 116, 117, 118, 119, 120, 121, 122, 123, 124, 125, 126, 127, 128, 129, 130, 131, 132, 133, 134, 135, 136, 137, 138, 139, 140, 141, 142, 143, 144, 145, 146, 147, 148, 149, 150, 151, 152, 153, 154, 155, 156, 157, 158, 159, 160, 161, 162, 163, 164, 165, 166, 167, 168, 169, 170, 171, 172, 173, 174, 175, 176, 177, 178, 179, 180, 181, 182, 183, 184, 185, 186, 187, 188, 189, 190, 191, 192, 193, 194, 195, 196, 197, 198, 199, 200, 201, 202, 203, 204, 205, 206, 207, 208, 209, 210, 211, 212, 213, 214, 215, 216, 217, 218, 219, 220, 221, 222, 223, 224, 225, 226, 227, 228, 229, 230, 231, 232, 233, 234, 235, 236, 237, 238, 239, 240, 241, 242, 243, 244, 245, 246, 247, 248, 249, 250, 251, 252, 253, 254, 255, 256, 257, 258, 259, 260, 261, 262, 263, 264, 265, 266, 267, 268, 269, 270, 271, 272, 273, 274, 275, 276, 277, 278, 279, 280, 281, 282, 283, 284, 285, 286, 287, 288, 289, 290, 291, 292, 293, 294, 295, 296, 297, 298, 299, 300, 301, 302, 303, 304, 305, 306, 307, 308, 309, 310, 311, 312, 313, 314, 315, 316, 317, 318, 319, 320, 321, 322, 323, 324, 325, 326, 327, 328, 329, 330, 331, 332, 333, 334, 335, 336, 337, 338, 339, 340, 341, 342, 343, 344, 345, 346, 347, 348, 349, 350, 351, 352, 353, 354, 355, 356, 357, 358, 359, 360, 361, 362, 363, 364, 365, 366, 367, 368, 369, 370, 371, 372, 373, 374, 375, 376, 377, 378, 379, 380, 381, 382, 383, 384, 385, 386, 387, 388, 389, 390, 391, 392, 393, 394, 395, 396, 397, 398, 399, 400, 401, 402, 403, 404, 405, 406, 407, 408, 409, 410, 411, 412, 413, 414, 415, 416, 417, 418, 419, 420, 421, 422, 423, 424, 425, 426, 427, 428, 429, 430, 431, 432, 433, 434, 435, 436, 437, 438, 439, 440, 441, 442, 443, 444, 445, 446, 447, 448, 449, 450, 451, 452, 453, 454, 455, 456, 457, 458, 459, 460, 461, 462, 463, 464, 465, 466, 467, 468, 469, 470, 471, 472, 473, 474, 475, 476, 477, 478, 479, 480, 481, 482, 483, 484, 485, 486, 487, 488, 489, 490, 491, 492, 493, 494, 495, 496, 497, 498, 499, 500, 501, 502, 503, 504, 505, 506, 507, 508, 509, 510, 511, 512, 513, 514, 515, 516, 517, 518, 519, 520, 521, 522, 523, 524, 525, 526, 527, 528, 529, 530, 531, 532, 533, 534, 535, 536, 537, 538, 539, 540, 541, 542, 543, 544, 545, 546, 547, 548, 549, 550, 551, 552, 553, 554, 555, 556, 557, 558, 559, 560, 561, 562, 563, 564, 565, 566, 567, 568, 569, 570, 571, 572, 573, 574, 575, 576, 577, 578, 579, 580, 581, 582, 583, 584, 585, 586, 587, 588, 589, 590, 591, 592, 593, 594, 595, 596, 597, 598, 599, 600, 601, 602, 603, 604, 605, 606, 607, 608, 609, 610, 611, 612, 613, 614, 615, 616, 617, 618, 619, 620, 621, 622, 623, 624, 625, 626, 627, 628, 629, 630, 631, 632, 633, 634, 635, 636, 637, 638, 639, 640, 641, 642, 643, 644, 645, 646, 647, 648, 649, 650, 651, 652, 653, 654, 655, 656, 657, 658, 659, 660, 661, 662, 663, 664, 665, 666, 667, 668, 669, 670, 671, 672, 673, 674, 675, 676, 677, 678, 679, 680, 681, 682, 683, 684, 685, 686, 687, 688, 689, 690, 691, 692, 693, 694, 695, 696, 697, 698, 699, 700, 701, 702, 703, 704, 705, 706, 707, 708, 709, 710, 711, 712, 713, 714, 715, 716, 717, 718, 719, 720, 721, 722, 723, 724, 725, 726, 727, 728, 729, 730, 731, 732, 733, 734, 735, 736, 737, 738, 739, 740, 741, 742, 743, 744, 745, 746, 747, 748, 749, 750, 751, 752, 753, 754, 755, 756, 757, 758, 759, 760, 761, 762, 763, 764, 765, 766, 767, 768, 769, 770, 771, 772, 773, 774, 775, 776, 777, 778, 779, 780, 781, 782, 783, 784, 785, 786, 787, 788, 789, 790, 791, 792, 793, 794, 795, 796, 797, 798, 799, 800, 801, 802, 803, 804, 805, 806, 807, 808, 809, 810, 811, 812, 813, 814, 815, 816, 817, 818, 819, 820, 821, 822, 823, 824, 825, 826, 827, 828, 829, 830, 831, 832, 833, 834, 835, 836, 837, 838, 839, 840, 841, 842, 843, 844, 845, 846, 847, 848, 849, 850, 851, 852, 853, 854, 855, 856, 857, 858, 859, 860, 861, 862, 863, 864, 865, 866, 867, 868, 869, 870, 871, 872],
      "AcquisitionTime": ["160453.082500", "160453.542500", "160454.002500", "160454.462500", "160454.922500", "160455.382500", "160455.842500", "160456.302500", "160456.762500", "160457.222500", "160457.682500", "160458.142500", "160458.602500", "160459.062500", "160459.522500", "160459.982500", "160500.442500", "160500.902500", "160501.362500", "160501.822500", "160502.282500", "160502.742500", "160503.202500", "160503.662500", "160504.122500", "160504.582500", "160505.042500", "160505.502500", "160505.962500", "160506.422500", "160506.882500", "160507.342500", "160507.802500", "160508.262500", "160508.722500", "160509.182500", "160509.642500", "160510.102500", "160510.562500", "160511.022500", "160511.482500", "160511.942500", "160512.402500", "160512.862500", "160513.322500", "160513.782500", "160514.242500", "160514.702500", "160515.162500", "160515.622500", "160516.082500", "160516.542500", "160517.002500", "160517.462500", "160517.922500", "160518.382500", "160518.842500", "160519.302500", "160519.762500", "160520.222500", "160520.682500", "160521.142500", "160521.602500", "160522.062500", "160522.522500", "160522.982500", "160523.442500", "160523.902500", "160524.362500", "160524.822500", "160525.282500", "160525.742500", "160526.202500", "160526.662500", "160527.122500", "160527.582500", "160528.042500", "160528.502500", "160528.962500", "160529.422500", "160529.882500", "160530.342500", "160530.802500", "160531.262500", "160531.722500", "160532.182500", "160532.642500", "160533.102500", "160533.562500", "160534.022500", "160534.482500", "160534.942500", "160535.402500", "160535.862500", "160536.322500", "160536.782500", "160537.242500", "160537.702500", "160538.162500", "160538.622500", "160539.082500", "160539.542500", "160540.002500", "160540.462500", "160540.922500", "160541.382500", "160541.842500", "160542.302500", "160542.762500", "160543.222500", "160543.682500", "160544.142500", "160544.602500", "160545.062500", "160545.522500", "160545.982500", "160546.442500", "160546.902500", "160547.362500", "160547.822500", "160548.282500", "160548.742500", "160549.202500", "160549.662500", "160550.122500", "160550.582500", "160551.042500", "160551.502500", "160551.962500", "160552.422500", "160552.882500", "160553.342500", "160553.802500", "160554.262500", "160554.722500", "160555.182500", "160555.642500", "160556.102500", "160556.562500", "160557.022500", "160557.482500", "160557.942500", "160558.402500", "160558.862500", "160559.322500", "160559.782500", "160600.242500", "160600.702500", "160601.162500", "160601.622500", "160602.082500", "160602.542500", "160603.002500", "160603.462500", "160603.922500", "160604.382500", "160604.842500", "160605.302500", "160605.762500", "160606.222500", "160606.682500", "160607.142500", "160607.602500", "160608.062500", "160608.522500", "160608.982500", "160609.442500", "160609.902500", "160610.362500", "160610.822500", "160611.282500", "160611.742500", "160612.202500", "160612.662500", "160613.122500", "160613.582500", "160614.042500", "160614.502500", "160614.962500", "160615.422500", "160615.882500", "160616.342500", "160616.802500", "160617.262500", "160617.722500", "160618.182500", "160618.642500", "160619.102500", "160619.562500", "160620.022500", "160620.482500", "160620.942500", "160621.402500", "160621.862500", "160622.322500", "160622.782500", "160623.242500", "160623.702500", "160624.162500", "160624.622500", "160625.082500", "160625.542500", "160626.002500", "160626.462500", "160626.922500", "160627.382500", "160627.842500", "160628.302500", "160628.762500", "160629.222500", "160629.682500", "160630.142500", "160630.602500", "160631.062500", "160631.522500", "160631.982500", "160632.442500", "160632.902500", "160633.362500", "160633.822500", "160634.282500", "160634.742500", "160635.202500", "160635.662500", "160636.122500", "160636.582500", "160637.042500", "160637.502500", "160637.962500", "160638.422500", "160638.882500", "160639.342500", "160639.802500", "160640.262500", "160640.722500", "160641.182500", "160641.642500", "160642.102500", "160642.562500", "160643.022500", "160643.482500", "160643.942500", "160644.402500", "160644.862500", "160645.322500", "160645.782500", "160646.242500", "160646.702500", "160647.162500", "160647.622500", "160648.082500", "160648.542500", "160649.002500", "160649.462500", "160649.922500", "160650.382500", "160650.842500", "160651.302500", "160651.762500", "160652.222500", "160652.682500", "160653.142500", "160653.602500", "160654.062500", "160654.522500", "160654.982500", "160655.442500", "160655.902500", "160656.362500", "160656.822500", "160657.282500", "160657.742500", "160658.202500", "160658.662500", "160659.122500", "160659.582500", "160700.042500", "160700.502500", "160700.962500", "160701.422500", "160701.882500", "160702.342500", "160702.802500", "160703.262500", "160703.722500", "160704.182500", "160704.642500", "160705.102500", "160705.562500", "160706.022500", "160706.482500", "160706.942500", "160707.402500", "160707.862500", "160708.322500", "160708.782500", "160709.242500", "160709.702500", "160710.162500", "160710.622500", "160711.082500", "160711.542500", "160712.002500", "160712.462500", "160712.922500", "160713.382500", "160713.842500", "160714.302500", "160714.762500", "160715.222500", "160715.682500", "160716.142500", "160716.602500", "160717.062500", "160717.522500", "160717.982500", "160718.442500", "160718.902500", "160719.362500", "160719.822500", "160720.282500", "160720.742500", "160721.202500", "160721.662500", "160722.122500", "160722.582500", "160723.042500", "160723.502500", "160723.962500", "160724.422500", "160724.882500", "160725.342500", "160725.802500", "160726.262500", "160726.722500", "160727.182500", "160727.642500", "160728.102500", "160728.562500", "160729.022500", "160729.482500", "160729.942500", "160730.402500", "160730.862500", "160731.322500", "160731.782500", "160732.242500", "160732.702500", "160733.162500", "160733.622500", "160734.082500", "160734.542500", "160735.002500", "160735.462500", "160735.922500", "160736.382500", "160736.842500", "160737.302500", "160737.762500", "160738.222500", "160738.682500", "160739.142500", "160739.602500", "160740.062500", "160740.522500", "160740.982500", "160741.442500", "160741.902500", "160742.362500", "160742.822500", "160743.282500", "160743.742500", "160744.202500", "160744.662500", "160745.122500", "160745.582500", "160746.042500", "160746.502500", "160746.962500", "160747.422500", "160747.882500", "160748.342500", "160748.802500", "160749.262500", "160749.722500", "160750.182500", "160750.642500", "160751.102500", "160751.562500", "160752.022500", "160752.482500", "160752.942500", "160753.402500", "160753.862500", "160754.322500", "160754.782500", "160755.242500", "160755.702500", "160756.162500", "160756.622500", "160757.082500", "160757.542500", "160758.002500", "160758.462500", "160758.922500", "160759.382500", "160759.842500", "160800.302500", "160800.762500", "160801.222500", "160801.682500", "160802.142500", "160802.602500", "160803.062500", "160803.522500", "160803.982500", "160804.442500", "160804.902500", "160805.362500", "160805.822500", "160806.282500", "160806.742500", "160807.202500", "160807.662500", "160808.122500", "160808.582500", "160809.042500", "160809.502500", "160809.962500", "160810.422500", "160810.882500", "160811.342500", "160811.802500", "160812.262500", "160812.722500", "160813.182500", "160813.642500", "160814.102500", "160814.562500", "160815.022500", "160815.482500", "160815.942500", "160816.402500", "160816.862500", "160817.322500", "160817.782500", "160818.242500", "160818.702500", "160819.162500", "160819.622500", "160820.082500", "160820.542500", "160821.002500", "160821.462500", "160821.922500", "160822.382500", "160822.842500", "160823.302500", "160823.762500", "160824.222500", "160824.682500", "160825.142500", "160825.602500", "160826.062500", "160826.522500", "160826.982500", "160827.442500", "160827.902500", "160828.362500", "160828.822500", "160829.282500", "160829.742500", "160830.202500", "160830.662500", "160831.122500", "160831.582500", "160832.042500", "160832.502500", "160832.962500", "160833.422500", "160833.882500", "160834.342500", "160834.802500", "160835.262500", "160835.722500", "160836.182500", "160836.642500", "160837.102500", "160837.562500", "160838.022500", "160838.482500", "160838.942500", "160839.402500", "160839.862500", "160840.322500", "160840.782500", "160841.242500", "160841.702500", "160842.162500", "160842.622500", "160843.082500", "160843.542500", "160844.002500", "160844.462500", "160844.922500", "160845.382500", "160845.842500", "160846.302500", "160846.762500", "160847.222500", "160847.682500", "160848.142500", "160848.602500", "160849.062500", "160849.522500", "160849.982500", "160850.442500", "160850.902500", "160851.362500", "160851.822500", "160852.282500", "160852.742500", "160853.202500", "160853.662500", "160854.122500", "160854.582500", "160855.042500", "160855.502500", "160855.962500", "160856.422500", "160856.882500", "160857.342500", "160857.802500", "160858.262500", "160858.722500", "160859.182500", "160859.642500", "160900.102500", "160900.562500", "160901.022500", "160901.482500", "160901.942500", "160902.402500", "160902.862500", "160903.322500", "160903.782500", "160904.242500", "160904.702500", "160905.162500", "160905.622500", "160906.082500", "160906.542500", "160907.002500", "160907.462500", "160907.922500", "160908.382500", "160908.842500", "160909.302500", "160909.762500", "160910.222500", "160910.682500", "160911.142500", "160911.602500", "160912.062500", "160912.522500", "160912.982500", "160913.442500", "160913.902500", "160914.362500", "160914.822500", "160915.282500", "160915.742500", "160916.202500", "160916.662500", "160917.122500", "160917.582500", "160918.042500", "160918.502500", "160918.962500", "160919.422500", "160919.882500", "160920.342500", "160920.802500", "160921.262500", "160921.722500", "160922.182500", "160922.642500", "160923.102500", "160923.562500", "160924.022500", "160924.482500", "160924.942500", "160925.402500", "160925.862500", "160926.322500", "160926.782500", "160927.242500", "160927.702500", "160928.162500", "160928.622500", "160929.082500", "160929.542500", "160930.002500", "160930.462500", "160930.922500", "160931.382500", "160931.842500", "160932.302500", "160932.762500", "160933.222500", "160933.682500", "160934.142500", "160934.602500", "160935.062500", "160935.522500", "160935.982500", "160936.442500", "160936.902500", "160937.362500", "160937.822500", "160938.282500", "160938.742500", "160939.202500", "160939.662500", "160940.122500", "160940.582500", "160941.042500", "160941.502500", "160941.962500", "160942.422500", "160942.882500", "160943.342500", "160943.802500", "160944.262500", "160944.722500", "160945.182500", "160945.642500", "160946.102500", "160946.562500", "160947.022500", "160947.482500", "160947.942500", "160948.402500", "160948.862500", "160949.322500", "160949.782500", "160950.242500", "160950.702500", "160951.162500", "160951.622500", "160952.082500", "160952.542500", "160953.002500", "160953.462500", "160953.922500", "160954.382500", "160954.842500", "160955.302500", "160955.762500", "160956.222500", "160956.682500", "160957.142500", "160957.602500", "160958.062500", "160958.522500", "160958.982500", "160959.442500", "160959.902500", "161000.362500", "161000.822500", "161001.282500", "161001.742500", "161002.202500", "161002.662500", "161003.122500", "161003.582500", "161004.042500", "161004.502500", "161004.962500", "161005.422500", "161005.882500", "161006.342500", "161006.802500", "161007.262500", "161007.722500", "161008.182500", "161008.642500", "161009.102500", "161009.562500", "161010.022500", "161010.482500", "161010.942500", "161011.402500", "161011.862500", "161012.322500", "161012.782500", "161013.242500", "161013.702500", "161014.162500", "161014.622500", "161015.082500", "161015.542500", "161016.002500", "161016.462500", "161016.922500", "161017.382500", "161017.842500", "161018.302500", "161018.762500", "161019.222500", "161019.682500", "161020.142500", "161020.602500", "161021.062500", "161021.522500", "161021.982500", "161022.442500", "161022.902500", "161023.362500", "161023.822500", "161024.282500", "161024.742500", "161025.202500", "161025.662500", "161026.122500", "161026.582500", "161027.042500", "161027.502500", "161027.962500", "161028.422500", "161028.882500", "161029.342500", "161029.802500", "161030.262500", "161030.722500", "161031.182500", "161031.642500", "161032.102500", "161032.562500", "161033.022500", "161033.482500", "161033.942500", "161034.402500", "161034.862500", "161035.322500", "161035.782500", "161036.242500", "161036.702500", "161037.162500", "161037.622500", "161038.082500", "161038.542500", "161039.002500", "161039.462500", "161039.922500", "161040.382500", "161040.842500", "161041.302500", "161041.762500", "161042.222500", "161042.682500", "161043.142500", "161043.602500", "161044.062500", "161044.522500", "161044.982500", "161045.442500", "161045.902500", "161046.362500", "161046.822500", "161047.282500", "161047.742500", "161048.202500", "161048.662500", "161049.122500", "161049.582500", "161050.042500", "161050.502500", "161050.962500", "161051.422500", "161051.882500", "161052.342500", "161052.802500", "161053.262500", "161053.722500", "161054.182500", "161054.642500", "161055.102500", "161055.562500", "161056.022500", "161056.482500", "161056.942500", "161057.402500", "161057.862500", "161058.322500", "161058.782500", "161059.242500", "161059.702500", "161100.162500", "161100.622500", "161101.082500", "161101.542500", "161102.002500", "161102.462500", "161102.922500", "161103.382500", "161103.842500", "161104.302500", "161104.762500", "161105.222500", "161105.682500", "161106.142500", "161106.602500", "161107.062500", "161107.522500", "161107.982500", "161108.442500", "161108.902500", "161109.362500", "161109.822500", "161110.282500", "161110.742500", "161111.202500", "161111.662500", "161112.122500", "161112.582500", "161113.042500", "161113.502500", "161113.962500", "161114.422500", "161114.882500", "161115.342500", "161115.802500", "161116.262500", "161116.722500", "161117.182500", "161117.642500", "161118.102500", "161118.562500", "161119.022500", "161119.482500", "161119.942500", "161120.402500", "161120.862500", "161121.322500", "161121.782500", "161122.242500", "161122.702500", "161123.162500", "161123.622500", "161124.082500", "161124.542500", "161125.002500", "161125.462500", "161125.922500", "161126.382500", "161126.842500", "161127.302500", "161127.762500", "161128.222500", "161128.682500", "161129.142500", "161129.602500", "161130.062500", "161130.522500", "161130.982500", "161131.442500", "161131.902500", "161132.362500", "161132.822500", "161133.282500", "161133.742500"],
