{
  "AcquisitionMatrixPE": 82,
  "AcquisitionNumber": 1,
  "AcquisitionTime": "10:31:7.557500",
  "BandwidthPerPixelPhaseEncode": 24.888,
  "BaseResolution": 82,
  "BodyPartExamined": "BRAIN",
  "ConsistencyInfo": "N4_VE11C_LATEST_20160120",
  "ConversionSoftware": "dcm2niix",
  "ConversionSoftwareVersion": "v1.0.20201102",
  "DerivedVendorReportedEchoSpacing": 0.00049,
  "DeviceSerialNumber": "66112",
  "DwellTime": 2e-06,
  "EchoTime": 0.0272,
  "EchoTrainLength": 82,
  "EffectiveEchoSpacing": 0.00049,
  "FlipAngle": 44,
  "ImageComments": "Unaliased MB8/PE3",
  "ImageOrientationPatientDICOM": [0.996657, -0.0794035, 0.0192398, 0.0735397, 0.974464, 0.212162],
  "ImageType": [
    "ORIGINAL",
    "PRIMARY",
    "M",
    "MB",
    "ND",
    "NORM",
    "MOSAIC"
],
  "ImagingFrequency": 123.252,
  "InPlanePhaseEncodingDirectionDICOM": "COL",
  "InstitutionAddress": "Maynard 3,Hanover,NH,US,03755",
  "InstitutionName": "Dartmouth College - PBS",
  "InstitutionalDepartmentName": "Department",
  "MRAcquisitionType": "2D",
  "MagneticFieldStrength": 3,
  "Manufacturer": "Siemens",
  "ManufacturersModelName": "Prisma",
  "Modality": "MR",
  "MultibandAccelerationFactor": 8,
  "PartialFourier": 1,
  "PatientPosition": "HFS",
  "PercentPhaseFOV": 100,
  "PercentSampling": 100,
  "PhaseEncodingDirection": "j-",
  "PhaseEncodingSteps": 82,
  "PhaseResolution": 1,
  "PixelBandwidth": 3050,
  "ProcedureStepDescription": "Wager_Wager^1076_spacetop",
  "ProtocolName": "func_run-02_task-social_acq-ap-mb8",
  "PulseSequenceDetails": "%CustomerSeq%\\cmrr_mbep2d_bold",
  "ReceiveCoilActiveElements": "HEA;HEP",
  "ReceiveCoilName": "Head_32",
  "ReconMatrixPE": 82,
  "RepetitionTime": 0.46,
  "SAR": 0.075452,
  "ScanOptions": "FS",
  "ScanningSequence": "EP",
  "SequenceName": "epfid2d1_82",
  "SequenceVariant": "SK\\SS",
  "SeriesDescription": "func_run-02_task-social_acq-ap-mb8",
  "SeriesNumber": 19,
  "ShimSetting": [4155, -7743, -7311, 524, -132, -303, 58, 47],
  "SliceThickness": 2.7,
  "SliceTiming": [0, 0.2525, 0.0625, 0.315, 0.1275, 0.3775, 0.19, 0, 0.2525, 0.0625, 0.315, 0.1275, 0.3775, 0.19, 0, 0.2525, 0.0625, 0.315, 0.1275, 0.3775, 0.19, 0, 0.2525, 0.0625, 0.315, 0.1275, 0.3775, 0.19, 0, 0.2525, 0.0625, 0.315, 0.1275, 0.3775, 0.19, 0, 0.2525, 0.0625, 0.315, 0.1275, 0.3775, 0.19, 0, 0.2525, 0.0625, 0.315, 0.1275, 0.3775, 0.19, 0, 0.2525, 0.0625, 0.315, 0.1275, 0.3775, 0.19],
  "SoftwareVersions": "syngo MR E11",
  "SpacingBetweenSlices": 2.7,
  "StationName": "AWP66112",
  "TaskName": "social",
  "TotalReadoutTime": 0.03969,
  "TxRefAmp": 233.567,
  "WipMemBlock": "16830e0c-bd71-4094-a4aa-0f75600344c8||Sequence: R016 ve11c/master r/e634e98; Dec 19 2017 11:00:25 by eja",
  "dcmmeta_affine": [
    [-2.673957586288452, 0.1973016858100891, 0.09610601514577866, 99.26786041259766],
    [0.21303372085094452, 2.614414691925049, 0.567101001739502, -119.24713897705078],
    [0.05161888152360916, -0.5692139863967896, 2.6380221843719482, -54.45292282104492],
    [0.0, 0.0, 0.0, 1.0]
],
  "dcmmeta_reorient_transform": [
    [0.0, -1.0, 0.0, 81.0],
    [1.0, 0.0, 0.0, 0.0],
    [0.0, 0.0, 1.0, 0.0],
    [0.0, 0.0, 0.0, 1.0]
],
  "dcmmeta_shape": [82, 82, 56, 872],
  "dcmmeta_slice_dim": 2,
  "dcmmeta_version": 0.6,
  "global": {
    "const": {
      "AccessionNumber": "A003555",
      "AcquisitionMatrix": [82, 0, 0, 82],
      "AngioFlag": "N",
      "BitsAllocated": 16,
      "BitsStored": 16,
      "BodyPartExamined": "BRAIN",
      "Columns": 656,
      "EchoNumbers": 1,
      "EchoTime": 27.2,
      "EchoTrainLength": 82,
      "FlipAngle": 44.0,
      "HighBit": 15,
      "ImageOrientationPatient": [0.99665687134761, -0.0794034774836, 0.01923976504813, 0.07353971524687, 0.97446363555144, 0.21216157349833],
      "ImagePositionPatient": [-939.30068904022, -781.71679159235, -278.73829294433],
      "ImageType": [
        "ORIGINAL",
        "PRIMARY",
        "M",
        "MB",
        "ND",
        "NORM",
        "MOSAIC"
],
      "ImagedNucleus": "1H",
      "ImagingFrequency": 123.252167,
      "InPlanePhaseEncodingDirection": "COL",
      "MRAcquisitionType": "2D",
      "MagneticFieldStrength": 3.0,
      "Manufacturer": "SIEMENS",
      "ManufacturerModelName": "Prisma",
      "Modality": "MR",
      "NumberOfAverages": 1.0,
      "NumberOfPhaseEncodingSteps": 82,
      "PercentPhaseFieldOfView": 100.0,
      "PercentSampling": 100.0,
      "PerformedProcedureStepStartTime": "085620.408000",
      "PhotometricInterpretation": "MONOCHROME2",
      "PixelBandwidth": 3050.0,
      "PixelRepresentation": 0,
      "PixelSpacing": [2.6829268932343, 2.6829268932343],
      "ProtocolName": "func_run-02_task-social_acq-ap-mb8",
      "RepetitionTime": 460.0,
      "Rows": 656,
      "SAR": 0.07545195979111,
      "SamplesPerPixel": 1,
      "ScanOptions": "FS",
      "ScanningSequence": "EP",
      "SequenceName": "epfid2d1_82",
      "SequenceVariant": [
        "SK",
        "SS"
],
      "SeriesDescription": "func_run-02_task-social_acq-ap-mb8",
      "SeriesNumber": 19,
      "SeriesTime": "103134.165000",
      "SliceLocation": -74.715905512246,
      "SliceThickness": 2.7000000476837,
      "SmallestImagePixelValue": 0,
      "SoftwareVersions": "syngo MR E11",
      "SpacingBetweenSlices": 2.7000001147651,
      "SpecificCharacterSet": "ISO_IR 100",
      "StudyID": "1",
      "StudyTime": "085620.302000",
      "TransmitCoilName": "Body",
      "VariableFlipAngleFlag": "N",
      "WindowCenterWidthExplanation": "Algo1",
      "dBdt": 0.0},
    "slices": {}
  },
  "time": {
    "samples": {
      "AcquisitionNumber": [1, 2, 3, 4, 5, 6, 7, 8, 9, 10, 11, 12, 13, 14, 15, 16, 17, 18, 19, 20, 21, 22, 23, 24, 25, 26, 27, 28, 29, 30, 31, 32, 33, 34, 35, 36, 37, 38, 39, 40, 41, 42, 43, 44, 45, 46, 47, 48, 49, 50, 51, 52, 53, 54, 55, 56, 57, 58, 59, 60, 61, 62, 63, 64, 65, 66, 67, 68, 69, 70, 71, 72, 73, 74, 75, 76, 77, 78, 79, 80, 81, 82, 83, 84, 85, 86, 87, 88, 89, 90, 91, 92, 93, 94, 95, 96, 97, 98, 99, 100, 101, 102, 103, 104, 105, 106, 107, 108, 109, 110, 111, 112, 113, 114, 115, 116, 117, 118, 119, 120, 121, 122, 123, 124, 125, 126, 127, 128, 129, 130, 131, 132, 133, 134, 135, 136, 137, 138, 139, 140, 141, 142, 143, 144, 145, 146, 147, 148, 149, 150, 151, 152, 153, 154, 155, 156, 157, 158, 159, 160, 161, 162, 163, 164, 165, 166, 167, 168, 169, 170, 171, 172, 173, 174, 175, 176, 177, 178, 179, 180, 181, 182, 183, 184, 185, 186, 187, 188, 189, 190, 191, 192, 193, 194, 195, 196, 197, 198, 199, 200, 201, 202, 203, 204, 205, 206, 207, 208, 209, 210, 211, 212, 213, 214, 215, 216, 217, 218, 219, 220, 221, 222, 223, 224, 225, 226, 227, 228, 229, 230, 231, 232, 233, 234, 235, 236, 237, 238, 239, 240, 241, 242, 243, 244, 245, 246, 247, 248, 249, 250, 251, 252, 253, 254, 255, 256, 257, 258, 259, 260, 261, 262, 263, 264, 265, 266, 267, 268, 269, 270, 271, 272, 273, 274, 275, 276, 277, 278, 279, 280, 281, 282, 283, 284, 285, 286, 287, 288, 289, 290, 291, 292, 293, 294, 295, 296, 297, 298, 299, 300, 301, 302, 303, 304, 305, 306, 307, 308, 309, 310, 311, 312, 313, 314, 315, 316, 317, 318, 319, 320, 321, 322, 323, 324, 325, 326, 327, 328, 329, 330, 331, 332, 333, 334, 335, 336, 337, 338, 339, 340, 341, 342, 343, 344, 345, 346, 347, 348, 349, 350, 351, 352, 353, 354, 355, 356, 357, 358, 359, 360, 361, 362, 363, 364, 365, 366, 367, 368, 369, 370, 371, 372, 373, 374, 375, 376, 377, 378, 379, 380, 381, 382, 383, 384, 385, 386, 387, 388, 389, 390, 391, 392, 393, 394, 395, 396, 397, 398, 399, 400, 401, 402, 403, 404, 405, 406, 407, 408, 409, 410, 411, 412, 413, 414, 415, 416, 417, 418, 419, 420, 421, 422, 423, 424, 425, 426, 427, 428, 429, 430, 431, 432, 433, 434, 435, 436, 437, 438, 439, 440, 441, 442, 443, 444, 445, 446, 447, 448, 449, 450, 451, 452, 453, 454, 455, 456, 457, 458, 459, 460, 461, 462, 463, 464, 465, 466, 467, 468, 469, 470, 471, 472, 473, 474, 475, 476, 477, 478, 479, 480, 481, 482, 483, 484, 485, 486, 487, 488, 489, 490, 491, 492, 493, 494, 495, 496, 497, 498, 499, 500, 501, 502, 503, 504, 505, 506, 507, 508, 509, 510, 511, 512, 513, 514, 515, 516, 517, 518, 519, 520, 521, 522, 523, 524, 525, 526, 527, 528, 529, 530, 531, 532, 533, 534, 535, 536, 537, 538, 539, 540, 541, 542, 543, 544, 545, 546, 547, 548, 549, 550, 551, 552, 553, 554, 555, 556, 557, 558, 559, 560, 561, 562, 563, 564, 565, 566, 567, 568, 569, 570, 571, 572, 573, 574, 575, 576, 577, 578, 579, 580, 581, 582, 583, 584, 585, 586, 587, 588, 589, 590, 591, 592, 593, 594, 595, 596, 597, 598, 599, 600, 601, 602, 603, 604, 605, 606, 607, 608, 609, 610, 611, 612, 613, 614, 615, 616, 617, 618, 619, 620, 621, 622, 623, 624, 625, 626, 627, 628, 629, 630, 631, 632, 633, 634, 635, 636, 637, 638, 639, 640, 641, 642, 643, 644, 645, 646, 647, 648, 649, 650, 651, 652, 653, 654, 655, 656, 657, 658, 659, 660, 661, 662, 663, 664, 665, 666, 667, 668, 669, 670, 671, 672, 673, 674, 675, 676, 677, 678, 679, 680, 681, 682, 683, 684, 685, 686, 687, 688, 689, 690, 691, 692, 693, 694, 695, 696, 697, 698, 699, 700, 701, 702, 703, 704, 705, 706, 707, 708, 709, 710, 711, 712, 713, 714, 715, 716, 717, 718, 719, 720, 721, 722, 723, 724, 725, 726, 727, 728, 729, 730, 731, 732, 733, 734, 735, 736, 737, 738, 739, 740, 741, 742, 743, 744, 745, 746, 747, 748, 749, 750, 751, 752, 753, 754, 755, 756, 757, 758, 759, 760, 761, 762, 763, 764, 765, 766, 767, 768, 769, 770, 771, 772, 773, 774, 775, 776, 777, 778, 779, 780, 781, 782, 783, 784, 785, 786, 787, 788, 789, 790, 791, 792, 793, 794, 795, 796, 797, 798, 799, 800, 801, 802, 803, 804, 805, 806, 807, 808, 809, 810, 811, 812, 813, 814, 815, 816, 817, 818, 819, 820, 821, 822, 823, 824, 825, 826, 827, 828, 829, 830, 831, 832, 833, 834, 835, 836, 837, 838, 839, 840, 841, 842, 843, 844, 845, 846, 847, 848, 849, 850, 851, 852, 853, 854, 855, 856, 857, 858, 859, 860, 861, 862, 863, 864, 865, 866, 867, 868, 869, 870, 871, 872],
      "AcquisitionTime": ["103107.557500", "103108.017500", "103108.477500", "103108.937500", "103109.397500", "103109.857500", "103110.317500", "103110.777500", "103111.237500", "103111.697500", "103112.157500", "103112.617500", "103113.077500", "103113.537500", "103113.997500", "103114.457500", "103114.917500", "103115.377500", "103115.837500", "103116.297500", "103116.757500", "103117.217500", "103117.677500", "103118.137500", "103118.597500", "103119.057500", "103119.517500", "103119.977500", "103120.437500", "103120.897500", "103121.357500", "103121.817500", "103122.277500", "103122.737500", "103123.197500", "103123.657500", "103124.117500", "103124.577500", "103125.037500", "103125.497500", "103125.957500", "103126.417500", "103126.877500", "103127.337500", "103127.797500", "103128.257500", "103128.717500", "103129.177500", "103129.637500", "103130.097500", "103130.557500", "103131.017500", "103131.477500", "103131.937500", "103132.397500", "103132.857500", "103133.317500", "103133.777500", "103134.237500", "103134.697500", "103135.157500", "103135.617500", "103136.077500", "103136.537500", "103136.997500", "103137.457500", "103137.917500", "103138.377500", "103138.837500", "103139.297500", "103139.757500", "103140.217500", "103140.677500", "103141.137500", "103141.597500", "103142.057500", "103142.517500", "103142.977500", "103143.437500", "103143.897500", "103144.357500", "103144.817500", "103145.277500", "103145.737500", "103146.197500", "103146.657500", "103147.117500", "103147.577500", "103148.037500", "103148.497500", "103148.957500", "103149.417500", "103149.877500", "103150.337500", "103150.797500", "103151.257500", "103151.717500", "103152.177500", "103152.637500", "103153.097500", "103153.557500", "103154.017500", "103154.477500", "103154.937500", "103155.397500", "103155.857500", "103156.317500", "103156.777500", "103157.237500", "103157.697500", "103158.157500", "103158.617500", "103159.077500", "103159.537500", "103159.997500", "103200.457500", "103200.917500", "103201.377500", "103201.837500", "103202.297500", "103202.757500", "103203.217500", "103203.677500", "103204.137500", "103204.597500", "103205.057500", "103205.517500", "103205.977500", "103206.437500", "103206.897500", "103207.357500", "103207.817500", "103208.277500", "103208.737500", "103209.197500", "103209.657500", "103210.117500", "103210.577500", "103211.037500", "103211.497500", "103211.957500", "103212.417500", "103212.877500", "103213.337500", "103213.797500", "103214.257500", "103214.717500", "103215.177500", "103215.637500", "103216.097500", "103216.557500", "103217.017500", "103217.477500", "103217.937500", "103218.397500", "103218.857500", "103219.317500", "103219.777500", "103220.237500", "103220.697500", "103221.157500", "103221.617500", "103222.077500", "103222.537500", "103222.997500", "103223.457500", "103223.917500", "103224.377500", "103224.837500", "103225.297500", "103225.757500", "103226.217500", "103226.677500", "103227.137500", "103227.597500", "103228.057500", "103228.517500", "103228.977500", "103229.437500", "103229.897500", "103230.357500", "103230.817500", "103231.277500", "103231.737500", "103232.197500", "103232.657500", "103233.117500", "103233.577500", "103234.037500", "103234.497500", "103234.957500", "103235.417500", "103235.877500", "103236.337500", "103236.797500", "103237.257500", "103237.717500", "103238.177500", "103238.637500", "103239.097500", "103239.557500", "103240.017500", "103240.477500", "103240.937500", "103241.397500", "103241.857500", "103242.317500", "103242.777500", "103243.237500", "103243.697500", "103244.157500", "103244.617500", "103245.077500", "103245.537500", "103245.997500", "103246.457500", "103246.917500", "103247.377500", "103247.837500", "103248.297500", "103248.757500", "103249.217500", "103249.677500", "103250.137500", "103250.597500", "103251.057500", "103251.517500", "103251.977500", "103252.437500", "103252.897500", "103253.357500", "103253.817500", "103254.277500", "103254.737500", "103255.197500", "103255.657500", "103256.117500", "103256.577500", "103257.037500", "103257.497500", "103257.957500", "103258.417500", "103258.877500", "103259.337500", "103259.797500", "103300.257500", "103300.717500", "103301.177500", "103301.637500", "103302.097500", "103302.557500", "103303.017500", "103303.477500", "103303.937500", "103304.397500", "103304.857500", "103305.317500", "103305.777500", "103306.237500", "103306.697500", "103307.157500", "103307.617500", "103308.077500", "103308.537500", "103308.997500", "103309.457500", "103309.917500", "103310.377500", "103310.837500", "103311.297500", "103311.757500", "103312.217500", "103312.677500", "103313.137500", "103313.597500", "103314.057500", "103314.517500", "103314.977500", "103315.437500", "103315.897500", "103316.357500", "103316.817500", "103317.277500", "103317.737500", "103318.197500", "103318.657500", "103319.117500", "103319.577500", "103320.037500", "103320.497500", "103320.957500", "103321.417500", "103321.877500", "103322.337500", "103322.797500", "103323.257500", "103323.717500", "103324.177500", "103324.637500", "103325.097500", "103325.557500", "103326.017500", "103326.477500", "103326.937500", "103327.397500", "103327.857500", "103328.317500", "103328.777500", "103329.237500", "103329.697500", "103330.157500", "103330.617500", "103331.077500", "103331.537500", "103331.997500", "103332.457500", "103332.917500", "103333.377500", "103333.837500", "103334.297500", "103334.757500", "103335.217500", "103335.677500", "103336.137500", "103336.597500", "103337.057500", "103337.517500", "103337.977500", "103338.437500", "103338.897500", "103339.357500", "103339.817500", "103340.277500", "103340.737500", "103341.197500", "103341.657500", "103342.117500", "103342.577500", "103343.037500", "103343.497500", "103343.957500", "103344.417500", "103344.877500", "103345.337500", "103345.797500", "103346.257500", "103346.717500", "103347.177500", "103347.637500", "103348.097500", "103348.557500", "103349.017500", "103349.477500", "103349.937500", "103350.397500", "103350.857500", "103351.317500", "103351.777500", "103352.237500", "103352.697500", "103353.157500", "103353.617500", "103354.077500", "103354.537500", "103354.997500", "103355.457500", "103355.917500", "103356.377500", "103356.837500", "103357.297500", "103357.757500", "103358.217500", "103358.677500", "103359.137500", "103359.597500", "103400.057500", "103400.517500", "103400.977500", "103401.437500", "103401.897500", "103402.357500", "103402.817500", "103403.277500", "103403.737500", "103404.197500", "103404.657500", "103405.117500", "103405.577500", "103406.037500", "103406.497500", "103406.957500", "103407.417500", "103407.877500", "103408.337500", "103408.797500", "103409.257500", "103409.717500", "103410.177500", "103410.637500", "103411.097500", "103411.557500", "103412.017500", "103412.477500", "103412.937500", "103413.397500", "103413.857500", "103414.317500", "103414.777500", "103415.237500", "103415.697500", "103416.157500", "103416.617500", "103417.077500", "103417.537500", "103417.997500", "103418.457500", "103418.917500", "103419.377500", "103419.837500", "103420.297500", "103420.757500", "103421.217500", "103421.677500", "103422.137500", "103422.597500", "103423.057500", "103423.517500", "103423.977500", "103424.437500", "103424.897500", "103425.357500", "103425.817500", "103426.277500", "103426.737500", "103427.197500", "103427.657500", "103428.117500", "103428.577500", "103429.037500", "103429.497500", "103429.957500", "103430.417500", "103430.877500", "103431.337500", "103431.797500", "103432.257500", "103432.717500", "103433.177500", "103433.637500", "103434.097500", "103434.557500", "103435.017500", "103435.477500", "103435.937500", "103436.397500", "103436.857500", "103437.317500", "103437.777500", "103438.237500", "103438.697500", "103439.157500", "103439.617500", "103440.077500", "103440.537500", "103440.997500", "103441.457500", "103441.917500", "103442.377500", "103442.837500", "103443.297500", "103443.757500", "103444.217500", "103444.677500", "103445.137500", "103445.597500", "103446.057500", "103446.517500", "103446.977500", "103447.437500", "103447.897500", "103448.357500", "103448.817500", "103449.277500", "103449.737500", "103450.197500", "103450.657500", "103451.117500", "103451.577500", "103452.037500", "103452.497500", "103452.957500", "103453.417500", "103453.877500", "103454.337500", "103454.797500", "103455.257500", "103455.717500", "103456.177500", "103456.637500", "103457.097500", "103457.557500", "103458.017500", "103458.477500", "103458.937500", "103459.397500", "103459.857500", "103500.317500", "103500.777500", "103501.237500", "103501.697500", "103502.157500", "103502.617500", "103503.077500", "103503.537500", "103503.997500", "103504.457500", "103504.917500", "103505.377500", "103505.837500", "103506.297500", "103506.757500", "103507.217500", "103507.677500", "103508.137500", "103508.597500", "103509.057500", "103509.517500", "103509.977500", "103510.437500", "103510.897500", "103511.357500", "103511.817500", "103512.277500", "103512.737500", "103513.197500", "103513.657500", "103514.117500", "103514.577500", "103515.037500", "103515.497500", "103515.957500", "103516.417500", "103516.877500", "103517.337500", "103517.797500", "103518.257500", "103518.717500", "103519.177500", "103519.637500", "103520.097500", "103520.557500", "103521.017500", "103521.477500", "103521.937500", "103522.397500", "103522.857500", "103523.317500", "103523.777500", "103524.237500", "103524.697500", "103525.157500", "103525.617500", "103526.077500", "103526.537500", "103526.997500", "103527.457500", "103527.917500", "103528.377500", "103528.837500", "103529.297500", "103529.757500", "103530.217500", "103530.677500", "103531.137500", "103531.597500", "103532.057500", "103532.517500", "103532.977500", "103533.437500", "103533.897500", "103534.357500", "103534.817500", "103535.277500", "103535.737500", "103536.197500", "103536.657500", "103537.117500", "103537.577500", "103538.037500", "103538.497500", "103538.957500", "103539.417500", "103539.877500", "103540.337500", "103540.797500", "103541.257500", "103541.717500", "103542.177500", "103542.637500", "103543.097500", "103543.557500", "103544.017500", "103544.477500", "103544.937500", "103545.397500", "103545.857500", "103546.317500", "103546.777500", "103547.237500", "103547.697500", "103548.157500", "103548.617500", "103549.077500", "103549.537500", "103549.997500", "103550.457500", "103550.917500", "103551.377500", "103551.837500", "103552.297500", "103552.757500", "103553.217500", "103553.677500", "103554.137500", "103554.597500", "103555.057500", "103555.517500", "103555.977500", "103556.437500", "103556.897500", "103557.357500", "103557.817500", "103558.277500", "103558.737500", "103559.197500", "103559.657500", "103600.117500", "103600.577500", "103601.037500", "103601.497500", "103601.957500", "103602.417500", "103602.877500", "103603.337500", "103603.797500", "103604.257500", "103604.717500", "103605.177500", "103605.637500", "103606.097500", "103606.557500", "103607.017500", "103607.477500", "103607.937500", "103608.397500", "103608.857500", "103609.317500", "103609.777500", "103610.237500", "103610.697500", "103611.157500", "103611.617500", "103612.077500", "103612.537500", "103612.997500", "103613.457500", "103613.917500", "103614.377500", "103614.837500", "103615.297500", "103615.757500", "103616.217500", "103616.677500", "103617.137500", "103617.597500", "103618.057500", "103618.517500", "103618.977500", "103619.437500", "103619.897500", "103620.357500", "103620.817500", "103621.277500", "103621.737500", "103622.197500", "103622.657500", "103623.117500", "103623.577500", "103624.037500", "103624.497500", "103624.957500", "103625.417500", "103625.877500", "103626.337500", "103626.797500", "103627.257500", "103627.717500", "103628.177500", "103628.637500", "103629.097500", "103629.557500", "103630.017500", "103630.477500", "103630.937500", "103631.397500", "103631.857500", "103632.317500", "103632.777500", "103633.237500", "103633.697500", "103634.157500", "103634.617500", "103635.077500", "103635.537500", "103635.997500", "103636.457500", "103636.917500", "103637.377500", "103637.837500", "103638.297500", "103638.757500", "103639.217500", "103639.677500", "103640.137500", "103640.597500", "103641.057500", "103641.517500", "103641.977500", "103642.437500", "103642.897500", "103643.357500", "103643.817500", "103644.277500", "103644.737500", "103645.197500", "103645.657500", "103646.117500", "103646.577500", "103647.037500", "103647.497500", "103647.957500", "103648.417500", "103648.877500", "103649.337500", "103649.797500", "103650.257500", "103650.717500", "103651.177500", "103651.637500", "103652.097500", "103652.557500", "103653.017500", "103653.477500", "103653.937500", "103654.397500", "103654.857500", "103655.317500", "103655.777500", "103656.237500", "103656.697500", "103657.157500", "103657.617500", "103658.077500", "103658.537500", "103658.997500", "103659.457500", "103659.917500", "103700.377500", "103700.837500", "103701.297500", "103701.757500", "103702.217500", "103702.677500", "103703.137500", "103703.597500", "103704.057500", "103704.517500", "103704.977500", "103705.437500", "103705.897500", "103706.357500", "103706.817500", "103707.277500", "103707.737500", "103708.197500", "103708.657500", "103709.117500", "103709.577500", "103710.037500", "103710.497500", "103710.957500", "103711.417500", "103711.877500", "103712.337500", "103712.797500", "103713.257500", "103713.717500", "103714.177500", "103714.637500", "103715.097500", "103715.557500", "103716.017500", "103716.477500", "103716.937500", "103717.397500", "103717.857500", "103718.317500", "103718.777500", "103719.237500", "103719.697500", "103720.157500", "103720.617500", "103721.077500", "103721.537500", "103721.997500", "103722.457500", "103722.917500", "103723.377500", "103723.837500", "103724.297500", "103724.757500", "103725.217500", "103725.677500", "103726.137500", "103726.597500", "103727.057500", "103727.517500", "103727.977500", "103728.437500", "103728.897500", "103729.357500", "103729.817500", "103730.277500", "103730.737500", "103731.197500", "103731.657500", "103732.117500", "103732.577500", "103733.037500", "103733.497500", "103733.957500", "103734.417500", "103734.877500", "103735.337500", "103735.797500", "103736.257500", "103736.717500", "103737.177500", "103737.637500", "103738.097500", "103738.557500", "103739.017500", "103739.477500", "103739.937500", "103740.397500", "103740.857500", "103741.317500", "103741.777500", "103742.237500", "103742.697500", "103743.157500", "103743.617500", "103744.077500", "103744.537500", "103744.997500", "103745.457500", "103745.917500", "103746.377500", "103746.837500", "103747.297500", "103747.757500", "103748.217500"],
