{
  "AcquisitionMatrixPE": 82,
  "AcquisitionNumber": 1,
  "AcquisitionTime": "10:38:25.295000",
  "BandwidthPerPixelPhaseEncode": 24.888,
  "BaseResolution": 82,
  "BodyPartExamined": "BRAIN",
  "ConsistencyInfo": "N4_VE11C_LATEST_20160120",
  "ConversionSoftware": "dcm2niix",
  "ConversionSoftwareVersion": "v1.0.20201102",
  "DerivedVendorReportedEchoSpacing": 0.00049,
  "DeviceSerialNumber": "66112",
  "DwellTime": 2e-06,
  "EchoTime": 0.0272,
  "EchoTrainLength": 82,
  "EffectiveEchoSpacing": 0.00049,
  "FlipAngle": 44,
  "ImageComments": "Unaliased MB8/PE3",
  "ImageOrientationPatientDICOM": [0.996657, -0.0794035, 0.0192398, 0.0735397, 0.974464, 0.212162],
  "ImageType": [
    "ORIGINAL",
    "PRIMARY",
    "M",
    "MB",
    "ND",
    "NORM",
    "MOSAIC"
],
  "ImagingFrequency": 123.252,
  "InPlanePhaseEncodingDirectionDICOM": "COL",
  "InstitutionAddress": "Maynard 3,Hanover,NH,US,03755",
  "InstitutionName": "Dartmouth College - PBS",
  "InstitutionalDepartmentName": "Department",
  "MRAcquisitionType": "2D",
  "MagneticFieldStrength": 3,
  "Manufacturer": "Siemens",
  "ManufacturersModelName": "Prisma",
  "Modality": "MR",
  "MultibandAccelerationFactor": 8,
  "PartialFourier": 1,
  "PatientPosition": "HFS",
  "PercentPhaseFOV": 100,
  "PercentSampling": 100,
  "PhaseEncodingDirection": "j-",
  "PhaseEncodingSteps": 82,
  "PhaseResolution": 1,
  "PixelBandwidth": 3050,
  "ProcedureStepDescription": "Wager_Wager^1076_spacetop",
  "ProtocolName": "func_run-03_task-social_acq-ap-mb8",
  "PulseSequenceDetails": "%CustomerSeq%\\cmrr_mbep2d_bold",
  "ReceiveCoilActiveElements": "HEA;HEP",
  "ReceiveCoilName": "Head_32",
  "ReconMatrixPE": 82,
  "RepetitionTime": 0.46,
  "SAR": 0.075452,
  "ScanOptions": "FS",
  "ScanningSequence": "EP",
  "SequenceName": "epfid2d1_82",
  "SequenceVariant": "SK\\SS",
  "SeriesDescription": "func_run-03_task-social_acq-ap-mb8",
  "SeriesNumber": 21,
  "ShimSetting": [4155, -7743, -7311, 524, -132, -303, 58, 47],
  "SliceThickness": 2.7,
  "SliceTiming": [0, 0.2525, 0.0625, 0.315, 0.125, 0.3775, 0.19, 0, 0.2525, 0.0625, 0.315, 0.125, 0.3775, 0.19, 0, 0.2525, 0.0625, 0.315, 0.125, 0.3775, 0.19, 0, 0.2525, 0.0625, 0.315, 0.125, 0.3775, 0.19, 0, 0.2525, 0.0625, 0.315, 0.125, 0.3775, 0.19, 0, 0.2525, 0.0625, 0.315, 0.125, 0.3775, 0.19, 0, 0.2525, 0.0625, 0.315, 0.125, 0.3775, 0.19, 0, 0.2525, 0.0625, 0.315, 0.125, 0.3775, 0.19],
  "SoftwareVersions": "syngo MR E11",
  "SpacingBetweenSlices": 2.7,
  "StationName": "AWP66112",
  "TaskName": "social",
  "TotalReadoutTime": 0.03969,
  "TxRefAmp": 233.567,
  "WipMemBlock": "605b278c-eefa-4e31-a461-914d7cd671f4||Sequence: R016 ve11c/master r/e634e98; Dec 19 2017 11:00:25 by eja",
  "dcmmeta_affine": [
    [-2.673957586288452, 0.1973016858100891, 0.09610601514577866, 99.26786041259766],
    [0.21303372085094452, 2.614414691925049, 0.567101001739502, -119.24713897705078],
    [0.05161888152360916, -0.5692139863967896, 2.6380221843719482, -54.45292282104492],
    [0.0, 0.0, 0.0, 1.0]
],
  "dcmmeta_reorient_transform": [
    [0.0, -1.0, 0.0, 81.0],
    [1.0, 0.0, 0.0, 0.0],
    [0.0, 0.0, 1.0, 0.0],
    [0.0, 0.0, 0.0, 1.0]
],
  "dcmmeta_shape": [82, 82, 56, 872],
  "dcmmeta_slice_dim": 2,
  "dcmmeta_version": 0.6,
  "global": {
    "const": {
      "AccessionNumber": "A003555",
      "AcquisitionMatrix": [82, 0, 0, 82],
      "AngioFlag": "N",
      "BitsAllocated": 16,
      "BitsStored": 16,
      "BodyPartExamined": "BRAIN",
      "Columns": 656,
      "EchoNumbers": 1,
      "EchoTime": 27.2,
      "EchoTrainLength": 82,
      "FlipAngle": 44.0,
      "HighBit": 15,
      "ImageOrientationPatient": [0.99665687134761, -0.0794034774836, 0.01923976504813, 0.07353971524687, 0.97446363555144, 0.21216157349833],
      "ImagePositionPatient": [-939.30068904022, -781.71679159235, -278.73829294433],
      "ImageType": [
        "ORIGINAL",
        "PRIMARY",
        "M",
        "MB",
        "ND",
        "NORM",
        "MOSAIC"
],
      "ImagedNucleus": "1H",
      "ImagingFrequency": 123.252171,
      "InPlanePhaseEncodingDirection": "COL",
      "MRAcquisitionType": "2D",
      "MagneticFieldStrength": 3.0,
      "Manufacturer": "SIEMENS",
      "ManufacturerModelName": "Prisma",
      "Modality": "MR",
      "NumberOfAverages": 1.0,
      "NumberOfPhaseEncodingSteps": 82,
      "PercentPhaseFieldOfView": 100.0,
      "PercentSampling": 100.0,
      "PerformedProcedureStepStartTime": "085620.408000",
      "PhotometricInterpretation": "MONOCHROME2",
      "PixelBandwidth": 3050.0,
      "PixelRepresentation": 0,
      "PixelSpacing": [2.6829268932343, 2.6829268932343],
      "ProtocolName": "func_run-03_task-social_acq-ap-mb8",
      "RepetitionTime": 460.0,
      "Rows": 656,
      "SAR": 0.07545195979111,
      "SamplesPerPixel": 1,
      "ScanOptions": "FS",
      "ScanningSequence": "EP",
      "SequenceName": "epfid2d1_82",
      "SequenceVariant": [
        "SK",
        "SS"
],
      "SeriesDescription": "func_run-03_task-social_acq-ap-mb8",
      "SeriesNumber": 21,
      "SeriesTime": "103834.330000",
      "SliceLocation": -74.715905512246,
      "SliceThickness": 2.7000000476837,
      "SmallestImagePixelValue": 0,
      "SoftwareVersions": "syngo MR E11",
      "SpacingBetweenSlices": 2.7000001147651,
      "SpecificCharacterSet": "ISO_IR 100",
      "StudyID": "1",
      "StudyTime": "085620.302000",
      "TransmitCoilName": "Body",
      "VariableFlipAngleFlag": "N",
      "WindowCenterWidthExplanation": "Algo1",
      "dBdt": 0.0},
    "slices": {}
  },
  "time": {
    "samples": {
      "AcquisitionNumber": [1, 2, 3, 4, 5, 6, 7, 8, 9, 10, 11, 12, 13, 14, 15, 16, 17, 18, 19, 20, 21, 22, 23, 24, 25, 26, 27, 28, 29, 30, 31, 32, 33, 34, 35, 36, 37, 38, 39, 40, 41, 42, 43, 44, 45, 46, 47, 48, 49, 50, 51, 52, 53, 54, 55, 56, 57, 58, 59, 60, 61, 62, 63, 64, 65, 66, 67, 68, 69, 70, 71, 72, 73, 74, 75, 76, 77, 78, 79, 80, 81, 82, 83, 84, 85, 86, 87, 88, 89, 90, 91, 92, 93, 94, 95, 96, 97, 98, 99, 100, 101, 102, 103, 104, 105, 106, 107, 108, 109, 110, 111, 112, 113, 114, 115, 116, 117, 118, 119, 120, 121, 122, 123, 124, 125, 126, 127, 128, 129, 130, 131, 132, 133, 134, 135, 136, 137, 138, 139, 140, 141, 142, 143, 144, 145, 146, 147, 148, 149, 150, 151, 152, 153, 154, 155, 156, 157, 158, 159, 160, 161, 162, 163, 164, 165, 166, 167, 168, 169, 170, 171, 172, 173, 174, 175, 176, 177, 178, 179, 180, 181, 182, 183, 184, 185, 186, 187, 188, 189, 190, 191, 192, 193, 194, 195, 196, 197, 198, 199, 200, 201, 202, 203, 204, 205, 206, 207, 208, 209, 210, 211, 212, 213, 214, 215, 216, 217, 218, 219, 220, 221, 222, 223, 224, 225, 226, 227, 228, 229, 230, 231, 232, 233, 234, 235, 236, 237, 238, 239, 240, 241, 242, 243, 244, 245, 246, 247, 248, 249, 250, 251, 252, 253, 254, 255, 256, 257, 258, 259, 260, 261, 262, 263, 264, 265, 266, 267, 268, 269, 270, 271, 272, 273, 274, 275, 276, 277, 278, 279, 280, 281, 282, 283, 284, 285, 286, 287, 288, 289, 290, 291, 292, 293, 294, 295, 296, 297, 298, 299, 300, 301, 302, 303, 304, 305, 306, 307, 308, 309, 310, 311, 312, 313, 314, 315, 316, 317, 318, 319, 320, 321, 322, 323, 324, 325, 326, 327, 328, 329, 330, 331, 332, 333, 334, 335, 336, 337, 338, 339, 340, 341, 342, 343, 344, 345, 346, 347, 348, 349, 350, 351, 352, 353, 354, 355, 356, 357, 358, 359, 360, 361, 362, 363, 364, 365, 366, 367, 368, 369, 370, 371, 372, 373, 374, 375, 376, 377, 378, 379, 380, 381, 382, 383, 384, 385, 386, 387, 388, 389, 390, 391, 392, 393, 394, 395, 396, 397, 398, 399, 400, 401, 402, 403, 404, 405, 406, 407, 408, 409, 410, 411, 412, 413, 414, 415, 416, 417, 418, 419, 420, 421, 422, 423, 424, 425, 426, 427, 428, 429, 430, 431, 432, 433, 434, 435, 436, 437, 438, 439, 440, 441, 442, 443, 444, 445, 446, 447, 448, 449, 450, 451, 452, 453, 454, 455, 456, 457, 458, 459, 460, 461, 462, 463, 464, 465, 466, 467, 468, 469, 470, 471, 472, 473, 474, 475, 476, 477, 478, 479, 480, 481, 482, 483, 484, 485, 486, 487, 488, 489, 490, 491, 492, 493, 494, 495, 496, 497, 498, 499, 500, 501, 502, 503, 504, 505, 506, 507, 508, 509, 510, 511, 512, 513, 514, 515, 516, 517, 518, 519, 520, 521, 522, 523, 524, 525, 526, 527, 528, 529, 530, 531, 532, 533, 534, 535, 536, 537, 538, 539, 540, 541, 542, 543, 544, 545, 546, 547, 548, 549, 550, 551, 552, 553, 554, 555, 556, 557, 558, 559, 560, 561, 562, 563, 564, 565, 566, 567, 568, 569, 570, 571, 572, 573, 574, 575, 576, 577, 578, 579, 580, 581, 582, 583, 584, 585, 586, 587, 588, 589, 590, 591, 592, 593, 594, 595, 596, 597, 598, 599, 600, 601, 602, 603, 604, 605, 606, 607, 608, 609, 610, 611, 612, 613, 614, 615, 616, 617, 618, 619, 620, 621, 622, 623, 624, 625, 626, 627, 628, 629, 630, 631, 632, 633, 634, 635, 636, 637, 638, 639, 640, 641, 642, 643, 644, 645, 646, 647, 648, 649, 650, 651, 652, 653, 654, 655, 656, 657, 658, 659, 660, 661, 662, 663, 664, 665, 666, 667, 668, 669, 670, 671, 672, 673, 674, 675, 676, 677, 678, 679, 680, 681, 682, 683, 684, 685, 686, 687, 688, 689, 690, 691, 692, 693, 694, 695, 696, 697, 698, 699, 700, 701, 702, 703, 704, 705, 706, 707, 708, 709, 710, 711, 712, 713, 714, 715, 716, 717, 718, 719, 720, 721, 722, 723, 724, 725, 726, 727, 728, 729, 730, 731, 732, 733, 734, 735, 736, 737, 738, 739, 740, 741, 742, 743, 744, 745, 746, 747, 748, 749, 750, 751, 752, 753, 754, 755, 756, 757, 758, 759, 760, 761, 762, 763, 764, 765, 766, 767, 768, 769, 770, 771, 772, 773, 774, 775, 776, 777, 778, 779, 780, 781, 782, 783, 784, 785, 786, 787, 788, 789, 790, 791, 792, 793, 794, 795, 796, 797, 798, 799, 800, 801, 802, 803, 804, 805, 806, 807, 808, 809, 810, 811, 812, 813, 814, 815, 816, 817, 818, 819, 820, 821, 822, 823, 824, 825, 826, 827, 828, 829, 830, 831, 832, 833, 834, 835, 836, 837, 838, 839, 840, 841, 842, 843, 844, 845, 846, 847, 848, 849, 850, 851, 852, 853, 854, 855, 856, 857, 858, 859, 860, 861, 862, 863, 864, 865, 866, 867, 868, 869, 870, 871, 872],
      "AcquisitionTime": ["103825.295000", "103825.755000", "103826.215000", "103826.675000", "103827.135000", "103827.595000", "103828.055000", "103828.515000", "103828.975000", "103829.435000", "103829.895000", "103830.355000", "103830.815000", "103831.275000", "103831.735000", "103832.195000", "103832.655000", "103833.115000", "103833.575000", "103834.035000", "103834.495000", "103834.955000", "103835.415000", "103835.875000", "103836.335000", "103836.795000", "103837.255000", "103837.715000", "103838.175000", "103838.635000", "103839.095000", "103839.555000", "103840.015000", "103840.475000", "103840.935000", "103841.395000", "103841.855000", "103842.315000", "103842.775000", "103843.235000", "103843.695000", "103844.155000", "103844.615000", "103845.075000", "103845.535000", "103845.995000", "103846.455000", "103846.915000", "103847.375000", "103847.835000", "103848.295000", "103848.755000", "103849.215000", "103849.675000", "103850.135000", "103850.595000", "103851.055000", "103851.515000", "103851.975000", "103852.435000", "103852.895000", "103853.355000", "103853.815000", "103854.275000", "103854.735000", "103855.195000", "103855.655000", "103856.115000", "103856.575000", "103857.035000", "103857.495000", "103857.955000", "103858.415000", "103858.875000", "103859.335000", "103859.795000", "103900.255000", "103900.715000", "103901.175000", "103901.635000", "103902.095000", "103902.555000", "103903.015000", "103903.475000", "103903.935000", "103904.395000", "103904.855000", "103905.315000", "103905.775000", "103906.235000", "103906.695000", "103907.155000", "103907.615000", "103908.075000", "103908.535000", "103908.995000", "103909.455000", "103909.915000", "103910.375000", "103910.835000", "103911.295000", "103911.755000", "103912.215000", "103912.675000", "103913.135000", "103913.595000", "103914.055000", "103914.515000", "103914.975000", "103915.435000", "103915.895000", "103916.355000", "103916.815000", "103917.275000", "103917.735000", "103918.195000", "103918.655000", "103919.115000", "103919.575000", "103920.035000", "103920.495000", "103920.955000", "103921.415000", "103921.875000", "103922.335000", "103922.795000", "103923.255000", "103923.715000", "103924.175000", "103924.635000", "103925.095000", "103925.555000", "103926.015000", "103926.475000", "103926.935000", "103927.395000", "103927.855000", "103928.315000", "103928.775000", "103929.235000", "103929.695000", "103930.155000", "103930.615000", "103931.075000", "103931.535000", "103931.995000", "103932.455000", "103932.915000", "103933.375000", "103933.835000", "103934.295000", "103934.755000", "103935.215000", "103935.675000", "103936.135000", "103936.595000", "103937.055000", "103937.515000", "103937.975000", "103938.435000", "103938.895000", "103939.355000", "103939.815000", "103940.275000", "103940.735000", "103941.195000", "103941.655000", "103942.115000", "103942.575000", "103943.035000", "103943.495000", "103943.955000", "103944.415000", "103944.875000", "103945.335000", "103945.795000", "103946.255000", "103946.715000", "103947.175000", "103947.635000", "103948.095000", "103948.555000", "103949.015000", "103949.475000", "103949.935000", "103950.395000", "103950.855000", "103951.315000", "103951.775000", "103952.235000", "103952.695000", "103953.155000", "103953.615000", "103954.075000", "103954.535000", "103954.995000", "103955.455000", "103955.915000", "103956.375000", "103956.835000", "103957.295000", "103957.755000", "103958.215000", "103958.675000", "103959.135000", "103959.595000", "104000.055000", "104000.515000", "104000.975000", "104001.435000", "104001.895000", "104002.355000", "104002.815000", "104003.275000", "104003.735000", "104004.195000", "104004.655000", "104005.115000", "104005.575000", "104006.035000", "104006.495000", "104006.955000", "104007.415000", "104007.875000", "104008.335000", "104008.795000", "104009.255000", "104009.715000", "104010.175000", "104010.635000", "104011.095000", "104011.555000", "104012.015000", "104012.475000", "104012.935000", "104013.395000", "104013.855000", "104014.315000", "104014.775000", "104015.235000", "104015.695000", "104016.155000", "104016.615000", "104017.075000", "104017.535000", "104017.995000", "104018.455000", "104018.915000", "104019.375000", "104019.835000", "104020.295000", "104020.755000", "104021.215000", "104021.675000", "104022.135000", "104022.595000", "104023.055000", "104023.515000", "104023.975000", "104024.435000", "104024.895000", "104025.355000", "104025.815000", "104026.275000", "104026.735000", "104027.195000", "104027.655000", "104028.115000", "104028.575000", "104029.035000", "104029.495000", "104029.955000", "104030.415000", "104030.875000", "104031.335000", "104031.795000", "104032.255000", "104032.715000", "104033.175000", "104033.635000", "104034.095000", "104034.555000", "104035.015000", "104035.475000", "104035.935000", "104036.395000", "104036.855000", "104037.315000", "104037.775000", "104038.235000", "104038.695000", "104039.155000", "104039.615000", "104040.075000", "104040.535000", "104040.995000", "104041.455000", "104041.915000", "104042.375000", "104042.835000", "104043.295000", "104043.755000", "104044.215000", "104044.675000", "104045.135000", "104045.595000", "104046.055000", "104046.515000", "104046.975000", "104047.435000", "104047.895000", "104048.355000", "104048.815000", "104049.275000", "104049.735000", "104050.195000", "104050.655000", "104051.115000", "104051.575000", "104052.035000", "104052.495000", "104052.955000", "104053.415000", "104053.875000", "104054.335000", "104054.795000", "104055.255000", "104055.715000", "104056.175000", "104056.635000", "104057.095000", "104057.555000", "104058.015000", "104058.475000", "104058.935000", "104059.395000", "104059.855000", "104100.315000", "104100.775000", "104101.235000", "104101.695000", "104102.155000", "104102.615000", "104103.075000", "104103.535000", "104103.995000", "104104.455000", "104104.915000", "104105.375000", "104105.835000", "104106.295000", "104106.755000", "104107.215000", "104107.675000", "104108.135000", "104108.595000", "104109.055000", "104109.515000", "104109.975000", "104110.435000", "104110.895000", "104111.355000", "104111.815000", "104112.275000", "104112.735000", "104113.195000", "104113.655000", "104114.115000", "104114.575000", "104115.035000", "104115.495000", "104115.955000", "104116.415000", "104116.875000", "104117.335000", "104117.795000", "104118.255000", "104118.715000", "104119.175000", "104119.635000", "104120.095000", "104120.555000", "104121.015000", "104121.475000", "104121.935000", "104122.395000", "104122.855000", "104123.315000", "104123.775000", "104124.235000", "104124.695000", "104125.155000", "104125.615000", "104126.075000", "104126.535000", "104126.995000", "104127.455000", "104127.915000", "104128.375000", "104128.835000", "104129.295000", "104129.755000", "104130.215000", "104130.675000", "104131.135000", "104131.595000", "104132.055000", "104132.515000", "104132.975000", "104133.435000", "104133.895000", "104134.355000", "104134.815000", "104135.275000", "104135.735000", "104136.195000", "104136.655000", "104137.115000", "104137.575000", "104138.035000", "104138.495000", "104138.955000", "104139.415000", "104139.875000", "104140.335000", "104140.795000", "104141.255000", "104141.715000", "104142.175000", "104142.635000", "104143.095000", "104143.555000", "104144.015000", "104144.475000", "104144.935000", "104145.395000", "104145.855000", "104146.315000", "104146.775000", "104147.235000", "104147.695000", "104148.155000", "104148.615000", "104149.075000", "104149.535000", "104149.995000", "104150.455000", "104150.915000", "104151.375000", "104151.835000", "104152.295000", "104152.755000", "104153.215000", "104153.675000", "104154.135000", "104154.595000", "104155.055000", "104155.515000", "104155.975000", "104156.435000", "104156.895000", "104157.355000", "104157.815000", "104158.275000", "104158.735000", "104159.195000", "104159.655000", "104200.115000", "104200.575000", "104201.035000", "104201.495000", "104201.955000", "104202.415000", "104202.875000", "104203.335000", "104203.795000", "104204.255000", "104204.715000", "104205.175000", "104205.635000", "104206.095000", "104206.555000", "104207.015000", "104207.475000", "104207.935000", "104208.395000", "104208.855000", "104209.315000", "104209.775000", "104210.235000", "104210.695000", "104211.155000", "104211.615000", "104212.075000", "104212.535000", "104212.995000", "104213.455000", "104213.915000", "104214.375000", "104214.835000", "104215.295000", "104215.755000", "104216.215000", "104216.675000", "104217.135000", "104217.595000", "104218.055000", "104218.515000", "104218.975000", "104219.435000", "104219.895000", "104220.355000", "104220.815000", "104221.275000", "104221.735000", "104222.195000", "104222.655000", "104223.115000", "104223.575000", "104224.035000", "104224.495000", "104224.955000", "104225.415000", "104225.875000", "104226.335000", "104226.795000", "104227.255000", "104227.715000", "104228.175000", "104228.635000", "104229.095000", "104229.555000", "104230.015000", "104230.475000", "104230.935000", "104231.395000", "104231.855000", "104232.315000", "104232.775000", "104233.235000", "104233.695000", "104234.155000", "104234.615000", "104235.075000", "104235.535000", "104235.995000", "104236.455000", "104236.915000", "104237.375000", "104237.835000", "104238.295000", "104238.755000", "104239.215000", "104239.675000", "104240.135000", "104240.595000", "104241.055000", "104241.515000", "104241.975000", "104242.435000", "104242.895000", "104243.355000", "104243.815000", "104244.275000", "104244.735000", "104245.195000", "104245.655000", "104246.115000", "104246.575000", "104247.035000", "104247.495000", "104247.955000", "104248.415000", "104248.875000", "104249.335000", "104249.795000", "104250.255000", "104250.715000", "104251.175000", "104251.635000", "104252.095000", "104252.555000", "104253.015000", "104253.475000", "104253.935000", "104254.395000", "104254.855000", "104255.315000", "104255.775000", "104256.235000", "104256.695000", "104257.155000", "104257.615000", "104258.075000", "104258.535000", "104258.995000", "104259.455000", "104259.915000", "104300.375000", "104300.835000", "104301.295000", "104301.755000", "104302.215000", "104302.675000", "104303.135000", "104303.595000", "104304.055000", "104304.515000", "104304.975000", "104305.435000", "104305.895000", "104306.355000", "104306.815000", "104307.275000", "104307.735000", "104308.195000", "104308.655000", "104309.115000", "104309.575000", "104310.035000", "104310.495000", "104310.955000", "104311.415000", "104311.875000", "104312.335000", "104312.795000", "104313.255000", "104313.715000", "104314.175000", "104314.635000", "104315.095000", "104315.555000", "104316.015000", "104316.475000", "104316.935000", "104317.395000", "104317.855000", "104318.315000", "104318.775000", "104319.235000", "104319.695000", "104320.155000", "104320.615000", "104321.075000", "104321.535000", "104321.995000", "104322.455000", "104322.915000", "104323.375000", "104323.835000", "104324.295000", "104324.755000", "104325.215000", "104325.675000", "104326.135000", "104326.595000", "104327.055000", "104327.515000", "104327.975000", "104328.435000", "104328.895000", "104329.355000", "104329.815000", "104330.275000", "104330.735000", "104331.195000", "104331.655000", "104332.115000", "104332.575000", "104333.035000", "104333.495000", "104333.955000", "104334.415000", "104334.875000", "104335.335000", "104335.795000", "104336.255000", "104336.715000", "104337.175000", "104337.635000", "104338.095000", "104338.555000", "104339.015000", "104339.475000", "104339.935000", "104340.395000", "104340.855000", "104341.315000", "104341.775000", "104342.235000", "104342.695000", "104343.155000", "104343.615000", "104344.075000", "104344.535000", "104344.995000", "104345.455000", "104345.915000", "104346.375000", "104346.835000", "104347.295000", "104347.755000", "104348.215000", "104348.675000", "104349.135000", "104349.595000", "104350.055000", "104350.515000", "104350.975000", "104351.435000", "104351.895000", "104352.355000", "104352.815000", "104353.275000", "104353.735000", "104354.195000", "104354.655000", "104355.115000", "104355.575000", "104356.035000", "104356.495000", "104356.955000", "104357.415000", "104357.875000", "104358.335000", "104358.795000", "104359.255000", "104359.715000", "104400.175000", "104400.635000", "104401.095000", "104401.555000", "104402.015000", "104402.475000", "104402.935000", "104403.395000", "104403.855000", "104404.315000", "104404.775000", "104405.235000", "104405.695000", "104406.155000", "104406.615000", "104407.075000", "104407.535000", "104407.995000", "104408.455000", "104408.915000", "104409.375000", "104409.835000", "104410.295000", "104410.755000", "104411.215000", "104411.675000", "104412.135000", "104412.595000", "104413.055000", "104413.515000", "104413.975000", "104414.435000", "104414.895000", "104415.355000", "104415.815000", "104416.275000", "104416.735000", "104417.195000", "104417.655000", "104418.115000", "104418.575000", "104419.035000", "104419.495000", "104419.955000", "104420.415000", "104420.875000", "104421.335000", "104421.795000", "104422.255000", "104422.715000", "104423.175000", "104423.635000", "104424.095000", "104424.555000", "104425.015000", "104425.475000", "104425.935000", "104426.395000", "104426.855000", "104427.315000", "104427.775000", "104428.235000", "104428.695000", "104429.155000", "104429.615000", "104430.075000", "104430.535000", "104430.995000", "104431.455000", "104431.915000", "104432.375000", "104432.835000", "104433.295000", "104433.755000", "104434.215000", "104434.675000", "104435.135000", "104435.595000", "104436.055000", "104436.515000", "104436.975000", "104437.435000", "104437.895000", "104438.355000", "104438.815000", "104439.275000", "104439.735000", "104440.195000", "104440.655000", "104441.115000", "104441.575000", "104442.035000", "104442.495000", "104442.955000", "104443.415000", "104443.875000", "104444.335000", "104444.795000", "104445.255000", "104445.715000", "104446.175000", "104446.635000", "104447.095000", "104447.555000", "104448.015000", "104448.475000", "104448.935000", "104449.395000", "104449.855000", "104450.315000", "104450.775000", "104451.235000", "104451.695000", "104452.155000", "104452.615000", "104453.075000", "104453.535000", "104453.995000", "104454.455000", "104454.915000", "104455.375000", "104455.835000", "104456.295000", "104456.755000", "104457.215000", "104457.675000", "104458.135000", "104458.595000", "104459.055000", "104459.515000", "104459.975000", "104500.435000", "104500.895000", "104501.355000", "104501.815000", "104502.275000", "104502.735000", "104503.195000", "104503.655000", "104504.115000", "104504.575000", "104505.035000", "104505.495000", "104505.955000"],
