{
  "AcquisitionMatrixPE": 82,
  "AcquisitionNumber": 1,
  "AcquisitionTime": "11:33:11.272500",
  "BandwidthPerPixelPhaseEncode": 24.888,
  "BaseResolution": 82,
  "BodyPartExamined": "BRAIN",
  "ConsistencyInfo": "N4_VE11C_LATEST_20160120",
  "ConversionSoftware": "dcm2niix",
  "ConversionSoftwareVersion": "v1.0.20201102",
  "DerivedVendorReportedEchoSpacing": 0.00049,
  "DeviceSerialNumber": "66112",
  "DwellTime": 2e-06,
  "EchoTime": 0.0272,
  "EchoTrainLength": 82,
  "EffectiveEchoSpacing": 0.00049,
  "FlipAngle": 44,
  "ImageComments": "Unaliased MB8/PE3",
  "ImageOrientationPatientDICOM": [0.998497, 0.0271519, 0.0476126, -0.0233565, 0.996638, -0.0785352],
  "ImageType": [
    "ORIGINAL",
    "PRIMARY",
    "M",
    "MB",
    "ND",
    "NORM",
    "MOSAIC"
],
  "ImagingFrequency": 123.252,
  "InPlanePhaseEncodingDirectionDICOM": "COL",
  "InstitutionAddress": "Maynard 3,Hanover,NH,US,03755",
  "InstitutionName": "Dartmouth College - PBS",
  "InstitutionalDepartmentName": "Department",
  "MRAcquisitionType": "2D",
  "MagneticFieldStrength": 3,
  "Manufacturer": "Siemens",
  "ManufacturersModelName": "Prisma",
  "Modality": "MR",
  "MultibandAccelerationFactor": 8,
  "PartialFourier": 1,
  "PatientPosition": "HFS",
  "PercentPhaseFOV": 100,
  "PercentSampling": 100,
  "PhaseEncodingDirection": "j-",
  "PhaseEncodingSteps": 82,
  "PhaseResolution": 1,
  "PixelBandwidth": 3050,
  "ProcedureStepDescription": "Wager_Wager^1076_spacetop",
  "ProtocolName": "func_run-01_task-social_acq-ap-mb8",
  "PulseSequenceDetails": "%CustomerSeq%\\cmrr_mbep2d_bold",
  "ReceiveCoilActiveElements": "HEA;HEP",
  "ReceiveCoilName": "Head_32",
  "ReconMatrixPE": 82,
  "RepetitionTime": 0.46,
  "SAR": 0.0974472,
  "ScanOptions": "FS",
  "ScanningSequence": "EP",
  "SequenceName": "epfid2d1_82",
  "SequenceVariant": "SK\\SS",
  "SeriesDescription": "func_run-01_task-social_acq-ap-mb8",
  "SeriesNumber": 12,
  "ShimSetting": [4158, -7779, -7214, 589, -95, -230, 87, 68],
  "SliceThickness": 2.7,
  "SliceTiming": [0, 0.2525, 0.0625, 0.315, 0.125, 0.3775, 0.1875, 0, 0.2525, 0.0625, 0.315, 0.125, 0.3775, 0.1875, 0, 0.2525, 0.0625, 0.315, 0.125, 0.3775, 0.1875, 0, 0.2525, 0.0625, 0.315, 0.125, 0.3775, 0.1875, 0, 0.2525, 0.0625, 0.315, 0.125, 0.3775, 0.1875, 0, 0.2525, 0.0625, 0.315, 0.125, 0.3775, 0.1875, 0, 0.2525, 0.0625, 0.315, 0.125, 0.3775, 0.1875, 0, 0.2525, 0.0625, 0.315, 0.125, 0.3775, 0.1875],
  "SoftwareVersions": "syngo MR E11",
  "SpacingBetweenSlices": 2.7,
  "StationName": "AWP66112",
  "TaskName": "social",
  "TotalReadoutTime": 0.03969,
  "TxRefAmp": 256.656,
  "WipMemBlock": "0e0929cb-86be-487b-8cdc-fbe0037945e4||Sequence: R016 ve11c/master r/e634e98; Dec 19 2017 11:00:25 by eja",
  "dcmmeta_affine": [
    [-2.678893804550171, -0.06266377121210098, 0.13387908041477203, 111.65199279785156],
    [-0.0728466659784317, 2.673906087875366, -0.20872367918491364, -79.87750244140625],
    [0.1277409940958023, 0.21070416271686554, 2.688589096069336, -69.69239807128906],
    [0.0, 0.0, 0.0, 1.0]
],
  "dcmmeta_reorient_transform": [
    [0.0, -1.0, 0.0, 81.0],
    [1.0, 0.0, 0.0, 0.0],
    [0.0, 0.0, 1.0, 0.0],
    [0.0, 0.0, 0.0, 1.0]
],
  "dcmmeta_shape": [82, 82, 56, 872],
  "dcmmeta_slice_dim": 2,
  "dcmmeta_version": 0.6,
  "global": {
    "const": {
      "AccessionNumber": "A003611",
      "AcquisitionMatrix": [82, 0, 0, 82],
      "AngioFlag": "N",
      "BitsAllocated": 16,
      "BitsStored": 16,
      "BodyPartExamined": "BRAIN",
      "Columns": 656,
      "EchoNumbers": 1,
      "EchoTime": 27.2,
      "EchoTrainLength": 82,
      "FlipAngle": 44.0,
      "HighBit": 15,
      "ImageOrientationPatient": [0.9984967788284, 0.02715193841518, 0.0476125499172, -0.0233564948532, 0.99663769677035, -0.0785351865374],
      "ImagePositionPatient": [-857.43426524732, -925.02692810741, -28.81493077952],
      "ImageType": [
        "ORIGINAL",
        "PRIMARY",
        "M",
        "MB",
        "ND",
        "NORM",
        "MOSAIC"
],
      "ImagedNucleus": "1H",
      "ImagingFrequency": 123.252143,
      "InPlanePhaseEncodingDirection": "COL",
      "MRAcquisitionType": "2D",
      "MagneticFieldStrength": 3.0,
      "Manufacturer": "SIEMENS",
      "ManufacturerModelName": "Prisma",
      "Modality": "MR",
      "NumberOfAverages": 1.0,
      "NumberOfPhaseEncodingSteps": 82,
      "PercentPhaseFieldOfView": 100.0,
      "PercentSampling": 100.0,
      "PerformedProcedureStepStartTime": "105847.948000",
      "PhotometricInterpretation": "MONOCHROME2",
      "PixelBandwidth": 3050.0,
      "PixelRepresentation": 0,
      "PixelSpacing": [2.6829268932343, 2.6829268932343],
      "ProtocolName": "func_run-01_task-social_acq-ap-mb8",
      "RepetitionTime": 460.0,
      "Rows": 656,
      "SAR": 0.09744718576683,
      "SamplesPerPixel": 1,
      "ScanOptions": "FS",
      "ScanningSequence": "EP",
      "SequenceName": "epfid2d1_82",
      "SequenceVariant": [
        "SK",
        "SS"
],
      "SeriesDescription": "func_run-01_task-social_acq-ap-mb8",
      "SeriesNumber": 12,
      "SeriesTime": "113326.181000",
      "SliceLocation": -57.686675571991,
      "SliceThickness": 2.7000000476837,
      "SmallestImagePixelValue": 0,
      "SoftwareVersions": "syngo MR E11",
      "SpacingBetweenSlices": 2.699999990909,
      "SpecificCharacterSet": "ISO_IR 100",
      "StudyID": "1",
      "StudyTime": "105847.906000",
      "TransmitCoilName": "Body",
      "VariableFlipAngleFlag": "N",
      "WindowCenterWidthExplanation": "Algo1",
      "dBdt": 0.0},
    "slices": {}
  },
  "time": {
    "samples": {
      "AcquisitionNumber": [1, 2, 3, 4, 5, 6, 7, 8, 9, 10, 11, 12, 13, 14, 15, 16, 17, 18, 19, 20, 21, 22, 23, 24, 25, 26, 27, 28, 29, 30, 31, 32, 33, 34, 35, 36, 37, 38, 39, 40, 41, 42, 43, 44, 45, 46, 47, 48, 49, 50, 51, 52, 53, 54, 55, 56, 57, 58, 59, 60, 61, 62, 63, 64, 65, 66, 67, 68, 69, 70, 71, 72, 73, 74, 75, 76, 77, 78, 79, 80, 81, 82, 83, 84, 85, 86, 87, 88, 89, 90, 91, 92, 93, 94, 95, 96, 97, 98, 99, 100, 101, 102, 103, 104, 105, 106, 107, 108, 109, 110, 111, 112, 113, 114, 115, 116, 117, 118, 119, 120, 121, 122, 123, 124, 125, 126, 127, 128, 129, 130, 131, 132, 133, 134, 135, 136, 137, 138, 139, 140, 141, 142, 143, 144, 145, 146, 147, 148, 149, 150, 151, 152, 153, 154, 155, 156, 157, 158, 159, 160, 161, 162, 163, 164, 165, 166, 167, 168, 169, 170, 171, 172, 173, 174, 175, 176, 177, 178, 179, 180, 181, 182, 183, 184, 185, 186, 187, 188, 189, 190, 191, 192, 193, 194, 195, 196, 197, 198, 199, 200, 201, 202, 203, 204, 205, 206, 207, 208, 209, 210, 211, 212, 213, 214, 215, 216, 217, 218, 219, 220, 221, 222, 223, 224, 225, 226, 227, 228, 229, 230, 231, 232, 233, 234, 235, 236, 237, 238, 239, 240, 241, 242, 243, 244, 245, 246, 247, 248, 249, 250, 251, 252, 253, 254, 255, 256, 257, 258, 259, 260, 261, 262, 263, 264, 265, 266, 267, 268, 269, 270, 271, 272, 273, 274, 275, 276, 277, 278, 279, 280, 281, 282, 283, 284, 285, 286, 287, 288, 289, 290, 291, 292, 293, 294, 295, 296, 297, 298, 299, 300, 301, 302, 303, 304, 305, 306, 307, 308, 309, 310, 311, 312, 313, 314, 315, 316, 317, 318, 319, 320, 321, 322, 323, 324, 325, 326, 327, 328, 329, 330, 331, 332, 333, 334, 335, 336, 337, 338, 339, 340, 341, 342, 343, 344, 345, 346, 347, 348, 349, 350, 351, 352, 353, 354, 355, 356, 357, 358, 359, 360, 361, 362, 363, 364, 365, 366, 367, 368, 369, 370, 371, 372, 373, 374, 375, 376, 377, 378, 379, 380, 381, 382, 383, 384, 385, 386, 387, 388, 389, 390, 391, 392, 393, 394, 395, 396, 397, 398, 399, 400, 401, 402, 403, 404, 405, 406, 407, 408, 409, 410, 411, 412, 413, 414, 415, 416, 417, 418, 419, 420, 421, 422, 423, 424, 425, 426, 427, 428, 429, 430, 431, 432, 433, 434, 435, 436, 437, 438, 439, 440, 441, 442, 443, 444, 445, 446, 447, 448, 449, 450, 451, 452, 453, 454, 455, 456, 457, 458, 459, 460, 461, 462, 463, 464, 465, 466, 467, 468, 469, 470, 471, 472, 473, 474, 475, 476, 477, 478, 479, 480, 481, 482, 483, 484, 485, 486, 487, 488, 489, 490, 491, 492, 493, 494, 495, 496, 497, 498, 499, 500, 501, 502, 503, 504, 505, 506, 507, 508, 509, 510, 511, 512, 513, 514, 515, 516, 517, 518, 519, 520, 521, 522, 523, 524, 525, 526, 527, 528, 529, 530, 531, 532, 533, 534, 535, 536, 537, 538, 539, 540, 541, 542, 543, 544, 545, 546, 547, 548, 549, 550, 551, 552, 553, 554, 555, 556, 557, 558, 559, 560, 561, 562, 563, 564, 565, 566, 567, 568, 569, 570, 571, 572, 573, 574, 575, 576, 577, 578, 579, 580, 581, 582, 583, 584, 585, 586, 587, 588, 589, 590, 591, 592, 593, 594, 595, 596, 597, 598, 599, 600, 601, 602, 603, 604, 605, 606, 607, 608, 609, 610, 611, 612, 613, 614, 615, 616, 617, 618, 619, 620, 621, 622, 623, 624, 625, 626, 627, 628, 629, 630, 631, 632, 633, 634, 635, 636, 637, 638, 639, 640, 641, 642, 643, 644, 645, 646, 647, 648, 649, 650, 651, 652, 653, 654, 655, 656, 657, 658, 659, 660, 661, 662, 663, 664, 665, 666, 667, 668, 669, 670, 671, 672, 673, 674, 675, 676, 677, 678, 679, 680, 681, 682, 683, 684, 685, 686, 687, 688, 689, 690, 691, 692, 693, 694, 695, 696, 697, 698, 699, 700, 701, 702, 703, 704, 705, 706, 707, 708, 709, 710, 711, 712, 713, 714, 715, 716, 717, 718, 719, 720, 721, 722, 723, 724, 725, 726, 727, 728, 729, 730, 731, 732, 733, 734, 735, 736, 737, 738, 739, 740, 741, 742, 743, 744, 745, 746, 747, 748, 749, 750, 751, 752, 753, 754, 755, 756, 757, 758, 759, 760, 761, 762, 763, 764, 765, 766, 767, 768, 769, 770, 771, 772, 773, 774, 775, 776, 777, 778, 779, 780, 781, 782, 783, 784, 785, 786, 787, 788, 789, 790, 791, 792, 793, 794, 795, 796, 797, 798, 799, 800, 801, 802, 803, 804, 805, 806, 807, 808, 809, 810, 811, 812, 813, 814, 815, 816, 817, 818, 819, 820, 821, 822, 823, 824, 825, 826, 827, 828, 829, 830, 831, 832, 833, 834, 835, 836, 837, 838, 839, 840, 841, 842, 843, 844, 845, 846, 847, 848, 849, 850, 851, 852, 853, 854, 855, 856, 857, 858, 859, 860, 861, 862, 863, 864, 865, 866, 867, 868, 869, 870, 871, 872],
      "AcquisitionTime": ["113311.272500", "113311.732500", "113312.192500", "113312.652500", "113313.112500", "113313.572500", "113314.032500", "113314.492500", "113314.952500", "113315.412500", "113315.872500", "113316.332500", "113316.792500", "113317.252500", "113317.712500", "113318.172500", "113318.632500", "113319.092500", "113319.552500", "113320.012500", "113320.472500", "113320.932500", "113321.392500", "113321.852500", "113322.312500", "113322.772500", "113323.232500", "113323.692500", "113324.152500", "113324.612500", "113325.072500", "113325.532500", "113325.992500", "113326.452500", "113326.912500", "113327.372500", "113327.832500", "113328.292500", "113328.752500", "113329.212500", "113329.672500", "113330.132500", "113330.592500", "113331.052500", "113331.512500", "113331.972500", "113332.432500", "113332.892500", "113333.352500", "113333.812500", "113334.272500", "113334.732500", "113335.192500", "113335.652500", "113336.112500", "113336.572500", "113337.032500", "113337.492500", "113337.952500", "113338.412500", "113338.872500", "113339.332500", "113339.792500", "113340.252500", "113340.712500", "113341.172500", "113341.632500", "113342.092500", "113342.552500", "113343.012500", "113343.472500", "113343.932500", "113344.392500", "113344.852500", "113345.312500", "113345.772500", "113346.232500", "113346.692500", "113347.152500", "113347.612500", "113348.072500", "113348.532500", "113348.992500", "113349.452500", "113349.912500", "113350.372500", "113350.832500", "113351.292500", "113351.752500", "113352.212500", "113352.672500", "113353.132500", "113353.592500", "113354.052500", "113354.512500", "113354.972500", "113355.432500", "113355.892500", "113356.352500", "113356.812500", "113357.272500", "113357.732500", "113358.192500", "113358.652500", "113359.112500", "113359.572500", "113400.032500", "113400.492500", "113400.952500", "113401.412500", "113401.872500", "113402.332500", "113402.792500", "113403.252500", "113403.712500", "113404.172500", "113404.632500", "113405.092500", "113405.552500", "113406.012500", "113406.472500", "113406.932500", "113407.392500", "113407.852500", "113408.312500", "113408.772500", "113409.232500", "113409.692500", "113410.152500", "113410.612500", "113411.072500", "113411.532500", "113411.992500", "113412.452500", "113412.912500", "113413.372500", "113413.832500", "113414.292500", "113414.752500", "113415.212500", "113415.672500", "113416.132500", "113416.592500", "113417.052500", "113417.512500", "113417.972500", "113418.432500", "113418.892500", "113419.352500", "113419.812500", "113420.272500", "113420.732500", "113421.192500", "113421.652500", "113422.112500", "113422.572500", "113423.032500", "113423.492500", "113423.952500", "113424.412500", "113424.872500", "113425.332500", "113425.792500", "113426.252500", "113426.712500", "113427.172500", "113427.632500", "113428.092500", "113428.552500", "113429.012500", "113429.472500", "113429.932500", "113430.392500", "113430.852500", "113431.312500", "113431.772500", "113432.232500", "113432.692500", "113433.152500", "113433.612500", "113434.072500", "113434.532500", "113434.992500", "113435.452500", "113435.912500", "113436.372500", "113436.832500", "113437.292500", "113437.752500", "113438.212500", "113438.672500", "113439.132500", "113439.592500", "113440.052500", "113440.512500", "113440.972500", "113441.432500", "113441.892500", "113442.352500", "113442.812500", "113443.272500", "113443.732500", "113444.192500", "113444.652500", "113445.112500", "113445.572500", "113446.032500", "113446.492500", "113446.952500", "113447.412500", "113447.872500", "113448.332500", "113448.792500", "113449.252500", "113449.712500", "113450.172500", "113450.632500", "113451.092500", "113451.552500", "113452.012500", "113452.472500", "113452.932500", "113453.392500", "113453.852500", "113454.312500", "113454.772500", "113455.232500", "113455.692500", "113456.152500", "113456.612500", "113457.072500", "113457.532500", "113457.992500", "113458.452500", "113458.912500", "113459.372500", "113459.832500", "113500.292500", "113500.752500", "113501.212500", "113501.672500", "113502.132500", "113502.592500", "113503.052500", "113503.512500", "113503.972500", "113504.432500", "113504.892500", "113505.352500", "113505.812500", "113506.272500", "113506.732500", "113507.192500", "113507.652500", "113508.112500", "113508.572500", "113509.032500", "113509.492500", "113509.952500", "113510.412500", "113510.872500", "113511.332500", "113511.792500", "113512.252500", "113512.712500", "113513.172500", "113513.632500", "113514.092500", "113514.552500", "113515.012500", "113515.472500", "113515.932500", "113516.392500", "113516.852500", "113517.312500", "113517.772500", "113518.232500", "113518.692500", "113519.152500", "113519.612500", "113520.072500", "113520.532500", "113520.992500", "113521.452500", "113521.912500", "113522.372500", "113522.832500", "113523.292500", "113523.752500", "113524.212500", "113524.672500", "113525.132500", "113525.592500", "113526.052500", "113526.512500", "113526.972500", "113527.432500", "113527.892500", "113528.352500", "113528.812500", "113529.272500", "113529.732500", "113530.192500", "113530.652500", "113531.112500", "113531.572500", "113532.032500", "113532.492500", "113532.952500", "113533.412500", "113533.872500", "113534.332500", "113534.792500", "113535.252500", "113535.712500", "113536.172500", "113536.632500", "113537.092500", "113537.552500", "113538.012500", "113538.472500", "113538.932500", "113539.392500", "113539.852500", "113540.312500", "113540.772500", "113541.232500", "113541.692500", "113542.152500", "113542.612500", "113543.072500", "113543.532500", "113543.992500", "113544.452500", "113544.912500", "113545.372500", "113545.832500", "113546.292500", "113546.752500", "113547.212500", "113547.672500", "113548.132500", "113548.592500", "113549.052500", "113549.512500", "113549.972500", "113550.432500", "113550.892500", "113551.352500", "113551.812500", "113552.272500", "113552.732500", "113553.192500", "113553.652500", "113554.112500", "113554.572500", "113555.032500", "113555.492500", "113555.952500", "113556.412500", "113556.872500", "113557.332500", "113557.792500", "113558.252500", "113558.712500", "113559.172500", "113559.632500", "113600.092500", "113600.552500", "113601.012500", "113601.472500", "113601.932500", "113602.392500", "113602.852500", "113603.312500", "113603.772500", "113604.232500", "113604.692500", "113605.152500", "113605.612500", "113606.072500", "113606.532500", "113606.992500", "113607.452500", "113607.912500", "113608.372500", "113608.832500", "113609.292500", "113609.752500", "113610.212500", "113610.672500", "113611.132500", "113611.592500", "113612.052500", "113612.512500", "113612.972500", "113613.432500", "113613.892500", "113614.352500", "113614.812500", "113615.272500", "113615.732500", "113616.192500", "113616.652500", "113617.112500", "113617.572500", "113618.032500", "113618.492500", "113618.952500", "113619.412500", "113619.872500", "113620.332500", "113620.792500", "113621.252500", "113621.712500", "113622.172500", "113622.632500", "113623.092500", "113623.552500", "113624.012500", "113624.472500", "113624.932500", "113625.392500", "113625.852500", "113626.312500", "113626.772500", "113627.232500", "113627.692500", "113628.152500", "113628.612500", "113629.072500", "113629.532500", "113629.992500", "113630.452500", "113630.912500", "113631.372500", "113631.832500", "113632.292500", "113632.752500", "113633.212500", "113633.672500", "113634.132500", "113634.592500", "113635.052500", "113635.512500", "113635.972500", "113636.432500", "113636.892500", "113637.352500", "113637.812500", "113638.272500", "113638.732500", "113639.192500", "113639.652500", "113640.112500", "113640.572500", "113641.032500", "113641.492500", "113641.952500", "113642.412500", "113642.872500", "113643.332500", "113643.792500", "113644.252500", "113644.712500", "113645.172500", "113645.632500", "113646.092500", "113646.552500", "113647.012500", "113647.472500", "113647.932500", "113648.392500", "113648.852500", "113649.312500", "113649.772500", "113650.232500", "113650.692500", "113651.152500", "113651.612500", "113652.072500", "113652.532500", "113652.992500", "113653.452500", "113653.912500", "113654.372500", "113654.832500", "113655.292500", "113655.752500", "113656.212500", "113656.672500", "113657.132500", "113657.592500", "113658.052500", "113658.512500", "113658.972500", "113659.432500", "113659.892500", "113700.352500", "113700.812500", "113701.272500", "113701.732500", "113702.192500", "113702.652500", "113703.112500", "113703.572500", "113704.032500", "113704.492500", "113704.952500", "113705.412500", "113705.872500", "113706.332500", "113706.792500", "113707.252500", "113707.712500", "113708.172500", "113708.632500", "113709.092500", "113709.552500", "113710.012500", "113710.472500", "113710.932500", "113711.392500", "113711.852500", "113712.312500", "113712.772500", "113713.232500", "113713.692500", "113714.152500", "113714.612500", "113715.072500", "113715.532500", "113715.992500", "113716.452500", "113716.912500", "113717.372500", "113717.832500", "113718.292500", "113718.752500", "113719.212500", "113719.672500", "113720.132500", "113720.592500", "113721.052500", "113721.512500", "113721.972500", "113722.432500", "113722.892500", "113723.352500", "113723.812500", "113724.272500", "113724.732500", "113725.192500", "113725.652500", "113726.112500", "113726.572500", "113727.032500", "113727.492500", "113727.952500", "113728.412500", "113728.872500", "113729.332500", "113729.792500", "113730.252500", "113730.712500", "113731.172500", "113731.632500", "113732.092500", "113732.552500", "113733.012500", "113733.472500", "113733.932500", "113734.392500", "113734.852500", "113735.312500", "113735.772500", "113736.232500", "113736.692500", "113737.152500", "113737.612500", "113738.072500", "113738.532500", "113738.992500", "113739.452500", "113739.912500", "113740.372500", "113740.832500", "113741.292500", "113741.752500", "113742.212500", "113742.672500", "113743.132500", "113743.592500", "113744.052500", "113744.512500", "113744.972500", "113745.432500", "113745.892500", "113746.352500", "113746.812500", "113747.272500", "113747.732500", "113748.192500", "113748.652500", "113749.112500", "113749.572500", "113750.032500", "113750.492500", "113750.952500", "113751.412500", "113751.872500", "113752.332500", "113752.792500", "113753.252500", "113753.712500", "113754.172500", "113754.632500", "113755.092500", "113755.552500", "113756.012500", "113756.472500", "113756.932500", "113757.392500", "113757.852500", "113758.312500", "113758.772500", "113759.232500", "113759.692500", "113800.152500", "113800.612500", "113801.072500", "113801.532500", "113801.992500", "113802.452500", "113802.912500", "113803.372500", "113803.832500", "113804.292500", "113804.752500", "113805.212500", "113805.672500", "113806.132500", "113806.592500", "113807.052500", "113807.512500", "113807.972500", "113808.432500", "113808.892500", "113809.352500", "113809.812500", "113810.272500", "113810.732500", "113811.192500", "113811.652500", "113812.112500", "113812.572500", "113813.032500", "113813.492500", "113813.952500", "113814.412500", "113814.872500", "113815.332500", "113815.792500", "113816.252500", "113816.712500", "113817.172500", "113817.632500", "113818.092500", "113818.552500", "113819.012500", "113819.472500", "113819.932500", "113820.392500", "113820.852500", "113821.312500", "113821.772500", "113822.232500", "113822.692500", "113823.152500", "113823.612500", "113824.072500", "113824.532500", "113824.992500", "113825.452500", "113825.912500", "113826.372500", "113826.832500", "113827.292500", "113827.752500", "113828.212500", "113828.672500", "113829.132500", "113829.592500", "113830.052500", "113830.512500", "113830.972500", "113831.432500", "113831.892500", "113832.352500", "113832.812500", "113833.272500", "113833.732500", "113834.192500", "113834.652500", "113835.112500", "113835.572500", "113836.032500", "113836.492500", "113836.952500", "113837.412500", "113837.872500", "113838.332500", "113838.792500", "113839.252500", "113839.712500", "113840.172500", "113840.632500", "113841.092500", "113841.552500", "113842.012500", "113842.472500", "113842.932500", "113843.392500", "113843.852500", "113844.312500", "113844.772500", "113845.232500", "113845.692500", "113846.152500", "113846.612500", "113847.072500", "113847.532500", "113847.992500", "113848.452500", "113848.912500", "113849.372500", "113849.832500", "113850.292500", "113850.752500", "113851.212500", "113851.672500", "113852.132500", "113852.592500", "113853.052500", "113853.512500", "113853.972500", "113854.432500", "113854.892500", "113855.352500", "113855.812500", "113856.272500", "113856.732500", "113857.192500", "113857.652500", "113858.112500", "113858.572500", "113859.032500", "113859.492500", "113859.952500", "113900.412500", "113900.872500", "113901.332500", "113901.792500", "113902.252500", "113902.712500", "113903.172500", "113903.632500", "113904.092500", "113904.552500", "113905.012500", "113905.472500", "113905.932500", "113906.392500", "113906.852500", "113907.312500", "113907.772500", "113908.232500", "113908.692500", "113909.152500", "113909.612500", "113910.072500", "113910.532500", "113910.992500", "113911.452500", "113911.912500", "113912.372500", "113912.832500", "113913.292500", "113913.752500", "113914.212500", "113914.672500", "113915.132500", "113915.592500", "113916.052500", "113916.512500", "113916.972500", "113917.432500", "113917.892500", "113918.352500", "113918.812500", "113919.272500", "113919.732500", "113920.192500", "113920.652500", "113921.112500", "113921.572500", "113922.032500", "113922.492500", "113922.952500", "113923.412500", "113923.872500", "113924.332500", "113924.792500", "113925.252500", "113925.712500", "113926.172500", "113926.632500", "113927.092500", "113927.552500", "113928.012500", "113928.472500", "113928.932500", "113929.392500", "113929.852500", "113930.312500", "113930.772500", "113931.232500", "113931.692500", "113932.152500", "113932.612500", "113933.072500", "113933.532500", "113933.992500", "113934.452500", "113934.912500", "113935.372500", "113935.832500", "113936.292500", "113936.752500", "113937.212500", "113937.672500", "113938.132500", "113938.592500", "113939.052500", "113939.512500", "113939.972500", "113940.432500", "113940.892500", "113941.352500", "113941.812500", "113942.272500", "113942.732500", "113943.192500", "113943.652500", "113944.112500", "113944.572500", "113945.032500", "113945.492500", "113945.952500", "113946.412500", "113946.872500", "113947.332500", "113947.792500", "113948.252500", "113948.712500", "113949.172500", "113949.632500", "113950.092500", "113950.552500", "113951.012500", "113951.472500", "113951.932500"],
