{
  "AcquisitionMatrixPE": 82,
  "AcquisitionNumber": 1,
  "AcquisitionTime": "10:06:35.697500",
  "BandwidthPerPixelPhaseEncode": 24.888,
  "BaseResolution": 82,
  "BodyPartExamined": "BRAIN",
  "ConsistencyInfo": "N4_VE11E_LATEST_20181129",
  "ConversionSoftware": "dcm2niix",
  "ConversionSoftwareVersion": "v1.0.20201102",
  "DerivedVendorReportedEchoSpacing": 0.00049,
  "DeviceSerialNumber": "66112",
  "DwellTime": 2e-06,
  "EchoTime": 0.0272,
  "EchoTrainLength": 82,
  "EffectiveEchoSpacing": 0.00049,
  "FlipAngle": 44,
  "ImageComments": "Unaliased MB8/PE3",
  "ImageOrientationPatientDICOM": [0.99968, -0.00994899, 0.0232427, 0.00802615, 0.996649, 0.0814045],
  "ImageType": [
    "ORIGINAL",
    "PRIMARY",
    "M",
    "MB",
    "ND",
    "NORM",
    "MOSAIC"
],
  "ImagingFrequency": 123.259,
  "InPlanePhaseEncodingDirectionDICOM": "COL",
  "InstitutionAddress": "Maynard 3,Hanover,NH,US,03755",
  "InstitutionName": "Dartmouth College - PBS",
  "InstitutionalDepartmentName": "Department",
  "MRAcquisitionType": "2D",
  "MagneticFieldStrength": 3,
  "Manufacturer": "Siemens",
  "ManufacturersModelName": "Prisma",
  "Modality": "MR",
  "MultibandAccelerationFactor": 8,
  "PartialFourier": 1,
  "PatientPosition": "HFS",
  "PercentPhaseFOV": 100,
  "PercentSampling": 100,
  "PhaseEncodingDirection": "j-",
  "PhaseEncodingSteps": 82,
  "PhaseResolution": 1,
  "PixelBandwidth": 3050,
  "ProcedureStepDescription": "Wager_Wager^1076_spacetop",
  "ProtocolName": "func_run-02_task-narratives_acq-ap-mb8",
  "PulseSequenceDetails": "%CustomerSeq%\\cmrr_mbep2d_bold",
  "ReceiveCoilActiveElements": "HEA;HEP",
  "ReceiveCoilName": "Head_32",
  "ReconMatrixPE": 82,
  "RepetitionTime": 0.46,
  "SAR": 0.0859443,
  "ScanOptions": "FS",
  "ScanningSequence": "EP",
  "SequenceName": "epfid2d1_82",
  "SequenceVariant": "SK\\SS",
  "SeriesDescription": "func_run-02_task-narratives_acq-ap-mb8",
  "SeriesNumber": 12,
  "ShimSetting": [4231, -8112, -7361, 482, -103, -1056, 731, 144],
  "SliceThickness": 2.7,
  "SliceTiming": [0, 0.25, 0.0625, 0.3125, 0.125, 0.375, 0.1875, 0, 0.25, 0.0625, 0.3125, 0.125, 0.375, 0.1875, 0, 0.25, 0.0625, 0.3125, 0.125, 0.375, 0.1875, 0, 0.25, 0.0625, 0.3125, 0.125, 0.375, 0.1875, 0, 0.25, 0.0625, 0.3125, 0.125, 0.375, 0.1875, 0, 0.25, 0.0625, 0.3125, 0.125, 0.375, 0.1875, 0, 0.25, 0.0625, 0.3125, 0.125, 0.375, 0.1875, 0, 0.25, 0.0625, 0.3125, 0.125, 0.375, 0.1875],
  "SoftwareVersions": "syngo MR E11",
  "SpacingBetweenSlices": 2.7,
  "StationName": "AWP66112",
  "TaskName": "narratives",
  "TotalReadoutTime": 0.03969,
  "TxRefAmp": 231.143,
  "WipMemBlock": "153ce4e5-9b0c-4c84-baee-056a5ff5c2a0||Sequence: R016 ve11e/master r/434b28f1; Aug  7 2019 18:53:46 by eja",
  "dcmmeta_affine": [
    [-2.6820693016052246, 0.021533580496907234, 0.06473170220851898, 110.87844848632812],
    [0.026692409068346024, 2.673935890197754, 0.2192182093858719, -104.15113067626953],
    [0.06235847249627113, -0.21840234100818634, 2.690307140350342, -60.67454528808594],
    [0.0, 0.0, 0.0, 1.0]
],
  "dcmmeta_reorient_transform": [
    [0.0, -1.0, 0.0, 81.0],
    [1.0, 0.0, 0.0, 0.0],
    [0.0, 0.0, 1.0, 0.0],
    [0.0, 0.0, 0.0, 1.0]
],
  "dcmmeta_shape": [82, 82, 56, 1098],
  "dcmmeta_slice_dim": 2,
  "dcmmeta_version": 0.6,
  "global": {
    "const": {
      "AccessionNumber": "A004817",
      "AcquisitionMatrix": [82, 0, 0, 82],
      "AngioFlag": "N",
      "BitsAllocated": 16,
      "BitsStored": 16,
      "BodyPartExamined": "BRAIN",
      "Columns": 656,
      "EchoNumbers": 1,
      "EchoTime": 27.2,
      "EchoTrainLength": 82,
      "FlipAngle": 44.0,
      "HighBit": 15,
      "ImageOrientationPatient": [0.99968034611711, -0.0099489886644, 0.02324270233276, 0.00802615282554, 0.99664882859515, 0.08140450436387],
      "ImagePositionPatient": [-888.55669393501, -872.19657564161, -158.94348695971],
      "ImageType": [
        "ORIGINAL",
        "PRIMARY",
        "M",
        "MB",
        "ND",
        "NORM",
        "MOSAIC"
],
      "ImagedNucleus": "1H",
      "ImagingFrequency": 123.259163,
      "InPlanePhaseEncodingDirection": "COL",
      "MRAcquisitionType": "2D",
      "MagneticFieldStrength": 3.0,
      "Manufacturer": "SIEMENS",
      "ManufacturerModelName": "Prisma",
      "Modality": "MR",
      "NumberOfAverages": 1.0,
      "NumberOfPhaseEncodingSteps": 82,
      "PercentPhaseFieldOfView": 100.0,
      "PercentSampling": 100.0,
      "PerformedProcedureStepStartTime": "094841.825000",
      "PhotometricInterpretation": "MONOCHROME2",
      "PixelBandwidth": 3050.0,
      "PixelRepresentation": 0,
      "PixelSpacing": [2.6829268932343, 2.6829268932343],
      "ProtocolName": "func_run-02_task-narratives_acq-ap-mb8",
      "RepetitionTime": 460.0,
      "Rows": 656,
      "SAR": 0.0859443347032,
      "SamplesPerPixel": 1,
      "ScanOptions": "FS",
      "ScanningSequence": "EP",
      "SequenceName": "epfid2d1_82",
      "SequenceVariant": [
        "SK",
        "SS"
],
      "SeriesDescription": "func_run-02_task-narratives_acq-ap-mb8",
      "SeriesNumber": 12,
      "SeriesTime": "100659.706000",
      "SliceLocation": -66.25468474432,
      "SliceThickness": 2.7000000476837,
      "SmallestImagePixelValue": 0,
      "SoftwareVersions": "syngo MR E11",
      "SpacingBetweenSlices": 2.6999999379261,
      "SpecificCharacterSet": "ISO_IR 100",
      "StudyID": "2",
      "StudyTime": "094841.637000",
      "TransmitCoilName": "Body",
      "VariableFlipAngleFlag": "N",
      "WindowCenterWidthExplanation": "Algo1"
    },
    "slices": {}
  },
  "time": {
    "samples": {
      "AcquisitionNumber": [1, 2, 3, 4, 5, 6, 7, 8, 9, 10, 11, 12, 13, 14, 15, 16, 17, 18, 19, 20, 21, 22, 23, 24, 25, 26, 27, 28, 29, 30, 31, 32, 33, 34, 35, 36, 37, 38, 39, 40, 41, 42, 43, 44, 45, 46, 47, 48, 49, 50, 51, 52, 53, 54, 55, 56, 57, 58, 59, 60, 61, 62, 63, 64, 65, 66, 67, 68, 69, 70, 71, 72, 73, 74, 75, 76, 77, 78, 79, 80, 81, 82, 83, 84, 85, 86, 87, 88, 89, 90, 91, 92, 93, 94, 95, 96, 97, 98, 99, 100, 101, 102, 103, 104, 105, 106, 107, 108, 109, 110, 111, 112, 113, 114, 115, 116, 117, 118, 119, 120, 121, 122, 123, 124, 125, 126, 127, 128, 129, 130, 131, 132, 133, 134, 135, 136, 137, 138, 139, 140, 141, 142, 143, 144, 145, 146, 147, 148, 149, 150, 151, 152, 153, 154, 155, 156, 157, 158, 159, 160, 161, 162, 163, 164, 165, 166, 167, 168, 169, 170, 171, 172, 173, 174, 175, 176, 177, 178, 179, 180, 181, 182, 183, 184, 185, 186, 187, 188, 189, 190, 191, 192, 193, 194, 195, 196, 197, 198, 199, 200, 201, 202, 203, 204, 205, 206, 207, 208, 209, 210, 211, 212, 213, 214, 215, 216, 217, 218, 219, 220, 221, 222, 223, 224, 225, 226, 227, 228, 229, 230, 231, 232, 233, 234, 235, 236, 237, 238, 239, 240, 241, 242, 243, 244, 245, 246, 247, 248, 249, 250, 251, 252, 253, 254, 255, 256, 257, 258, 259, 260, 261, 262, 263, 264, 265, 266, 267, 268, 269, 270, 271, 272, 273, 274, 275, 276, 277, 278, 279, 280, 281, 282, 283, 284, 285, 286, 287, 288, 289, 290, 291, 292, 293, 294, 295, 296, 297, 298, 299, 300, 301, 302, 303, 304, 305, 306, 307, 308, 309, 310, 311, 312, 313, 314, 315, 316, 317, 318, 319, 320, 321, 322, 323, 324, 325, 326, 327, 328, 329, 330, 331, 332, 333, 334, 335, 336, 337, 338, 339, 340, 341, 342, 343, 344, 345, 346, 347, 348, 349, 350, 351, 352, 353, 354, 355, 356, 357, 358, 359, 360, 361, 362, 363, 364, 365, 366, 367, 368, 369, 370, 371, 372, 373, 374, 375, 376, 377, 378, 379, 380, 381, 382, 383, 384, 385, 386, 387, 388, 389, 390, 391, 392, 393, 394, 395, 396, 397, 398, 399, 400, 401, 402, 403, 404, 405, 406, 407, 408, 409, 410, 411, 412, 413, 414, 415, 416, 417, 418, 419, 420, 421, 422, 423, 424, 425, 426, 427, 428, 429, 430, 431, 432, 433, 434, 435, 436, 437, 438, 439, 440, 441, 442, 443, 444, 445, 446, 447, 448, 449, 450, 451, 452, 453, 454, 455, 456, 457, 458, 459, 460, 461, 462, 463, 464, 465, 466, 467, 468, 469, 470, 471, 472, 473, 474, 475, 476, 477, 478, 479, 480, 481, 482, 483, 484, 485, 486, 487, 488, 489, 490, 491, 492, 493, 494, 495, 496, 497, 498, 499, 500, 501, 502, 503, 504, 505, 506, 507, 508, 509, 510, 511, 512, 513, 514, 515, 516, 517, 518, 519, 520, 521, 522, 523, 524, 525, 526, 527, 528, 529, 530, 531, 532, 533, 534, 535, 536, 537, 538, 539, 540, 541, 542, 543, 544, 545, 546, 547, 548, 549, 550, 551, 552, 553, 554, 555, 556, 557, 558, 559, 560, 561, 562, 563, 564, 565, 566, 567, 568, 569, 570, 571, 572, 573, 574, 575, 576, 577, 578, 579, 580, 581, 582, 583, 584, 585, 586, 587, 588, 589, 590, 591, 592, 593, 594, 595, 596, 597, 598, 599, 600, 601, 602, 603, 604, 605, 606, 607, 608, 609, 610, 611, 612, 613, 614, 615, 616, 617, 618, 619, 620, 621, 622, 623, 624, 625, 626, 627, 628, 629, 630, 631, 632, 633, 634, 635, 636, 637, 638, 639, 640, 641, 642, 643, 644, 645, 646, 647, 648, 649, 650, 651, 652, 653, 654, 655, 656, 657, 658, 659, 660, 661, 662, 663, 664, 665, 666, 667, 668, 669, 670, 671, 672, 673, 674, 675, 676, 677, 678, 679, 680, 681, 682, 683, 684, 685, 686, 687, 688, 689, 690, 691, 692, 693, 694, 695, 696, 697, 698, 699, 700, 701, 702, 703, 704, 705, 706, 707, 708, 709, 710, 711, 712, 713, 714, 715, 716, 717, 718, 719, 720, 721, 722, 723, 724, 725, 726, 727, 728, 729, 730, 731, 732, 733, 734, 735, 736, 737, 738, 739, 740, 741, 742, 743, 744, 745, 746, 747, 748, 749, 750, 751, 752, 753, 754, 755, 756, 757, 758, 759, 760, 761, 762, 763, 764, 765, 766, 767, 768, 769, 770, 771, 772, 773, 774, 775, 776, 777, 778, 779, 780, 781, 782, 783, 784, 785, 786, 787, 788, 789, 790, 791, 792, 793, 794, 795, 796, 797, 798, 799, 800, 801, 802, 803, 804, 805, 806, 807, 808, 809, 810, 811, 812, 813, 814, 815, 816, 817, 818, 819, 820, 821, 822, 823, 824, 825, 826, 827, 828, 829, 830, 831, 832, 833, 834, 835, 836, 837, 838, 839, 840, 841, 842, 843, 844, 845, 846, 847, 848, 849, 850, 851, 852, 853, 854, 855, 856, 857, 858, 859, 860, 861, 862, 863, 864, 865, 866, 867, 868, 869, 870, 871, 872, 873, 874, 875, 876, 877, 878, 879, 880, 881, 882, 883, 884, 885, 886, 887, 888, 889, 890, 891, 892, 893, 894, 895, 896, 897, 898, 899, 900, 901, 902, 903, 904, 905, 906, 907, 908, 909, 910, 911, 912, 913, 914, 915, 916, 917, 918, 919, 920, 921, 922, 923, 924, 925, 926, 927, 928, 929, 930, 931, 932, 933, 934, 935, 936, 937, 938, 939, 940, 941, 942, 943, 944, 945, 946, 947, 948, 949, 950, 951, 952, 953, 954, 955, 956, 957, 958, 959, 960, 961, 962, 963, 964, 965, 966, 967, 968, 969, 970, 971, 972, 973, 974, 975, 976, 977, 978, 979, 980, 981, 982, 983, 984, 985, 986, 987, 988, 989, 990, 991, 992, 993, 994, 995, 996, 997, 998, 999, 1000, 1001, 1002, 1003, 1004, 1005, 1006, 1007, 1008, 1009, 1010, 1011, 1012, 1013, 1014, 1015, 1016, 1017, 1018, 1019, 1020, 1021, 1022, 1023, 1024, 1025, 1026, 1027, 1028, 1029, 1030, 1031, 1032, 1033, 1034, 1035, 1036, 1037, 1038, 1039, 1040, 1041, 1042, 1043, 1044, 1045, 1046, 1047, 1048, 1049, 1050, 1051, 1052, 1053, 1054, 1055, 1056, 1057, 1058, 1059, 1060, 1061, 1062, 1063, 1064, 1065, 1066, 1067, 1068, 1069, 1070, 1071, 1072, 1073, 1074, 1075, 1076, 1077, 1078, 1079, 1080, 1081, 1082, 1083, 1084, 1085, 1086, 1087, 1088, 1089, 1090, 1091, 1092, 1093, 1094, 1095, 1096, 1097, 1098],
      "AcquisitionTime": ["100635.697500", "100636.157500", "100636.617500", "100637.077500", "100637.537500", "100637.997500", "100638.457500", "100638.917500", "100639.377500", "100639.837500", "100640.297500", "100640.757500", "100641.217500", "100641.677500", "100642.137500", "100642.597500", "100643.057500", "100643.517500", "100643.977500", "100644.437500", "100644.897500", "100645.357500", "100645.817500", "100646.277500", "100646.737500", "100647.197500", "100647.657500", "100648.117500", "100648.577500", "100649.037500", "100649.497500", "100649.957500", "100650.417500", "100650.877500", "100651.337500", "100651.797500", "100652.257500", "100652.717500", "100653.177500", "100653.637500", "100654.097500", "100654.557500", "100655.017500", "100655.477500", "100655.937500", "100656.397500", "100656.857500", "100657.317500", "100657.777500", "100658.237500", "100658.697500", "100659.157500", "100659.617500", "100700.077500", "100700.537500", "100700.997500", "100701.457500", "100701.917500", "100702.377500", "100702.837500", "100703.297500", "100703.757500", "100704.217500", "100704.677500", "100705.137500", "100705.597500", "100706.057500", "100706.517500", "100706.977500", "100707.437500", "100707.897500", "100708.357500", "100708.817500", "100709.277500", "100709.737500", "100710.197500", "100710.657500", "100711.117500", "100711.577500", "100712.037500", "100712.497500", "100712.957500", "100713.417500", "100713.877500", "100714.337500", "100714.797500", "100715.257500", "100715.717500", "100716.177500", "100716.637500", "100717.097500", "100717.557500", "100718.017500", "100718.477500", "100718.937500", "100719.397500", "100719.857500", "100720.317500", "100720.777500", "100721.237500", "100721.697500", "100722.157500", "100722.617500", "100723.077500", "100723.537500", "100723.997500", "100724.457500", "100724.917500", "100725.377500", "100725.837500", "100726.297500", "100726.757500", "100727.217500", "100727.677500", "100728.137500", "100728.597500", "100729.057500", "100729.517500", "100729.977500", "100730.437500", "100730.897500", "100731.357500", "100731.817500", "100732.277500", "100732.737500", "100733.197500", "100733.657500", "100734.117500", "100734.577500", "100735.037500", "100735.497500", "100735.957500", "100736.417500", "100736.877500", "100737.337500", "100737.797500", "100738.257500", "100738.717500", "100739.177500", "100739.637500", "100740.097500", "100740.557500", "100741.017500", "100741.477500", "100741.937500", "100742.397500", "100742.857500", "100743.317500", "100743.777500", "100744.237500", "100744.697500", "100745.157500", "100745.617500", "100746.077500", "100746.537500", "100746.997500", "100747.457500", "100747.917500", "100748.377500", "100748.837500", "100749.297500", "100749.757500", "100750.217500", "100750.677500", "100751.137500", "100751.597500", "100752.057500", "100752.517500", "100752.977500", "100753.437500", "100753.897500", "100754.357500", "100754.817500", "100755.277500", "100755.737500", "100756.197500", "100756.657500", "100757.117500", "100757.577500", "100758.037500", "100758.497500", "100758.957500", "100759.417500", "100759.877500", "100800.337500", "100800.797500", "100801.257500", "100801.717500", "100802.177500", "100802.637500", "100803.097500", "100803.557500", "100804.017500", "100804.477500", "100804.937500", "100805.397500", "100805.857500", "100806.317500", "100806.777500", "100807.237500", "100807.697500", "100808.157500", "100808.617500", "100809.077500", "100809.537500", "100809.997500", "100810.457500", "100810.917500", "100811.377500", "100811.837500", "100812.297500", "100812.757500", "100813.217500", "100813.677500", "100814.137500", "100814.597500", "100815.057500", "100815.517500", "100815.977500", "100816.437500", "100816.897500", "100817.357500", "100817.817500", "100818.277500", "100818.737500", "100819.197500", "100819.657500", "100820.117500", "100820.577500", "100821.037500", "100821.497500", "100821.957500", "100822.417500", "100822.877500", "100823.337500", "100823.797500", "100824.257500", "100824.717500", "100825.177500", "100825.637500", "100826.097500", "100826.557500", "100827.017500", "100827.477500", "100827.937500", "100828.397500", "100828.857500", "100829.317500", "100829.777500", "100830.237500", "100830.697500", "100831.157500", "100831.617500", "100832.077500", "100832.537500", "100832.997500", "100833.457500", "100833.917500", "100834.377500", "100834.837500", "100835.297500", "100835.757500", "100836.217500", "100836.677500", "100837.137500", "100837.597500", "100838.057500", "100838.517500", "100838.977500", "100839.437500", "100839.897500", "100840.357500", "100840.817500", "100841.277500", "100841.737500", "100842.197500", "100842.657500", "100843.117500", "100843.577500", "100844.037500", "100844.497500", "100844.957500", "100845.417500", "100845.877500", "100846.337500", "100846.797500", "100847.257500", "100847.717500", "100848.177500", "100848.637500", "100849.097500", "100849.557500", "100850.017500", "100850.477500", "100850.937500", "100851.397500", "100851.857500", "100852.317500", "100852.777500", "100853.237500", "100853.697500", "100854.157500", "100854.617500", "100855.077500", "100855.537500", "100855.997500", "100856.457500", "100856.917500", "100857.377500", "100857.837500", "100858.297500", "100858.757500", "100859.217500", "100859.677500", "100900.137500", "100900.597500", "100901.057500", "100901.517500", "100901.977500", "100902.437500", "100902.897500", "100903.357500", "100903.817500", "100904.277500", "100904.737500", "100905.197500", "100905.657500", "100906.117500", "100906.577500", "100907.037500", "100907.497500", "100907.957500", "100908.417500", "100908.877500", "100909.337500", "100909.797500", "100910.257500", "100910.717500", "100911.177500", "100911.637500", "100912.097500", "100912.557500", "100913.017500", "100913.477500", "100913.937500", "100914.397500", "100914.857500", "100915.317500", "100915.777500", "100916.237500", "100916.697500", "100917.157500", "100917.617500", "100918.077500", "100918.537500", "100918.997500", "100919.457500", "100919.917500", "100920.377500", "100920.837500", "100921.297500", "100921.757500", "100922.217500", "100922.677500", "100923.137500", "100923.597500", "100924.057500", "100924.517500", "100924.977500", "100925.437500", "100925.897500", "100926.357500", "100926.817500", "100927.277500", "100927.737500", "100928.197500", "100928.657500", "100929.117500", "100929.577500", "100930.037500", "100930.497500", "100930.957500", "100931.417500", "100931.877500", "100932.337500", "100932.797500", "100933.257500", "100933.717500", "100934.177500", "100934.637500", "100935.097500", "100935.557500", "100936.017500", "100936.477500", "100936.937500", "100937.397500", "100937.857500", "100938.317500", "100938.777500", "100939.237500", "100939.697500", "100940.157500", "100940.617500", "100941.077500", "100941.537500", "100941.997500", "100942.457500", "100942.917500", "100943.377500", "100943.837500", "100944.297500", "100944.757500", "100945.217500", "100945.677500", "100946.137500", "100946.597500", "100947.057500", "100947.517500", "100947.977500", "100948.437500", "100948.897500", "100949.357500", "100949.817500", "100950.277500", "100950.737500", "100951.197500", "100951.657500", "100952.117500", "100952.577500", "100953.037500", "100953.497500", "100953.957500", "100954.417500", "100954.877500", "100955.337500", "100955.797500", "100956.257500", "100956.717500", "100957.177500", "100957.637500", "100958.097500", "100958.557500", "100959.017500", "100959.477500", "100959.937500", "101000.397500", "101000.857500", "101001.317500", "101001.777500", "101002.237500", "101002.697500", "101003.157500", "101003.617500", "101004.077500", "101004.537500", "101004.997500", "101005.457500", "101005.917500", "101006.377500", "101006.837500", "101007.297500", "101007.757500", "101008.217500", "101008.677500", "101009.137500", "101009.597500", "101010.057500", "101010.517500", "101010.977500", "101011.437500", "101011.897500", "101012.357500", "101012.817500", "101013.277500", "101013.737500", "101014.197500", "101014.657500", "101015.117500", "101015.577500", "101016.037500", "101016.497500", "101016.957500", "101017.417500", "101017.877500", "101018.337500", "101018.797500", "101019.257500", "101019.717500", "101020.177500", "101020.637500", "101021.097500", "101021.557500", "101022.017500", "101022.477500", "101022.937500", "101023.397500", "101023.857500", "101024.317500", "101024.777500", "101025.237500", "101025.697500", "101026.157500", "101026.617500", "101027.077500", "101027.537500", "101027.997500", "101028.457500", "101028.917500", "101029.377500", "101029.837500", "101030.297500", "101030.757500", "101031.217500", "101031.677500", "101032.137500", "101032.597500", "101033.057500", "101033.517500", "101033.977500", "101034.437500", "101034.897500", "101035.357500", "101035.817500", "101036.277500", "101036.737500", "101037.197500", "101037.657500", "101038.117500", "101038.577500", "101039.037500", "101039.497500", "101039.957500", "101040.417500", "101040.877500", "101041.337500", "101041.797500", "101042.257500", "101042.717500", "101043.177500", "101043.637500", "101044.097500", "101044.557500", "101045.017500", "101045.477500", "101045.937500", "101046.397500", "101046.857500", "101047.317500", "101047.777500", "101048.237500", "101048.697500", "101049.157500", "101049.617500", "101050.077500", "101050.537500", "101050.997500", "101051.457500", "101051.917500", "101052.377500", "101052.837500", "101053.297500", "101053.757500", "101054.217500", "101054.677500", "101055.137500", "101055.597500", "101056.057500", "101056.517500", "101056.977500", "101057.437500", "101057.897500", "101058.357500", "101058.817500", "101059.277500", "101059.737500", "101100.197500", "101100.657500", "101101.117500", "101101.577500", "101102.037500", "101102.497500", "101102.957500", "101103.417500", "101103.877500", "101104.337500", "101104.797500", "101105.257500", "101105.717500", "101106.177500", "101106.637500", "101107.097500", "101107.557500", "101108.017500", "101108.477500", "101108.937500", "101109.397500", "101109.857500", "101110.317500", "101110.777500", "101111.237500", "101111.697500", "101112.157500", "101112.617500", "101113.077500", "101113.537500", "101113.997500", "101114.457500", "101114.917500", "101115.377500", "101115.837500", "101116.297500", "101116.757500", "101117.217500", "101117.677500", "101118.137500", "101118.597500", "101119.057500", "101119.517500", "101119.977500", "101120.437500", "101120.897500", "101121.357500", "101121.817500", "101122.277500", "101122.737500", "101123.197500", "101123.657500", "101124.117500", "101124.577500", "101125.037500", "101125.497500", "101125.957500", "101126.417500", "101126.877500", "101127.337500", "101127.797500", "101128.257500", "101128.717500", "101129.177500", "101129.637500", "101130.097500", "101130.557500", "101131.017500", "101131.477500", "101131.937500", "101132.397500", "101132.857500", "101133.317500", "101133.777500", "101134.237500", "101134.697500", "101135.157500", "101135.617500", "101136.077500", "101136.537500", "101136.997500", "101137.457500", "101137.917500", "101138.377500", "101138.837500", "101139.297500", "101139.757500", "101140.217500", "101140.677500", "101141.137500", "101141.597500", "101142.057500", "101142.517500", "101142.977500", "101143.437500", "101143.897500", "101144.357500", "101144.817500", "101145.277500", "101145.737500", "101146.197500", "101146.657500", "101147.117500", "101147.577500", "101148.037500", "101148.497500", "101148.957500", "101149.417500", "101149.877500", "101150.337500", "101150.797500", "101151.257500", "101151.717500", "101152.177500", "101152.637500", "101153.097500", "101153.557500", "101154.017500", "101154.477500", "101154.937500", "101155.397500", "101155.857500", "101156.317500", "101156.777500", "101157.237500", "101157.697500", "101158.157500", "101158.617500", "101159.077500", "101159.537500", "101159.997500", "101200.457500", "101200.917500", "101201.377500", "101201.837500", "101202.297500", "101202.757500", "101203.217500", "101203.677500", "101204.137500", "101204.597500", "101205.057500", "101205.517500", "101205.977500", "101206.437500", "101206.897500", "101207.357500", "101207.817500", "101208.277500", "101208.737500", "101209.197500", "101209.657500", "101210.117500", "101210.577500", "101211.037500", "101211.497500", "101211.957500", "101212.417500", "101212.877500", "101213.337500", "101213.797500", "101214.257500", "101214.717500", "101215.177500", "101215.637500", "101216.097500", "101216.557500", "101217.017500", "101217.477500", "101217.937500", "101218.397500", "101218.857500", "101219.317500", "101219.777500", "101220.237500", "101220.697500", "101221.157500", "101221.617500", "101222.077500", "101222.537500", "101222.997500", "101223.457500", "101223.917500", "101224.377500", "101224.837500", "101225.297500", "101225.757500", "101226.217500", "101226.677500", "101227.137500", "101227.597500", "101228.057500", "101228.517500", "101228.977500", "101229.437500", "101229.897500", "101230.357500", "101230.817500", "101231.277500", "101231.737500", "101232.197500", "101232.657500", "101233.117500", "101233.577500", "101234.037500", "101234.497500", "101234.957500", "101235.417500", "101235.877500", "101236.337500", "101236.797500", "101237.257500", "101237.717500", "101238.177500", "101238.637500", "101239.097500", "101239.557500", "101240.017500", "101240.477500", "101240.937500", "101241.397500", "101241.857500", "101242.317500", "101242.777500", "101243.237500", "101243.697500", "101244.157500", "101244.617500", "101245.077500", "101245.537500", "101245.997500", "101246.457500", "101246.917500", "101247.377500", "101247.837500", "101248.297500", "101248.757500", "101249.217500", "101249.677500", "101250.137500", "101250.597500", "101251.057500", "101251.517500", "101251.977500", "101252.437500", "101252.897500", "101253.357500", "101253.817500", "101254.277500", "101254.737500", "101255.197500", "101255.657500", "101256.117500", "101256.577500", "101257.037500", "101257.497500", "101257.957500", "101258.417500", "101258.877500", "101259.337500", "101259.797500", "101300.257500", "101300.717500", "101301.177500", "101301.637500", "101302.097500", "101302.557500", "101303.017500", "101303.477500", "101303.937500", "101304.397500", "101304.857500", "101305.317500", "101305.777500", "101306.237500", "101306.697500", "101307.157500", "101307.617500", "101308.077500", "101308.537500", "101308.997500", "101309.457500", "101309.917500", "101310.377500", "101310.837500", "101311.297500", "101311.757500", "101312.217500", "101312.677500", "101313.137500", "101313.597500", "101314.057500", "101314.517500", "101314.977500", "101315.437500", "101315.897500", "101316.357500", "101316.817500", "101317.277500", "101317.737500", "101318.197500", "101318.657500", "101319.117500", "101319.577500", "101320.037500", "101320.497500", "101320.957500", "101321.417500", "101321.877500", "101322.337500", "101322.797500", "101323.257500", "101323.717500", "101324.177500", "101324.637500", "101325.097500", "101325.557500", "101326.017500", "101326.477500", "101326.937500", "101327.397500", "101327.857500", "101328.317500", "101328.777500", "101329.237500", "101329.697500", "101330.157500", "101330.617500", "101331.077500", "101331.537500", "101331.997500", "101332.457500", "101332.917500", "101333.377500", "101333.837500", "101334.297500", "101334.757500", "101335.217500", "101335.677500", "101336.137500", "101336.597500", "101337.057500", "101337.517500", "101337.977500", "101338.437500", "101338.897500", "101339.357500", "101339.817500", "101340.277500", "101340.737500", "101341.197500", "101341.657500", "101342.117500", "101342.577500", "101343.037500", "101343.497500", "101343.957500", "101344.417500", "101344.877500", "101345.337500", "101345.797500", "101346.257500", "101346.717500", "101347.177500", "101347.637500", "101348.097500", "101348.557500", "101349.017500", "101349.477500", "101349.937500", "101350.397500", "101350.857500", "101351.317500", "101351.777500", "101352.237500", "101352.697500", "101353.157500", "101353.617500", "101354.077500", "101354.537500", "101354.997500", "101355.457500", "101355.917500", "101356.377500", "101356.837500", "101357.297500", "101357.757500", "101358.217500", "101358.677500", "101359.137500", "101359.597500", "101400.057500", "101400.517500", "101400.977500", "101401.437500", "101401.897500", "101402.357500", "101402.817500", "101403.277500", "101403.737500", "101404.197500", "101404.657500", "101405.117500", "101405.577500", "101406.037500", "101406.497500", "101406.957500", "101407.417500", "101407.877500", "101408.337500", "101408.797500", "101409.257500", "101409.717500", "101410.177500", "101410.637500", "101411.097500", "101411.557500", "101412.017500", "101412.477500", "101412.937500", "101413.397500", "101413.857500", "101414.317500", "101414.777500", "101415.237500", "101415.697500", "101416.157500", "101416.617500", "101417.077500", "101417.537500", "101417.997500", "101418.457500", "101418.917500", "101419.377500", "101419.837500", "101420.297500", "101420.757500", "101421.217500", "101421.677500", "101422.137500", "101422.597500", "101423.057500", "101423.517500", "101423.977500", "101424.437500", "101424.897500", "101425.357500", "101425.817500", "101426.277500", "101426.737500", "101427.197500", "101427.657500", "101428.117500", "101428.577500", "101429.037500", "101429.497500", "101429.957500", "101430.417500", "101430.877500", "101431.337500", "101431.797500", "101432.257500", "101432.717500", "101433.177500", "101433.637500", "101434.097500", "101434.557500", "101435.017500", "101435.477500", "101435.937500", "101436.397500", "101436.857500", "101437.317500", "101437.777500", "101438.237500", "101438.697500", "101439.157500", "101439.617500", "101440.077500", "101440.537500", "101440.997500", "101441.457500", "101441.917500", "101442.377500", "101442.837500", "101443.297500", "101443.757500", "101444.217500", "101444.677500", "101445.137500", "101445.597500", "101446.057500", "101446.517500", "101446.977500", "101447.437500", "101447.897500", "101448.357500", "101448.817500", "101449.277500", "101449.737500", "101450.197500", "101450.657500", "101451.117500", "101451.577500", "101452.037500", "101452.497500", "101452.957500", "101453.417500", "101453.877500", "101454.337500", "101454.797500", "101455.257500", "101455.717500", "101456.177500", "101456.637500", "101457.097500", "101457.557500", "101458.017500", "101458.477500", "101458.937500", "101459.397500", "101459.857500", "101500.317500"],
