{
  "AcquisitionMatrixPE": 82,
  "AcquisitionNumber": 1,
  "AcquisitionTime": "10:43:41.252500",
  "BandwidthPerPixelPhaseEncode": 24.888,
  "BaseResolution": 82,
  "BodyPartExamined": "BRAIN",
  "ConsistencyInfo": "N4_VE11E_LATEST_20181129",
  "ConversionSoftware": "dcm2niix",
  "ConversionSoftwareVersion": "v1.0.20201102",
  "DerivedVendorReportedEchoSpacing": 0.00049,
  "DeviceSerialNumber": "66112",
  "DwellTime": 2e-06,
  "EchoTime": 0.0272,
  "EchoTrainLength": 82,
  "EffectiveEchoSpacing": 0.00049,
  "FlipAngle": 44,
  "ImageComments": "Unaliased MB8/PE3",
  "ImageOrientationPatientDICOM": [0.99968, -0.00994899, 0.0232427, 0.00802615, 0.996649, 0.0814045],
  "ImageType": [
    "ORIGINAL",
    "PRIMARY",
    "M",
    "MB",
    "ND",
    "NORM",
    "MOSAIC"
],
  "ImagingFrequency": 123.259,
  "InPlanePhaseEncodingDirectionDICOM": "COL",
  "InstitutionAddress": "Maynard 3,Hanover,NH,US,03755",
  "InstitutionName": "Dartmouth College - PBS",
  "InstitutionalDepartmentName": "Department",
  "MRAcquisitionType": "2D",
  "MagneticFieldStrength": 3,
  "Manufacturer": "Siemens",
  "ManufacturersModelName": "Prisma",
  "Modality": "MR",
  "MultibandAccelerationFactor": 8,
  "PartialFourier": 1,
  "PatientPosition": "HFS",
  "PercentPhaseFOV": 100,
  "PercentSampling": 100,
  "PhaseEncodingDirection": "j-",
  "PhaseEncodingSteps": 82,
  "PhaseResolution": 1,
  "PixelBandwidth": 3050,
  "ProcedureStepDescription": "Wager_Wager^1076_spacetop",
  "ProtocolName": "func_run-02_task-faces_acq-ap-mb8",
  "PulseSequenceDetails": "%CustomerSeq%\\cmrr_mbep2d_bold",
  "ReceiveCoilActiveElements": "HEA;HEP",
  "ReceiveCoilName": "Head_32",
  "ReconMatrixPE": 82,
  "RepetitionTime": 0.46,
  "SAR": 0.0858588,
  "ScanOptions": "FS",
  "ScanningSequence": "EP",
  "SequenceName": "epfid2d1_82",
  "SequenceVariant": "SK\\SS",
  "SeriesDescription": "func_run-02_task-faces_acq-ap-mb8",
  "SeriesNumber": 20,
  "ShimSetting": [4231, -8112, -7361, 482, -103, -1056, 731, 144],
  "SliceThickness": 2.7,
  "SliceTiming": [0, 0.25, 0.0625, 0.3125, 0.125, 0.3775, 0.1875, 0, 0.25, 0.0625, 0.3125, 0.125, 0.3775, 0.1875, 0, 0.25, 0.0625, 0.3125, 0.125, 0.3775, 0.1875, 0, 0.25, 0.0625, 0.3125, 0.125, 0.3775, 0.1875, 0, 0.25, 0.0625, 0.3125, 0.125, 0.3775, 0.1875, 0, 0.25, 0.0625, 0.3125, 0.125, 0.3775, 0.1875, 0, 0.25, 0.0625, 0.3125, 0.125, 0.3775, 0.1875, 0, 0.25, 0.0625, 0.3125, 0.125, 0.3775, 0.1875],
  "SoftwareVersions": "syngo MR E11",
  "SpacingBetweenSlices": 2.7,
  "StationName": "AWP66112",
  "TaskName": "faces",
  "TotalReadoutTime": 0.03969,
  "TxRefAmp": 231.143,
  "WipMemBlock": "3889c5f3-6988-4352-a12a-b8ecbe62b6e2||Sequence: R016 ve11e/master r/434b28f1; Aug  7 2019 18:53:46 by eja",
  "dcmmeta_affine": [
    [-2.6820693016052246, 0.021533580496907234, 0.06473170220851898, 110.87844848632812],
    [0.026692409068346024, 2.673935890197754, 0.2192182093858719, -104.15113067626953],
    [0.06235847249627113, -0.21840234100818634, 2.690307140350342, -60.67454528808594],
    [0.0, 0.0, 0.0, 1.0]
],
  "dcmmeta_reorient_transform": [
    [0.0, -1.0, 0.0, 81.0],
    [1.0, 0.0, 0.0, 0.0],
    [0.0, 0.0, 1.0, 0.0],
    [0.0, 0.0, 0.0, 1.0]
],
  "dcmmeta_shape": [82, 82, 56, 914],
  "dcmmeta_slice_dim": 2,
  "dcmmeta_version": 0.6,
  "global": {
    "const": {
      "AccessionNumber": "A004817",
      "AcquisitionMatrix": [82, 0, 0, 82],
      "AngioFlag": "N",
      "BitsAllocated": 16,
      "BitsStored": 16,
      "BodyPartExamined": "BRAIN",
      "Columns": 656,
      "EchoNumbers": 1,
      "EchoTime": 27.2,
      "EchoTrainLength": 82,
      "FlipAngle": 44.0,
      "HighBit": 15,
      "ImageOrientationPatient": [0.99968034611711, -0.0099489886644, 0.02324270233276, 0.00802615282554, 0.99664882859515, 0.08140450436387],
      "ImagePositionPatient": [-888.55669393501, -872.19657564161, -158.94348695971],
      "ImageType": [
        "ORIGINAL",
        "PRIMARY",
        "M",
        "MB",
        "ND",
        "NORM",
        "MOSAIC"
],
      "ImagedNucleus": "1H",
      "ImagingFrequency": 123.259181,
      "InPlanePhaseEncodingDirection": "COL",
      "MRAcquisitionType": "2D",
      "MagneticFieldStrength": 3.0,
      "Manufacturer": "SIEMENS",
      "ManufacturerModelName": "Prisma",
      "Modality": "MR",
      "NumberOfAverages": 1.0,
      "NumberOfPhaseEncodingSteps": 82,
      "PercentPhaseFieldOfView": 100.0,
      "PercentSampling": 100.0,
      "PerformedProcedureStepStartTime": "094841.825000",
      "PhotometricInterpretation": "MONOCHROME2",
      "PixelBandwidth": 3050.0,
      "PixelRepresentation": 0,
      "PixelSpacing": [2.6829268932343, 2.6829268932343],
      "ProtocolName": "func_run-02_task-faces_acq-ap-mb8",
      "RepetitionTime": 460.0,
      "Rows": 656,
      "SAR": 0.08585881321673,
      "SamplesPerPixel": 1,
      "ScanOptions": "FS",
      "ScanningSequence": "EP",
      "SequenceName": "epfid2d1_82",
      "SequenceVariant": [
        "SK",
        "SS"
],
      "SeriesDescription": "func_run-02_task-faces_acq-ap-mb8",
      "SeriesNumber": 20,
      "SeriesTime": "104359.785000",
      "SliceLocation": -66.25468474432,
      "SliceThickness": 2.7000000476837,
      "SmallestImagePixelValue": 0,
      "SoftwareVersions": "syngo MR E11",
      "SpacingBetweenSlices": 2.6999999379261,
      "SpecificCharacterSet": "ISO_IR 100",
      "StudyID": "2",
      "StudyTime": "094841.637000",
      "TransmitCoilName": "Body",
      "VariableFlipAngleFlag": "N",
      "WindowCenterWidthExplanation": "Algo1"
    },
    "slices": {}
  },
  "time": {
    "samples": {
      "AcquisitionNumber": [1, 2, 3, 4, 5, 6, 7, 8, 9, 10, 11, 12, 13, 14, 15, 16, 17, 18, 19, 20, 21, 22, 23, 24, 25, 26, 27, 28, 29, 30, 31, 32, 33, 34, 35, 36, 37, 38, 39, 40, 41, 42, 43, 44, 45, 46, 47, 48, 49, 50, 51, 52, 53, 54, 55, 56, 57, 58, 59, 60, 61, 62, 63, 64, 65, 66, 67, 68, 69, 70, 71, 72, 73, 74, 75, 76, 77, 78, 79, 80, 81, 82, 83, 84, 85, 86, 87, 88, 89, 90, 91, 92, 93, 94, 95, 96, 97, 98, 99, 100, 101, 102, 103, 104, 105, 106, 107, 108, 109, 110, 111, 112, 113, 114, 115, 116, 117, 118, 119, 120, 121, 122, 123, 124, 125, 126, 127, 128, 129, 130, 131, 132, 133, 134, 135, 136, 137, 138, 139, 140, 141, 142, 143, 144, 145, 146, 147, 148, 149, 150, 151, 152, 153, 154, 155, 156, 157, 158, 159, 160, 161, 162, 163, 164, 165, 166, 167, 168, 169, 170, 171, 172, 173, 174, 175, 176, 177, 178, 179, 180, 181, 182, 183, 184, 185, 186, 187, 188, 189, 190, 191, 192, 193, 194, 195, 196, 197, 198, 199, 200, 201, 202, 203, 204, 205, 206, 207, 208, 209, 210, 211, 212, 213, 214, 215, 216, 217, 218, 219, 220, 221, 222, 223, 224, 225, 226, 227, 228, 229, 230, 231, 232, 233, 234, 235, 236, 237, 238, 239, 240, 241, 242, 243, 244, 245, 246, 247, 248, 249, 250, 251, 252, 253, 254, 255, 256, 257, 258, 259, 260, 261, 262, 263, 264, 265, 266, 267, 268, 269, 270, 271, 272, 273, 274, 275, 276, 277, 278, 279, 280, 281, 282, 283, 284, 285, 286, 287, 288, 289, 290, 291, 292, 293, 294, 295, 296, 297, 298, 299, 300, 301, 302, 303, 304, 305, 306, 307, 308, 309, 310, 311, 312, 313, 314, 315, 316, 317, 318, 319, 320, 321, 322, 323, 324, 325, 326, 327, 328, 329, 330, 331, 332, 333, 334, 335, 336, 337, 338, 339, 340, 341, 342, 343, 344, 345, 346, 347, 348, 349, 350, 351, 352, 353, 354, 355, 356, 357, 358, 359, 360, 361, 362, 363, 364, 365, 366, 367, 368, 369, 370, 371, 372, 373, 374, 375, 376, 377, 378, 379, 380, 381, 382, 383, 384, 385, 386, 387, 388, 389, 390, 391, 392, 393, 394, 395, 396, 397, 398, 399, 400, 401, 402, 403, 404, 405, 406, 407, 408, 409, 410, 411, 412, 413, 414, 415, 416, 417, 418, 419, 420, 421, 422, 423, 424, 425, 426, 427, 428, 429, 430, 431, 432, 433, 434, 435, 436, 437, 438, 439, 440, 441, 442, 443, 444, 445, 446, 447, 448, 449, 450, 451, 452, 453, 454, 455, 456, 457, 458, 459, 460, 461, 462, 463, 464, 465, 466, 467, 468, 469, 470, 471, 472, 473, 474, 475, 476, 477, 478, 479, 480, 481, 482, 483, 484, 485, 486, 487, 488, 489, 490, 491, 492, 493, 494, 495, 496, 497, 498, 499, 500, 501, 502, 503, 504, 505, 506, 507, 508, 509, 510, 511, 512, 513, 514, 515, 516, 517, 518, 519, 520, 521, 522, 523, 524, 525, 526, 527, 528, 529, 530, 531, 532, 533, 534, 535, 536, 537, 538, 539, 540, 541, 542, 543, 544, 545, 546, 547, 548, 549, 550, 551, 552, 553, 554, 555, 556, 557, 558, 559, 560, 561, 562, 563, 564, 565, 566, 567, 568, 569, 570, 571, 572, 573, 574, 575, 576, 577, 578, 579, 580, 581, 582, 583, 584, 585, 586, 587, 588, 589, 590, 591, 592, 593, 594, 595, 596, 597, 598, 599, 600, 601, 602, 603, 604, 605, 606, 607, 608, 609, 610, 611, 612, 613, 614, 615, 616, 617, 618, 619, 620, 621, 622, 623, 624, 625, 626, 627, 628, 629, 630, 631, 632, 633, 634, 635, 636, 637, 638, 639, 640, 641, 642, 643, 644, 645, 646, 647, 648, 649, 650, 651, 652, 653, 654, 655, 656, 657, 658, 659, 660, 661, 662, 663, 664, 665, 666, 667, 668, 669, 670, 671, 672, 673, 674, 675, 676, 677, 678, 679, 680, 681, 682, 683, 684, 685, 686, 687, 688, 689, 690, 691, 692, 693, 694, 695, 696, 697, 698, 699, 700, 701, 702, 703, 704, 705, 706, 707, 708, 709, 710, 711, 712, 713, 714, 715, 716, 717, 718, 719, 720, 721, 722, 723, 724, 725, 726, 727, 728, 729, 730, 731, 732, 733, 734, 735, 736, 737, 738, 739, 740, 741, 742, 743, 744, 745, 746, 747, 748, 749, 750, 751, 752, 753, 754, 755, 756, 757, 758, 759, 760, 761, 762, 763, 764, 765, 766, 767, 768, 769, 770, 771, 772, 773, 774, 775, 776, 777, 778, 779, 780, 781, 782, 783, 784, 785, 786, 787, 788, 789, 790, 791, 792, 793, 794, 795, 796, 797, 798, 799, 800, 801, 802, 803, 804, 805, 806, 807, 808, 809, 810, 811, 812, 813, 814, 815, 816, 817, 818, 819, 820, 821, 822, 823, 824, 825, 826, 827, 828, 829, 830, 831, 832, 833, 834, 835, 836, 837, 838, 839, 840, 841, 842, 843, 844, 845, 846, 847, 848, 849, 850, 851, 852, 853, 854, 855, 856, 857, 858, 859, 860, 861, 862, 863, 864, 865, 866, 867, 868, 869, 870, 871, 872, 873, 874, 875, 876, 877, 878, 879, 880, 881, 882, 883, 884, 885, 886, 887, 888, 889, 890, 891, 892, 893, 894, 895, 896, 897, 898, 899, 900, 901, 902, 903, 904, 905, 906, 907, 908, 909, 910, 911, 912, 913, 914],
      "AcquisitionTime": ["104341.252500", "104341.712500", "104342.172500", "104342.632500", "104343.092500", "104343.552500", "104344.012500", "104344.472500", "104344.932500", "104345.392500", "104345.852500", "104346.312500", "104346.772500", "104347.232500", "104347.692500", "104348.152500", "104348.612500", "104349.072500", "104349.532500", "104349.992500", "104350.452500", "104350.912500", "104351.372500", "104351.832500", "104352.292500", "104352.752500", "104353.212500", "104353.672500", "104354.132500", "104354.592500", "104355.052500", "104355.512500", "104355.972500", "104356.432500", "104356.892500", "104357.352500", "104357.812500", "104358.272500", "104358.732500", "104359.192500", "104359.652500", "104400.112500", "104400.572500", "104401.032500", "104401.492500", "104401.952500", "104402.412500", "104402.872500", "104403.332500", "104403.792500", "104404.252500", "104404.712500", "104405.172500", "104405.632500", "104406.092500", "104406.552500", "104407.012500", "104407.472500", "104407.932500", "104408.392500", "104408.852500", "104409.312500", "104409.772500", "104410.232500", "104410.692500", "104411.152500", "104411.612500", "104412.072500", "104412.532500", "104412.992500", "104413.452500", "104413.912500", "104414.372500", "104414.832500", "104415.292500", "104415.752500", "104416.212500", "104416.672500", "104417.132500", "104417.592500", "104418.052500", "104418.512500", "104418.972500", "104419.432500", "104419.892500", "104420.352500", "104420.812500", "104421.272500", "104421.732500", "104422.192500", "104422.652500", "104423.112500", "104423.572500", "104424.032500", "104424.492500", "104424.952500", "104425.412500", "104425.872500", "104426.332500", "104426.792500", "104427.252500", "104427.712500", "104428.172500", "104428.632500", "104429.092500", "104429.552500", "104430.012500", "104430.472500", "104430.932500", "104431.392500", "104431.852500", "104432.312500", "104432.772500", "104433.232500", "104433.692500", "104434.152500", "104434.612500", "104435.072500", "104435.532500", "104435.992500", "104436.452500", "104436.912500", "104437.372500", "104437.832500", "104438.292500", "104438.752500", "104439.212500", "104439.672500", "104440.132500", "104440.592500", "104441.052500", "104441.512500", "104441.972500", "104442.432500", "104442.892500", "104443.352500", "104443.812500", "104444.272500", "104444.732500", "104445.192500", "104445.652500", "104446.112500", "104446.572500", "104447.032500", "104447.492500", "104447.952500", "104448.412500", "104448.872500", "104449.332500", "104449.792500", "104450.252500", "104450.712500", "104451.172500", "104451.632500", "104452.092500", "104452.552500", "104453.012500", "104453.472500", "104453.932500", "104454.392500", "104454.852500", "104455.312500", "104455.772500", "104456.232500", "104456.692500", "104457.152500", "104457.612500", "104458.072500", "104458.532500", "104458.992500", "104459.452500", "104459.912500", "104500.372500", "104500.832500", "104501.292500", "104501.752500", "104502.212500", "104502.672500", "104503.132500", "104503.592500", "104504.052500", "104504.512500", "104504.972500", "104505.432500", "104505.892500", "104506.352500", "104506.812500", "104507.272500", "104507.732500", "104508.192500", "104508.652500", "104509.112500", "104509.572500", "104510.032500", "104510.492500", "104510.952500", "104511.412500", "104511.872500", "104512.332500", "104512.792500", "104513.252500", "104513.712500", "104514.172500", "104514.632500", "104515.092500", "104515.552500", "104516.012500", "104516.472500", "104516.932500", "104517.392500", "104517.852500", "104518.312500", "104518.772500", "104519.232500", "104519.692500", "104520.152500", "104520.612500", "104521.072500", "104521.532500", "104521.992500", "104522.452500", "104522.912500", "104523.372500", "104523.832500", "104524.292500", "104524.752500", "104525.212500", "104525.672500", "104526.132500", "104526.592500", "104527.052500", "104527.512500", "104527.972500", "104528.432500", "104528.892500", "104529.352500", "104529.812500", "104530.272500", "104530.732500", "104531.192500", "104531.652500", "104532.112500", "104532.572500", "104533.032500", "104533.492500", "104533.952500", "104534.412500", "104534.872500", "104535.332500", "104535.792500", "104536.252500", "104536.712500", "104537.172500", "104537.632500", "104538.092500", "104538.552500", "104539.012500", "104539.472500", "104539.932500", "104540.392500", "104540.852500", "104541.312500", "104541.772500", "104542.232500", "104542.692500", "104543.152500", "104543.612500", "104544.072500", "104544.532500", "104544.992500", "104545.452500", "104545.912500", "104546.372500", "104546.832500", "104547.292500", "104547.752500", "104548.212500", "104548.672500", "104549.132500", "104549.592500", "104550.052500", "104550.512500", "104550.972500", "104551.432500", "104551.892500", "104552.352500", "104552.812500", "104553.272500", "104553.732500", "104554.192500", "104554.652500", "104555.112500", "104555.572500", "104556.032500", "104556.492500", "104556.952500", "104557.412500", "104557.872500", "104558.332500", "104558.792500", "104559.252500", "104559.712500", "104600.172500", "104600.632500", "104601.092500", "104601.552500", "104602.012500", "104602.472500", "104602.932500", "104603.392500", "104603.852500", "104604.312500", "104604.772500", "104605.232500", "104605.692500", "104606.152500", "104606.612500", "104607.072500", "104607.532500", "104607.992500", "104608.452500", "104608.912500", "104609.372500", "104609.832500", "104610.292500", "104610.752500", "104611.212500", "104611.672500", "104612.132500", "104612.592500", "104613.052500", "104613.512500", "104613.972500", "104614.432500", "104614.892500", "104615.352500", "104615.812500", "104616.272500", "104616.732500", "104617.192500", "104617.652500", "104618.112500", "104618.572500", "104619.032500", "104619.492500", "104619.952500", "104620.412500", "104620.872500", "104621.332500", "104621.792500", "104622.252500", "104622.712500", "104623.172500", "104623.632500", "104624.092500", "104624.552500", "104625.012500", "104625.472500", "104625.932500", "104626.392500", "104626.852500", "104627.312500", "104627.772500", "104628.232500", "104628.692500", "104629.152500", "104629.612500", "104630.072500", "104630.532500", "104630.992500", "104631.452500", "104631.912500", "104632.372500", "104632.832500", "104633.292500", "104633.752500", "104634.212500", "104634.672500", "104635.132500", "104635.592500", "104636.052500", "104636.512500", "104636.972500", "104637.432500", "104637.892500", "104638.352500", "104638.812500", "104639.272500", "104639.732500", "104640.192500", "104640.652500", "104641.112500", "104641.572500", "104642.032500", "104642.492500", "104642.952500", "104643.412500", "104643.872500", "104644.332500", "104644.792500", "104645.252500", "104645.712500", "104646.172500", "104646.632500", "104647.092500", "104647.552500", "104648.012500", "104648.472500", "104648.932500", "104649.392500", "104649.852500", "104650.312500", "104650.772500", "104651.232500", "104651.692500", "104652.152500", "104652.612500", "104653.072500", "104653.532500", "104653.992500", "104654.452500", "104654.912500", "104655.372500", "104655.832500", "104656.292500", "104656.752500", "104657.212500", "104657.672500", "104658.132500", "104658.592500", "104659.052500", "104659.512500", "104659.972500", "104700.432500", "104700.892500", "104701.352500", "104701.812500", "104702.272500", "104702.732500", "104703.192500", "104703.652500", "104704.112500", "104704.572500", "104705.032500", "104705.492500", "104705.952500", "104706.412500", "104706.872500", "104707.332500", "104707.792500", "104708.252500", "104708.712500", "104709.172500", "104709.632500", "104710.092500", "104710.552500", "104711.012500", "104711.472500", "104711.932500", "104712.392500", "104712.852500", "104713.312500", "104713.772500", "104714.232500", "104714.692500", "104715.152500", "104715.612500", "104716.072500", "104716.532500", "104716.992500", "104717.452500", "104717.912500", "104718.372500", "104718.832500", "104719.292500", "104719.752500", "104720.212500", "104720.672500", "104721.132500", "104721.592500", "104722.052500", "104722.512500", "104722.972500", "104723.432500", "104723.892500", "104724.352500", "104724.812500", "104725.272500", "104725.732500", "104726.192500", "104726.652500", "104727.112500", "104727.572500", "104728.032500", "104728.492500", "104728.952500", "104729.412500", "104729.872500", "104730.332500", "104730.792500", "104731.252500", "104731.712500", "104732.172500", "104732.632500", "104733.092500", "104733.552500", "104734.012500", "104734.472500", "104734.932500", "104735.392500", "104735.852500", "104736.312500", "104736.772500", "104737.232500", "104737.692500", "104738.152500", "104738.612500", "104739.072500", "104739.532500", "104739.992500", "104740.452500", "104740.912500", "104741.372500", "104741.832500", "104742.292500", "104742.752500", "104743.212500", "104743.672500", "104744.132500", "104744.592500", "104745.052500", "104745.512500", "104745.972500", "104746.432500", "104746.892500", "104747.352500", "104747.812500", "104748.272500", "104748.732500", "104749.192500", "104749.652500", "104750.112500", "104750.572500", "104751.032500", "104751.492500", "104751.952500", "104752.412500", "104752.872500", "104753.332500", "104753.792500", "104754.252500", "104754.712500", "104755.172500", "104755.632500", "104756.092500", "104756.552500", "104757.012500", "104757.472500", "104757.932500", "104758.392500", "104758.852500", "104759.312500", "104759.772500", "104800.232500", "104800.692500", "104801.152500", "104801.612500", "104802.072500", "104802.532500", "104802.992500", "104803.452500", "104803.912500", "104804.372500", "104804.832500", "104805.292500", "104805.752500", "104806.212500", "104806.672500", "104807.132500", "104807.592500", "104808.052500", "104808.512500", "104808.972500", "104809.432500", "104809.892500", "104810.352500", "104810.812500", "104811.272500", "104811.732500", "104812.192500", "104812.652500", "104813.112500", "104813.572500", "104814.032500", "104814.492500", "104814.952500", "104815.412500", "104815.872500", "104816.332500", "104816.792500", "104817.252500", "104817.712500", "104818.172500", "104818.632500", "104819.092500", "104819.552500", "104820.012500", "104820.472500", "104820.932500", "104821.392500", "104821.852500", "104822.312500", "104822.772500", "104823.232500", "104823.692500", "104824.152500", "104824.612500", "104825.072500", "104825.532500", "104825.992500", "104826.452500", "104826.912500", "104827.372500", "104827.832500", "104828.292500", "104828.752500", "104829.212500", "104829.672500", "104830.132500", "104830.592500", "104831.052500", "104831.512500", "104831.972500", "104832.432500", "104832.892500", "104833.352500", "104833.812500", "104834.272500", "104834.732500", "104835.192500", "104835.652500", "104836.112500", "104836.572500", "104837.032500", "104837.492500", "104837.952500", "104838.412500", "104838.872500", "104839.332500", "104839.792500", "104840.252500", "104840.712500", "104841.172500", "104841.632500", "104842.092500", "104842.552500", "104843.012500", "104843.472500", "104843.932500", "104844.392500", "104844.852500", "104845.312500", "104845.772500", "104846.232500", "104846.692500", "104847.152500", "104847.612500", "104848.072500", "104848.532500", "104848.992500", "104849.452500", "104849.912500", "104850.372500", "104850.832500", "104851.292500", "104851.752500", "104852.212500", "104852.672500", "104853.132500", "104853.592500", "104854.052500", "104854.512500", "104854.972500", "104855.432500", "104855.892500", "104856.352500", "104856.812500", "104857.272500", "104857.732500", "104858.192500", "104858.652500", "104859.112500", "104859.572500", "104900.032500", "104900.492500", "104900.952500", "104901.412500", "104901.872500", "104902.332500", "104902.792500", "104903.252500", "104903.712500", "104904.172500", "104904.632500", "104905.092500", "104905.552500", "104906.012500", "104906.472500", "104906.932500", "104907.392500", "104907.852500", "104908.312500", "104908.772500", "104909.232500", "104909.692500", "104910.152500", "104910.612500", "104911.072500", "104911.532500", "104911.992500", "104912.452500", "104912.912500", "104913.372500", "104913.832500", "104914.292500", "104914.752500", "104915.212500", "104915.672500", "104916.132500", "104916.592500", "104917.052500", "104917.512500", "104917.972500", "104918.432500", "104918.892500", "104919.352500", "104919.812500", "104920.272500", "104920.732500", "104921.192500", "104921.652500", "104922.112500", "104922.572500", "104923.032500", "104923.492500", "104923.952500", "104924.412500", "104924.872500", "104925.332500", "104925.792500", "104926.252500", "104926.712500", "104927.172500", "104927.632500", "104928.092500", "104928.552500", "104929.012500", "104929.472500", "104929.932500", "104930.392500", "104930.852500", "104931.312500", "104931.772500", "104932.232500", "104932.692500", "104933.152500", "104933.612500", "104934.072500", "104934.532500", "104934.992500", "104935.452500", "104935.912500", "104936.372500", "104936.832500", "104937.292500", "104937.752500", "104938.212500", "104938.672500", "104939.132500", "104939.592500", "104940.052500", "104940.512500", "104940.972500", "104941.432500", "104941.892500", "104942.352500", "104942.812500", "104943.272500", "104943.732500", "104944.192500", "104944.652500", "104945.112500", "104945.572500", "104946.032500", "104946.492500", "104946.952500", "104947.412500", "104947.872500", "104948.332500", "104948.792500", "104949.252500", "104949.712500", "104950.172500", "104950.632500", "104951.092500", "104951.552500", "104952.012500", "104952.472500", "104952.932500", "104953.392500", "104953.852500", "104954.312500", "104954.772500", "104955.232500", "104955.692500", "104956.152500", "104956.612500", "104957.072500", "104957.532500", "104957.992500", "104958.452500", "104958.912500", "104959.372500", "104959.832500", "105000.292500", "105000.752500", "105001.212500", "105001.672500", "105002.132500", "105002.592500", "105003.052500", "105003.512500", "105003.972500", "105004.432500", "105004.892500", "105005.352500", "105005.812500", "105006.272500", "105006.732500", "105007.192500", "105007.652500", "105008.112500", "105008.572500", "105009.032500", "105009.492500", "105009.952500", "105010.412500", "105010.872500", "105011.332500", "105011.792500", "105012.252500", "105012.712500", "105013.172500", "105013.632500", "105014.092500", "105014.552500", "105015.012500", "105015.472500", "105015.932500", "105016.392500", "105016.852500", "105017.312500", "105017.772500", "105018.232500", "105018.692500", "105019.152500", "105019.612500", "105020.072500", "105020.532500", "105020.992500", "105021.452500", "105021.912500", "105022.372500", "105022.832500", "105023.292500", "105023.752500", "105024.212500", "105024.672500", "105025.132500", "105025.592500", "105026.052500", "105026.512500", "105026.972500", "105027.432500", "105027.892500", "105028.352500", "105028.812500", "105029.272500", "105029.732500", "105030.192500", "105030.652500", "105031.112500", "105031.572500", "105032.032500", "105032.492500", "105032.952500", "105033.412500", "105033.872500", "105034.332500", "105034.792500", "105035.252500", "105035.712500", "105036.172500", "105036.632500", "105037.092500", "105037.552500", "105038.012500", "105038.472500", "105038.932500", "105039.392500", "105039.852500", "105040.312500", "105040.772500", "105041.232500"],
