{
  "AcquisitionMatrixPE": 82,
  "AcquisitionNumber": 1,
  "AcquisitionTime": "11:04:39.237500",
  "BandwidthPerPixelPhaseEncode": 24.888,
  "BaseResolution": 82,
  "BodyPartExamined": "BRAIN",
  "ConsistencyInfo": "N4_VE11E_LATEST_20181129",
  "ConversionSoftware": "dcm2niix",
  "ConversionSoftwareVersion": "v1.0.20201102",
  "DerivedVendorReportedEchoSpacing": 0.00049,
  "DeviceSerialNumber": "66112",
  "DwellTime": 2e-06,
  "EchoTime": 0.0272,
  "EchoTrainLength": 82,
  "EffectiveEchoSpacing": 0.00049,
  "FlipAngle": 44,
  "ImageComments": "Unaliased MB8/PE3",
  "ImageOrientationPatientDICOM": [0.999995, -0.00286847, -0.00147392, 0.00279249, 0.998785, -0.0491932],
  "ImageType": [
    "ORIGINAL",
    "PRIMARY",
    "M",
    "MB",
    "ND",
    "NORM",
    "MOSAIC"
],
  "ImagingFrequency": 123.259,
  "InPlanePhaseEncodingDirectionDICOM": "COL",
  "InstitutionAddress": "Maynard 3,Hanover,NH,US,03755",
  "InstitutionName": "Dartmouth College - PBS",
  "InstitutionalDepartmentName": "Department",
  "MRAcquisitionType": "2D",
  "MagneticFieldStrength": 3,
  "Manufacturer": "Siemens",
  "ManufacturersModelName": "Prisma",
  "Modality": "MR",
  "MultibandAccelerationFactor": 8,
  "PartialFourier": 1,
  "PatientPosition": "HFS",
  "PercentPhaseFOV": 100,
  "PercentSampling": 100,
  "PhaseEncodingDirection": "j-",
  "PhaseEncodingSteps": 82,
  "PhaseResolution": 1,
  "PixelBandwidth": 3050,
  "ProcedureStepDescription": "Wager_Wager^1076_spacetop",
  "ProtocolName": "func_run-01_task-alignvideo_acq-ap-mb8",
  "PulseSequenceDetails": "%CustomerSeq%\\cmrr_mbep2d_bold",
  "ReceiveCoilActiveElements": "HEA;HEP",
  "ReceiveCoilName": "Head_32",
  "ReconMatrixPE": 82,
  "RepetitionTime": 0.46,
  "SAR": 0.0858134,
  "ScanOptions": "FS",
  "ScanningSequence": "EP",
  "SequenceName": "epfid2d1_82",
  "SequenceVariant": "SK\\SS",
  "SeriesDescription": "func_run-01_task-alignvideo_acq-ap-mb8",
  "SeriesNumber": 30,
  "ShimSetting": [4231, -8104, -7354, 500, -100, -1051, 744, 147],
  "SliceThickness": 2.7,
  "SliceTiming": [0, 0.2525, 0.0625, 0.315, 0.1275, 0.3775, 0.19, 0, 0.2525, 0.0625, 0.315, 0.1275, 0.3775, 0.19, 0, 0.2525, 0.0625, 0.315, 0.1275, 0.3775, 0.19, 0, 0.2525, 0.0625, 0.315, 0.1275, 0.3775, 0.19, 0, 0.2525, 0.0625, 0.315, 0.1275, 0.3775, 0.19, 0, 0.2525, 0.0625, 0.315, 0.1275, 0.3775, 0.19, 0, 0.2525, 0.0625, 0.315, 0.1275, 0.3775, 0.19, 0, 0.2525, 0.0625, 0.315, 0.1275, 0.3775, 0.19],
  "SoftwareVersions": "syngo MR E11",
  "SpacingBetweenSlices": 2.7,
  "StationName": "AWP66112",
  "TaskName": "alignvideo",
  "TotalReadoutTime": 0.03969,
  "TxRefAmp": 231.143,
  "WipMemBlock": "f86d7bd3-fe38-47a3-8620-32a5b3a66a31||Sequence: R016 ve11e/master r/434b28f1; Aug  7 2019 18:53:46 by eja",
  "dcmmeta_affine": [
    [-2.682912826538086, 0.007492052391171455, -0.004355733282864094, 112.62401580810547],
    [0.007695890963077545, 2.6796681880950928, -0.13280977308750153, -96.84587097167969],
    [-0.003954408224672079, 0.13198170065879822, 2.696727991104126, -76.0030746459961],
    [0.0, 0.0, 0.0, 1.0]
],
  "dcmmeta_reorient_transform": [
    [0.0, -1.0, 0.0, 81.0],
    [1.0, 0.0, 0.0, 0.0],
    [0.0, 0.0, 1.0, 0.0],
    [0.0, 0.0, 0.0, 1.0]
],
  "dcmmeta_shape": [82, 82, 56, 839],
  "dcmmeta_slice_dim": 2,
  "dcmmeta_version": 0.6,
  "global": {
    "const": {
      "AccessionNumber": "A004817",
      "AcquisitionMatrix": [82, 0, 0, 82],
      "AngioFlag": "N",
      "BitsAllocated": 16,
      "BitsStored": 16,
      "BodyPartExamined": "BRAIN",
      "Columns": 656,
      "EchoNumbers": 1,
      "EchoTime": 27.2,
      "EchoTrainLength": 82,
      "FlipAngle": 44.0,
      "HighBit": 15,
      "ImageOrientationPatient": [0.99999479971711, -0.0028684684187, -0.001473915758, 0.0027924922368, 0.99878537892066, -0.0491931788098],
      "ImagePositionPatient": [-885.37710358184, -887.06328660498, -26.298896268989],
      "ImageType": [
        "ORIGINAL",
        "PRIMARY",
        "M",
        "MB",
        "ND",
        "NORM",
        "MOSAIC"
],
      "ImagedNucleus": "1H",
      "ImagingFrequency": 123.259175,
      "InPlanePhaseEncodingDirection": "COL",
      "MRAcquisitionType": "2D",
      "MagneticFieldStrength": 3.0,
      "Manufacturer": "SIEMENS",
      "ManufacturerModelName": "Prisma",
      "Modality": "MR",
      "NumberOfAverages": 1.0,
      "NumberOfPhaseEncodingSteps": 82,
      "PercentPhaseFieldOfView": 100.0,
      "PercentSampling": 100.0,
      "PerformedProcedureStepStartTime": "094841.825000",
      "PhotometricInterpretation": "MONOCHROME2",
      "PixelBandwidth": 3050.0,
      "PixelRepresentation": 0,
      "PixelSpacing": [2.6829268932343, 2.6829268932343],
      "ProtocolName": "func_run-01_task-alignvideo_acq-ap-mb8",
      "RepetitionTime": 460.0,
      "Rows": 656,
      "SAR": 0.08581337926484,
      "SamplesPerPixel": 1,
      "ScanOptions": "FS",
      "ScanningSequence": "EP",
      "SequenceName": "epfid2d1_82",
      "SequenceVariant": [
        "SK",
        "SS"
],
      "SeriesDescription": "func_run-01_task-alignvideo_acq-ap-mb8",
      "SeriesNumber": 30,
      "SeriesTime": "110459.709000",
      "SliceLocation": -71.328932990138,
      "SliceThickness": 2.7000000476837,
      "SmallestImagePixelValue": 0,
      "SoftwareVersions": "syngo MR E11",
      "SpacingBetweenSlices": 2.6999999728011,
      "SpecificCharacterSet": "ISO_IR 100",
      "StudyID": "2",
      "StudyTime": "094841.637000",
      "TransmitCoilName": "Body",
      "VariableFlipAngleFlag": "N",
      "WindowCenterWidthExplanation": "Algo1"
    },
    "slices": {}
  },
  "time": {
    "samples": {
      "AcquisitionNumber": [1, 2, 3, 4, 5, 6, 7, 8, 9, 10, 11, 12, 13, 14, 15, 16, 17, 18, 19, 20, 21, 22, 23, 24, 25, 26, 27, 28, 29, 30, 31, 32, 33, 34, 35, 36, 37, 38, 39, 40, 41, 42, 43, 44, 45, 46, 47, 48, 49, 50, 51, 52, 53, 54, 55, 56, 57, 58, 59, 60, 61, 62, 63, 64, 65, 66, 67, 68, 69, 70, 71, 72, 73, 74, 75, 76, 77, 78, 79, 80, 81, 82, 83, 84, 85, 86, 87, 88, 89, 90, 91, 92, 93, 94, 95, 96, 97, 98, 99, 100, 101, 102, 103, 104, 105, 106, 107, 108, 109, 110, 111, 112, 113, 114, 115, 116, 117, 118, 119, 120, 121, 122, 123, 124, 125, 126, 127, 128, 129, 130, 131, 132, 133, 134, 135, 136, 137, 138, 139, 140, 141, 142, 143, 144, 145, 146, 147, 148, 149, 150, 151, 152, 153, 154, 155, 156, 157, 158, 159, 160, 161, 162, 163, 164, 165, 166, 167, 168, 169, 170, 171, 172, 173, 174, 175, 176, 177, 178, 179, 180, 181, 182, 183, 184, 185, 186, 187, 188, 189, 190, 191, 192, 193, 194, 195, 196, 197, 198, 199, 200, 201, 202, 203, 204, 205, 206, 207, 208, 209, 210, 211, 212, 213, 214, 215, 216, 217, 218, 219, 220, 221, 222, 223, 224, 225, 226, 227, 228, 229, 230, 231, 232, 233, 234, 235, 236, 237, 238, 239, 240, 241, 242, 243, 244, 245, 246, 247, 248, 249, 250, 251, 252, 253, 254, 255, 256, 257, 258, 259, 260, 261, 262, 263, 264, 265, 266, 267, 268, 269, 270, 271, 272, 273, 274, 275, 276, 277, 278, 279, 280, 281, 282, 283, 284, 285, 286, 287, 288, 289, 290, 291, 292, 293, 294, 295, 296, 297, 298, 299, 300, 301, 302, 303, 304, 305, 306, 307, 308, 309, 310, 311, 312, 313, 314, 315, 316, 317, 318, 319, 320, 321, 322, 323, 324, 325, 326, 327, 328, 329, 330, 331, 332, 333, 334, 335, 336, 337, 338, 339, 340, 341, 342, 343, 344, 345, 346, 347, 348, 349, 350, 351, 352, 353, 354, 355, 356, 357, 358, 359, 360, 361, 362, 363, 364, 365, 366, 367, 368, 369, 370, 371, 372, 373, 374, 375, 376, 377, 378, 379, 380, 381, 382, 383, 384, 385, 386, 387, 388, 389, 390, 391, 392, 393, 394, 395, 396, 397, 398, 399, 400, 401, 402, 403, 404, 405, 406, 407, 408, 409, 410, 411, 412, 413, 414, 415, 416, 417, 418, 419, 420, 421, 422, 423, 424, 425, 426, 427, 428, 429, 430, 431, 432, 433, 434, 435, 436, 437, 438, 439, 440, 441, 442, 443, 444, 445, 446, 447, 448, 449, 450, 451, 452, 453, 454, 455, 456, 457, 458, 459, 460, 461, 462, 463, 464, 465, 466, 467, 468, 469, 470, 471, 472, 473, 474, 475, 476, 477, 478, 479, 480, 481, 482, 483, 484, 485, 486, 487, 488, 489, 490, 491, 492, 493, 494, 495, 496, 497, 498, 499, 500, 501, 502, 503, 504, 505, 506, 507, 508, 509, 510, 511, 512, 513, 514, 515, 516, 517, 518, 519, 520, 521, 522, 523, 524, 525, 526, 527, 528, 529, 530, 531, 532, 533, 534, 535, 536, 537, 538, 539, 540, 541, 542, 543, 544, 545, 546, 547, 548, 549, 550, 551, 552, 553, 554, 555, 556, 557, 558, 559, 560, 561, 562, 563, 564, 565, 566, 567, 568, 569, 570, 571, 572, 573, 574, 575, 576, 577, 578, 579, 580, 581, 582, 583, 584, 585, 586, 587, 588, 589, 590, 591, 592, 593, 594, 595, 596, 597, 598, 599, 600, 601, 602, 603, 604, 605, 606, 607, 608, 609, 610, 611, 612, 613, 614, 615, 616, 617, 618, 619, 620, 621, 622, 623, 624, 625, 626, 627, 628, 629, 630, 631, 632, 633, 634, 635, 636, 637, 638, 639, 640, 641, 642, 643, 644, 645, 646, 647, 648, 649, 650, 651, 652, 653, 654, 655, 656, 657, 658, 659, 660, 661, 662, 663, 664, 665, 666, 667, 668, 669, 670, 671, 672, 673, 674, 675, 676, 677, 678, 679, 680, 681, 682, 683, 684, 685, 686, 687, 688, 689, 690, 691, 692, 693, 694, 695, 696, 697, 698, 699, 700, 701, 702, 703, 704, 705, 706, 707, 708, 709, 710, 711, 712, 713, 714, 715, 716, 717, 718, 719, 720, 721, 722, 723, 724, 725, 726, 727, 728, 729, 730, 731, 732, 733, 734, 735, 736, 737, 738, 739, 740, 741, 742, 743, 744, 745, 746, 747, 748, 749, 750, 751, 752, 753, 754, 755, 756, 757, 758, 759, 760, 761, 762, 763, 764, 765, 766, 767, 768, 769, 770, 771, 772, 773, 774, 775, 776, 777, 778, 779, 780, 781, 782, 783, 784, 785, 786, 787, 788, 789, 790, 791, 792, 793, 794, 795, 796, 797, 798, 799, 800, 801, 802, 803, 804, 805, 806, 807, 808, 809, 810, 811, 812, 813, 814, 815, 816, 817, 818, 819, 820, 821, 822, 823, 824, 825, 826, 827, 828, 829, 830, 831, 832, 833, 834, 835, 836, 837, 838, 839],
      "AcquisitionTime": ["110439.237500", "110439.697500", "110440.157500", "110440.617500", "110441.077500", "110441.537500", "110441.997500", "110442.457500", "110442.917500", "110443.377500", "110443.837500", "110444.297500", "110444.757500", "110445.217500", "110445.677500", "110446.137500", "110446.597500", "110447.057500", "110447.517500", "110447.977500", "110448.437500", "110448.897500", "110449.357500", "110449.817500", "110450.277500", "110450.737500", "110451.197500", "110451.657500", "110452.117500", "110452.577500", "110453.037500", "110453.497500", "110453.957500", "110454.417500", "110454.877500", "110455.337500", "110455.797500", "110456.257500", "110456.717500", "110457.177500", "110457.637500", "110458.097500", "110458.557500", "110459.017500", "110459.477500", "110459.937500", "110500.397500", "110500.857500", "110501.317500", "110501.777500", "110502.237500", "110502.697500", "110503.157500", "110503.617500", "110504.077500", "110504.537500", "110504.997500", "110505.457500", "110505.917500", "110506.377500", "110506.837500", "110507.297500", "110507.757500", "110508.217500", "110508.677500", "110509.137500", "110509.597500", "110510.057500", "110510.517500", "110510.977500", "110511.437500", "110511.897500", "110512.357500", "110512.817500", "110513.277500", "110513.737500", "110514.197500", "110514.657500", "110515.117500", "110515.577500", "110516.037500", "110516.497500", "110516.957500", "110517.417500", "110517.877500", "110518.337500", "110518.797500", "110519.257500", "110519.717500", "110520.177500", "110520.637500", "110521.097500", "110521.557500", "110522.017500", "110522.477500", "110522.937500", "110523.397500", "110523.857500", "110524.317500", "110524.777500", "110525.237500", "110525.697500", "110526.157500", "110526.617500", "110527.077500", "110527.537500", "110527.997500", "110528.457500", "110528.917500", "110529.377500", "110529.837500", "110530.297500", "110530.757500", "110531.217500", "110531.677500", "110532.137500", "110532.597500", "110533.057500", "110533.517500", "110533.977500", "110534.437500", "110534.897500", "110535.357500", "110535.817500", "110536.277500", "110536.737500", "110537.197500", "110537.657500", "110538.117500", "110538.577500", "110539.037500", "110539.497500", "110539.957500", "110540.417500", "110540.877500", "110541.337500", "110541.797500", "110542.257500", "110542.717500", "110543.177500", "110543.637500", "110544.097500", "110544.557500", "110545.017500", "110545.477500", "110545.937500", "110546.397500", "110546.857500", "110547.317500", "110547.777500", "110548.237500", "110548.697500", "110549.157500", "110549.617500", "110550.077500", "110550.537500", "110550.997500", "110551.457500", "110551.917500", "110552.377500", "110552.837500", "110553.297500", "110553.757500", "110554.217500", "110554.677500", "110555.137500", "110555.597500", "110556.057500", "110556.517500", "110556.977500", "110557.437500", "110557.897500", "110558.357500", "110558.817500", "110559.277500", "110559.737500", "110600.197500", "110600.657500", "110601.117500", "110601.577500", "110602.037500", "110602.497500", "110602.957500", "110603.417500", "110603.877500", "110604.337500", "110604.797500", "110605.257500", "110605.717500", "110606.177500", "110606.637500", "110607.097500", "110607.557500", "110608.017500", "110608.477500", "110608.937500", "110609.397500", "110609.857500", "110610.317500", "110610.777500", "110611.237500", "110611.697500", "110612.157500", "110612.617500", "110613.077500", "110613.537500", "110613.997500", "110614.457500", "110614.917500", "110615.377500", "110615.837500", "110616.297500", "110616.757500", "110617.217500", "110617.677500", "110618.137500", "110618.597500", "110619.057500", "110619.517500", "110619.977500", "110620.437500", "110620.897500", "110621.357500", "110621.817500", "110622.277500", "110622.737500", "110623.197500", "110623.657500", "110624.117500", "110624.577500", "110625.037500", "110625.497500", "110625.957500", "110626.417500", "110626.877500", "110627.337500", "110627.797500", "110628.257500", "110628.717500", "110629.177500", "110629.637500", "110630.097500", "110630.557500", "110631.017500", "110631.477500", "110631.937500", "110632.397500", "110632.857500", "110633.317500", "110633.777500", "110634.237500", "110634.697500", "110635.157500", "110635.617500", "110636.077500", "110636.537500", "110636.997500", "110637.457500", "110637.917500", "110638.377500", "110638.837500", "110639.297500", "110639.757500", "110640.217500", "110640.677500", "110641.137500", "110641.597500", "110642.057500", "110642.517500", "110642.977500", "110643.437500", "110643.897500", "110644.357500", "110644.817500", "110645.277500", "110645.737500", "110646.197500", "110646.657500", "110647.117500", "110647.577500", "110648.037500", "110648.497500", "110648.957500", "110649.417500", "110649.877500", "110650.337500", "110650.797500", "110651.257500", "110651.717500", "110652.177500", "110652.637500", "110653.097500", "110653.557500", "110654.017500", "110654.477500", "110654.937500", "110655.397500", "110655.857500", "110656.317500", "110656.777500", "110657.237500", "110657.697500", "110658.157500", "110658.617500", "110659.077500", "110659.537500", "110659.997500", "110700.457500", "110700.917500", "110701.377500", "110701.837500", "110702.297500", "110702.757500", "110703.217500", "110703.677500", "110704.137500", "110704.597500", "110705.057500", "110705.517500", "110705.977500", "110706.437500", "110706.897500", "110707.357500", "110707.817500", "110708.277500", "110708.737500", "110709.197500", "110709.657500", "110710.117500", "110710.577500", "110711.037500", "110711.497500", "110711.957500", "110712.417500", "110712.877500", "110713.337500", "110713.797500", "110714.257500", "110714.717500", "110715.177500", "110715.637500", "110716.097500", "110716.557500", "110717.017500", "110717.477500", "110717.937500", "110718.397500", "110718.857500", "110719.317500", "110719.777500", "110720.237500", "110720.697500", "110721.157500", "110721.617500", "110722.077500", "110722.537500", "110722.997500", "110723.457500", "110723.917500", "110724.377500", "110724.837500", "110725.297500", "110725.757500", "110726.217500", "110726.677500", "110727.137500", "110727.597500", "110728.057500", "110728.517500", "110728.977500", "110729.437500", "110729.897500", "110730.357500", "110730.817500", "110731.277500", "110731.737500", "110732.197500", "110732.657500", "110733.117500", "110733.577500", "110734.037500", "110734.497500", "110734.957500", "110735.417500", "110735.877500", "110736.337500", "110736.797500", "110737.257500", "110737.717500", "110738.177500", "110738.637500", "110739.097500", "110739.557500", "110740.017500", "110740.477500", "110740.937500", "110741.397500", "110741.857500", "110742.317500", "110742.777500", "110743.237500", "110743.697500", "110744.157500", "110744.617500", "110745.077500", "110745.537500", "110745.997500", "110746.457500", "110746.917500", "110747.377500", "110747.837500", "110748.297500", "110748.757500", "110749.217500", "110749.677500", "110750.137500", "110750.597500", "110751.057500", "110751.517500", "110751.977500", "110752.437500", "110752.897500", "110753.357500", "110753.817500", "110754.277500", "110754.737500", "110755.197500", "110755.657500", "110756.117500", "110756.577500", "110757.037500", "110757.497500", "110757.957500", "110758.417500", "110758.877500", "110759.337500", "110759.797500", "110800.257500", "110800.717500", "110801.177500", "110801.637500", "110802.097500", "110802.557500", "110803.017500", "110803.477500", "110803.937500", "110804.397500", "110804.857500", "110805.317500", "110805.777500", "110806.237500", "110806.697500", "110807.157500", "110807.617500", "110808.077500", "110808.537500", "110808.997500", "110809.457500", "110809.917500", "110810.377500", "110810.837500", "110811.297500", "110811.757500", "110812.217500", "110812.677500", "110813.137500", "110813.597500", "110814.057500", "110814.517500", "110814.977500", "110815.437500", "110815.897500", "110816.357500", "110816.817500", "110817.277500", "110817.737500", "110818.197500", "110818.657500", "110819.117500", "110819.577500", "110820.037500", "110820.497500", "110820.957500", "110821.417500", "110821.877500", "110822.337500", "110822.797500", "110823.257500", "110823.717500", "110824.177500", "110824.637500", "110825.097500", "110825.557500", "110826.017500", "110826.477500", "110826.937500", "110827.397500", "110827.857500", "110828.317500", "110828.777500", "110829.237500", "110829.697500", "110830.157500", "110830.617500", "110831.077500", "110831.537500", "110831.997500", "110832.457500", "110832.917500", "110833.377500", "110833.837500", "110834.297500", "110834.757500", "110835.217500", "110835.677500", "110836.137500", "110836.597500", "110837.057500", "110837.517500", "110837.977500", "110838.437500", "110838.897500", "110839.357500", "110839.817500", "110840.277500", "110840.737500", "110841.197500", "110841.657500", "110842.117500", "110842.577500", "110843.037500", "110843.497500", "110843.957500", "110844.417500", "110844.877500", "110845.337500", "110845.797500", "110846.257500", "110846.717500", "110847.177500", "110847.637500", "110848.097500", "110848.557500", "110849.017500", "110849.477500", "110849.937500", "110850.397500", "110850.857500", "110851.317500", "110851.777500", "110852.237500", "110852.697500", "110853.157500", "110853.617500", "110854.077500", "110854.537500", "110854.997500", "110855.457500", "110855.917500", "110856.377500", "110856.837500", "110857.297500", "110857.757500", "110858.217500", "110858.677500", "110859.137500", "110859.597500", "110900.057500", "110900.517500", "110900.977500", "110901.437500", "110901.897500", "110902.357500", "110902.817500", "110903.277500", "110903.737500", "110904.197500", "110904.657500", "110905.117500", "110905.577500", "110906.037500", "110906.497500", "110906.957500", "110907.417500", "110907.877500", "110908.337500", "110908.797500", "110909.257500", "110909.717500", "110910.177500", "110910.637500", "110911.097500", "110911.557500", "110912.017500", "110912.477500", "110912.937500", "110913.397500", "110913.857500", "110914.317500", "110914.777500", "110915.237500", "110915.697500", "110916.157500", "110916.617500", "110917.077500", "110917.537500", "110917.997500", "110918.457500", "110918.917500", "110919.377500", "110919.837500", "110920.297500", "110920.757500", "110921.217500", "110921.677500", "110922.137500", "110922.597500", "110923.057500", "110923.517500", "110923.977500", "110924.437500", "110924.897500", "110925.357500", "110925.817500", "110926.277500", "110926.737500", "110927.197500", "110927.657500", "110928.117500", "110928.577500", "110929.037500", "110929.497500", "110929.957500", "110930.417500", "110930.877500", "110931.337500", "110931.797500", "110932.257500", "110932.717500", "110933.177500", "110933.637500", "110934.097500", "110934.557500", "110935.017500", "110935.477500", "110935.937500", "110936.397500", "110936.857500", "110937.317500", "110937.777500", "110938.237500", "110938.697500", "110939.157500", "110939.617500", "110940.077500", "110940.537500", "110940.997500", "110941.457500", "110941.917500", "110942.377500", "110942.837500", "110943.297500", "110943.757500", "110944.217500", "110944.677500", "110945.137500", "110945.597500", "110946.057500", "110946.517500", "110946.977500", "110947.437500", "110947.897500", "110948.357500", "110948.817500", "110949.277500", "110949.737500", "110950.197500", "110950.657500", "110951.117500", "110951.577500", "110952.037500", "110952.497500", "110952.957500", "110953.417500", "110953.877500", "110954.337500", "110954.797500", "110955.257500", "110955.717500", "110956.177500", "110956.637500", "110957.097500", "110957.557500", "110958.017500", "110958.477500", "110958.937500", "110959.397500", "110959.857500", "111000.317500", "111000.777500", "111001.237500", "111001.697500", "111002.157500", "111002.617500", "111003.077500", "111003.537500", "111003.997500", "111004.457500", "111004.917500", "111005.377500", "111005.837500", "111006.297500", "111006.757500", "111007.217500", "111007.677500", "111008.137500", "111008.597500", "111009.057500", "111009.517500", "111009.977500", "111010.437500", "111010.897500", "111011.357500", "111011.817500", "111012.277500", "111012.737500", "111013.197500", "111013.657500", "111014.117500", "111014.577500", "111015.037500", "111015.497500", "111015.957500", "111016.417500", "111016.877500", "111017.337500", "111017.797500", "111018.257500", "111018.717500", "111019.177500", "111019.637500", "111020.097500", "111020.557500", "111021.017500", "111021.477500", "111021.937500", "111022.397500", "111022.857500", "111023.317500", "111023.777500", "111024.237500", "111024.697500", "111025.157500", "111025.617500", "111026.077500", "111026.537500", "111026.997500", "111027.457500", "111027.917500", "111028.377500", "111028.837500", "111029.297500", "111029.757500", "111030.217500", "111030.677500", "111031.137500", "111031.597500", "111032.057500", "111032.517500", "111032.977500", "111033.437500", "111033.897500", "111034.357500", "111034.817500", "111035.277500", "111035.737500", "111036.197500", "111036.657500", "111037.117500", "111037.577500", "111038.037500", "111038.497500", "111038.957500", "111039.417500", "111039.877500", "111040.337500", "111040.797500", "111041.257500", "111041.717500", "111042.177500", "111042.637500", "111043.097500", "111043.557500", "111044.017500", "111044.477500", "111044.937500", "111045.397500", "111045.857500", "111046.317500", "111046.777500", "111047.237500", "111047.697500", "111048.157500", "111048.617500", "111049.077500", "111049.537500", "111049.997500", "111050.457500", "111050.917500", "111051.377500", "111051.837500", "111052.297500", "111052.757500", "111053.217500", "111053.677500", "111054.137500", "111054.597500", "111055.057500", "111055.517500", "111055.977500", "111056.437500", "111056.897500", "111057.357500", "111057.817500", "111058.277500", "111058.737500", "111059.197500", "111059.657500", "111100.117500", "111100.577500", "111101.037500", "111101.497500", "111101.957500", "111102.417500", "111102.877500", "111103.337500", "111103.797500", "111104.257500", "111104.717500"],
