{
  "AcquisitionMatrixPE": 82,
  "AcquisitionNumber": 1,
  "AcquisitionTime": "14:02:29.345000",
  "BandwidthPerPixelPhaseEncode": 24.888,
  "BaseResolution": 82,
  "BodyPartExamined": "BRAIN",
  "ConsistencyInfo": "N4_VE11E_LATEST_20181129",
  "ConversionSoftware": "dcm2niix",
  "ConversionSoftwareVersion": "v1.0.20201102",
  "DerivedVendorReportedEchoSpacing": 0.00049,
  "DeviceSerialNumber": "66112",
  "DwellTime": 2e-06,
  "EchoTime": 0.0272,
  "EchoTrainLength": 82,
  "EffectiveEchoSpacing": 0.00049,
  "FlipAngle": 44,
  "ImageComments": "Unaliased MB8/PE3",
  "ImageOrientationPatientDICOM": [0.996934, -0.0737797, 0.0260453, 0.0690131, 0.986034, 0.151573],
  "ImageType": [
    "ORIGINAL",
    "PRIMARY",
    "M",
    "MB",
    "ND",
    "NORM",
    "MOSAIC"
],
  "ImagingFrequency": 123.259,
  "InPlanePhaseEncodingDirectionDICOM": "COL",
  "InstitutionAddress": "Maynard 3,Hanover,NH,US,03755",
  "InstitutionName": "Dartmouth College - PBS",
  "InstitutionalDepartmentName": "Department",
  "MRAcquisitionType": "2D",
  "MagneticFieldStrength": 3,
  "Manufacturer": "Siemens",
  "ManufacturersModelName": "Prisma",
  "Modality": "MR",
  "MultibandAccelerationFactor": 8,
  "PartialFourier": 1,
  "PatientPosition": "HFS",
  "PercentPhaseFOV": 100,
  "PercentSampling": 100,
  "PhaseEncodingDirection": "j-",
  "PhaseEncodingSteps": 82,
  "PhaseResolution": 1,
  "PixelBandwidth": 3050,
  "ProcedureStepDescription": "Wager_Wager^1076_spacetop",
  "ProtocolName": "func_run-03_task-alignvideo_acq-ap-mb8",
  "PulseSequenceDetails": "%CustomerSeq%\\cmrr_mbep2d_bold",
  "ReceiveCoilActiveElements": "HEA;HEP",
  "ReceiveCoilName": "Head_32",
  "ReconMatrixPE": 82,
  "RepetitionTime": 0.46,
  "SAR": 0.0942485,
  "ScanOptions": "FS",
  "ScanningSequence": "EP",
  "SequenceName": "epfid2d1_82",
  "SequenceVariant": "SK\\SS",
  "SeriesDescription": "func_run-03_task-alignvideo_acq-ap-mb8",
  "SeriesNumber": 34,
  "ShimSetting": [4209, -7769, -7207, 321, -168, 7, 104, 101],
  "SliceThickness": 2.7,
  "SliceTiming": [0, 0.2525, 0.0625, 0.315, 0.125, 0.3775, 0.1875, 0, 0.2525, 0.0625, 0.315, 0.125, 0.3775, 0.1875, 0, 0.2525, 0.0625, 0.315, 0.125, 0.3775, 0.1875, 0, 0.2525, 0.0625, 0.315, 0.125, 0.3775, 0.1875, 0, 0.2525, 0.0625, 0.315, 0.125, 0.3775, 0.1875, 0, 0.2525, 0.0625, 0.315, 0.125, 0.3775, 0.1875, 0, 0.2525, 0.0625, 0.315, 0.125, 0.3775, 0.1875, 0, 0.2525, 0.0625, 0.315, 0.125, 0.3775, 0.1875],
  "SoftwareVersions": "syngo MR E11",
  "SpacingBetweenSlices": 2.7,
  "StationName": "AWP66112",
  "TaskName": "alignvideo",
  "TotalReadoutTime": 0.03969,
  "TxRefAmp": 239.66,
  "WipMemBlock": "ebe3c974-7d8f-4ecd-83cd-cb0f072fa728||Sequence: R016 ve11e/master r/434b28f1; Aug  7 2019 18:53:46 by eja",
  "dcmmeta_affine": [
    [-2.6747021675109863, 0.18515704572200775, 0.09953425079584122, 101.74801635742188],
    [0.1979454904794693, 2.6454570293426514, 0.40313848853111267, -117.55574798583984],
    [0.06987764686346054, -0.406658411026001, 2.6678779125213623, -44.699974060058594],
    [0.0, 0.0, 0.0, 1.0]
],
  "dcmmeta_reorient_transform": [
    [0.0, -1.0, 0.0, 81.0],
    [1.0, 0.0, 0.0, 0.0],
    [0.0, 0.0, 1.0, 0.0],
    [0.0, 0.0, 0.0, 1.0]
],
  "dcmmeta_shape": [82, 82, 56, 1016],
  "dcmmeta_slice_dim": 2,
  "dcmmeta_version": 0.6,
  "global": {
    "const": {
      "AccessionNumber": "A004541",
      "AcquisitionMatrix": [82, 0, 0, 82],
      "AngioFlag": "N",
      "BitsAllocated": 16,
      "BitsStored": 16,
      "BodyPartExamined": "BRAIN",
      "Columns": 656,
      "EchoNumbers": 1,
      "EchoTime": 27.2,
      "EchoTrainLength": 82,
      "FlipAngle": 44.0,
      "HighBit": 15,
      "ImageOrientationPatient": [0.99693440142273, -0.0737796812488, 0.02604530465794, 0.06901307932172, 0.98603393431945, 0.15157267317377],
      "ImagePositionPatient": [-937.5253155724, -799.16205702523, -214.40515020725],
      "ImageType": [
        "ORIGINAL",
        "PRIMARY",
        "M",
        "MB",
        "ND",
        "NORM",
        "MOSAIC"
],
      "ImagedNucleus": "1H",
      "ImagingFrequency": 123.259061,
      "InPlanePhaseEncodingDirection": "COL",
      "MRAcquisitionType": "2D",
      "MagneticFieldStrength": 3.0,
      "Manufacturer": "SIEMENS",
      "ManufacturerModelName": "Prisma",
      "Modality": "MR",
      "NumberOfAverages": 1.0,
      "NumberOfPhaseEncodingSteps": 82,
      "PercentPhaseFieldOfView": 100.0,
      "PercentSampling": 100.0,
      "PerformedProcedureStepStartTime": "122755.024000",
      "PhotometricInterpretation": "MONOCHROME2",
      "PixelBandwidth": 3050.0,
      "PixelRepresentation": 0,
      "PixelSpacing": [2.6829268932343, 2.6829268932343],
      "ProtocolName": "func_run-03_task-alignvideo_acq-ap-mb8",
      "RepetitionTime": 460.0,
      "Rows": 656,
      "SAR": 0.09424848041835,
      "SamplesPerPixel": 1,
      "ScanOptions": "FS",
      "ScanningSequence": "EP",
      "SequenceName": "epfid2d1_82",
      "SequenceVariant": [
        "SK",
        "SS"
],
      "SeriesDescription": "func_run-03_task-alignvideo_acq-ap-mb8",
      "SeriesNumber": 34,
      "SeriesTime": "140251.753000",
      "SliceLocation": -57.96959342885,
      "SliceThickness": 2.7000000476837,
      "SmallestImagePixelValue": 0,
      "SoftwareVersions": "syngo MR E11",
      "SpacingBetweenSlices": 2.7000000243692,
      "SpecificCharacterSet": "ISO_IR 100",
      "StudyID": "1",
      "StudyTime": "122754.931000",
      "TransmitCoilName": "Body",
      "VariableFlipAngleFlag": "N",
      "WindowCenterWidthExplanation": "Algo1"
    },
    "slices": {}
  },
  "time": {
    "samples": {
      "AcquisitionNumber": [1, 2, 3, 4, 5, 6, 7, 8, 9, 10, 11, 12, 13, 14, 15, 16, 17, 18, 19, 20, 21, 22, 23, 24, 25, 26, 27, 28, 29, 30, 31, 32, 33, 34, 35, 36, 37, 38, 39, 40, 41, 42, 43, 44, 45, 46, 47, 48, 49, 50, 51, 52, 53, 54, 55, 56, 57, 58, 59, 60, 61, 62, 63, 64, 65, 66, 67, 68, 69, 70, 71, 72, 73, 74, 75, 76, 77, 78, 79, 80, 81, 82, 83, 84, 85, 86, 87, 88, 89, 90, 91, 92, 93, 94, 95, 96, 97, 98, 99, 100, 101, 102, 103, 104, 105, 106, 107, 108, 109, 110, 111, 112, 113, 114, 115, 116, 117, 118, 119, 120, 121, 122, 123, 124, 125, 126, 127, 128, 129, 130, 131, 132, 133, 134, 135, 136, 137, 138, 139, 140, 141, 142, 143, 144, 145, 146, 147, 148, 149, 150, 151, 152, 153, 154, 155, 156, 157, 158, 159, 160, 161, 162, 163, 164, 165, 166, 167, 168, 169, 170, 171, 172, 173, 174, 175, 176, 177, 178, 179, 180, 181, 182, 183, 184, 185, 186, 187, 188, 189, 190, 191, 192, 193, 194, 195, 196, 197, 198, 199, 200, 201, 202, 203, 204, 205, 206, 207, 208, 209, 210, 211, 212, 213, 214, 215, 216, 217, 218, 219, 220, 221, 222, 223, 224, 225, 226, 227, 228, 229, 230, 231, 232, 233, 234, 235, 236, 237, 238, 239, 240, 241, 242, 243, 244, 245, 246, 247, 248, 249, 250, 251, 252, 253, 254, 255, 256, 257, 258, 259, 260, 261, 262, 263, 264, 265, 266, 267, 268, 269, 270, 271, 272, 273, 274, 275, 276, 277, 278, 279, 280, 281, 282, 283, 284, 285, 286, 287, 288, 289, 290, 291, 292, 293, 294, 295, 296, 297, 298, 299, 300, 301, 302, 303, 304, 305, 306, 307, 308, 309, 310, 311, 312, 313, 314, 315, 316, 317, 318, 319, 320, 321, 322, 323, 324, 325, 326, 327, 328, 329, 330, 331, 332, 333, 334, 335, 336, 337, 338, 339, 340, 341, 342, 343, 344, 345, 346, 347, 348, 349, 350, 351, 352, 353, 354, 355, 356, 357, 358, 359, 360, 361, 362, 363, 364, 365, 366, 367, 368, 369, 370, 371, 372, 373, 374, 375, 376, 377, 378, 379, 380, 381, 382, 383, 384, 385, 386, 387, 388, 389, 390, 391, 392, 393, 394, 395, 396, 397, 398, 399, 400, 401, 402, 403, 404, 405, 406, 407, 408, 409, 410, 411, 412, 413, 414, 415, 416, 417, 418, 419, 420, 421, 422, 423, 424, 425, 426, 427, 428, 429, 430, 431, 432, 433, 434, 435, 436, 437, 438, 439, 440, 441, 442, 443, 444, 445, 446, 447, 448, 449, 450, 451, 452, 453, 454, 455, 456, 457, 458, 459, 460, 461, 462, 463, 464, 465, 466, 467, 468, 469, 470, 471, 472, 473, 474, 475, 476, 477, 478, 479, 480, 481, 482, 483, 484, 485, 486, 487, 488, 489, 490, 491, 492, 493, 494, 495, 496, 497, 498, 499, 500, 501, 502, 503, 504, 505, 506, 507, 508, 509, 510, 511, 512, 513, 514, 515, 516, 517, 518, 519, 520, 521, 522, 523, 524, 525, 526, 527, 528, 529, 530, 531, 532, 533, 534, 535, 536, 537, 538, 539, 540, 541, 542, 543, 544, 545, 546, 547, 548, 549, 550, 551, 552, 553, 554, 555, 556, 557, 558, 559, 560, 561, 562, 563, 564, 565, 566, 567, 568, 569, 570, 571, 572, 573, 574, 575, 576, 577, 578, 579, 580, 581, 582, 583, 584, 585, 586, 587, 588, 589, 590, 591, 592, 593, 594, 595, 596, 597, 598, 599, 600, 601, 602, 603, 604, 605, 606, 607, 608, 609, 610, 611, 612, 613, 614, 615, 616, 617, 618, 619, 620, 621, 622, 623, 624, 625, 626, 627, 628, 629, 630, 631, 632, 633, 634, 635, 636, 637, 638, 639, 640, 641, 642, 643, 644, 645, 646, 647, 648, 649, 650, 651, 652, 653, 654, 655, 656, 657, 658, 659, 660, 661, 662, 663, 664, 665, 666, 667, 668, 669, 670, 671, 672, 673, 674, 675, 676, 677, 678, 679, 680, 681, 682, 683, 684, 685, 686, 687, 688, 689, 690, 691, 692, 693, 694, 695, 696, 697, 698, 699, 700, 701, 702, 703, 704, 705, 706, 707, 708, 709, 710, 711, 712, 713, 714, 715, 716, 717, 718, 719, 720, 721, 722, 723, 724, 725, 726, 727, 728, 729, 730, 731, 732, 733, 734, 735, 736, 737, 738, 739, 740, 741, 742, 743, 744, 745, 746, 747, 748, 749, 750, 751, 752, 753, 754, 755, 756, 757, 758, 759, 760, 761, 762, 763, 764, 765, 766, 767, 768, 769, 770, 771, 772, 773, 774, 775, 776, 777, 778, 779, 780, 781, 782, 783, 784, 785, 786, 787, 788, 789, 790, 791, 792, 793, 794, 795, 796, 797, 798, 799, 800, 801, 802, 803, 804, 805, 806, 807, 808, 809, 810, 811, 812, 813, 814, 815, 816, 817, 818, 819, 820, 821, 822, 823, 824, 825, 826, 827, 828, 829, 830, 831, 832, 833, 834, 835, 836, 837, 838, 839, 840, 841, 842, 843, 844, 845, 846, 847, 848, 849, 850, 851, 852, 853, 854, 855, 856, 857, 858, 859, 860, 861, 862, 863, 864, 865, 866, 867, 868, 869, 870, 871, 872, 873, 874, 875, 876, 877, 878, 879, 880, 881, 882, 883, 884, 885, 886, 887, 888, 889, 890, 891, 892, 893, 894, 895, 896, 897, 898, 899, 900, 901, 902, 903, 904, 905, 906, 907, 908, 909, 910, 911, 912, 913, 914, 915, 916, 917, 918, 919, 920, 921, 922, 923, 924, 925, 926, 927, 928, 929, 930, 931, 932, 933, 934, 935, 936, 937, 938, 939, 940, 941, 942, 943, 944, 945, 946, 947, 948, 949, 950, 951, 952, 953, 954, 955, 956, 957, 958, 959, 960, 961, 962, 963, 964, 965, 966, 967, 968, 969, 970, 971, 972, 973, 974, 975, 976, 977, 978, 979, 980, 981, 982, 983, 984, 985, 986, 987, 988, 989, 990, 991, 992, 993, 994, 995, 996, 997, 998, 999, 1000, 1001, 1002, 1003, 1004, 1005, 1006, 1007, 1008, 1009, 1010, 1011, 1012, 1013, 1014, 1015, 1016],
      "AcquisitionTime": ["140229.345000", "140229.805000", "140230.265000", "140230.725000", "140231.185000", "140231.645000", "140232.105000", "140232.565000", "140233.025000", "140233.485000", "140233.945000", "140234.405000", "140234.865000", "140235.325000", "140235.785000", "140236.245000", "140236.705000", "140237.165000", "140237.625000", "140238.085000", "140238.545000", "140239.005000", "140239.465000", "140239.925000", "140240.385000", "140240.845000", "140241.305000", "140241.765000", "140242.225000", "140242.685000", "140243.145000", "140243.605000", "140244.065000", "140244.525000", "140244.985000", "140245.445000", "140245.905000", "140246.365000", "140246.825000", "140247.285000", "140247.745000", "140248.205000", "140248.665000", "140249.125000", "140249.585000", "140250.045000", "140250.505000", "140250.965000", "140251.425000", "140251.885000", "140252.345000", "140252.805000", "140253.265000", "140253.725000", "140254.185000", "140254.645000", "140255.105000", "140255.565000", "140256.025000", "140256.485000", "140256.945000", "140257.405000", "140257.865000", "140258.325000", "140258.785000", "140259.245000", "140259.705000", "140300.165000", "140300.625000", "140301.085000", "140301.545000", "140302.005000", "140302.465000", "140302.925000", "140303.385000", "140303.845000", "140304.305000", "140304.765000", "140305.225000", "140305.685000", "140306.145000", "140306.605000", "140307.065000", "140307.525000", "140307.985000", "140308.445000", "140308.905000", "140309.365000", "140309.825000", "140310.285000", "140310.745000", "140311.205000", "140311.665000", "140312.125000", "140312.585000", "140313.045000", "140313.505000", "140313.965000", "140314.425000", "140314.885000", "140315.345000", "140315.805000", "140316.265000", "140316.725000", "140317.185000", "140317.645000", "140318.105000", "140318.565000", "140319.025000", "140319.485000", "140319.945000", "140320.405000", "140320.865000", "140321.325000", "140321.785000", "140322.245000", "140322.705000", "140323.165000", "140323.625000", "140324.085000", "140324.545000", "140325.005000", "140325.465000", "140325.925000", "140326.385000", "140326.845000", "140327.305000", "140327.765000", "140328.225000", "140328.685000", "140329.145000", "140329.605000", "140330.065000", "140330.525000", "140330.985000", "140331.445000", "140331.905000", "140332.365000", "140332.825000", "140333.285000", "140333.745000", "140334.205000", "140334.665000", "140335.125000", "140335.585000", "140336.045000", "140336.505000", "140336.965000", "140337.425000", "140337.885000", "140338.345000", "140338.805000", "140339.265000", "140339.725000", "140340.185000", "140340.645000", "140341.105000", "140341.565000", "140342.025000", "140342.485000", "140342.945000", "140343.405000", "140343.865000", "140344.325000", "140344.785000", "140345.245000", "140345.705000", "140346.165000", "140346.625000", "140347.085000", "140347.545000", "140348.005000", "140348.465000", "140348.925000", "140349.385000", "140349.845000", "140350.305000", "140350.765000", "140351.225000", "140351.685000", "140352.145000", "140352.605000", "140353.065000", "140353.525000", "140353.985000", "140354.445000", "140354.905000", "140355.365000", "140355.825000", "140356.285000", "140356.745000", "140357.205000", "140357.665000", "140358.125000", "140358.585000", "140359.045000", "140359.505000", "140359.965000", "140400.425000", "140400.885000", "140401.345000", "140401.805000", "140402.265000", "140402.725000", "140403.185000", "140403.645000", "140404.105000", "140404.565000", "140405.025000", "140405.485000", "140405.945000", "140406.405000", "140406.865000", "140407.325000", "140407.785000", "140408.245000", "140408.705000", "140409.165000", "140409.625000", "140410.085000", "140410.545000", "140411.005000", "140411.465000", "140411.925000", "140412.385000", "140412.845000", "140413.305000", "140413.765000", "140414.225000", "140414.685000", "140415.145000", "140415.605000", "140416.065000", "140416.525000", "140416.985000", "140417.445000", "140417.905000", "140418.365000", "140418.825000", "140419.285000", "140419.745000", "140420.205000", "140420.665000", "140421.125000", "140421.585000", "140422.045000", "140422.505000", "140422.965000", "140423.425000", "140423.885000", "140424.345000", "140424.805000", "140425.265000", "140425.725000", "140426.185000", "140426.645000", "140427.105000", "140427.565000", "140428.025000", "140428.485000", "140428.945000", "140429.405000", "140429.865000", "140430.325000", "140430.785000", "140431.245000", "140431.705000", "140432.165000", "140432.625000", "140433.085000", "140433.545000", "140434.005000", "140434.465000", "140434.925000", "140435.385000", "140435.845000", "140436.305000", "140436.765000", "140437.225000", "140437.685000", "140438.145000", "140438.605000", "140439.065000", "140439.525000", "140439.985000", "140440.445000", "140440.905000", "140441.365000", "140441.825000", "140442.285000", "140442.745000", "140443.205000", "140443.665000", "140444.125000", "140444.585000", "140445.045000", "140445.505000", "140445.965000", "140446.425000", "140446.885000", "140447.345000", "140447.805000", "140448.265000", "140448.725000", "140449.185000", "140449.645000", "140450.105000", "140450.565000", "140451.025000", "140451.485000", "140451.945000", "140452.405000", "140452.865000", "140453.325000", "140453.785000", "140454.245000", "140454.705000", "140455.165000", "140455.625000", "140456.085000", "140456.545000", "140457.005000", "140457.465000", "140457.925000", "140458.385000", "140458.845000", "140459.305000", "140459.765000", "140500.225000", "140500.685000", "140501.145000", "140501.605000", "140502.065000", "140502.525000", "140502.985000", "140503.445000", "140503.905000", "140504.365000", "140504.825000", "140505.285000", "140505.745000", "140506.205000", "140506.665000", "140507.125000", "140507.585000", "140508.045000", "140508.505000", "140508.965000", "140509.425000", "140509.885000", "140510.345000", "140510.805000", "140511.265000", "140511.725000", "140512.185000", "140512.645000", "140513.105000", "140513.565000", "140514.025000", "140514.485000", "140514.945000", "140515.405000", "140515.865000", "140516.325000", "140516.785000", "140517.245000", "140517.705000", "140518.165000", "140518.625000", "140519.085000", "140519.545000", "140520.005000", "140520.465000", "140520.925000", "140521.385000", "140521.845000", "140522.305000", "140522.765000", "140523.225000", "140523.685000", "140524.145000", "140524.605000", "140525.065000", "140525.525000", "140525.985000", "140526.445000", "140526.905000", "140527.365000", "140527.825000", "140528.285000", "140528.745000", "140529.205000", "140529.665000", "140530.125000", "140530.585000", "140531.045000", "140531.505000", "140531.965000", "140532.425000", "140532.885000", "140533.345000", "140533.805000", "140534.265000", "140534.725000", "140535.185000", "140535.645000", "140536.105000", "140536.565000", "140537.025000", "140537.485000", "140537.945000", "140538.405000", "140538.865000", "140539.325000", "140539.785000", "140540.245000", "140540.705000", "140541.165000", "140541.625000", "140542.085000", "140542.545000", "140543.005000", "140543.465000", "140543.925000", "140544.385000", "140544.845000", "140545.305000", "140545.765000", "140546.225000", "140546.685000", "140547.145000", "140547.605000", "140548.065000", "140548.525000", "140548.985000", "140549.445000", "140549.905000", "140550.365000", "140550.825000", "140551.285000", "140551.745000", "140552.205000", "140552.665000", "140553.125000", "140553.585000", "140554.045000", "140554.505000", "140554.965000", "140555.425000", "140555.885000", "140556.345000", "140556.805000", "140557.265000", "140557.725000", "140558.185000", "140558.645000", "140559.105000", "140559.565000", "140600.025000", "140600.485000", "140600.945000", "140601.405000", "140601.865000", "140602.325000", "140602.785000", "140603.245000", "140603.705000", "140604.165000", "140604.625000", "140605.085000", "140605.545000", "140606.005000", "140606.465000", "140606.925000", "140607.385000", "140607.845000", "140608.305000", "140608.765000", "140609.225000", "140609.685000", "140610.145000", "140610.605000", "140611.065000", "140611.525000", "140611.985000", "140612.445000", "140612.905000", "140613.365000", "140613.825000", "140614.285000", "140614.745000", "140615.205000", "140615.665000", "140616.125000", "140616.585000", "140617.045000", "140617.505000", "140617.965000", "140618.425000", "140618.885000", "140619.345000", "140619.805000", "140620.265000", "140620.725000", "140621.185000", "140621.645000", "140622.105000", "140622.565000", "140623.025000", "140623.485000", "140623.945000", "140624.405000", "140624.865000", "140625.325000", "140625.785000", "140626.245000", "140626.705000", "140627.165000", "140627.625000", "140628.085000", "140628.545000", "140629.005000", "140629.465000", "140629.925000", "140630.385000", "140630.845000", "140631.305000", "140631.765000", "140632.225000", "140632.685000", "140633.145000", "140633.605000", "140634.065000", "140634.525000", "140634.985000", "140635.445000", "140635.905000", "140636.365000", "140636.825000", "140637.285000", "140637.745000", "140638.205000", "140638.665000", "140639.125000", "140639.585000", "140640.045000", "140640.505000", "140640.965000", "140641.425000", "140641.885000", "140642.345000", "140642.805000", "140643.265000", "140643.725000", "140644.185000", "140644.645000", "140645.105000", "140645.565000", "140646.025000", "140646.485000", "140646.945000", "140647.405000", "140647.865000", "140648.325000", "140648.785000", "140649.245000", "140649.705000", "140650.165000", "140650.625000", "140651.085000", "140651.545000", "140652.005000", "140652.465000", "140652.925000", "140653.385000", "140653.845000", "140654.305000", "140654.765000", "140655.225000", "140655.685000", "140656.145000", "140656.605000", "140657.065000", "140657.525000", "140657.985000", "140658.445000", "140658.905000", "140659.365000", "140659.825000", "140700.285000", "140700.745000", "140701.205000", "140701.665000", "140702.125000", "140702.585000", "140703.045000", "140703.505000", "140703.965000", "140704.425000", "140704.885000", "140705.345000", "140705.805000", "140706.265000", "140706.725000", "140707.185000", "140707.645000", "140708.105000", "140708.565000", "140709.025000", "140709.485000", "140709.945000", "140710.405000", "140710.865000", "140711.325000", "140711.785000", "140712.245000", "140712.705000", "140713.165000", "140713.625000", "140714.085000", "140714.545000", "140715.005000", "140715.465000", "140715.925000", "140716.385000", "140716.845000", "140717.305000", "140717.765000", "140718.225000", "140718.685000", "140719.145000", "140719.605000", "140720.065000", "140720.525000", "140720.985000", "140721.445000", "140721.905000", "140722.365000", "140722.825000", "140723.285000", "140723.745000", "140724.205000", "140724.665000", "140725.125000", "140725.585000", "140726.045000", "140726.505000", "140726.965000", "140727.425000", "140727.885000", "140728.345000", "140728.805000", "140729.265000", "140729.725000", "140730.185000", "140730.645000", "140731.105000", "140731.565000", "140732.025000", "140732.485000", "140732.945000", "140733.405000", "140733.865000", "140734.325000", "140734.785000", "140735.245000", "140735.705000", "140736.165000", "140736.625000", "140737.085000", "140737.545000", "140738.005000", "140738.465000", "140738.925000", "140739.385000", "140739.845000", "140740.305000", "140740.765000", "140741.225000", "140741.685000", "140742.145000", "140742.605000", "140743.065000", "140743.525000", "140743.985000", "140744.445000", "140744.905000", "140745.365000", "140745.825000", "140746.285000", "140746.745000", "140747.205000", "140747.665000", "140748.125000", "140748.585000", "140749.045000", "140749.505000", "140749.965000", "140750.425000", "140750.885000", "140751.345000", "140751.805000", "140752.265000", "140752.725000", "140753.185000", "140753.645000", "140754.105000", "140754.565000", "140755.025000", "140755.485000", "140755.945000", "140756.405000", "140756.865000", "140757.325000", "140757.785000", "140758.245000", "140758.705000", "140759.165000", "140759.625000", "140800.085000", "140800.545000", "140801.005000", "140801.465000", "140801.925000", "140802.385000", "140802.845000", "140803.305000", "140803.765000", "140804.225000", "140804.685000", "140805.145000", "140805.605000", "140806.065000", "140806.525000", "140806.985000", "140807.445000", "140807.905000", "140808.365000", "140808.825000", "140809.285000", "140809.745000", "140810.205000", "140810.665000", "140811.125000", "140811.585000", "140812.045000", "140812.505000", "140812.965000", "140813.425000", "140813.885000", "140814.345000", "140814.805000", "140815.265000", "140815.725000", "140816.185000", "140816.645000", "140817.105000", "140817.565000", "140818.025000", "140818.485000", "140818.945000", "140819.405000", "140819.865000", "140820.325000", "140820.785000", "140821.245000", "140821.705000", "140822.165000", "140822.625000", "140823.085000", "140823.545000", "140824.005000", "140824.465000", "140824.925000", "140825.385000", "140825.845000", "140826.305000", "140826.765000", "140827.225000", "140827.685000", "140828.145000", "140828.605000", "140829.065000", "140829.525000", "140829.985000", "140830.445000", "140830.905000", "140831.365000", "140831.825000", "140832.285000", "140832.745000", "140833.205000", "140833.665000", "140834.125000", "140834.585000", "140835.045000", "140835.505000", "140835.965000", "140836.425000", "140836.885000", "140837.345000", "140837.805000", "140838.265000", "140838.725000", "140839.185000", "140839.645000", "140840.105000", "140840.565000", "140841.025000", "140841.485000", "140841.945000", "140842.405000", "140842.865000", "140843.325000", "140843.785000", "140844.245000", "140844.705000", "140845.165000", "140845.625000", "140846.085000", "140846.545000", "140847.005000", "140847.465000", "140847.925000", "140848.385000", "140848.845000", "140849.305000", "140849.765000", "140850.225000", "140850.685000", "140851.145000", "140851.605000", "140852.065000", "140852.525000", "140852.985000", "140853.445000", "140853.905000", "140854.365000", "140854.825000", "140855.285000", "140855.745000", "140856.205000", "140856.665000", "140857.125000", "140857.585000", "140858.045000", "140858.505000", "140858.965000", "140859.425000", "140859.885000", "140900.345000", "140900.805000", "140901.265000", "140901.725000", "140902.185000", "140902.645000", "140903.105000", "140903.565000", "140904.025000", "140904.485000", "140904.945000", "140905.405000", "140905.865000", "140906.325000", "140906.785000", "140907.245000", "140907.705000", "140908.165000", "140908.625000", "140909.085000", "140909.545000", "140910.005000", "140910.465000", "140910.925000", "140911.385000", "140911.845000", "140912.305000", "140912.765000", "140913.225000", "140913.685000", "140914.145000", "140914.605000", "140915.065000", "140915.525000", "140915.985000", "140916.445000", "140916.905000", "140917.365000", "140917.825000", "140918.285000", "140918.745000", "140919.205000", "140919.665000", "140920.125000", "140920.585000", "140921.045000", "140921.505000", "140921.965000", "140922.425000", "140922.885000", "140923.345000", "140923.805000", "140924.265000", "140924.725000", "140925.185000", "140925.645000", "140926.105000", "140926.565000", "140927.025000", "140927.485000", "140927.945000", "140928.405000", "140928.865000", "140929.325000", "140929.785000", "140930.245000", "140930.705000", "140931.165000", "140931.625000", "140932.085000", "140932.545000", "140933.005000", "140933.465000", "140933.925000", "140934.385000", "140934.845000", "140935.305000", "140935.765000", "140936.225000", "140936.685000", "140937.145000", "140937.605000", "140938.065000", "140938.525000", "140938.985000", "140939.445000", "140939.905000", "140940.365000", "140940.825000", "140941.285000", "140941.745000", "140942.205000", "140942.665000", "140943.125000", "140943.585000", "140944.045000", "140944.505000", "140944.965000", "140945.425000", "140945.885000", "140946.345000", "140946.805000", "140947.265000", "140947.725000", "140948.185000", "140948.645000", "140949.105000", "140949.565000", "140950.025000", "140950.485000", "140950.945000", "140951.405000", "140951.865000", "140952.325000", "140952.785000", "140953.245000", "140953.705000", "140954.165000", "140954.625000", "140955.085000", "140955.545000", "140956.005000", "140956.465000", "140956.925000", "140957.385000", "140957.845000", "140958.305000", "140958.765000", "140959.225000", "140959.685000", "141000.145000", "141000.605000", "141001.065000", "141001.525000", "141001.985000", "141002.445000", "141002.905000", "141003.365000", "141003.825000", "141004.285000", "141004.745000", "141005.205000", "141005.665000", "141006.125000", "141006.585000", "141007.045000", "141007.505000", "141007.965000", "141008.425000", "141008.885000", "141009.345000", "141009.805000", "141010.265000", "141010.725000", "141011.185000", "141011.645000", "141012.105000", "141012.565000", "141013.025000", "141013.485000", "141013.945000", "141014.405000", "141014.865000", "141015.325000", "141015.785000", "141016.245000"],
