{
  "AcquisitionMatrixPE": 82,
  "AcquisitionNumber": 1,
  "AcquisitionTime": "14:51:21.925000",
  "BandwidthPerPixelPhaseEncode": 24.888,
  "BaseResolution": 82,
  "BodyPartExamined": "BRAIN",
  "ConsistencyInfo": "N4_VE11E_LATEST_20181129",
  "ConversionSoftware": "dcm2niix",
  "ConversionSoftwareVersion": "v1.0.20201102",
  "DerivedVendorReportedEchoSpacing": 0.00049,
  "DeviceSerialNumber": "66112",
  "DwellTime": 2e-06,
  "EchoTime": 0.0272,
  "EchoTrainLength": 82,
  "EffectiveEchoSpacing": 0.00049,
  "FlipAngle": 44,
  "ImageComments": "Unaliased MB8/PE3",
  "ImageOrientationPatientDICOM": [0.999783, 0.0174232, 0.0114601, -0.0165786, 0.997405, -0.0700651],
  "ImageType": [
    "ORIGINAL",
    "PRIMARY",
    "M",
    "MB",
    "ND",
    "NORM",
    "MOSAIC"
],
  "ImagingFrequency": 123.252,
  "InPlanePhaseEncodingDirectionDICOM": "COL",
  "InstitutionAddress": "Maynard 3,Hanover,NH,US,03755",
  "InstitutionName": "Dartmouth College - PBS",
  "InstitutionalDepartmentName": "Department",
  "MRAcquisitionType": "2D",
  "MagneticFieldStrength": 3,
  "Manufacturer": "Siemens",
  "ManufacturersModelName": "Prisma",
  "Modality": "MR",
  "MultibandAccelerationFactor": 8,
  "PartialFourier": 1,
  "PatientPosition": "HFS",
  "PercentPhaseFOV": 100,
  "PercentSampling": 100,
  "PhaseEncodingDirection": "j-",
  "PhaseEncodingSteps": 82,
  "PhaseResolution": 1,
  "PixelBandwidth": 3050,
  "ProcedureStepDescription": "Wager_Wager^1076_spacetop",
  "ProtocolName": "func_run-05_task-social_acq-ap-mb8",
  "PulseSequenceDetails": "%CustomerSeq%\\cmrr_mbep2d_bold",
  "ReceiveCoilActiveElements": "HEA;HEP",
  "ReceiveCoilName": "Head_32",
  "ReconMatrixPE": 82,
  "RepetitionTime": 0.46,
  "SAR": 0.10038,
  "ScanOptions": "FS",
  "ScanningSequence": "EP",
  "SequenceName": "epfid2d1_82",
  "SequenceVariant": "SK\\SS",
  "SeriesDescription": "func_run-05_task-social_acq-ap-mb8",
  "SeriesNumber": 20,
  "ShimSetting": [4165, -7708, -7238, 522, -14, -118, -29, 73],
  "SliceThickness": 2.7,
  "SliceTiming": [0, 0.2525, 0.0625, 0.315, 0.125, 0.3775, 0.1875, 0, 0.2525, 0.0625, 0.315, 0.125, 0.3775, 0.1875, 0, 0.2525, 0.0625, 0.315, 0.125, 0.3775, 0.1875, 0, 0.2525, 0.0625, 0.315, 0.125, 0.3775, 0.1875, 0, 0.2525, 0.0625, 0.315, 0.125, 0.3775, 0.1875, 0, 0.2525, 0.0625, 0.315, 0.125, 0.3775, 0.1875, 0, 0.2525, 0.0625, 0.315, 0.125, 0.3775, 0.1875, 0, 0.2525, 0.0625, 0.315, 0.125, 0.3775, 0.1875],
  "SoftwareVersions": "syngo MR E11",
  "SpacingBetweenSlices": 2.7,
  "StationName": "AWP66112",
  "TaskName": "social",
  "TotalReadoutTime": 0.03969,
  "TxRefAmp": 259.274,
  "WipMemBlock": "86ee6f45-94b3-4b01-ba29-2b8400481788||Sequence: R016 ve11e/master r/434b28f1; Aug  7 2019 18:53:46 by eja",
  "dcmmeta_affine": [
    [-2.6823434829711914, -0.04447918012738228, 0.034158047288656235, 114.17583465576172],
    [-0.046745091676712036, 2.6759636402130127, -0.18862159550189972, -83.30810546875],
    [0.03074665181338787, 0.18797948956489563, 2.6931867599487305, -72.12518310546875],
    [0.0, 0.0, 0.0, 1.0]
],
  "dcmmeta_reorient_transform": [
    [0.0, -1.0, 0.0, 81.0],
    [1.0, 0.0, 0.0, 0.0],
    [0.0, 0.0, 1.0, 0.0],
    [0.0, 0.0, 0.0, 1.0]
],
  "dcmmeta_shape": [82, 82, 56, 872],
  "dcmmeta_slice_dim": 2,
  "dcmmeta_version": 0.6,
  "global": {
    "const": {
      "AccessionNumber": "A003951",
      "AcquisitionMatrix": [82, 0, 0, 82],
      "AngioFlag": "N",
      "BitsAllocated": 16,
      "BitsStored": 16,
      "BodyPartExamined": "BRAIN",
      "Columns": 656,
      "EchoNumbers": 1,
      "EchoTime": 27.2,
      "EchoTrainLength": 82,
      "FlipAngle": 44.0,
      "HighBit": 15,
      "ImageOrientationPatient": [0.9997825257952, 0.01742317051793, 0.01146011534314, -0.0165786027694, 0.9974046491515, -0.0700650824675],
      "ImagePositionPatient": [-867.64006353026, -914.86239878023, -11.773018020761],
      "ImageType": [
        "ORIGINAL",
        "PRIMARY",
        "M",
        "MB",
        "ND",
        "NORM",
        "MOSAIC"
],
      "ImagedNucleus": "1H",
      "ImagingFrequency": 123.252172,
      "InPlanePhaseEncodingDirection": "COL",
      "MRAcquisitionType": "2D",
      "MagneticFieldStrength": 3.0,
      "Manufacturer": "SIEMENS",
      "ManufacturerModelName": "Prisma",
      "Modality": "MR",
      "NumberOfAverages": 1.0,
      "NumberOfPhaseEncodingSteps": 82,
      "PercentPhaseFieldOfView": 100.0,
      "PercentSampling": 100.0,
      "PerformedProcedureStepStartTime": "135106.012000",
      "PhotometricInterpretation": "MONOCHROME2",
      "PixelBandwidth": 3050.0,
      "PixelRepresentation": 0,
      "PixelSpacing": [2.6829268932343, 2.6829268932343],
      "ProtocolName": "func_run-05_task-social_acq-ap-mb8",
      "RepetitionTime": 460.0,
      "Rows": 656,
      "SAR": 0.10037959441235,
      "SamplesPerPixel": 1,
      "ScanOptions": "FS",
      "ScanningSequence": "EP",
      "SequenceName": "epfid2d1_82",
      "SequenceVariant": [
        "SK",
        "SS"
],
      "SeriesDescription": "func_run-05_task-social_acq-ap-mb8",
      "SeriesNumber": 20,
      "SeriesTime": "145138.563000",
      "SliceLocation": -64.67883636919,
      "SliceThickness": 2.7000000476837,
      "SmallestImagePixelValue": 0,
      "SoftwareVersions": "syngo MR E11",
      "SpacingBetweenSlices": 2.7000000161064,
      "SpecificCharacterSet": "ISO_IR 100",
      "StudyID": "1",
      "StudyTime": "135105.965000",
      "TransmitCoilName": "Body",
      "VariableFlipAngleFlag": "N",
      "WindowCenterWidthExplanation": "Algo1"
    },
    "slices": {}
  },
  "time": {
    "samples": {
      "AcquisitionNumber": [1, 2, 3, 4, 5, 6, 7, 8, 9, 10, 11, 12, 13, 14, 15, 16, 17, 18, 19, 20, 21, 22, 23, 24, 25, 26, 27, 28, 29, 30, 31, 32, 33, 34, 35, 36, 37, 38, 39, 40, 41, 42, 43, 44, 45, 46, 47, 48, 49, 50, 51, 52, 53, 54, 55, 56, 57, 58, 59, 60, 61, 62, 63, 64, 65, 66, 67, 68, 69, 70, 71, 72, 73, 74, 75, 76, 77, 78, 79, 80, 81, 82, 83, 84, 85, 86, 87, 88, 89, 90, 91, 92, 93, 94, 95, 96, 97, 98, 99, 100, 101, 102, 103, 104, 105, 106, 107, 108, 109, 110, 111, 112, 113, 114, 115, 116, 117, 118, 119, 120, 121, 122, 123, 124, 125, 126, 127, 128, 129, 130, 131, 132, 133, 134, 135, 136, 137, 138, 139, 140, 141, 142, 143, 144, 145, 146, 147, 148, 149, 150, 151, 152, 153, 154, 155, 156, 157, 158, 159, 160, 161, 162, 163, 164, 165, 166, 167, 168, 169, 170, 171, 172, 173, 174, 175, 176, 177, 178, 179, 180, 181, 182, 183, 184, 185, 186, 187, 188, 189, 190, 191, 192, 193, 194, 195, 196, 197, 198, 199, 200, 201, 202, 203, 204, 205, 206, 207, 208, 209, 210, 211, 212, 213, 214, 215, 216, 217, 218, 219, 220, 221, 222, 223, 224, 225, 226, 227, 228, 229, 230, 231, 232, 233, 234, 235, 236, 237, 238, 239, 240, 241, 242, 243, 244, 245, 246, 247, 248, 249, 250, 251, 252, 253, 254, 255, 256, 257, 258, 259, 260, 261, 262, 263, 264, 265, 266, 267, 268, 269, 270, 271, 272, 273, 274, 275, 276, 277, 278, 279, 280, 281, 282, 283, 284, 285, 286, 287, 288, 289, 290, 291, 292, 293, 294, 295, 296, 297, 298, 299, 300, 301, 302, 303, 304, 305, 306, 307, 308, 309, 310, 311, 312, 313, 314, 315, 316, 317, 318, 319, 320, 321, 322, 323, 324, 325, 326, 327, 328, 329, 330, 331, 332, 333, 334, 335, 336, 337, 338, 339, 340, 341, 342, 343, 344, 345, 346, 347, 348, 349, 350, 351, 352, 353, 354, 355, 356, 357, 358, 359, 360, 361, 362, 363, 364, 365, 366, 367, 368, 369, 370, 371, 372, 373, 374, 375, 376, 377, 378, 379, 380, 381, 382, 383, 384, 385, 386, 387, 388, 389, 390, 391, 392, 393, 394, 395, 396, 397, 398, 399, 400, 401, 402, 403, 404, 405, 406, 407, 408, 409, 410, 411, 412, 413, 414, 415, 416, 417, 418, 419, 420, 421, 422, 423, 424, 425, 426, 427, 428, 429, 430, 431, 432, 433, 434, 435, 436, 437, 438, 439, 440, 441, 442, 443, 444, 445, 446, 447, 448, 449, 450, 451, 452, 453, 454, 455, 456, 457, 458, 459, 460, 461, 462, 463, 464, 465, 466, 467, 468, 469, 470, 471, 472, 473, 474, 475, 476, 477, 478, 479, 480, 481, 482, 483, 484, 485, 486, 487, 488, 489, 490, 491, 492, 493, 494, 495, 496, 497, 498, 499, 500, 501, 502, 503, 504, 505, 506, 507, 508, 509, 510, 511, 512, 513, 514, 515, 516, 517, 518, 519, 520, 521, 522, 523, 524, 525, 526, 527, 528, 529, 530, 531, 532, 533, 534, 535, 536, 537, 538, 539, 540, 541, 542, 543, 544, 545, 546, 547, 548, 549, 550, 551, 552, 553, 554, 555, 556, 557, 558, 559, 560, 561, 562, 563, 564, 565, 566, 567, 568, 569, 570, 571, 572, 573, 574, 575, 576, 577, 578, 579, 580, 581, 582, 583, 584, 585, 586, 587, 588, 589, 590, 591, 592, 593, 594, 595, 596, 597, 598, 599, 600, 601, 602, 603, 604, 605, 606, 607, 608, 609, 610, 611, 612, 613, 614, 615, 616, 617, 618, 619, 620, 621, 622, 623, 624, 625, 626, 627, 628, 629, 630, 631, 632, 633, 634, 635, 636, 637, 638, 639, 640, 641, 642, 643, 644, 645, 646, 647, 648, 649, 650, 651, 652, 653, 654, 655, 656, 657, 658, 659, 660, 661, 662, 663, 664, 665, 666, 667, 668, 669, 670, 671, 672, 673, 674, 675, 676, 677, 678, 679, 680, 681, 682, 683, 684, 685, 686, 687, 688, 689, 690, 691, 692, 693, 694, 695, 696, 697, 698, 699, 700, 701, 702, 703, 704, 705, 706, 707, 708, 709, 710, 711, 712, 713, 714, 715, 716, 717, 718, 719, 720, 721, 722, 723, 724, 725, 726, 727, 728, 729, 730, 731, 732, 733, 734, 735, 736, 737, 738, 739, 740, 741, 742, 743, 744, 745, 746, 747, 748, 749, 750, 751, 752, 753, 754, 755, 756, 757, 758, 759, 760, 761, 762, 763, 764, 765, 766, 767, 768, 769, 770, 771, 772, 773, 774, 775, 776, 777, 778, 779, 780, 781, 782, 783, 784, 785, 786, 787, 788, 789, 790, 791, 792, 793, 794, 795, 796, 797, 798, 799, 800, 801, 802, 803, 804, 805, 806, 807, 808, 809, 810, 811, 812, 813, 814, 815, 816, 817, 818, 819, 820, 821, 822, 823, 824, 825, 826, 827, 828, 829, 830, 831, 832, 833, 834, 835, 836, 837, 838, 839, 840, 841, 842, 843, 844, 845, 846, 847, 848, 849, 850, 851, 852, 853, 854, 855, 856, 857, 858, 859, 860, 861, 862, 863, 864, 865, 866, 867, 868, 869, 870, 871, 872],
      "AcquisitionTime": ["145121.925000", "145122.385000", "145122.845000", "145123.305000", "145123.765000", "145124.225000", "145124.685000", "145125.145000", "145125.605000", "145126.065000", "145126.525000", "145126.985000", "145127.445000", "145127.905000", "145128.365000", "145128.825000", "145129.285000", "145129.745000", "145130.205000", "145130.665000", "145131.125000", "145131.585000", "145132.045000", "145132.505000", "145132.965000", "145133.425000", "145133.885000", "145134.345000", "145134.805000", "145135.265000", "145135.725000", "145136.185000", "145136.645000", "145137.105000", "145137.565000", "145138.025000", "145138.485000", "145138.945000", "145139.405000", "145139.865000", "145140.325000", "145140.785000", "145141.245000", "145141.705000", "145142.165000", "145142.625000", "145143.085000", "145143.545000", "145144.005000", "145144.465000", "145144.925000", "145145.385000", "145145.845000", "145146.305000", "145146.765000", "145147.225000", "145147.685000", "145148.145000", "145148.605000", "145149.065000", "145149.525000", "145149.985000", "145150.445000", "145150.905000", "145151.365000", "145151.825000", "145152.285000", "145152.745000", "145153.205000", "145153.665000", "145154.125000", "145154.585000", "145155.045000", "145155.505000", "145155.965000", "145156.425000", "145156.885000", "145157.345000", "145157.805000", "145158.265000", "145158.725000", "145159.185000", "145159.645000", "145200.105000", "145200.565000", "145201.025000", "145201.485000", "145201.945000", "145202.405000", "145202.865000", "145203.325000", "145203.785000", "145204.245000", "145204.705000", "145205.165000", "145205.625000", "145206.085000", "145206.545000", "145207.005000", "145207.465000", "145207.925000", "145208.385000", "145208.845000", "145209.305000", "145209.765000", "145210.225000", "145210.685000", "145211.145000", "145211.605000", "145212.065000", "145212.525000", "145212.985000", "145213.445000", "145213.905000", "145214.365000", "145214.825000", "145215.285000", "145215.745000", "145216.205000", "145216.665000", "145217.125000", "145217.585000", "145218.045000", "145218.505000", "145218.965000", "145219.425000", "145219.885000", "145220.345000", "145220.805000", "145221.265000", "145221.725000", "145222.185000", "145222.645000", "145223.105000", "145223.565000", "145224.025000", "145224.485000", "145224.945000", "145225.405000", "145225.865000", "145226.325000", "145226.785000", "145227.245000", "145227.705000", "145228.165000", "145228.625000", "145229.085000", "145229.545000", "145230.005000", "145230.465000", "145230.925000", "145231.385000", "145231.845000", "145232.305000", "145232.765000", "145233.225000", "145233.685000", "145234.145000", "145234.605000", "145235.065000", "145235.525000", "145235.985000", "145236.445000", "145236.905000", "145237.365000", "145237.825000", "145238.285000", "145238.745000", "145239.205000", "145239.665000", "145240.125000", "145240.585000", "145241.045000", "145241.505000", "145241.965000", "145242.425000", "145242.885000", "145243.345000", "145243.805000", "145244.265000", "145244.725000", "145245.185000", "145245.645000", "145246.105000", "145246.565000", "145247.025000", "145247.485000", "145247.945000", "145248.405000", "145248.865000", "145249.325000", "145249.785000", "145250.245000", "145250.705000", "145251.165000", "145251.625000", "145252.085000", "145252.545000", "145253.005000", "145253.465000", "145253.925000", "145254.385000", "145254.845000", "145255.305000", "145255.765000", "145256.225000", "145256.685000", "145257.145000", "145257.605000", "145258.065000", "145258.525000", "145258.985000", "145259.445000", "145259.905000", "145300.365000", "145300.825000", "145301.285000", "145301.745000", "145302.205000", "145302.665000", "145303.125000", "145303.585000", "145304.045000", "145304.505000", "145304.965000", "145305.425000", "145305.885000", "145306.345000", "145306.805000", "145307.265000", "145307.725000", "145308.185000", "145308.645000", "145309.105000", "145309.565000", "145310.025000", "145310.485000", "145310.945000", "145311.405000", "145311.865000", "145312.325000", "145312.785000", "145313.245000", "145313.705000", "145314.165000", "145314.625000", "145315.085000", "145315.545000", "145316.005000", "145316.465000", "145316.925000", "145317.385000", "145317.845000", "145318.305000", "145318.765000", "145319.225000", "145319.685000", "145320.145000", "145320.605000", "145321.065000", "145321.525000", "145321.985000", "145322.445000", "145322.905000", "145323.365000", "145323.825000", "145324.285000", "145324.745000", "145325.205000", "145325.665000", "145326.125000", "145326.585000", "145327.045000", "145327.505000", "145327.965000", "145328.425000", "145328.885000", "145329.345000", "145329.805000", "145330.265000", "145330.725000", "145331.185000", "145331.645000", "145332.105000", "145332.565000", "145333.025000", "145333.485000", "145333.945000", "145334.405000", "145334.865000", "145335.325000", "145335.785000", "145336.245000", "145336.705000", "145337.165000", "145337.625000", "145338.085000", "145338.545000", "145339.005000", "145339.465000", "145339.925000", "145340.385000", "145340.845000", "145341.305000", "145341.765000", "145342.225000", "145342.685000", "145343.145000", "145343.605000", "145344.065000", "145344.525000", "145344.985000", "145345.445000", "145345.905000", "145346.365000", "145346.825000", "145347.285000", "145347.745000", "145348.205000", "145348.665000", "145349.125000", "145349.585000", "145350.045000", "145350.505000", "145350.965000", "145351.425000", "145351.885000", "145352.345000", "145352.805000", "145353.265000", "145353.725000", "145354.185000", "145354.645000", "145355.105000", "145355.565000", "145356.025000", "145356.485000", "145356.945000", "145357.405000", "145357.865000", "145358.325000", "145358.785000", "145359.245000", "145359.705000", "145400.165000", "145400.625000", "145401.085000", "145401.545000", "145402.005000", "145402.465000", "145402.925000", "145403.385000", "145403.845000", "145404.305000", "145404.765000", "145405.225000", "145405.685000", "145406.145000", "145406.605000", "145407.065000", "145407.525000", "145407.985000", "145408.445000", "145408.905000", "145409.365000", "145409.825000", "145410.285000", "145410.745000", "145411.205000", "145411.665000", "145412.125000", "145412.585000", "145413.045000", "145413.505000", "145413.965000", "145414.425000", "145414.885000", "145415.345000", "145415.805000", "145416.265000", "145416.725000", "145417.185000", "145417.645000", "145418.105000", "145418.565000", "145419.025000", "145419.485000", "145419.945000", "145420.405000", "145420.865000", "145421.325000", "145421.785000", "145422.245000", "145422.705000", "145423.165000", "145423.625000", "145424.085000", "145424.545000", "145425.005000", "145425.465000", "145425.925000", "145426.385000", "145426.845000", "145427.305000", "145427.765000", "145428.225000", "145428.685000", "145429.145000", "145429.605000", "145430.065000", "145430.525000", "145430.985000", "145431.445000", "145431.905000", "145432.365000", "145432.825000", "145433.285000", "145433.745000", "145434.205000", "145434.665000", "145435.125000", "145435.585000", "145436.045000", "145436.505000", "145436.965000", "145437.425000", "145437.885000", "145438.345000", "145438.805000", "145439.265000", "145439.725000", "145440.185000", "145440.645000", "145441.105000", "145441.565000", "145442.025000", "145442.485000", "145442.945000", "145443.405000", "145443.865000", "145444.325000", "145444.785000", "145445.245000", "145445.705000", "145446.165000", "145446.625000", "145447.085000", "145447.545000", "145448.005000", "145448.465000", "145448.925000", "145449.385000", "145449.845000", "145450.305000", "145450.765000", "145451.225000", "145451.685000", "145452.145000", "145452.605000", "145453.065000", "145453.525000", "145453.985000", "145454.445000", "145454.905000", "145455.365000", "145455.825000", "145456.285000", "145456.745000", "145457.205000", "145457.665000", "145458.125000", "145458.585000", "145459.045000", "145459.505000", "145459.965000", "145500.425000", "145500.885000", "145501.345000", "145501.805000", "145502.265000", "145502.725000", "145503.185000", "145503.645000", "145504.105000", "145504.565000", "145505.025000", "145505.485000", "145505.945000", "145506.405000", "145506.865000", "145507.325000", "145507.785000", "145508.245000", "145508.705000", "145509.165000", "145509.625000", "145510.085000", "145510.545000", "145511.005000", "145511.465000", "145511.925000", "145512.385000", "145512.845000", "145513.305000", "145513.765000", "145514.225000", "145514.685000", "145515.145000", "145515.605000", "145516.065000", "145516.525000", "145516.985000", "145517.445000", "145517.905000", "145518.365000", "145518.825000", "145519.285000", "145519.745000", "145520.205000", "145520.665000", "145521.125000", "145521.585000", "145522.045000", "145522.505000", "145522.965000", "145523.425000", "145523.885000", "145524.345000", "145524.805000", "145525.265000", "145525.725000", "145526.185000", "145526.645000", "145527.105000", "145527.565000", "145528.025000", "145528.485000", "145528.945000", "145529.405000", "145529.865000", "145530.325000", "145530.785000", "145531.245000", "145531.705000", "145532.165000", "145532.625000", "145533.085000", "145533.545000", "145534.005000", "145534.465000", "145534.925000", "145535.385000", "145535.845000", "145536.305000", "145536.765000", "145537.225000", "145537.685000", "145538.145000", "145538.605000", "145539.065000", "145539.525000", "145539.985000", "145540.445000", "145540.905000", "145541.365000", "145541.825000", "145542.285000", "145542.745000", "145543.205000", "145543.665000", "145544.125000", "145544.585000", "145545.045000", "145545.505000", "145545.965000", "145546.425000", "145546.885000", "145547.345000", "145547.805000", "145548.265000", "145548.725000", "145549.185000", "145549.645000", "145550.105000", "145550.565000", "145551.025000", "145551.485000", "145551.945000", "145552.405000", "145552.865000", "145553.325000", "145553.785000", "145554.245000", "145554.705000", "145555.165000", "145555.625000", "145556.085000", "145556.545000", "145557.005000", "145557.465000", "145557.925000", "145558.385000", "145558.845000", "145559.305000", "145559.765000", "145600.225000", "145600.685000", "145601.145000", "145601.605000", "145602.065000", "145602.525000", "145602.985000", "145603.445000", "145603.905000", "145604.365000", "145604.825000", "145605.285000", "145605.745000", "145606.205000", "145606.665000", "145607.125000", "145607.585000", "145608.045000", "145608.505000", "145608.965000", "145609.425000", "145609.885000", "145610.345000", "145610.805000", "145611.265000", "145611.725000", "145612.185000", "145612.645000", "145613.105000", "145613.565000", "145614.025000", "145614.485000", "145614.945000", "145615.405000", "145615.865000", "145616.325000", "145616.785000", "145617.245000", "145617.705000", "145618.165000", "145618.625000", "145619.085000", "145619.545000", "145620.005000", "145620.465000", "145620.925000", "145621.385000", "145621.845000", "145622.305000", "145622.765000", "145623.225000", "145623.685000", "145624.145000", "145624.605000", "145625.065000", "145625.525000", "145625.985000", "145626.445000", "145626.905000", "145627.365000", "145627.825000", "145628.285000", "145628.745000", "145629.205000", "145629.665000", "145630.125000", "145630.585000", "145631.045000", "145631.505000", "145631.965000", "145632.425000", "145632.885000", "145633.345000", "145633.805000", "145634.265000", "145634.725000", "145635.185000", "145635.645000", "145636.105000", "145636.565000", "145637.025000", "145637.485000", "145637.945000", "145638.405000", "145638.865000", "145639.325000", "145639.785000", "145640.245000", "145640.705000", "145641.165000", "145641.625000", "145642.085000", "145642.545000", "145643.005000", "145643.465000", "145643.925000", "145644.385000", "145644.845000", "145645.305000", "145645.765000", "145646.225000", "145646.685000", "145647.145000", "145647.605000", "145648.065000", "145648.525000", "145648.985000", "145649.445000", "145649.905000", "145650.365000", "145650.825000", "145651.285000", "145651.745000", "145652.205000", "145652.665000", "145653.125000", "145653.585000", "145654.045000", "145654.505000", "145654.965000", "145655.425000", "145655.885000", "145656.345000", "145656.805000", "145657.265000", "145657.725000", "145658.185000", "145658.645000", "145659.105000", "145659.565000", "145700.025000", "145700.485000", "145700.945000", "145701.405000", "145701.865000", "145702.325000", "145702.785000", "145703.245000", "145703.705000", "145704.165000", "145704.625000", "145705.085000", "145705.545000", "145706.005000", "145706.465000", "145706.925000", "145707.385000", "145707.845000", "145708.305000", "145708.765000", "145709.225000", "145709.685000", "145710.145000", "145710.605000", "145711.065000", "145711.525000", "145711.985000", "145712.445000", "145712.905000", "145713.365000", "145713.825000", "145714.285000", "145714.745000", "145715.205000", "145715.665000", "145716.125000", "145716.585000", "145717.045000", "145717.505000", "145717.965000", "145718.425000", "145718.885000", "145719.345000", "145719.805000", "145720.265000", "145720.725000", "145721.185000", "145721.645000", "145722.105000", "145722.565000", "145723.025000", "145723.485000", "145723.945000", "145724.405000", "145724.865000", "145725.325000", "145725.785000", "145726.245000", "145726.705000", "145727.165000", "145727.625000", "145728.085000", "145728.545000", "145729.005000", "145729.465000", "145729.925000", "145730.385000", "145730.845000", "145731.305000", "145731.765000", "145732.225000", "145732.685000", "145733.145000", "145733.605000", "145734.065000", "145734.525000", "145734.985000", "145735.445000", "145735.905000", "145736.365000", "145736.825000", "145737.285000", "145737.745000", "145738.205000", "145738.665000", "145739.125000", "145739.585000", "145740.045000", "145740.505000", "145740.965000", "145741.425000", "145741.885000", "145742.345000", "145742.805000", "145743.265000", "145743.725000", "145744.185000", "145744.645000", "145745.105000", "145745.565000", "145746.025000", "145746.485000", "145746.945000", "145747.405000", "145747.865000", "145748.325000", "145748.785000", "145749.245000", "145749.705000", "145750.165000", "145750.625000", "145751.085000", "145751.545000", "145752.005000", "145752.465000", "145752.925000", "145753.385000", "145753.845000", "145754.305000", "145754.765000", "145755.225000", "145755.685000", "145756.145000", "145756.605000", "145757.065000", "145757.525000", "145757.985000", "145758.445000", "145758.905000", "145759.365000", "145759.825000", "145800.285000", "145800.745000", "145801.205000", "145801.665000", "145802.125000", "145802.585000"],
