{
  "AcquisitionMatrixPE": 82,
  "AcquisitionNumber": 1,
  "AcquisitionTime": "14:44:22.620000",
  "BandwidthPerPixelPhaseEncode": 24.888,
  "BaseResolution": 82,
  "BodyPartExamined": "BRAIN",
  "ConsistencyInfo": "N4_VE11E_LATEST_20181129",
  "ConversionSoftware": "dcm2niix",
  "ConversionSoftwareVersion": "v1.0.20201102",
  "DerivedVendorReportedEchoSpacing": 0.00049,
  "DeviceSerialNumber": "66112",
  "DwellTime": 2e-06,
  "EchoTime": 0.0272,
  "EchoTrainLength": 82,
  "EffectiveEchoSpacing": 0.00049,
  "FlipAngle": 44,
  "ImageComments": "Unaliased MB8/PE3",
  "ImageOrientationPatientDICOM": [0.999783, 0.0174232, 0.0114601, -0.0165786, 0.997405, -0.0700651],
  "ImageType": [
    "ORIGINAL",
    "PRIMARY",
    "M",
    "MB",
    "ND",
    "NORM",
    "MOSAIC"
],
  "ImagingFrequency": 123.252,
  "InPlanePhaseEncodingDirectionDICOM": "COL",
  "InstitutionAddress": "Maynard 3,Hanover,NH,US,03755",
  "InstitutionName": "Dartmouth College - PBS",
  "InstitutionalDepartmentName": "Department",
  "MRAcquisitionType": "2D",
  "MagneticFieldStrength": 3,
  "Manufacturer": "Siemens",
  "ManufacturersModelName": "Prisma",
  "Modality": "MR",
  "MultibandAccelerationFactor": 8,
  "PartialFourier": 1,
  "PatientPosition": "HFS",
  "PercentPhaseFOV": 100,
  "PercentSampling": 100,
  "PhaseEncodingDirection": "j-",
  "PhaseEncodingSteps": 82,
  "PhaseResolution": 1,
  "PixelBandwidth": 3050,
  "ProcedureStepDescription": "Wager_Wager^1076_spacetop",
  "ProtocolName": "func_run-04_task-social_acq-ap-mb8",
  "PulseSequenceDetails": "%CustomerSeq%\\cmrr_mbep2d_bold",
  "ReceiveCoilActiveElements": "HEA;HEP",
  "ReceiveCoilName": "Head_32",
  "ReconMatrixPE": 82,
  "RepetitionTime": 0.46,
  "SAR": 0.10038,
  "ScanOptions": "FS",
  "ScanningSequence": "EP",
  "SequenceName": "epfid2d1_82",
  "SequenceVariant": "SK\\SS",
  "SeriesDescription": "func_run-04_task-social_acq-ap-mb8",
  "SeriesNumber": 18,
  "ShimSetting": [4165, -7708, -7238, 522, -14, -118, -29, 73],
  "SliceThickness": 2.7,
  "SliceTiming": [0, 0.25, 0.0625, 0.3125, 0.125, 0.3775, 0.1875, 0, 0.25, 0.0625, 0.3125, 0.125, 0.3775, 0.1875, 0, 0.25, 0.0625, 0.3125, 0.125, 0.3775, 0.1875, 0, 0.25, 0.0625, 0.3125, 0.125, 0.3775, 0.1875, 0, 0.25, 0.0625, 0.3125, 0.125, 0.3775, 0.1875, 0, 0.25, 0.0625, 0.3125, 0.125, 0.3775, 0.1875, 0, 0.25, 0.0625, 0.3125, 0.125, 0.3775, 0.1875, 0, 0.25, 0.0625, 0.3125, 0.125, 0.3775, 0.1875],
  "SoftwareVersions": "syngo MR E11",
  "SpacingBetweenSlices": 2.7,
  "StationName": "AWP66112",
  "TaskName": "social",
  "TotalReadoutTime": 0.03969,
  "TxRefAmp": 259.274,
  "WipMemBlock": "c834acf3-de7c-4070-848f-8ead12ab4e46||Sequence: R016 ve11e/master r/434b28f1; Aug  7 2019 18:53:46 by eja",
  "dcmmeta_affine": [
    [-2.6823434829711914, -0.04447918012738228, 0.034158047288656235, 114.17583465576172],
    [-0.046745091676712036, 2.6759636402130127, -0.18862159550189972, -83.30810546875],
    [0.03074665181338787, 0.18797948956489563, 2.6931867599487305, -72.12518310546875],
    [0.0, 0.0, 0.0, 1.0]
],
  "dcmmeta_reorient_transform": [
    [0.0, -1.0, 0.0, 81.0],
    [1.0, 0.0, 0.0, 0.0],
    [0.0, 0.0, 1.0, 0.0],
    [0.0, 0.0, 0.0, 1.0]
],
  "dcmmeta_shape": [82, 82, 56, 872],
  "dcmmeta_slice_dim": 2,
  "dcmmeta_version": 0.6,
  "global": {
    "const": {
      "AccessionNumber": "A003951",
      "AcquisitionMatrix": [82, 0, 0, 82],
      "AngioFlag": "N",
      "BitsAllocated": 16,
      "BitsStored": 16,
      "BodyPartExamined": "BRAIN",
      "Columns": 656,
      "EchoNumbers": 1,
      "EchoTime": 27.2,
      "EchoTrainLength": 82,
      "FlipAngle": 44.0,
      "HighBit": 15,
      "ImageOrientationPatient": [0.9997825257952, 0.01742317051793, 0.01146011534314, -0.0165786027694, 0.9974046491515, -0.0700650824675],
      "ImagePositionPatient": [-867.64006353026, -914.86239878023, -11.773018020761],
      "ImageType": [
        "ORIGINAL",
        "PRIMARY",
        "M",
        "MB",
        "ND",
        "NORM",
        "MOSAIC"
],
      "ImagedNucleus": "1H",
      "ImagingFrequency": 123.25217,
      "InPlanePhaseEncodingDirection": "COL",
      "MRAcquisitionType": "2D",
      "MagneticFieldStrength": 3.0,
      "Manufacturer": "SIEMENS",
      "ManufacturerModelName": "Prisma",
      "Modality": "MR",
      "NumberOfAverages": 1.0,
      "NumberOfPhaseEncodingSteps": 82,
      "PercentPhaseFieldOfView": 100.0,
      "PercentSampling": 100.0,
      "PerformedProcedureStepStartTime": "135106.012000",
      "PhotometricInterpretation": "MONOCHROME2",
      "PixelBandwidth": 3050.0,
      "PixelRepresentation": 0,
      "PixelSpacing": [2.6829268932343, 2.6829268932343],
      "ProtocolName": "func_run-04_task-social_acq-ap-mb8",
      "RepetitionTime": 460.0,
      "Rows": 656,
      "SAR": 0.10037959441235,
      "SamplesPerPixel": 1,
      "ScanOptions": "FS",
      "ScanningSequence": "EP",
      "SequenceName": "epfid2d1_82",
      "SequenceVariant": [
        "SK",
        "SS"
],
      "SeriesDescription": "func_run-04_task-social_acq-ap-mb8",
      "SeriesNumber": 18,
      "SeriesTime": "144438.490000",
      "SliceLocation": -64.67883636919,
      "SliceThickness": 2.7000000476837,
      "SmallestImagePixelValue": 0,
      "SoftwareVersions": "syngo MR E11",
      "SpacingBetweenSlices": 2.7000000161064,
      "SpecificCharacterSet": "ISO_IR 100",
      "StudyID": "1",
      "StudyTime": "135105.965000",
      "TransmitCoilName": "Body",
      "VariableFlipAngleFlag": "N",
      "WindowCenterWidthExplanation": "Algo1"
    },
    "slices": {}
  },
  "time": {
    "samples": {
      "AcquisitionNumber": [1, 2, 3, 4, 5, 6, 7, 8, 9, 10, 11, 12, 13, 14, 15, 16, 17, 18, 19, 20, 21, 22, 23, 24, 25, 26, 27, 28, 29, 30, 31, 32, 33, 34, 35, 36, 37, 38, 39, 40, 41, 42, 43, 44, 45, 46, 47, 48, 49, 50, 51, 52, 53, 54, 55, 56, 57, 58, 59, 60, 61, 62, 63, 64, 65, 66, 67, 68, 69, 70, 71, 72, 73, 74, 75, 76, 77, 78, 79, 80, 81, 82, 83, 84, 85, 86, 87, 88, 89, 90, 91, 92, 93, 94, 95, 96, 97, 98, 99, 100, 101, 102, 103, 104, 105, 106, 107, 108, 109, 110, 111, 112, 113, 114, 115, 116, 117, 118, 119, 120, 121, 122, 123, 124, 125, 126, 127, 128, 129, 130, 131, 132, 133, 134, 135, 136, 137, 138, 139, 140, 141, 142, 143, 144, 145, 146, 147, 148, 149, 150, 151, 152, 153, 154, 155, 156, 157, 158, 159, 160, 161, 162, 163, 164, 165, 166, 167, 168, 169, 170, 171, 172, 173, 174, 175, 176, 177, 178, 179, 180, 181, 182, 183, 184, 185, 186, 187, 188, 189, 190, 191, 192, 193, 194, 195, 196, 197, 198, 199, 200, 201, 202, 203, 204, 205, 206, 207, 208, 209, 210, 211, 212, 213, 214, 215, 216, 217, 218, 219, 220, 221, 222, 223, 224, 225, 226, 227, 228, 229, 230, 231, 232, 233, 234, 235, 236, 237, 238, 239, 240, 241, 242, 243, 244, 245, 246, 247, 248, 249, 250, 251, 252, 253, 254, 255, 256, 257, 258, 259, 260, 261, 262, 263, 264, 265, 266, 267, 268, 269, 270, 271, 272, 273, 274, 275, 276, 277, 278, 279, 280, 281, 282, 283, 284, 285, 286, 287, 288, 289, 290, 291, 292, 293, 294, 295, 296, 297, 298, 299, 300, 301, 302, 303, 304, 305, 306, 307, 308, 309, 310, 311, 312, 313, 314, 315, 316, 317, 318, 319, 320, 321, 322, 323, 324, 325, 326, 327, 328, 329, 330, 331, 332, 333, 334, 335, 336, 337, 338, 339, 340, 341, 342, 343, 344, 345, 346, 347, 348, 349, 350, 351, 352, 353, 354, 355, 356, 357, 358, 359, 360, 361, 362, 363, 364, 365, 366, 367, 368, 369, 370, 371, 372, 373, 374, 375, 376, 377, 378, 379, 380, 381, 382, 383, 384, 385, 386, 387, 388, 389, 390, 391, 392, 393, 394, 395, 396, 397, 398, 399, 400, 401, 402, 403, 404, 405, 406, 407, 408, 409, 410, 411, 412, 413, 414, 415, 416, 417, 418, 419, 420, 421, 422, 423, 424, 425, 426, 427, 428, 429, 430, 431, 432, 433, 434, 435, 436, 437, 438, 439, 440, 441, 442, 443, 444, 445, 446, 447, 448, 449, 450, 451, 452, 453, 454, 455, 456, 457, 458, 459, 460, 461, 462, 463, 464, 465, 466, 467, 468, 469, 470, 471, 472, 473, 474, 475, 476, 477, 478, 479, 480, 481, 482, 483, 484, 485, 486, 487, 488, 489, 490, 491, 492, 493, 494, 495, 496, 497, 498, 499, 500, 501, 502, 503, 504, 505, 506, 507, 508, 509, 510, 511, 512, 513, 514, 515, 516, 517, 518, 519, 520, 521, 522, 523, 524, 525, 526, 527, 528, 529, 530, 531, 532, 533, 534, 535, 536, 537, 538, 539, 540, 541, 542, 543, 544, 545, 546, 547, 548, 549, 550, 551, 552, 553, 554, 555, 556, 557, 558, 559, 560, 561, 562, 563, 564, 565, 566, 567, 568, 569, 570, 571, 572, 573, 574, 575, 576, 577, 578, 579, 580, 581, 582, 583, 584, 585, 586, 587, 588, 589, 590, 591, 592, 593, 594, 595, 596, 597, 598, 599, 600, 601, 602, 603, 604, 605, 606, 607, 608, 609, 610, 611, 612, 613, 614, 615, 616, 617, 618, 619, 620, 621, 622, 623, 624, 625, 626, 627, 628, 629, 630, 631, 632, 633, 634, 635, 636, 637, 638, 639, 640, 641, 642, 643, 644, 645, 646, 647, 648, 649, 650, 651, 652, 653, 654, 655, 656, 657, 658, 659, 660, 661, 662, 663, 664, 665, 666, 667, 668, 669, 670, 671, 672, 673, 674, 675, 676, 677, 678, 679, 680, 681, 682, 683, 684, 685, 686, 687, 688, 689, 690, 691, 692, 693, 694, 695, 696, 697, 698, 699, 700, 701, 702, 703, 704, 705, 706, 707, 708, 709, 710, 711, 712, 713, 714, 715, 716, 717, 718, 719, 720, 721, 722, 723, 724, 725, 726, 727, 728, 729, 730, 731, 732, 733, 734, 735, 736, 737, 738, 739, 740, 741, 742, 743, 744, 745, 746, 747, 748, 749, 750, 751, 752, 753, 754, 755, 756, 757, 758, 759, 760, 761, 762, 763, 764, 765, 766, 767, 768, 769, 770, 771, 772, 773, 774, 775, 776, 777, 778, 779, 780, 781, 782, 783, 784, 785, 786, 787, 788, 789, 790, 791, 792, 793, 794, 795, 796, 797, 798, 799, 800, 801, 802, 803, 804, 805, 806, 807, 808, 809, 810, 811, 812, 813, 814, 815, 816, 817, 818, 819, 820, 821, 822, 823, 824, 825, 826, 827, 828, 829, 830, 831, 832, 833, 834, 835, 836, 837, 838, 839, 840, 841, 842, 843, 844, 845, 846, 847, 848, 849, 850, 851, 852, 853, 854, 855, 856, 857, 858, 859, 860, 861, 862, 863, 864, 865, 866, 867, 868, 869, 870, 871, 872],
      "AcquisitionTime": ["144422.620000", "144423.080000", "144423.540000", "144424.000000", "144424.460000", "144424.920000", "144425.380000", "144425.840000", "144426.300000", "144426.760000", "144427.220000", "144427.680000", "144428.140000", "144428.600000", "144429.060000", "144429.520000", "144429.980000", "144430.440000", "144430.900000", "144431.360000", "144431.820000", "144432.280000", "144432.740000", "144433.200000", "144433.660000", "144434.120000", "144434.580000", "144435.040000", "144435.500000", "144435.960000", "144436.420000", "144436.880000", "144437.340000", "144437.800000", "144438.260000", "144438.720000", "144439.180000", "144439.640000", "144440.100000", "144440.560000", "144441.020000", "144441.480000", "144441.940000", "144442.400000", "144442.860000", "144443.320000", "144443.780000", "144444.240000", "144444.700000", "144445.160000", "144445.620000", "144446.080000", "144446.540000", "144447.000000", "144447.460000", "144447.920000", "144448.380000", "144448.840000", "144449.300000", "144449.760000", "144450.220000", "144450.680000", "144451.140000", "144451.600000", "144452.060000", "144452.520000", "144452.980000", "144453.440000", "144453.900000", "144454.360000", "144454.820000", "144455.280000", "144455.740000", "144456.200000", "144456.660000", "144457.120000", "144457.580000", "144458.040000", "144458.500000", "144458.960000", "144459.420000", "144459.880000", "144500.340000", "144500.800000", "144501.260000", "144501.720000", "144502.180000", "144502.640000", "144503.100000", "144503.560000", "144504.020000", "144504.480000", "144504.940000", "144505.400000", "144505.860000", "144506.320000", "144506.780000", "144507.240000", "144507.700000", "144508.160000", "144508.620000", "144509.080000", "144509.540000", "144510.000000", "144510.460000", "144510.920000", "144511.380000", "144511.840000", "144512.300000", "144512.760000", "144513.220000", "144513.680000", "144514.140000", "144514.600000", "144515.060000", "144515.520000", "144515.980000", "144516.440000", "144516.900000", "144517.360000", "144517.820000", "144518.280000", "144518.740000", "144519.200000", "144519.660000", "144520.120000", "144520.580000", "144521.040000", "144521.500000", "144521.960000", "144522.420000", "144522.880000", "144523.340000", "144523.800000", "144524.260000", "144524.720000", "144525.180000", "144525.640000", "144526.100000", "144526.560000", "144527.020000", "144527.480000", "144527.940000", "144528.400000", "144528.860000", "144529.320000", "144529.780000", "144530.240000", "144530.700000", "144531.160000", "144531.620000", "144532.080000", "144532.540000", "144533.000000", "144533.460000", "144533.920000", "144534.380000", "144534.840000", "144535.300000", "144535.760000", "144536.220000", "144536.680000", "144537.140000", "144537.600000", "144538.060000", "144538.520000", "144538.980000", "144539.440000", "144539.900000", "144540.360000", "144540.820000", "144541.280000", "144541.740000", "144542.200000", "144542.660000", "144543.120000", "144543.580000", "144544.040000", "144544.500000", "144544.960000", "144545.420000", "144545.880000", "144546.340000", "144546.800000", "144547.260000", "144547.720000", "144548.180000", "144548.640000", "144549.100000", "144549.560000", "144550.020000", "144550.480000", "144550.940000", "144551.400000", "144551.860000", "144552.320000", "144552.780000", "144553.240000", "144553.700000", "144554.160000", "144554.620000", "144555.080000", "144555.540000", "144556.000000", "144556.460000", "144556.920000", "144557.380000", "144557.840000", "144558.300000", "144558.760000", "144559.220000", "144559.680000", "144600.140000", "144600.600000", "144601.060000", "144601.520000", "144601.980000", "144602.440000", "144602.900000", "144603.360000", "144603.820000", "144604.280000", "144604.740000", "144605.200000", "144605.660000", "144606.120000", "144606.580000", "144607.040000", "144607.500000", "144607.960000", "144608.420000", "144608.880000", "144609.340000", "144609.800000", "144610.260000", "144610.720000", "144611.180000", "144611.640000", "144612.100000", "144612.560000", "144613.020000", "144613.480000", "144613.940000", "144614.400000", "144614.860000", "144615.320000", "144615.780000", "144616.240000", "144616.700000", "144617.160000", "144617.620000", "144618.080000", "144618.540000", "144619.000000", "144619.460000", "144619.920000", "144620.380000", "144620.840000", "144621.300000", "144621.760000", "144622.220000", "144622.680000", "144623.140000", "144623.600000", "144624.060000", "144624.520000", "144624.980000", "144625.440000", "144625.900000", "144626.360000", "144626.820000", "144627.280000", "144627.740000", "144628.200000", "144628.660000", "144629.120000", "144629.580000", "144630.040000", "144630.500000", "144630.960000", "144631.420000", "144631.880000", "144632.340000", "144632.800000", "144633.260000", "144633.720000", "144634.180000", "144634.640000", "144635.100000", "144635.560000", "144636.020000", "144636.480000", "144636.940000", "144637.400000", "144637.860000", "144638.320000", "144638.780000", "144639.240000", "144639.700000", "144640.160000", "144640.620000", "144641.080000", "144641.540000", "144642.000000", "144642.460000", "144642.920000", "144643.380000", "144643.840000", "144644.300000", "144644.760000", "144645.220000", "144645.680000", "144646.140000", "144646.600000", "144647.060000", "144647.520000", "144647.980000", "144648.440000", "144648.900000", "144649.360000", "144649.820000", "144650.280000", "144650.740000", "144651.200000", "144651.660000", "144652.120000", "144652.580000", "144653.040000", "144653.500000", "144653.960000", "144654.420000", "144654.880000", "144655.340000", "144655.800000", "144656.260000", "144656.720000", "144657.180000", "144657.640000", "144658.100000", "144658.560000", "144659.020000", "144659.480000", "144659.940000", "144700.400000", "144700.860000", "144701.320000", "144701.780000", "144702.240000", "144702.700000", "144703.160000", "144703.620000", "144704.080000", "144704.540000", "144705.000000", "144705.460000", "144705.920000", "144706.380000", "144706.840000", "144707.300000", "144707.760000", "144708.220000", "144708.680000", "144709.140000", "144709.600000", "144710.060000", "144710.520000", "144710.980000", "144711.440000", "144711.900000", "144712.360000", "144712.820000", "144713.280000", "144713.740000", "144714.200000", "144714.660000", "144715.120000", "144715.580000", "144716.040000", "144716.500000", "144716.960000", "144717.420000", "144717.880000", "144718.340000", "144718.800000", "144719.260000", "144719.720000", "144720.180000", "144720.640000", "144721.100000", "144721.560000", "144722.020000", "144722.480000", "144722.940000", "144723.400000", "144723.860000", "144724.320000", "144724.780000", "144725.240000", "144725.700000", "144726.160000", "144726.620000", "144727.080000", "144727.540000", "144728.000000", "144728.460000", "144728.920000", "144729.380000", "144729.840000", "144730.300000", "144730.760000", "144731.220000", "144731.680000", "144732.140000", "144732.600000", "144733.060000", "144733.520000", "144733.980000", "144734.440000", "144734.900000", "144735.360000", "144735.820000", "144736.280000", "144736.740000", "144737.200000", "144737.660000", "144738.120000", "144738.580000", "144739.040000", "144739.500000", "144739.960000", "144740.420000", "144740.880000", "144741.340000", "144741.800000", "144742.260000", "144742.720000", "144743.180000", "144743.640000", "144744.100000", "144744.560000", "144745.020000", "144745.480000", "144745.940000", "144746.400000", "144746.860000", "144747.320000", "144747.780000", "144748.240000", "144748.700000", "144749.160000", "144749.620000", "144750.080000", "144750.540000", "144751.000000", "144751.460000", "144751.920000", "144752.380000", "144752.840000", "144753.300000", "144753.760000", "144754.220000", "144754.680000", "144755.140000", "144755.600000", "144756.060000", "144756.520000", "144756.980000", "144757.440000", "144757.900000", "144758.360000", "144758.820000", "144759.280000", "144759.740000", "144800.200000", "144800.660000", "144801.120000", "144801.580000", "144802.040000", "144802.500000", "144802.960000", "144803.420000", "144803.880000", "144804.340000", "144804.800000", "144805.260000", "144805.720000", "144806.180000", "144806.640000", "144807.100000", "144807.560000", "144808.020000", "144808.480000", "144808.940000", "144809.400000", "144809.860000", "144810.320000", "144810.780000", "144811.240000", "144811.700000", "144812.160000", "144812.620000", "144813.080000", "144813.540000", "144814.000000", "144814.460000", "144814.920000", "144815.380000", "144815.840000", "144816.300000", "144816.760000", "144817.220000", "144817.680000", "144818.140000", "144818.600000", "144819.060000", "144819.520000", "144819.980000", "144820.440000", "144820.900000", "144821.360000", "144821.820000", "144822.280000", "144822.740000", "144823.200000", "144823.660000", "144824.120000", "144824.580000", "144825.040000", "144825.500000", "144825.960000", "144826.420000", "144826.880000", "144827.340000", "144827.800000", "144828.260000", "144828.720000", "144829.180000", "144829.640000", "144830.100000", "144830.560000", "144831.020000", "144831.480000", "144831.940000", "144832.400000", "144832.860000", "144833.320000", "144833.780000", "144834.240000", "144834.700000", "144835.160000", "144835.620000", "144836.080000", "144836.540000", "144837.000000", "144837.460000", "144837.920000", "144838.380000", "144838.840000", "144839.300000", "144839.760000", "144840.220000", "144840.680000", "144841.140000", "144841.600000", "144842.060000", "144842.520000", "144842.980000", "144843.440000", "144843.900000", "144844.360000", "144844.820000", "144845.280000", "144845.740000", "144846.200000", "144846.660000", "144847.120000", "144847.580000", "144848.040000", "144848.500000", "144848.960000", "144849.420000", "144849.880000", "144850.340000", "144850.800000", "144851.260000", "144851.720000", "144852.180000", "144852.640000", "144853.100000", "144853.560000", "144854.020000", "144854.480000", "144854.940000", "144855.400000", "144855.860000", "144856.320000", "144856.780000", "144857.240000", "144857.700000", "144858.160000", "144858.620000", "144859.080000", "144859.540000", "144900.000000", "144900.460000", "144900.920000", "144901.380000", "144901.840000", "144902.300000", "144902.760000", "144903.220000", "144903.680000", "144904.140000", "144904.600000", "144905.060000", "144905.520000", "144905.980000", "144906.440000", "144906.900000", "144907.360000", "144907.820000", "144908.280000", "144908.740000", "144909.200000", "144909.660000", "144910.120000", "144910.580000", "144911.040000", "144911.500000", "144911.960000", "144912.420000", "144912.880000", "144913.340000", "144913.800000", "144914.260000", "144914.720000", "144915.180000", "144915.640000", "144916.100000", "144916.560000", "144917.020000", "144917.480000", "144917.940000", "144918.400000", "144918.860000", "144919.320000", "144919.780000", "144920.240000", "144920.700000", "144921.160000", "144921.620000", "144922.080000", "144922.540000", "144923.000000", "144923.460000", "144923.920000", "144924.380000", "144924.840000", "144925.300000", "144925.760000", "144926.220000", "144926.680000", "144927.140000", "144927.600000", "144928.060000", "144928.520000", "144928.980000", "144929.440000", "144929.900000", "144930.360000", "144930.820000", "144931.280000", "144931.740000", "144932.200000", "144932.660000", "144933.120000", "144933.580000", "144934.040000", "144934.500000", "144934.960000", "144935.420000", "144935.880000", "144936.340000", "144936.800000", "144937.260000", "144937.720000", "144938.180000", "144938.640000", "144939.100000", "144939.560000", "144940.020000", "144940.480000", "144940.940000", "144941.400000", "144941.860000", "144942.320000", "144942.780000", "144943.240000", "144943.700000", "144944.160000", "144944.620000", "144945.080000", "144945.540000", "144946.000000", "144946.460000", "144946.920000", "144947.380000", "144947.840000", "144948.300000", "144948.760000", "144949.220000", "144949.680000", "144950.140000", "144950.600000", "144951.060000", "144951.520000", "144951.980000", "144952.440000", "144952.900000", "144953.360000", "144953.820000", "144954.280000", "144954.740000", "144955.200000", "144955.660000", "144956.120000", "144956.580000", "144957.040000", "144957.500000", "144957.960000", "144958.420000", "144958.880000", "144959.340000", "144959.800000", "145000.260000", "145000.720000", "145001.180000", "145001.640000", "145002.100000", "145002.560000", "145003.020000", "145003.480000", "145003.940000", "145004.400000", "145004.860000", "145005.320000", "145005.780000", "145006.240000", "145006.700000", "145007.160000", "145007.620000", "145008.080000", "145008.540000", "145009.000000", "145009.460000", "145009.920000", "145010.380000", "145010.840000", "145011.300000", "145011.760000", "145012.220000", "145012.680000", "145013.140000", "145013.600000", "145014.060000", "145014.520000", "145014.980000", "145015.440000", "145015.900000", "145016.360000", "145016.820000", "145017.280000", "145017.740000", "145018.200000", "145018.660000", "145019.120000", "145019.580000", "145020.040000", "145020.500000", "145020.960000", "145021.420000", "145021.880000", "145022.340000", "145022.800000", "145023.260000", "145023.720000", "145024.180000", "145024.640000", "145025.100000", "145025.560000", "145026.020000", "145026.480000", "145026.940000", "145027.400000", "145027.860000", "145028.320000", "145028.780000", "145029.240000", "145029.700000", "145030.160000", "145030.620000", "145031.080000", "145031.540000", "145032.000000", "145032.460000", "145032.920000", "145033.380000", "145033.840000", "145034.300000", "145034.760000", "145035.220000", "145035.680000", "145036.140000", "145036.600000", "145037.060000", "145037.520000", "145037.980000", "145038.440000", "145038.900000", "145039.360000", "145039.820000", "145040.280000", "145040.740000", "145041.200000", "145041.660000", "145042.120000", "145042.580000", "145043.040000", "145043.500000", "145043.960000", "145044.420000", "145044.880000", "145045.340000", "145045.800000", "145046.260000", "145046.720000", "145047.180000", "145047.640000", "145048.100000", "145048.560000", "145049.020000", "145049.480000", "145049.940000", "145050.400000", "145050.860000", "145051.320000", "145051.780000", "145052.240000", "145052.700000", "145053.160000", "145053.620000", "145054.080000", "145054.540000", "145055.000000", "145055.460000", "145055.920000", "145056.380000", "145056.840000", "145057.300000", "145057.760000", "145058.220000", "145058.680000", "145059.140000", "145059.600000", "145100.060000", "145100.520000", "145100.980000", "145101.440000", "145101.900000", "145102.360000", "145102.820000", "145103.280000"],
