{
  "AcquisitionMatrixPE": 82,
  "AcquisitionNumber": 1,
  "AcquisitionTime": "14:30:28.020000",
  "BandwidthPerPixelPhaseEncode": 24.888,
  "BaseResolution": 82,
  "BodyPartExamined": "BRAIN",
  "ConsistencyInfo": "N4_VE11E_LATEST_20181129",
  "ConversionSoftware": "dcm2niix",
  "ConversionSoftwareVersion": "v1.0.20201102",
  "DerivedVendorReportedEchoSpacing": 0.00049,
  "DeviceSerialNumber": "66112",
  "DwellTime": 2e-06,
  "EchoTime": 0.0272,
  "EchoTrainLength": 82,
  "EffectiveEchoSpacing": 0.00049,
  "FlipAngle": 44,
  "ImageComments": "Unaliased MB8/PE3",
  "ImageOrientationPatientDICOM": [0.999783, 0.0174232, 0.0114601, -0.0165786, 0.997405, -0.0700651],
  "ImageType": [
    "ORIGINAL",
    "PRIMARY",
    "M",
    "MB",
    "ND",
    "NORM",
    "MOSAIC"
],
  "ImagingFrequency": 123.252,
  "InPlanePhaseEncodingDirectionDICOM": "COL",
  "InstitutionAddress": "Maynard 3,Hanover,NH,US,03755",
  "InstitutionName": "Dartmouth College - PBS",
  "InstitutionalDepartmentName": "Department",
  "MRAcquisitionType": "2D",
  "MagneticFieldStrength": 3,
  "Manufacturer": "Siemens",
  "ManufacturersModelName": "Prisma",
  "Modality": "MR",
  "MultibandAccelerationFactor": 8,
  "PartialFourier": 1,
  "PatientPosition": "HFS",
  "PercentPhaseFOV": 100,
  "PercentSampling": 100,
  "PhaseEncodingDirection": "j-",
  "PhaseEncodingSteps": 82,
  "PhaseResolution": 1,
  "PixelBandwidth": 3050,
  "ProcedureStepDescription": "Wager_Wager^1076_spacetop",
  "ProtocolName": "func_run-02_task-social_acq-ap-mb8",
  "PulseSequenceDetails": "%CustomerSeq%\\cmrr_mbep2d_bold",
  "ReceiveCoilActiveElements": "HEA;HEP",
  "ReceiveCoilName": "Head_32",
  "ReconMatrixPE": 82,
  "RepetitionTime": 0.46,
  "SAR": 0.10038,
  "ScanOptions": "FS",
  "ScanningSequence": "EP",
  "SequenceName": "epfid2d1_82",
  "SequenceVariant": "SK\\SS",
  "SeriesDescription": "func_run-02_task-social_acq-ap-mb8",
  "SeriesNumber": 14,
  "ShimSetting": [4165, -7708, -7238, 522, -14, -118, -29, 73],
  "SliceThickness": 2.7,
  "SliceTiming": [0, 0.25, 0.0625, 0.315, 0.125, 0.3775, 0.1875, 0, 0.25, 0.0625, 0.315, 0.125, 0.3775, 0.1875, 0, 0.25, 0.0625, 0.315, 0.125, 0.3775, 0.1875, 0, 0.25, 0.0625, 0.315, 0.125, 0.3775, 0.1875, 0, 0.25, 0.0625, 0.315, 0.125, 0.3775, 0.1875, 0, 0.25, 0.0625, 0.315, 0.125, 0.3775, 0.1875, 0, 0.25, 0.0625, 0.315, 0.125, 0.3775, 0.1875, 0, 0.25, 0.0625, 0.315, 0.125, 0.3775, 0.1875],
  "SoftwareVersions": "syngo MR E11",
  "SpacingBetweenSlices": 2.7,
  "StationName": "AWP66112",
  "TaskName": "social",
  "TotalReadoutTime": 0.03969,
  "TxRefAmp": 259.274,
  "WipMemBlock": "3406cfbd-5e94-4bed-a1e1-183c4c3857fc||Sequence: R016 ve11e/master r/434b28f1; Aug  7 2019 18:53:46 by eja",
  "dcmmeta_affine": [
    [-2.6823434829711914, -0.04447918012738228, 0.034158047288656235, 114.17583465576172],
    [-0.046745091676712036, 2.6759636402130127, -0.18862159550189972, -83.30810546875],
    [0.03074665181338787, 0.18797948956489563, 2.6931867599487305, -72.12518310546875],
    [0.0, 0.0, 0.0, 1.0]
],
  "dcmmeta_reorient_transform": [
    [0.0, -1.0, 0.0, 81.0],
    [1.0, 0.0, 0.0, 0.0],
    [0.0, 0.0, 1.0, 0.0],
    [0.0, 0.0, 0.0, 1.0]
],
  "dcmmeta_shape": [82, 82, 56, 872],
  "dcmmeta_slice_dim": 2,
  "dcmmeta_version": 0.6,
  "global": {
    "const": {
      "AccessionNumber": "A003951",
      "AcquisitionMatrix": [82, 0, 0, 82],
      "AngioFlag": "N",
      "BitsAllocated": 16,
      "BitsStored": 16,
      "BodyPartExamined": "BRAIN",
      "Columns": 656,
      "EchoNumbers": 1,
      "EchoTime": 27.2,
      "EchoTrainLength": 82,
      "FlipAngle": 44.0,
      "HighBit": 15,
      "ImageOrientationPatient": [0.9997825257952, 0.01742317051793, 0.01146011534314, -0.0165786027694, 0.9974046491515, -0.0700650824675],
      "ImagePositionPatient": [-867.64006353026, -914.86239878023, -11.773018020761],
      "ImageType": [
        "ORIGINAL",
        "PRIMARY",
        "M",
        "MB",
        "ND",
        "NORM",
        "MOSAIC"
],
      "ImagedNucleus": "1H",
      "ImagingFrequency": 123.252167,
      "InPlanePhaseEncodingDirection": "COL",
      "MRAcquisitionType": "2D",
      "MagneticFieldStrength": 3.0,
      "Manufacturer": "SIEMENS",
      "ManufacturerModelName": "Prisma",
      "Modality": "MR",
      "NumberOfAverages": 1.0,
      "NumberOfPhaseEncodingSteps": 82,
      "PercentPhaseFieldOfView": 100.0,
      "PercentSampling": 100.0,
      "PerformedProcedureStepStartTime": "135106.012000",
      "PhotometricInterpretation": "MONOCHROME2",
      "PixelBandwidth": 3050.0,
      "PixelRepresentation": 0,
      "PixelSpacing": [2.6829268932343, 2.6829268932343],
      "ProtocolName": "func_run-02_task-social_acq-ap-mb8",
      "RepetitionTime": 460.0,
      "Rows": 656,
      "SAR": 0.10037959441235,
      "SamplesPerPixel": 1,
      "ScanOptions": "FS",
      "ScanningSequence": "EP",
      "SequenceName": "epfid2d1_82",
      "SequenceVariant": [
        "SK",
        "SS"
],
      "SeriesDescription": "func_run-02_task-social_acq-ap-mb8",
      "SeriesNumber": 14,
      "SeriesTime": "143038.555000",
      "SliceLocation": -64.67883636919,
      "SliceThickness": 2.7000000476837,
      "SmallestImagePixelValue": 0,
      "SoftwareVersions": "syngo MR E11",
      "SpacingBetweenSlices": 2.7000000161064,
      "SpecificCharacterSet": "ISO_IR 100",
      "StudyID": "1",
      "StudyTime": "135105.965000",
      "TransmitCoilName": "Body",
      "VariableFlipAngleFlag": "N",
      "WindowCenterWidthExplanation": "Algo1"
    },
    "slices": {}
  },
  "time": {
    "samples": {
      "AcquisitionNumber": [1, 2, 3, 4, 5, 6, 7, 8, 9, 10, 11, 12, 13, 14, 15, 16, 17, 18, 19, 20, 21, 22, 23, 24, 25, 26, 27, 28, 29, 30, 31, 32, 33, 34, 35, 36, 37, 38, 39, 40, 41, 42, 43, 44, 45, 46, 47, 48, 49, 50, 51, 52, 53, 54, 55, 56, 57, 58, 59, 60, 61, 62, 63, 64, 65, 66, 67, 68, 69, 70, 71, 72, 73, 74, 75, 76, 77, 78, 79, 80, 81, 82, 83, 84, 85, 86, 87, 88, 89, 90, 91, 92, 93, 94, 95, 96, 97, 98, 99, 100, 101, 102, 103, 104, 105, 106, 107, 108, 109, 110, 111, 112, 113, 114, 115, 116, 117, 118, 119, 120, 121, 122, 123, 124, 125, 126, 127, 128, 129, 130, 131, 132, 133, 134, 135, 136, 137, 138, 139, 140, 141, 142, 143, 144, 145, 146, 147, 148, 149, 150, 151, 152, 153, 154, 155, 156, 157, 158, 159, 160, 161, 162, 163, 164, 165, 166, 167, 168, 169, 170, 171, 172, 173, 174, 175, 176, 177, 178, 179, 180, 181, 182, 183, 184, 185, 186, 187, 188, 189, 190, 191, 192, 193, 194, 195, 196, 197, 198, 199, 200, 201, 202, 203, 204, 205, 206, 207, 208, 209, 210, 211, 212, 213, 214, 215, 216, 217, 218, 219, 220, 221, 222, 223, 224, 225, 226, 227, 228, 229, 230, 231, 232, 233, 234, 235, 236, 237, 238, 239, 240, 241, 242, 243, 244, 245, 246, 247, 248, 249, 250, 251, 252, 253, 254, 255, 256, 257, 258, 259, 260, 261, 262, 263, 264, 265, 266, 267, 268, 269, 270, 271, 272, 273, 274, 275, 276, 277, 278, 279, 280, 281, 282, 283, 284, 285, 286, 287, 288, 289, 290, 291, 292, 293, 294, 295, 296, 297, 298, 299, 300, 301, 302, 303, 304, 305, 306, 307, 308, 309, 310, 311, 312, 313, 314, 315, 316, 317, 318, 319, 320, 321, 322, 323, 324, 325, 326, 327, 328, 329, 330, 331, 332, 333, 334, 335, 336, 337, 338, 339, 340, 341, 342, 343, 344, 345, 346, 347, 348, 349, 350, 351, 352, 353, 354, 355, 356, 357, 358, 359, 360, 361, 362, 363, 364, 365, 366, 367, 368, 369, 370, 371, 372, 373, 374, 375, 376, 377, 378, 379, 380, 381, 382, 383, 384, 385, 386, 387, 388, 389, 390, 391, 392, 393, 394, 395, 396, 397, 398, 399, 400, 401, 402, 403, 404, 405, 406, 407, 408, 409, 410, 411, 412, 413, 414, 415, 416, 417, 418, 419, 420, 421, 422, 423, 424, 425, 426, 427, 428, 429, 430, 431, 432, 433, 434, 435, 436, 437, 438, 439, 440, 441, 442, 443, 444, 445, 446, 447, 448, 449, 450, 451, 452, 453, 454, 455, 456, 457, 458, 459, 460, 461, 462, 463, 464, 465, 466, 467, 468, 469, 470, 471, 472, 473, 474, 475, 476, 477, 478, 479, 480, 481, 482, 483, 484, 485, 486, 487, 488, 489, 490, 491, 492, 493, 494, 495, 496, 497, 498, 499, 500, 501, 502, 503, 504, 505, 506, 507, 508, 509, 510, 511, 512, 513, 514, 515, 516, 517, 518, 519, 520, 521, 522, 523, 524, 525, 526, 527, 528, 529, 530, 531, 532, 533, 534, 535, 536, 537, 538, 539, 540, 541, 542, 543, 544, 545, 546, 547, 548, 549, 550, 551, 552, 553, 554, 555, 556, 557, 558, 559, 560, 561, 562, 563, 564, 565, 566, 567, 568, 569, 570, 571, 572, 573, 574, 575, 576, 577, 578, 579, 580, 581, 582, 583, 584, 585, 586, 587, 588, 589, 590, 591, 592, 593, 594, 595, 596, 597, 598, 599, 600, 601, 602, 603, 604, 605, 606, 607, 608, 609, 610, 611, 612, 613, 614, 615, 616, 617, 618, 619, 620, 621, 622, 623, 624, 625, 626, 627, 628, 629, 630, 631, 632, 633, 634, 635, 636, 637, 638, 639, 640, 641, 642, 643, 644, 645, 646, 647, 648, 649, 650, 651, 652, 653, 654, 655, 656, 657, 658, 659, 660, 661, 662, 663, 664, 665, 666, 667, 668, 669, 670, 671, 672, 673, 674, 675, 676, 677, 678, 679, 680, 681, 682, 683, 684, 685, 686, 687, 688, 689, 690, 691, 692, 693, 694, 695, 696, 697, 698, 699, 700, 701, 702, 703, 704, 705, 706, 707, 708, 709, 710, 711, 712, 713, 714, 715, 716, 717, 718, 719, 720, 721, 722, 723, 724, 725, 726, 727, 728, 729, 730, 731, 732, 733, 734, 735, 736, 737, 738, 739, 740, 741, 742, 743, 744, 745, 746, 747, 748, 749, 750, 751, 752, 753, 754, 755, 756, 757, 758, 759, 760, 761, 762, 763, 764, 765, 766, 767, 768, 769, 770, 771, 772, 773, 774, 775, 776, 777, 778, 779, 780, 781, 782, 783, 784, 785, 786, 787, 788, 789, 790, 791, 792, 793, 794, 795, 796, 797, 798, 799, 800, 801, 802, 803, 804, 805, 806, 807, 808, 809, 810, 811, 812, 813, 814, 815, 816, 817, 818, 819, 820, 821, 822, 823, 824, 825, 826, 827, 828, 829, 830, 831, 832, 833, 834, 835, 836, 837, 838, 839, 840, 841, 842, 843, 844, 845, 846, 847, 848, 849, 850, 851, 852, 853, 854, 855, 856, 857, 858, 859, 860, 861, 862, 863, 864, 865, 866, 867, 868, 869, 870, 871, 872],
      "AcquisitionTime": ["143028.020000", "143028.480000", "143028.940000", "143029.400000", "143029.860000", "143030.320000", "143030.780000", "143031.240000", "143031.700000", "143032.160000", "143032.620000", "143033.080000", "143033.540000", "143034.000000", "143034.460000", "143034.920000", "143035.380000", "143035.840000", "143036.300000", "143036.760000", "143037.220000", "143037.680000", "143038.140000", "143038.600000", "143039.060000", "143039.520000", "143039.980000", "143040.440000", "143040.900000", "143041.360000", "143041.820000", "143042.280000", "143042.740000", "143043.200000", "143043.660000", "143044.120000", "143044.580000", "143045.040000", "143045.500000", "143045.960000", "143046.420000", "143046.880000", "143047.340000", "143047.800000", "143048.260000", "143048.720000", "143049.180000", "143049.640000", "143050.100000", "143050.560000", "143051.020000", "143051.480000", "143051.940000", "143052.400000", "143052.860000", "143053.320000", "143053.780000", "143054.240000", "143054.700000", "143055.160000", "143055.620000", "143056.080000", "143056.540000", "143057.000000", "143057.460000", "143057.920000", "143058.380000", "143058.840000", "143059.300000", "143059.760000", "143100.220000", "143100.680000", "143101.140000", "143101.600000", "143102.060000", "143102.520000", "143102.980000", "143103.440000", "143103.900000", "143104.360000", "143104.820000", "143105.280000", "143105.740000", "143106.200000", "143106.660000", "143107.120000", "143107.580000", "143108.040000", "143108.500000", "143108.960000", "143109.420000", "143109.880000", "143110.340000", "143110.800000", "143111.260000", "143111.720000", "143112.180000", "143112.640000", "143113.100000", "143113.560000", "143114.020000", "143114.480000", "143114.940000", "143115.400000", "143115.860000", "143116.320000", "143116.780000", "143117.240000", "143117.700000", "143118.160000", "143118.620000", "143119.080000", "143119.540000", "143120.000000", "143120.460000", "143120.920000", "143121.380000", "143121.840000", "143122.300000", "143122.760000", "143123.220000", "143123.680000", "143124.140000", "143124.600000", "143125.060000", "143125.520000", "143125.980000", "143126.440000", "143126.900000", "143127.360000", "143127.820000", "143128.280000", "143128.740000", "143129.200000", "143129.660000", "143130.120000", "143130.580000", "143131.040000", "143131.500000", "143131.960000", "143132.420000", "143132.880000", "143133.340000", "143133.800000", "143134.260000", "143134.720000", "143135.180000", "143135.640000", "143136.100000", "143136.560000", "143137.020000", "143137.480000", "143137.940000", "143138.400000", "143138.860000", "143139.320000", "143139.780000", "143140.240000", "143140.700000", "143141.160000", "143141.620000", "143142.080000", "143142.540000", "143143.000000", "143143.460000", "143143.920000", "143144.380000", "143144.840000", "143145.300000", "143145.760000", "143146.220000", "143146.680000", "143147.140000", "143147.600000", "143148.060000", "143148.520000", "143148.980000", "143149.440000", "143149.900000", "143150.360000", "143150.820000", "143151.280000", "143151.740000", "143152.200000", "143152.660000", "143153.120000", "143153.580000", "143154.040000", "143154.500000", "143154.960000", "143155.420000", "143155.880000", "143156.340000", "143156.800000", "143157.260000", "143157.720000", "143158.180000", "143158.640000", "143159.100000", "143159.560000", "143200.020000", "143200.480000", "143200.940000", "143201.400000", "143201.860000", "143202.320000", "143202.780000", "143203.240000", "143203.700000", "143204.160000", "143204.620000", "143205.080000", "143205.540000", "143206.000000", "143206.460000", "143206.920000", "143207.380000", "143207.840000", "143208.300000", "143208.760000", "143209.220000", "143209.680000", "143210.140000", "143210.600000", "143211.060000", "143211.520000", "143211.980000", "143212.440000", "143212.900000", "143213.360000", "143213.820000", "143214.280000", "143214.740000", "143215.200000", "143215.660000", "143216.120000", "143216.580000", "143217.040000", "143217.500000", "143217.960000", "143218.420000", "143218.880000", "143219.340000", "143219.800000", "143220.260000", "143220.720000", "143221.180000", "143221.640000", "143222.100000", "143222.560000", "143223.020000", "143223.480000", "143223.940000", "143224.400000", "143224.860000", "143225.320000", "143225.780000", "143226.240000", "143226.700000", "143227.160000", "143227.620000", "143228.080000", "143228.540000", "143229.000000", "143229.460000", "143229.920000", "143230.380000", "143230.840000", "143231.300000", "143231.760000", "143232.220000", "143232.680000", "143233.140000", "143233.600000", "143234.060000", "143234.520000", "143234.980000", "143235.440000", "143235.900000", "143236.360000", "143236.820000", "143237.280000", "143237.740000", "143238.200000", "143238.660000", "143239.120000", "143239.580000", "143240.040000", "143240.500000", "143240.960000", "143241.420000", "143241.880000", "143242.340000", "143242.800000", "143243.260000", "143243.720000", "143244.180000", "143244.640000", "143245.100000", "143245.560000", "143246.020000", "143246.480000", "143246.940000", "143247.400000", "143247.860000", "143248.320000", "143248.780000", "143249.240000", "143249.700000", "143250.160000", "143250.620000", "143251.080000", "143251.540000", "143252.000000", "143252.460000", "143252.920000", "143253.380000", "143253.840000", "143254.300000", "143254.760000", "143255.220000", "143255.680000", "143256.140000", "143256.600000", "143257.060000", "143257.520000", "143257.980000", "143258.440000", "143258.900000", "143259.360000", "143259.820000", "143300.280000", "143300.740000", "143301.200000", "143301.660000", "143302.120000", "143302.580000", "143303.040000", "143303.500000", "143303.960000", "143304.420000", "143304.880000", "143305.340000", "143305.800000", "143306.260000", "143306.720000", "143307.180000", "143307.640000", "143308.100000", "143308.560000", "143309.020000", "143309.480000", "143309.940000", "143310.400000", "143310.860000", "143311.320000", "143311.780000", "143312.240000", "143312.700000", "143313.160000", "143313.620000", "143314.080000", "143314.540000", "143315.000000", "143315.460000", "143315.920000", "143316.380000", "143316.840000", "143317.300000", "143317.760000", "143318.220000", "143318.680000", "143319.140000", "143319.600000", "143320.060000", "143320.520000", "143320.980000", "143321.440000", "143321.900000", "143322.360000", "143322.820000", "143323.280000", "143323.740000", "143324.200000", "143324.660000", "143325.120000", "143325.580000", "143326.040000", "143326.500000", "143326.960000", "143327.420000", "143327.880000", "143328.340000", "143328.800000", "143329.260000", "143329.720000", "143330.180000", "143330.640000", "143331.100000", "143331.560000", "143332.020000", "143332.480000", "143332.940000", "143333.400000", "143333.860000", "143334.320000", "143334.780000", "143335.240000", "143335.700000", "143336.160000", "143336.620000", "143337.080000", "143337.540000", "143338.000000", "143338.460000", "143338.920000", "143339.380000", "143339.840000", "143340.300000", "143340.760000", "143341.220000", "143341.680000", "143342.140000", "143342.600000", "143343.060000", "143343.520000", "143343.980000", "143344.440000", "143344.900000", "143345.360000", "143345.820000", "143346.280000", "143346.740000", "143347.200000", "143347.660000", "143348.120000", "143348.580000", "143349.040000", "143349.500000", "143349.960000", "143350.420000", "143350.880000", "143351.340000", "143351.800000", "143352.260000", "143352.720000", "143353.180000", "143353.640000", "143354.100000", "143354.560000", "143355.020000", "143355.480000", "143355.940000", "143356.400000", "143356.860000", "143357.320000", "143357.780000", "143358.240000", "143358.700000", "143359.160000", "143359.620000", "143400.080000", "143400.540000", "143401.000000", "143401.460000", "143401.920000", "143402.380000", "143402.840000", "143403.300000", "143403.760000", "143404.220000", "143404.680000", "143405.140000", "143405.600000", "143406.060000", "143406.520000", "143406.980000", "143407.440000", "143407.900000", "143408.360000", "143408.820000", "143409.280000", "143409.740000", "143410.200000", "143410.660000", "143411.120000", "143411.580000", "143412.040000", "143412.500000", "143412.960000", "143413.420000", "143413.880000", "143414.340000", "143414.800000", "143415.260000", "143415.720000", "143416.180000", "143416.640000", "143417.100000", "143417.560000", "143418.020000", "143418.480000", "143418.940000", "143419.400000", "143419.860000", "143420.320000", "143420.780000", "143421.240000", "143421.700000", "143422.160000", "143422.620000", "143423.080000", "143423.540000", "143424.000000", "143424.460000", "143424.920000", "143425.380000", "143425.840000", "143426.300000", "143426.760000", "143427.220000", "143427.680000", "143428.140000", "143428.600000", "143429.060000", "143429.520000", "143429.980000", "143430.440000", "143430.900000", "143431.360000", "143431.820000", "143432.280000", "143432.740000", "143433.200000", "143433.660000", "143434.120000", "143434.580000", "143435.040000", "143435.500000", "143435.960000", "143436.420000", "143436.880000", "143437.340000", "143437.800000", "143438.260000", "143438.720000", "143439.180000", "143439.640000", "143440.100000", "143440.560000", "143441.020000", "143441.480000", "143441.940000", "143442.400000", "143442.860000", "143443.320000", "143443.780000", "143444.240000", "143444.700000", "143445.160000", "143445.620000", "143446.080000", "143446.540000", "143447.000000", "143447.460000", "143447.920000", "143448.380000", "143448.840000", "143449.300000", "143449.760000", "143450.220000", "143450.680000", "143451.140000", "143451.600000", "143452.060000", "143452.520000", "143452.980000", "143453.440000", "143453.900000", "143454.360000", "143454.820000", "143455.280000", "143455.740000", "143456.200000", "143456.660000", "143457.120000", "143457.580000", "143458.040000", "143458.500000", "143458.960000", "143459.420000", "143459.880000", "143500.340000", "143500.800000", "143501.260000", "143501.720000", "143502.180000", "143502.640000", "143503.100000", "143503.560000", "143504.020000", "143504.480000", "143504.940000", "143505.400000", "143505.860000", "143506.320000", "143506.780000", "143507.240000", "143507.700000", "143508.160000", "143508.620000", "143509.080000", "143509.540000", "143510.000000", "143510.460000", "143510.920000", "143511.380000", "143511.840000", "143512.300000", "143512.760000", "143513.220000", "143513.680000", "143514.140000", "143514.600000", "143515.060000", "143515.520000", "143515.980000", "143516.440000", "143516.900000", "143517.360000", "143517.820000", "143518.280000", "143518.740000", "143519.200000", "143519.660000", "143520.120000", "143520.580000", "143521.040000", "143521.500000", "143521.960000", "143522.420000", "143522.880000", "143523.340000", "143523.800000", "143524.260000", "143524.720000", "143525.180000", "143525.640000", "143526.100000", "143526.560000", "143527.020000", "143527.480000", "143527.940000", "143528.400000", "143528.860000", "143529.320000", "143529.780000", "143530.240000", "143530.700000", "143531.160000", "143531.620000", "143532.080000", "143532.540000", "143533.000000", "143533.460000", "143533.920000", "143534.380000", "143534.840000", "143535.300000", "143535.760000", "143536.220000", "143536.680000", "143537.140000", "143537.600000", "143538.060000", "143538.520000", "143538.980000", "143539.440000", "143539.900000", "143540.360000", "143540.820000", "143541.280000", "143541.740000", "143542.200000", "143542.660000", "143543.120000", "143543.580000", "143544.040000", "143544.500000", "143544.960000", "143545.420000", "143545.880000", "143546.340000", "143546.800000", "143547.260000", "143547.720000", "143548.180000", "143548.640000", "143549.100000", "143549.560000", "143550.020000", "143550.480000", "143550.940000", "143551.400000", "143551.860000", "143552.320000", "143552.780000", "143553.240000", "143553.700000", "143554.160000", "143554.620000", "143555.080000", "143555.540000", "143556.000000", "143556.460000", "143556.920000", "143557.380000", "143557.840000", "143558.300000", "143558.760000", "143559.220000", "143559.680000", "143600.140000", "143600.600000", "143601.060000", "143601.520000", "143601.980000", "143602.440000", "143602.900000", "143603.360000", "143603.820000", "143604.280000", "143604.740000", "143605.200000", "143605.660000", "143606.120000", "143606.580000", "143607.040000", "143607.500000", "143607.960000", "143608.420000", "143608.880000", "143609.340000", "143609.800000", "143610.260000", "143610.720000", "143611.180000", "143611.640000", "143612.100000", "143612.560000", "143613.020000", "143613.480000", "143613.940000", "143614.400000", "143614.860000", "143615.320000", "143615.780000", "143616.240000", "143616.700000", "143617.160000", "143617.620000", "143618.080000", "143618.540000", "143619.000000", "143619.460000", "143619.920000", "143620.380000", "143620.840000", "143621.300000", "143621.760000", "143622.220000", "143622.680000", "143623.140000", "143623.600000", "143624.060000", "143624.520000", "143624.980000", "143625.440000", "143625.900000", "143626.360000", "143626.820000", "143627.280000", "143627.740000", "143628.200000", "143628.660000", "143629.120000", "143629.580000", "143630.040000", "143630.500000", "143630.960000", "143631.420000", "143631.880000", "143632.340000", "143632.800000", "143633.260000", "143633.720000", "143634.180000", "143634.640000", "143635.100000", "143635.560000", "143636.020000", "143636.480000", "143636.940000", "143637.400000", "143637.860000", "143638.320000", "143638.780000", "143639.240000", "143639.700000", "143640.160000", "143640.620000", "143641.080000", "143641.540000", "143642.000000", "143642.460000", "143642.920000", "143643.380000", "143643.840000", "143644.300000", "143644.760000", "143645.220000", "143645.680000", "143646.140000", "143646.600000", "143647.060000", "143647.520000", "143647.980000", "143648.440000", "143648.900000", "143649.360000", "143649.820000", "143650.280000", "143650.740000", "143651.200000", "143651.660000", "143652.120000", "143652.580000", "143653.040000", "143653.500000", "143653.960000", "143654.420000", "143654.880000", "143655.340000", "143655.800000", "143656.260000", "143656.720000", "143657.180000", "143657.640000", "143658.100000", "143658.560000", "143659.020000", "143659.480000", "143659.940000", "143700.400000", "143700.860000", "143701.320000", "143701.780000", "143702.240000", "143702.700000", "143703.160000", "143703.620000", "143704.080000", "143704.540000", "143705.000000", "143705.460000", "143705.920000", "143706.380000", "143706.840000", "143707.300000", "143707.760000", "143708.220000", "143708.680000"],
