{
  "AcquisitionMatrixPE": 82,
  "AcquisitionNumber": 1,
  "AcquisitionTime": "14:59:47.127500",
  "BandwidthPerPixelPhaseEncode": 24.888,
  "BaseResolution": 82,
  "BodyPartExamined": "BRAIN",
  "ConsistencyInfo": "N4_VE11E_LATEST_20181129",
  "ConversionSoftware": "dcm2niix",
  "ConversionSoftwareVersion": "v1.0.20201102",
  "DerivedVendorReportedEchoSpacing": 0.00049,
  "DeviceSerialNumber": "66112",
  "DwellTime": 2e-06,
  "EchoTime": 0.0272,
  "EchoTrainLength": 82,
  "EffectiveEchoSpacing": 0.00049,
  "FlipAngle": 44,
  "ImageComments": "Unaliased MB8/PE3",
  "ImageOrientationPatientDICOM": [0.999783, 0.0174232, 0.0114601, -0.0165786, 0.997405, -0.0700651],
  "ImageType": [
    "ORIGINAL",
    "PRIMARY",
    "M",
    "MB",
    "ND",
    "NORM",
    "MOSAIC"
],
  "ImagingFrequency": 123.252,
  "InPlanePhaseEncodingDirectionDICOM": "COL",
  "InstitutionAddress": "Maynard 3,Hanover,NH,US,03755",
  "InstitutionName": "Dartmouth College - PBS",
  "InstitutionalDepartmentName": "Department",
  "MRAcquisitionType": "2D",
  "MagneticFieldStrength": 3,
  "Manufacturer": "Siemens",
  "ManufacturersModelName": "Prisma",
  "Modality": "MR",
  "MultibandAccelerationFactor": 8,
  "PartialFourier": 1,
  "PatientPosition": "HFS",
  "PercentPhaseFOV": 100,
  "PercentSampling": 100,
  "PhaseEncodingDirection": "j-",
  "PhaseEncodingSteps": 82,
  "PhaseResolution": 1,
  "PixelBandwidth": 3050,
  "ProcedureStepDescription": "Wager_Wager^1076_spacetop",
  "ProtocolName": "func_run-06_task-social_acq-ap-mb8",
  "PulseSequenceDetails": "%CustomerSeq%\\cmrr_mbep2d_bold",
  "ReceiveCoilActiveElements": "HEA;HEP",
  "ReceiveCoilName": "Head_32",
  "ReconMatrixPE": 82,
  "RepetitionTime": 0.46,
  "SAR": 0.10038,
  "ScanOptions": "FS",
  "ScanningSequence": "EP",
  "SequenceName": "epfid2d1_82",
  "SequenceVariant": "SK\\SS",
  "SeriesDescription": "func_run-06_task-social_acq-ap-mb8",
  "SeriesNumber": 22,
  "ShimSetting": [4165, -7708, -7238, 522, -14, -118, -29, 73],
  "SliceThickness": 2.7,
  "SliceTiming": [0, 0.2525, 0.0625, 0.315, 0.125, 0.3775, 0.19, 0, 0.2525, 0.0625, 0.315, 0.125, 0.3775, 0.19, 0, 0.2525, 0.0625, 0.315, 0.125, 0.3775, 0.19, 0, 0.2525, 0.0625, 0.315, 0.125, 0.3775, 0.19, 0, 0.2525, 0.0625, 0.315, 0.125, 0.3775, 0.19, 0, 0.2525, 0.0625, 0.315, 0.125, 0.3775, 0.19, 0, 0.2525, 0.0625, 0.315, 0.125, 0.3775, 0.19, 0, 0.2525, 0.0625, 0.315, 0.125, 0.3775, 0.19],
  "SoftwareVersions": "syngo MR E11",
  "SpacingBetweenSlices": 2.7,
  "StationName": "AWP66112",
  "TaskName": "social",
  "TotalReadoutTime": 0.03969,
  "TxRefAmp": 259.274,
  "WipMemBlock": "7ef233fc-8578-413c-860a-4359c9d5d3be||Sequence: R016 ve11e/master r/434b28f1; Aug  7 2019 18:53:46 by eja",
  "dcmmeta_affine": [
    [-2.6823434829711914, -0.04447918012738228, 0.034158047288656235, 114.17583465576172],
    [-0.046745091676712036, 2.6759636402130127, -0.18862159550189972, -83.30810546875],
    [0.03074665181338787, 0.18797948956489563, 2.6931867599487305, -72.12518310546875],
    [0.0, 0.0, 0.0, 1.0]
],
  "dcmmeta_reorient_transform": [
    [0.0, -1.0, 0.0, 81.0],
    [1.0, 0.0, 0.0, 0.0],
    [0.0, 0.0, 1.0, 0.0],
    [0.0, 0.0, 0.0, 1.0]
],
  "dcmmeta_shape": [82, 82, 56, 872],
  "dcmmeta_slice_dim": 2,
  "dcmmeta_version": 0.6,
  "global": {
    "const": {
      "AccessionNumber": "A003951",
      "AcquisitionMatrix": [82, 0, 0, 82],
      "AngioFlag": "N",
      "BitsAllocated": 16,
      "BitsStored": 16,
      "BodyPartExamined": "BRAIN",
      "Columns": 656,
      "EchoNumbers": 1,
      "EchoTime": 27.2,
      "EchoTrainLength": 82,
      "FlipAngle": 44.0,
      "HighBit": 15,
      "ImageOrientationPatient": [0.9997825257952, 0.01742317051793, 0.01146011534314, -0.0165786027694, 0.9974046491515, -0.0700650824675],
      "ImagePositionPatient": [-867.64006353026, -914.86239878023, -11.773018020761],
      "ImageType": [
        "ORIGINAL",
        "PRIMARY",
        "M",
        "MB",
        "ND",
        "NORM",
        "MOSAIC"
],
      "ImagedNucleus": "1H",
      "ImagingFrequency": 123.252172,
      "InPlanePhaseEncodingDirection": "COL",
      "MRAcquisitionType": "2D",
      "MagneticFieldStrength": 3.0,
      "Manufacturer": "SIEMENS",
      "ManufacturerModelName": "Prisma",
      "Modality": "MR",
      "NumberOfAverages": 1.0,
      "NumberOfPhaseEncodingSteps": 82,
      "PercentPhaseFieldOfView": 100.0,
      "PercentSampling": 100.0,
      "PerformedProcedureStepStartTime": "135106.012000",
      "PhotometricInterpretation": "MONOCHROME2",
      "PixelBandwidth": 3050.0,
      "PixelRepresentation": 0,
      "PixelSpacing": [2.6829268932343, 2.6829268932343],
      "ProtocolName": "func_run-06_task-social_acq-ap-mb8",
      "RepetitionTime": 460.0,
      "Rows": 656,
      "SAR": 0.10037959441235,
      "SamplesPerPixel": 1,
      "ScanOptions": "FS",
      "ScanningSequence": "EP",
      "SequenceName": "epfid2d1_82",
      "SequenceVariant": [
        "SK",
        "SS"
],
      "SeriesDescription": "func_run-06_task-social_acq-ap-mb8",
      "SeriesNumber": 22,
      "SeriesTime": "145958.642000",
      "SliceLocation": -64.67883636919,
      "SliceThickness": 2.7000000476837,
      "SmallestImagePixelValue": 0,
      "SoftwareVersions": "syngo MR E11",
      "SpacingBetweenSlices": 2.7000000161064,
      "SpecificCharacterSet": "ISO_IR 100",
      "StudyID": "1",
      "StudyTime": "135105.965000",
      "TransmitCoilName": "Body",
      "VariableFlipAngleFlag": "N",
      "WindowCenterWidthExplanation": "Algo1"
    },
    "slices": {}
  },
  "time": {
    "samples": {
      "AcquisitionNumber": [1, 2, 3, 4, 5, 6, 7, 8, 9, 10, 11, 12, 13, 14, 15, 16, 17, 18, 19, 20, 21, 22, 23, 24, 25, 26, 27, 28, 29, 30, 31, 32, 33, 34, 35, 36, 37, 38, 39, 40, 41, 42, 43, 44, 45, 46, 47, 48, 49, 50, 51, 52, 53, 54, 55, 56, 57, 58, 59, 60, 61, 62, 63, 64, 65, 66, 67, 68, 69, 70, 71, 72, 73, 74, 75, 76, 77, 78, 79, 80, 81, 82, 83, 84, 85, 86, 87, 88, 89, 90, 91, 92, 93, 94, 95, 96, 97, 98, 99, 100, 101, 102, 103, 104, 105, 106, 107, 108, 109, 110, 111, 112, 113, 114, 115, 116, 117, 118, 119, 120, 121, 122, 123, 124, 125, 126, 127, 128, 129, 130, 131, 132, 133, 134, 135, 136, 137, 138, 139, 140, 141, 142, 143, 144, 145, 146, 147, 148, 149, 150, 151, 152, 153, 154, 155, 156, 157, 158, 159, 160, 161, 162, 163, 164, 165, 166, 167, 168, 169, 170, 171, 172, 173, 174, 175, 176, 177, 178, 179, 180, 181, 182, 183, 184, 185, 186, 187, 188, 189, 190, 191, 192, 193, 194, 195, 196, 197, 198, 199, 200, 201, 202, 203, 204, 205, 206, 207, 208, 209, 210, 211, 212, 213, 214, 215, 216, 217, 218, 219, 220, 221, 222, 223, 224, 225, 226, 227, 228, 229, 230, 231, 232, 233, 234, 235, 236, 237, 238, 239, 240, 241, 242, 243, 244, 245, 246, 247, 248, 249, 250, 251, 252, 253, 254, 255, 256, 257, 258, 259, 260, 261, 262, 263, 264, 265, 266, 267, 268, 269, 270, 271, 272, 273, 274, 275, 276, 277, 278, 279, 280, 281, 282, 283, 284, 285, 286, 287, 288, 289, 290, 291, 292, 293, 294, 295, 296, 297, 298, 299, 300, 301, 302, 303, 304, 305, 306, 307, 308, 309, 310, 311, 312, 313, 314, 315, 316, 317, 318, 319, 320, 321, 322, 323, 324, 325, 326, 327, 328, 329, 330, 331, 332, 333, 334, 335, 336, 337, 338, 339, 340, 341, 342, 343, 344, 345, 346, 347, 348, 349, 350, 351, 352, 353, 354, 355, 356, 357, 358, 359, 360, 361, 362, 363, 364, 365, 366, 367, 368, 369, 370, 371, 372, 373, 374, 375, 376, 377, 378, 379, 380, 381, 382, 383, 384, 385, 386, 387, 388, 389, 390, 391, 392, 393, 394, 395, 396, 397, 398, 399, 400, 401, 402, 403, 404, 405, 406, 407, 408, 409, 410, 411, 412, 413, 414, 415, 416, 417, 418, 419, 420, 421, 422, 423, 424, 425, 426, 427, 428, 429, 430, 431, 432, 433, 434, 435, 436, 437, 438, 439, 440, 441, 442, 443, 444, 445, 446, 447, 448, 449, 450, 451, 452, 453, 454, 455, 456, 457, 458, 459, 460, 461, 462, 463, 464, 465, 466, 467, 468, 469, 470, 471, 472, 473, 474, 475, 476, 477, 478, 479, 480, 481, 482, 483, 484, 485, 486, 487, 488, 489, 490, 491, 492, 493, 494, 495, 496, 497, 498, 499, 500, 501, 502, 503, 504, 505, 506, 507, 508, 509, 510, 511, 512, 513, 514, 515, 516, 517, 518, 519, 520, 521, 522, 523, 524, 525, 526, 527, 528, 529, 530, 531, 532, 533, 534, 535, 536, 537, 538, 539, 540, 541, 542, 543, 544, 545, 546, 547, 548, 549, 550, 551, 552, 553, 554, 555, 556, 557, 558, 559, 560, 561, 562, 563, 564, 565, 566, 567, 568, 569, 570, 571, 572, 573, 574, 575, 576, 577, 578, 579, 580, 581, 582, 583, 584, 585, 586, 587, 588, 589, 590, 591, 592, 593, 594, 595, 596, 597, 598, 599, 600, 601, 602, 603, 604, 605, 606, 607, 608, 609, 610, 611, 612, 613, 614, 615, 616, 617, 618, 619, 620, 621, 622, 623, 624, 625, 626, 627, 628, 629, 630, 631, 632, 633, 634, 635, 636, 637, 638, 639, 640, 641, 642, 643, 644, 645, 646, 647, 648, 649, 650, 651, 652, 653, 654, 655, 656, 657, 658, 659, 660, 661, 662, 663, 664, 665, 666, 667, 668, 669, 670, 671, 672, 673, 674, 675, 676, 677, 678, 679, 680, 681, 682, 683, 684, 685, 686, 687, 688, 689, 690, 691, 692, 693, 694, 695, 696, 697, 698, 699, 700, 701, 702, 703, 704, 705, 706, 707, 708, 709, 710, 711, 712, 713, 714, 715, 716, 717, 718, 719, 720, 721, 722, 723, 724, 725, 726, 727, 728, 729, 730, 731, 732, 733, 734, 735, 736, 737, 738, 739, 740, 741, 742, 743, 744, 745, 746, 747, 748, 749, 750, 751, 752, 753, 754, 755, 756, 757, 758, 759, 760, 761, 762, 763, 764, 765, 766, 767, 768, 769, 770, 771, 772, 773, 774, 775, 776, 777, 778, 779, 780, 781, 782, 783, 784, 785, 786, 787, 788, 789, 790, 791, 792, 793, 794, 795, 796, 797, 798, 799, 800, 801, 802, 803, 804, 805, 806, 807, 808, 809, 810, 811, 812, 813, 814, 815, 816, 817, 818, 819, 820, 821, 822, 823, 824, 825, 826, 827, 828, 829, 830, 831, 832, 833, 834, 835, 836, 837, 838, 839, 840, 841, 842, 843, 844, 845, 846, 847, 848, 849, 850, 851, 852, 853, 854, 855, 856, 857, 858, 859, 860, 861, 862, 863, 864, 865, 866, 867, 868, 869, 870, 871, 872],
      "AcquisitionTime": ["145947.127500", "145947.587500", "145948.047500", "145948.507500", "145948.967500", "145949.427500", "145949.887500", "145950.347500", "145950.807500", "145951.267500", "145951.727500", "145952.187500", "145952.647500", "145953.107500", "145953.567500", "145954.027500", "145954.487500", "145954.947500", "145955.407500", "145955.867500", "145956.327500", "145956.787500", "145957.247500", "145957.707500", "145958.167500", "145958.627500", "145959.087500", "145959.547500", "150000.007500", "150000.467500", "150000.927500", "150001.387500", "150001.847500", "150002.307500", "150002.767500", "150003.227500", "150003.687500", "150004.147500", "150004.607500", "150005.067500", "150005.527500", "150005.987500", "150006.447500", "150006.907500", "150007.367500", "150007.827500", "150008.287500", "150008.747500", "150009.207500", "150009.667500", "150010.127500", "150010.587500", "150011.047500", "150011.507500", "150011.967500", "150012.427500", "150012.887500", "150013.347500", "150013.807500", "150014.267500", "150014.727500", "150015.187500", "150015.647500", "150016.107500", "150016.567500", "150017.027500", "150017.487500", "150017.947500", "150018.407500", "150018.867500", "150019.327500", "150019.787500", "150020.247500", "150020.707500", "150021.167500", "150021.627500", "150022.087500", "150022.547500", "150023.007500", "150023.467500", "150023.927500", "150024.387500", "150024.847500", "150025.307500", "150025.767500", "150026.227500", "150026.687500", "150027.147500", "150027.607500", "150028.067500", "150028.527500", "150028.987500", "150029.447500", "150029.907500", "150030.367500", "150030.827500", "150031.287500", "150031.747500", "150032.207500", "150032.667500", "150033.127500", "150033.587500", "150034.047500", "150034.507500", "150034.967500", "150035.427500", "150035.887500", "150036.347500", "150036.807500", "150037.267500", "150037.727500", "150038.187500", "150038.647500", "150039.107500", "150039.567500", "150040.027500", "150040.487500", "150040.947500", "150041.407500", "150041.867500", "150042.327500", "150042.787500", "150043.247500", "150043.707500", "150044.167500", "150044.627500", "150045.087500", "150045.547500", "150046.007500", "150046.467500", "150046.927500", "150047.387500", "150047.847500", "150048.307500", "150048.767500", "150049.227500", "150049.687500", "150050.147500", "150050.607500", "150051.067500", "150051.527500", "150051.987500", "150052.447500", "150052.907500", "150053.367500", "150053.827500", "150054.287500", "150054.747500", "150055.207500", "150055.667500", "150056.127500", "150056.587500", "150057.047500", "150057.507500", "150057.967500", "150058.427500", "150058.887500", "150059.347500", "150059.807500", "150100.267500", "150100.727500", "150101.187500", "150101.647500", "150102.107500", "150102.567500", "150103.027500", "150103.487500", "150103.947500", "150104.407500", "150104.867500", "150105.327500", "150105.787500", "150106.247500", "150106.707500", "150107.167500", "150107.627500", "150108.087500", "150108.547500", "150109.007500", "150109.467500", "150109.927500", "150110.387500", "150110.847500", "150111.307500", "150111.767500", "150112.227500", "150112.687500", "150113.147500", "150113.607500", "150114.067500", "150114.527500", "150114.987500", "150115.447500", "150115.907500", "150116.367500", "150116.827500", "150117.287500", "150117.747500", "150118.207500", "150118.667500", "150119.127500", "150119.587500", "150120.047500", "150120.507500", "150120.967500", "150121.427500", "150121.887500", "150122.347500", "150122.807500", "150123.267500", "150123.727500", "150124.187500", "150124.647500", "150125.107500", "150125.567500", "150126.027500", "150126.487500", "150126.947500", "150127.407500", "150127.867500", "150128.327500", "150128.787500", "150129.247500", "150129.707500", "150130.167500", "150130.627500", "150131.087500", "150131.547500", "150132.007500", "150132.467500", "150132.927500", "150133.387500", "150133.847500", "150134.307500", "150134.767500", "150135.227500", "150135.687500", "150136.147500", "150136.607500", "150137.067500", "150137.527500", "150137.987500", "150138.447500", "150138.907500", "150139.367500", "150139.827500", "150140.287500", "150140.747500", "150141.207500", "150141.667500", "150142.127500", "150142.587500", "150143.047500", "150143.507500", "150143.967500", "150144.427500", "150144.887500", "150145.347500", "150145.807500", "150146.267500", "150146.727500", "150147.187500", "150147.647500", "150148.107500", "150148.567500", "150149.027500", "150149.487500", "150149.947500", "150150.407500", "150150.867500", "150151.327500", "150151.787500", "150152.247500", "150152.707500", "150153.167500", "150153.627500", "150154.087500", "150154.547500", "150155.007500", "150155.467500", "150155.927500", "150156.387500", "150156.847500", "150157.307500", "150157.767500", "150158.227500", "150158.687500", "150159.147500", "150159.607500", "150200.067500", "150200.527500", "150200.987500", "150201.447500", "150201.907500", "150202.367500", "150202.827500", "150203.287500", "150203.747500", "150204.207500", "150204.667500", "150205.127500", "150205.587500", "150206.047500", "150206.507500", "150206.967500", "150207.427500", "150207.887500", "150208.347500", "150208.807500", "150209.267500", "150209.727500", "150210.187500", "150210.647500", "150211.107500", "150211.567500", "150212.027500", "150212.487500", "150212.947500", "150213.407500", "150213.867500", "150214.327500", "150214.787500", "150215.247500", "150215.707500", "150216.167500", "150216.627500", "150217.087500", "150217.547500", "150218.007500", "150218.467500", "150218.927500", "150219.387500", "150219.847500", "150220.307500", "150220.767500", "150221.227500", "150221.687500", "150222.147500", "150222.607500", "150223.067500", "150223.527500", "150223.987500", "150224.447500", "150224.907500", "150225.367500", "150225.827500", "150226.287500", "150226.747500", "150227.207500", "150227.667500", "150228.127500", "150228.587500", "150229.047500", "150229.507500", "150229.967500", "150230.427500", "150230.887500", "150231.347500", "150231.807500", "150232.267500", "150232.727500", "150233.187500", "150233.647500", "150234.107500", "150234.567500", "150235.027500", "150235.487500", "150235.947500", "150236.407500", "150236.867500", "150237.327500", "150237.787500", "150238.247500", "150238.707500", "150239.167500", "150239.627500", "150240.087500", "150240.547500", "150241.007500", "150241.467500", "150241.927500", "150242.387500", "150242.847500", "150243.307500", "150243.767500", "150244.227500", "150244.687500", "150245.147500", "150245.607500", "150246.067500", "150246.527500", "150246.987500", "150247.447500", "150247.907500", "150248.367500", "150248.827500", "150249.287500", "150249.747500", "150250.207500", "150250.667500", "150251.127500", "150251.587500", "150252.047500", "150252.507500", "150252.967500", "150253.427500", "150253.887500", "150254.347500", "150254.807500", "150255.267500", "150255.727500", "150256.187500", "150256.647500", "150257.107500", "150257.567500", "150258.027500", "150258.487500", "150258.947500", "150259.407500", "150259.867500", "150300.327500", "150300.787500", "150301.247500", "150301.707500", "150302.167500", "150302.627500", "150303.087500", "150303.547500", "150304.007500", "150304.467500", "150304.927500", "150305.387500", "150305.847500", "150306.307500", "150306.767500", "150307.227500", "150307.687500", "150308.147500", "150308.607500", "150309.067500", "150309.527500", "150309.987500", "150310.447500", "150310.907500", "150311.367500", "150311.827500", "150312.287500", "150312.747500", "150313.207500", "150313.667500", "150314.127500", "150314.587500", "150315.047500", "150315.507500", "150315.967500", "150316.427500", "150316.887500", "150317.347500", "150317.807500", "150318.267500", "150318.727500", "150319.187500", "150319.647500", "150320.107500", "150320.567500", "150321.027500", "150321.487500", "150321.947500", "150322.407500", "150322.867500", "150323.327500", "150323.787500", "150324.247500", "150324.707500", "150325.167500", "150325.627500", "150326.087500", "150326.547500", "150327.007500", "150327.467500", "150327.927500", "150328.387500", "150328.847500", "150329.307500", "150329.767500", "150330.227500", "150330.687500", "150331.147500", "150331.607500", "150332.067500", "150332.527500", "150332.987500", "150333.447500", "150333.907500", "150334.367500", "150334.827500", "150335.287500", "150335.747500", "150336.207500", "150336.667500", "150337.127500", "150337.587500", "150338.047500", "150338.507500", "150338.967500", "150339.427500", "150339.887500", "150340.347500", "150340.807500", "150341.267500", "150341.727500", "150342.187500", "150342.647500", "150343.107500", "150343.567500", "150344.027500", "150344.487500", "150344.947500", "150345.407500", "150345.867500", "150346.327500", "150346.787500", "150347.247500", "150347.707500", "150348.167500", "150348.627500", "150349.087500", "150349.547500", "150350.007500", "150350.467500", "150350.927500", "150351.387500", "150351.847500", "150352.307500", "150352.767500", "150353.227500", "150353.687500", "150354.147500", "150354.607500", "150355.067500", "150355.527500", "150355.987500", "150356.447500", "150356.907500", "150357.367500", "150357.827500", "150358.287500", "150358.747500", "150359.207500", "150359.667500", "150400.127500", "150400.587500", "150401.047500", "150401.507500", "150401.967500", "150402.427500", "150402.887500", "150403.347500", "150403.807500", "150404.267500", "150404.727500", "150405.187500", "150405.647500", "150406.107500", "150406.567500", "150407.027500", "150407.487500", "150407.947500", "150408.407500", "150408.867500", "150409.327500", "150409.787500", "150410.247500", "150410.707500", "150411.167500", "150411.627500", "150412.087500", "150412.547500", "150413.007500", "150413.467500", "150413.927500", "150414.387500", "150414.847500", "150415.307500", "150415.767500", "150416.227500", "150416.687500", "150417.147500", "150417.607500", "150418.067500", "150418.527500", "150418.987500", "150419.447500", "150419.907500", "150420.367500", "150420.827500", "150421.287500", "150421.747500", "150422.207500", "150422.667500", "150423.127500", "150423.587500", "150424.047500", "150424.507500", "150424.967500", "150425.427500", "150425.887500", "150426.347500", "150426.807500", "150427.267500", "150427.727500", "150428.187500", "150428.647500", "150429.107500", "150429.567500", "150430.027500", "150430.487500", "150430.947500", "150431.407500", "150431.867500", "150432.327500", "150432.787500", "150433.247500", "150433.707500", "150434.167500", "150434.627500", "150435.087500", "150435.547500", "150436.007500", "150436.467500", "150436.927500", "150437.387500", "150437.847500", "150438.307500", "150438.767500", "150439.227500", "150439.687500", "150440.147500", "150440.607500", "150441.067500", "150441.527500", "150441.987500", "150442.447500", "150442.907500", "150443.367500", "150443.827500", "150444.287500", "150444.747500", "150445.207500", "150445.667500", "150446.127500", "150446.587500", "150447.047500", "150447.507500", "150447.967500", "150448.427500", "150448.887500", "150449.347500", "150449.807500", "150450.267500", "150450.727500", "150451.187500", "150451.647500", "150452.107500", "150452.567500", "150453.027500", "150453.487500", "150453.947500", "150454.407500", "150454.867500", "150455.327500", "150455.787500", "150456.247500", "150456.707500", "150457.167500", "150457.627500", "150458.087500", "150458.547500", "150459.007500", "150459.467500", "150459.927500", "150500.387500", "150500.847500", "150501.307500", "150501.767500", "150502.227500", "150502.687500", "150503.147500", "150503.607500", "150504.067500", "150504.527500", "150504.987500", "150505.447500", "150505.907500", "150506.367500", "150506.827500", "150507.287500", "150507.747500", "150508.207500", "150508.667500", "150509.127500", "150509.587500", "150510.047500", "150510.507500", "150510.967500", "150511.427500", "150511.887500", "150512.347500", "150512.807500", "150513.267500", "150513.727500", "150514.187500", "150514.647500", "150515.107500", "150515.567500", "150516.027500", "150516.487500", "150516.947500", "150517.407500", "150517.867500", "150518.327500", "150518.787500", "150519.247500", "150519.707500", "150520.167500", "150520.627500", "150521.087500", "150521.547500", "150522.007500", "150522.467500", "150522.927500", "150523.387500", "150523.847500", "150524.307500", "150524.767500", "150525.227500", "150525.687500", "150526.147500", "150526.607500", "150527.067500", "150527.527500", "150527.987500", "150528.447500", "150528.907500", "150529.367500", "150529.827500", "150530.287500", "150530.747500", "150531.207500", "150531.667500", "150532.127500", "150532.587500", "150533.047500", "150533.507500", "150533.967500", "150534.427500", "150534.887500", "150535.347500", "150535.807500", "150536.267500", "150536.727500", "150537.187500", "150537.647500", "150538.107500", "150538.567500", "150539.027500", "150539.487500", "150539.947500", "150540.407500", "150540.867500", "150541.327500", "150541.787500", "150542.247500", "150542.707500", "150543.167500", "150543.627500", "150544.087500", "150544.547500", "150545.007500", "150545.467500", "150545.927500", "150546.387500", "150546.847500", "150547.307500", "150547.767500", "150548.227500", "150548.687500", "150549.147500", "150549.607500", "150550.067500", "150550.527500", "150550.987500", "150551.447500", "150551.907500", "150552.367500", "150552.827500", "150553.287500", "150553.747500", "150554.207500", "150554.667500", "150555.127500", "150555.587500", "150556.047500", "150556.507500", "150556.967500", "150557.427500", "150557.887500", "150558.347500", "150558.807500", "150559.267500", "150559.727500", "150600.187500", "150600.647500", "150601.107500", "150601.567500", "150602.027500", "150602.487500", "150602.947500", "150603.407500", "150603.867500", "150604.327500", "150604.787500", "150605.247500", "150605.707500", "150606.167500", "150606.627500", "150607.087500", "150607.547500", "150608.007500", "150608.467500", "150608.927500", "150609.387500", "150609.847500", "150610.307500", "150610.767500", "150611.227500", "150611.687500", "150612.147500", "150612.607500", "150613.067500", "150613.527500", "150613.987500", "150614.447500", "150614.907500", "150615.367500", "150615.827500", "150616.287500", "150616.747500", "150617.207500", "150617.667500", "150618.127500", "150618.587500", "150619.047500", "150619.507500", "150619.967500", "150620.427500", "150620.887500", "150621.347500", "150621.807500", "150622.267500", "150622.727500", "150623.187500", "150623.647500", "150624.107500", "150624.567500", "150625.027500", "150625.487500", "150625.947500", "150626.407500", "150626.867500", "150627.327500", "150627.787500"],
