{
  "AcquisitionMatrixPE": 82,
  "AcquisitionNumber": 1,
  "AcquisitionTime": "14:23:26.117500",
  "BandwidthPerPixelPhaseEncode": 24.888,
  "BaseResolution": 82,
  "BodyPartExamined": "BRAIN",
  "ConsistencyInfo": "N4_VE11E_LATEST_20181129",
  "ConversionSoftware": "dcm2niix",
  "ConversionSoftwareVersion": "v1.0.20201102",
  "DerivedVendorReportedEchoSpacing": 0.00049,
  "DeviceSerialNumber": "66112",
  "DwellTime": 2e-06,
  "EchoTime": 0.0272,
  "EchoTrainLength": 82,
  "EffectiveEchoSpacing": 0.00049,
  "FlipAngle": 44,
  "ImageComments": "Unaliased MB8/PE3",
  "ImageOrientationPatientDICOM": [0.999783, 0.0174232, 0.0114601, -0.0165786, 0.997405, -0.0700651],
  "ImageType": [
    "ORIGINAL",
    "PRIMARY",
    "M",
    "MB",
    "ND",
    "NORM",
    "MOSAIC"
],
  "ImagingFrequency": 123.252,
  "InPlanePhaseEncodingDirectionDICOM": "COL",
  "InstitutionAddress": "Maynard 3,Hanover,NH,US,03755",
  "InstitutionName": "Dartmouth College - PBS",
  "InstitutionalDepartmentName": "Department",
  "MRAcquisitionType": "2D",
  "MagneticFieldStrength": 3,
  "Manufacturer": "Siemens",
  "ManufacturersModelName": "Prisma",
  "Modality": "MR",
  "MultibandAccelerationFactor": 8,
  "PartialFourier": 1,
  "PatientPosition": "HFS",
  "PercentPhaseFOV": 100,
  "PercentSampling": 100,
  "PhaseEncodingDirection": "j-",
  "PhaseEncodingSteps": 82,
  "PhaseResolution": 1,
  "PixelBandwidth": 3050,
  "ProcedureStepDescription": "Wager_Wager^1076_spacetop",
  "ProtocolName": "func_run-01_task-social_acq-ap-mb8",
  "PulseSequenceDetails": "%CustomerSeq%\\cmrr_mbep2d_bold",
  "ReceiveCoilActiveElements": "HEA;HEP",
  "ReceiveCoilName": "Head_32",
  "ReconMatrixPE": 82,
  "RepetitionTime": 0.46,
  "SAR": 0.10038,
  "ScanOptions": "FS",
  "ScanningSequence": "EP",
  "SequenceName": "epfid2d1_82",
  "SequenceVariant": "SK\\SS",
  "SeriesDescription": "func_run-01_task-social_acq-ap-mb8",
  "SeriesNumber": 12,
  "ShimSetting": [4165, -7708, -7238, 522, -14, -118, -29, 73],
  "SliceThickness": 2.7,
  "SliceTiming": [0, 0.25, 0.0625, 0.3125, 0.125, 0.375, 0.1875, 0, 0.25, 0.0625, 0.3125, 0.125, 0.375, 0.1875, 0, 0.25, 0.0625, 0.3125, 0.125, 0.375, 0.1875, 0, 0.25, 0.0625, 0.3125, 0.125, 0.375, 0.1875, 0, 0.25, 0.0625, 0.3125, 0.125, 0.375, 0.1875, 0, 0.25, 0.0625, 0.3125, 0.125, 0.375, 0.1875, 0, 0.25, 0.0625, 0.3125, 0.125, 0.375, 0.1875, 0, 0.25, 0.0625, 0.3125, 0.125, 0.375, 0.1875],
  "SoftwareVersions": "syngo MR E11",
  "SpacingBetweenSlices": 2.7,
  "StationName": "AWP66112",
  "TaskName": "social",
  "TotalReadoutTime": 0.03969,
  "TxRefAmp": 259.274,
  "WipMemBlock": "0ae1cc65-fca6-47b2-82ea-a9b6155822c6||Sequence: R016 ve11e/master r/434b28f1; Aug  7 2019 18:53:46 by eja",
  "dcmmeta_affine": [
    [-2.6823434829711914, -0.04447918012738228, 0.034158047288656235, 114.17583465576172],
    [-0.046745091676712036, 2.6759636402130127, -0.18862159550189972, -83.30810546875],
    [0.03074665181338787, 0.18797948956489563, 2.6931867599487305, -72.12518310546875],
    [0.0, 0.0, 0.0, 1.0]
],
  "dcmmeta_reorient_transform": [
    [0.0, -1.0, 0.0, 81.0],
    [1.0, 0.0, 0.0, 0.0],
    [0.0, 0.0, 1.0, 0.0],
    [0.0, 0.0, 0.0, 1.0]
],
  "dcmmeta_shape": [82, 82, 56, 872],
  "dcmmeta_slice_dim": 2,
  "dcmmeta_version": 0.6,
  "global": {
    "const": {
      "AccessionNumber": "A003951",
      "AcquisitionMatrix": [82, 0, 0, 82],
      "AngioFlag": "N",
      "BitsAllocated": 16,
      "BitsStored": 16,
      "BodyPartExamined": "BRAIN",
      "Columns": 656,
      "EchoNumbers": 1,
      "EchoTime": 27.2,
      "EchoTrainLength": 82,
      "FlipAngle": 44.0,
      "HighBit": 15,
      "ImageOrientationPatient": [0.9997825257952, 0.01742317051793, 0.01146011534314, -0.0165786027694, 0.9974046491515, -0.0700650824675],
      "ImagePositionPatient": [-867.64006353026, -914.86239878023, -11.773018020761],
      "ImageType": [
        "ORIGINAL",
        "PRIMARY",
        "M",
        "MB",
        "ND",
        "NORM",
        "MOSAIC"
],
      "ImagedNucleus": "1H",
      "ImagingFrequency": 123.252165,
      "InPlanePhaseEncodingDirection": "COL",
      "MRAcquisitionType": "2D",
      "MagneticFieldStrength": 3.0,
      "Manufacturer": "SIEMENS",
      "ManufacturerModelName": "Prisma",
      "Modality": "MR",
      "NumberOfAverages": 1.0,
      "NumberOfPhaseEncodingSteps": 82,
      "PercentPhaseFieldOfView": 100.0,
      "PercentSampling": 100.0,
      "PerformedProcedureStepStartTime": "135106.012000",
      "PhotometricInterpretation": "MONOCHROME2",
      "PixelBandwidth": 3050.0,
      "PixelRepresentation": 0,
      "PixelSpacing": [2.6829268932343, 2.6829268932343],
      "ProtocolName": "func_run-01_task-social_acq-ap-mb8",
      "RepetitionTime": 460.0,
      "Rows": 656,
      "SAR": 0.10037959441235,
      "SamplesPerPixel": 1,
      "ScanOptions": "FS",
      "ScanningSequence": "EP",
      "SequenceName": "epfid2d1_82",
      "SequenceVariant": [
        "SK",
        "SS"
],
      "SeriesDescription": "func_run-01_task-social_acq-ap-mb8",
      "SeriesNumber": 12,
      "SeriesTime": "142338.478000",
      "SliceLocation": -64.67883636919,
      "SliceThickness": 2.7000000476837,
      "SmallestImagePixelValue": 0,
      "SoftwareVersions": "syngo MR E11",
      "SpacingBetweenSlices": 2.7000000161064,
      "SpecificCharacterSet": "ISO_IR 100",
      "StudyID": "1",
      "StudyTime": "135105.965000",
      "TransmitCoilName": "Body",
      "VariableFlipAngleFlag": "N",
      "WindowCenterWidthExplanation": "Algo1"
    },
    "slices": {}
  },
  "time": {
    "samples": {
      "AcquisitionNumber": [1, 2, 3, 4, 5, 6, 7, 8, 9, 10, 11, 12, 13, 14, 15, 16, 17, 18, 19, 20, 21, 22, 23, 24, 25, 26, 27, 28, 29, 30, 31, 32, 33, 34, 35, 36, 37, 38, 39, 40, 41, 42, 43, 44, 45, 46, 47, 48, 49, 50, 51, 52, 53, 54, 55, 56, 57, 58, 59, 60, 61, 62, 63, 64, 65, 66, 67, 68, 69, 70, 71, 72, 73, 74, 75, 76, 77, 78, 79, 80, 81, 82, 83, 84, 85, 86, 87, 88, 89, 90, 91, 92, 93, 94, 95, 96, 97, 98, 99, 100, 101, 102, 103, 104, 105, 106, 107, 108, 109, 110, 111, 112, 113, 114, 115, 116, 117, 118, 119, 120, 121, 122, 123, 124, 125, 126, 127, 128, 129, 130, 131, 132, 133, 134, 135, 136, 137, 138, 139, 140, 141, 142, 143, 144, 145, 146, 147, 148, 149, 150, 151, 152, 153, 154, 155, 156, 157, 158, 159, 160, 161, 162, 163, 164, 165, 166, 167, 168, 169, 170, 171, 172, 173, 174, 175, 176, 177, 178, 179, 180, 181, 182, 183, 184, 185, 186, 187, 188, 189, 190, 191, 192, 193, 194, 195, 196, 197, 198, 199, 200, 201, 202, 203, 204, 205, 206, 207, 208, 209, 210, 211, 212, 213, 214, 215, 216, 217, 218, 219, 220, 221, 222, 223, 224, 225, 226, 227, 228, 229, 230, 231, 232, 233, 234, 235, 236, 237, 238, 239, 240, 241, 242, 243, 244, 245, 246, 247, 248, 249, 250, 251, 252, 253, 254, 255, 256, 257, 258, 259, 260, 261, 262, 263, 264, 265, 266, 267, 268, 269, 270, 271, 272, 273, 274, 275, 276, 277, 278, 279, 280, 281, 282, 283, 284, 285, 286, 287, 288, 289, 290, 291, 292, 293, 294, 295, 296, 297, 298, 299, 300, 301, 302, 303, 304, 305, 306, 307, 308, 309, 310, 311, 312, 313, 314, 315, 316, 317, 318, 319, 320, 321, 322, 323, 324, 325, 326, 327, 328, 329, 330, 331, 332, 333, 334, 335, 336, 337, 338, 339, 340, 341, 342, 343, 344, 345, 346, 347, 348, 349, 350, 351, 352, 353, 354, 355, 356, 357, 358, 359, 360, 361, 362, 363, 364, 365, 366, 367, 368, 369, 370, 371, 372, 373, 374, 375, 376, 377, 378, 379, 380, 381, 382, 383, 384, 385, 386, 387, 388, 389, 390, 391, 392, 393, 394, 395, 396, 397, 398, 399, 400, 401, 402, 403, 404, 405, 406, 407, 408, 409, 410, 411, 412, 413, 414, 415, 416, 417, 418, 419, 420, 421, 422, 423, 424, 425, 426, 427, 428, 429, 430, 431, 432, 433, 434, 435, 436, 437, 438, 439, 440, 441, 442, 443, 444, 445, 446, 447, 448, 449, 450, 451, 452, 453, 454, 455, 456, 457, 458, 459, 460, 461, 462, 463, 464, 465, 466, 467, 468, 469, 470, 471, 472, 473, 474, 475, 476, 477, 478, 479, 480, 481, 482, 483, 484, 485, 486, 487, 488, 489, 490, 491, 492, 493, 494, 495, 496, 497, 498, 499, 500, 501, 502, 503, 504, 505, 506, 507, 508, 509, 510, 511, 512, 513, 514, 515, 516, 517, 518, 519, 520, 521, 522, 523, 524, 525, 526, 527, 528, 529, 530, 531, 532, 533, 534, 535, 536, 537, 538, 539, 540, 541, 542, 543, 544, 545, 546, 547, 548, 549, 550, 551, 552, 553, 554, 555, 556, 557, 558, 559, 560, 561, 562, 563, 564, 565, 566, 567, 568, 569, 570, 571, 572, 573, 574, 575, 576, 577, 578, 579, 580, 581, 582, 583, 584, 585, 586, 587, 588, 589, 590, 591, 592, 593, 594, 595, 596, 597, 598, 599, 600, 601, 602, 603, 604, 605, 606, 607, 608, 609, 610, 611, 612, 613, 614, 615, 616, 617, 618, 619, 620, 621, 622, 623, 624, 625, 626, 627, 628, 629, 630, 631, 632, 633, 634, 635, 636, 637, 638, 639, 640, 641, 642, 643, 644, 645, 646, 647, 648, 649, 650, 651, 652, 653, 654, 655, 656, 657, 658, 659, 660, 661, 662, 663, 664, 665, 666, 667, 668, 669, 670, 671, 672, 673, 674, 675, 676, 677, 678, 679, 680, 681, 682, 683, 684, 685, 686, 687, 688, 689, 690, 691, 692, 693, 694, 695, 696, 697, 698, 699, 700, 701, 702, 703, 704, 705, 706, 707, 708, 709, 710, 711, 712, 713, 714, 715, 716, 717, 718, 719, 720, 721, 722, 723, 724, 725, 726, 727, 728, 729, 730, 731, 732, 733, 734, 735, 736, 737, 738, 739, 740, 741, 742, 743, 744, 745, 746, 747, 748, 749, 750, 751, 752, 753, 754, 755, 756, 757, 758, 759, 760, 761, 762, 763, 764, 765, 766, 767, 768, 769, 770, 771, 772, 773, 774, 775, 776, 777, 778, 779, 780, 781, 782, 783, 784, 785, 786, 787, 788, 789, 790, 791, 792, 793, 794, 795, 796, 797, 798, 799, 800, 801, 802, 803, 804, 805, 806, 807, 808, 809, 810, 811, 812, 813, 814, 815, 816, 817, 818, 819, 820, 821, 822, 823, 824, 825, 826, 827, 828, 829, 830, 831, 832, 833, 834, 835, 836, 837, 838, 839, 840, 841, 842, 843, 844, 845, 846, 847, 848, 849, 850, 851, 852, 853, 854, 855, 856, 857, 858, 859, 860, 861, 862, 863, 864, 865, 866, 867, 868, 869, 870, 871, 872],
      "AcquisitionTime": ["142326.117500", "142326.577500", "142327.037500", "142327.497500", "142327.957500", "142328.417500", "142328.877500", "142329.337500", "142329.797500", "142330.257500", "142330.717500", "142331.177500", "142331.637500", "142332.097500", "142332.557500", "142333.017500", "142333.477500", "142333.937500", "142334.397500", "142334.857500", "142335.317500", "142335.777500", "142336.237500", "142336.697500", "142337.157500", "142337.617500", "142338.077500", "142338.537500", "142338.997500", "142339.457500", "142339.917500", "142340.377500", "142340.837500", "142341.297500", "142341.757500", "142342.217500", "142342.677500", "142343.137500", "142343.597500", "142344.057500", "142344.517500", "142344.977500", "142345.437500", "142345.897500", "142346.357500", "142346.817500", "142347.277500", "142347.737500", "142348.197500", "142348.657500", "142349.117500", "142349.577500", "142350.037500", "142350.497500", "142350.957500", "142351.417500", "142351.877500", "142352.337500", "142352.797500", "142353.257500", "142353.717500", "142354.177500", "142354.637500", "142355.097500", "142355.557500", "142356.017500", "142356.477500", "142356.937500", "142357.397500", "142357.857500", "142358.317500", "142358.777500", "142359.237500", "142359.697500", "142400.157500", "142400.617500", "142401.077500", "142401.537500", "142401.997500", "142402.457500", "142402.917500", "142403.377500", "142403.837500", "142404.297500", "142404.757500", "142405.217500", "142405.677500", "142406.137500", "142406.597500", "142407.057500", "142407.517500", "142407.977500", "142408.437500", "142408.897500", "142409.357500", "142409.817500", "142410.277500", "142410.737500", "142411.197500", "142411.657500", "142412.117500", "142412.577500", "142413.037500", "142413.497500", "142413.957500", "142414.417500", "142414.877500", "142415.337500", "142415.797500", "142416.257500", "142416.717500", "142417.177500", "142417.637500", "142418.097500", "142418.557500", "142419.017500", "142419.477500", "142419.937500", "142420.397500", "142420.857500", "142421.317500", "142421.777500", "142422.237500", "142422.697500", "142423.157500", "142423.617500", "142424.077500", "142424.537500", "142424.997500", "142425.457500", "142425.917500", "142426.377500", "142426.837500", "142427.297500", "142427.757500", "142428.217500", "142428.677500", "142429.137500", "142429.597500", "142430.057500", "142430.517500", "142430.977500", "142431.437500", "142431.897500", "142432.357500", "142432.817500", "142433.277500", "142433.737500", "142434.197500", "142434.657500", "142435.117500", "142435.577500", "142436.037500", "142436.497500", "142436.957500", "142437.417500", "142437.877500", "142438.337500", "142438.797500", "142439.257500", "142439.717500", "142440.177500", "142440.637500", "142441.097500", "142441.557500", "142442.017500", "142442.477500", "142442.937500", "142443.397500", "142443.857500", "142444.317500", "142444.777500", "142445.237500", "142445.697500", "142446.157500", "142446.617500", "142447.077500", "142447.537500", "142447.997500", "142448.457500", "142448.917500", "142449.377500", "142449.837500", "142450.297500", "142450.757500", "142451.217500", "142451.677500", "142452.137500", "142452.597500", "142453.057500", "142453.517500", "142453.977500", "142454.437500", "142454.897500", "142455.357500", "142455.817500", "142456.277500", "142456.737500", "142457.197500", "142457.657500", "142458.117500", "142458.577500", "142459.037500", "142459.497500", "142459.957500", "142500.417500", "142500.877500", "142501.337500", "142501.797500", "142502.257500", "142502.717500", "142503.177500", "142503.637500", "142504.097500", "142504.557500", "142505.017500", "142505.477500", "142505.937500", "142506.397500", "142506.857500", "142507.317500", "142507.777500", "142508.237500", "142508.697500", "142509.157500", "142509.617500", "142510.077500", "142510.537500", "142510.997500", "142511.457500", "142511.917500", "142512.377500", "142512.837500", "142513.297500", "142513.757500", "142514.217500", "142514.677500", "142515.137500", "142515.597500", "142516.057500", "142516.517500", "142516.977500", "142517.437500", "142517.897500", "142518.357500", "142518.817500", "142519.277500", "142519.737500", "142520.197500", "142520.657500", "142521.117500", "142521.577500", "142522.037500", "142522.497500", "142522.957500", "142523.417500", "142523.877500", "142524.337500", "142524.797500", "142525.257500", "142525.717500", "142526.177500", "142526.637500", "142527.097500", "142527.557500", "142528.017500", "142528.477500", "142528.937500", "142529.397500", "142529.857500", "142530.317500", "142530.777500", "142531.237500", "142531.697500", "142532.157500", "142532.617500", "142533.077500", "142533.537500", "142533.997500", "142534.457500", "142534.917500", "142535.377500", "142535.837500", "142536.297500", "142536.757500", "142537.217500", "142537.677500", "142538.137500", "142538.597500", "142539.057500", "142539.517500", "142539.977500", "142540.437500", "142540.897500", "142541.357500", "142541.817500", "142542.277500", "142542.737500", "142543.197500", "142543.657500", "142544.117500", "142544.577500", "142545.037500", "142545.497500", "142545.957500", "142546.417500", "142546.877500", "142547.337500", "142547.797500", "142548.257500", "142548.717500", "142549.177500", "142549.637500", "142550.097500", "142550.557500", "142551.017500", "142551.477500", "142551.937500", "142552.397500", "142552.857500", "142553.317500", "142553.777500", "142554.237500", "142554.697500", "142555.157500", "142555.617500", "142556.077500", "142556.537500", "142556.997500", "142557.457500", "142557.917500", "142558.377500", "142558.837500", "142559.297500", "142559.757500", "142600.217500", "142600.677500", "142601.137500", "142601.597500", "142602.057500", "142602.517500", "142602.977500", "142603.437500", "142603.897500", "142604.357500", "142604.817500", "142605.277500", "142605.737500", "142606.197500", "142606.657500", "142607.117500", "142607.577500", "142608.037500", "142608.497500", "142608.957500", "142609.417500", "142609.877500", "142610.337500", "142610.797500", "142611.257500", "142611.717500", "142612.177500", "142612.637500", "142613.097500", "142613.557500", "142614.017500", "142614.477500", "142614.937500", "142615.397500", "142615.857500", "142616.317500", "142616.777500", "142617.237500", "142617.697500", "142618.157500", "142618.617500", "142619.077500", "142619.537500", "142619.997500", "142620.457500", "142620.917500", "142621.377500", "142621.837500", "142622.297500", "142622.757500", "142623.217500", "142623.677500", "142624.137500", "142624.597500", "142625.057500", "142625.517500", "142625.977500", "142626.437500", "142626.897500", "142627.357500", "142627.817500", "142628.277500", "142628.737500", "142629.197500", "142629.657500", "142630.117500", "142630.577500", "142631.037500", "142631.497500", "142631.957500", "142632.417500", "142632.877500", "142633.337500", "142633.797500", "142634.257500", "142634.717500", "142635.177500", "142635.637500", "142636.097500", "142636.557500", "142637.017500", "142637.477500", "142637.937500", "142638.397500", "142638.857500", "142639.317500", "142639.777500", "142640.237500", "142640.697500", "142641.157500", "142641.617500", "142642.077500", "142642.537500", "142642.997500", "142643.457500", "142643.917500", "142644.377500", "142644.837500", "142645.297500", "142645.757500", "142646.217500", "142646.677500", "142647.137500", "142647.597500", "142648.057500", "142648.517500", "142648.977500", "142649.437500", "142649.897500", "142650.357500", "142650.817500", "142651.277500", "142651.737500", "142652.197500", "142652.657500", "142653.117500", "142653.577500", "142654.037500", "142654.497500", "142654.957500", "142655.417500", "142655.877500", "142656.337500", "142656.797500", "142657.257500", "142657.717500", "142658.177500", "142658.637500", "142659.097500", "142659.557500", "142700.017500", "142700.477500", "142700.937500", "142701.397500", "142701.857500", "142702.317500", "142702.777500", "142703.237500", "142703.697500", "142704.157500", "142704.617500", "142705.077500", "142705.537500", "142705.997500", "142706.457500", "142706.917500", "142707.377500", "142707.837500", "142708.297500", "142708.757500", "142709.217500", "142709.677500", "142710.137500", "142710.597500", "142711.057500", "142711.517500", "142711.977500", "142712.437500", "142712.897500", "142713.357500", "142713.817500", "142714.277500", "142714.737500", "142715.197500", "142715.657500", "142716.117500", "142716.577500", "142717.037500", "142717.497500", "142717.957500", "142718.417500", "142718.877500", "142719.337500", "142719.797500", "142720.257500", "142720.717500", "142721.177500", "142721.637500", "142722.097500", "142722.557500", "142723.017500", "142723.477500", "142723.937500", "142724.397500", "142724.857500", "142725.317500", "142725.777500", "142726.237500", "142726.697500", "142727.157500", "142727.617500", "142728.077500", "142728.537500", "142728.997500", "142729.457500", "142729.917500", "142730.377500", "142730.837500", "142731.297500", "142731.757500", "142732.217500", "142732.677500", "142733.137500", "142733.597500", "142734.057500", "142734.517500", "142734.977500", "142735.437500", "142735.897500", "142736.357500", "142736.817500", "142737.277500", "142737.737500", "142738.197500", "142738.657500", "142739.117500", "142739.577500", "142740.037500", "142740.497500", "142740.957500", "142741.417500", "142741.877500", "142742.337500", "142742.797500", "142743.257500", "142743.717500", "142744.177500", "142744.637500", "142745.097500", "142745.557500", "142746.017500", "142746.477500", "142746.937500", "142747.397500", "142747.857500", "142748.317500", "142748.777500", "142749.237500", "142749.697500", "142750.157500", "142750.617500", "142751.077500", "142751.537500", "142751.997500", "142752.457500", "142752.917500", "142753.377500", "142753.837500", "142754.297500", "142754.757500", "142755.217500", "142755.677500", "142756.137500", "142756.597500", "142757.057500", "142757.517500", "142757.977500", "142758.437500", "142758.897500", "142759.357500", "142759.817500", "142800.277500", "142800.737500", "142801.197500", "142801.657500", "142802.117500", "142802.577500", "142803.037500", "142803.497500", "142803.957500", "142804.417500", "142804.877500", "142805.337500", "142805.797500", "142806.257500", "142806.717500", "142807.177500", "142807.637500", "142808.097500", "142808.557500", "142809.017500", "142809.477500", "142809.937500", "142810.397500", "142810.857500", "142811.317500", "142811.777500", "142812.237500", "142812.697500", "142813.157500", "142813.617500", "142814.077500", "142814.537500", "142814.997500", "142815.457500", "142815.917500", "142816.377500", "142816.837500", "142817.297500", "142817.757500", "142818.217500", "142818.677500", "142819.137500", "142819.597500", "142820.057500", "142820.517500", "142820.977500", "142821.437500", "142821.897500", "142822.357500", "142822.817500", "142823.277500", "142823.737500", "142824.197500", "142824.657500", "142825.117500", "142825.577500", "142826.037500", "142826.497500", "142826.957500", "142827.417500", "142827.877500", "142828.337500", "142828.797500", "142829.257500", "142829.717500", "142830.177500", "142830.637500", "142831.097500", "142831.557500", "142832.017500", "142832.477500", "142832.937500", "142833.397500", "142833.857500", "142834.317500", "142834.777500", "142835.237500", "142835.697500", "142836.157500", "142836.617500", "142837.077500", "142837.537500", "142837.997500", "142838.457500", "142838.917500", "142839.377500", "142839.837500", "142840.297500", "142840.757500", "142841.217500", "142841.677500", "142842.137500", "142842.597500", "142843.057500", "142843.517500", "142843.977500", "142844.437500", "142844.897500", "142845.357500", "142845.817500", "142846.277500", "142846.737500", "142847.197500", "142847.657500", "142848.117500", "142848.577500", "142849.037500", "142849.497500", "142849.957500", "142850.417500", "142850.877500", "142851.337500", "142851.797500", "142852.257500", "142852.717500", "142853.177500", "142853.637500", "142854.097500", "142854.557500", "142855.017500", "142855.477500", "142855.937500", "142856.397500", "142856.857500", "142857.317500", "142857.777500", "142858.237500", "142858.697500", "142859.157500", "142859.617500", "142900.077500", "142900.537500", "142900.997500", "142901.457500", "142901.917500", "142902.377500", "142902.837500", "142903.297500", "142903.757500", "142904.217500", "142904.677500", "142905.137500", "142905.597500", "142906.057500", "142906.517500", "142906.977500", "142907.437500", "142907.897500", "142908.357500", "142908.817500", "142909.277500", "142909.737500", "142910.197500", "142910.657500", "142911.117500", "142911.577500", "142912.037500", "142912.497500", "142912.957500", "142913.417500", "142913.877500", "142914.337500", "142914.797500", "142915.257500", "142915.717500", "142916.177500", "142916.637500", "142917.097500", "142917.557500", "142918.017500", "142918.477500", "142918.937500", "142919.397500", "142919.857500", "142920.317500", "142920.777500", "142921.237500", "142921.697500", "142922.157500", "142922.617500", "142923.077500", "142923.537500", "142923.997500", "142924.457500", "142924.917500", "142925.377500", "142925.837500", "142926.297500", "142926.757500", "142927.217500", "142927.677500", "142928.137500", "142928.597500", "142929.057500", "142929.517500", "142929.977500", "142930.437500", "142930.897500", "142931.357500", "142931.817500", "142932.277500", "142932.737500", "142933.197500", "142933.657500", "142934.117500", "142934.577500", "142935.037500", "142935.497500", "142935.957500", "142936.417500", "142936.877500", "142937.337500", "142937.797500", "142938.257500", "142938.717500", "142939.177500", "142939.637500", "142940.097500", "142940.557500", "142941.017500", "142941.477500", "142941.937500", "142942.397500", "142942.857500", "142943.317500", "142943.777500", "142944.237500", "142944.697500", "142945.157500", "142945.617500", "142946.077500", "142946.537500", "142946.997500", "142947.457500", "142947.917500", "142948.377500", "142948.837500", "142949.297500", "142949.757500", "142950.217500", "142950.677500", "142951.137500", "142951.597500", "142952.057500", "142952.517500", "142952.977500", "142953.437500", "142953.897500", "142954.357500", "142954.817500", "142955.277500", "142955.737500", "142956.197500", "142956.657500", "142957.117500", "142957.577500", "142958.037500", "142958.497500", "142958.957500", "142959.417500", "142959.877500", "143000.337500", "143000.797500", "143001.257500", "143001.717500", "143002.177500", "143002.637500", "143003.097500", "143003.557500", "143004.017500", "143004.477500", "143004.937500", "143005.397500", "143005.857500", "143006.317500", "143006.777500"],
