{
  "AcquisitionMatrixPE": 82,
  "AcquisitionNumber": 1,
  "AcquisitionTime": "16:10:27.030000",
  "BandwidthPerPixelPhaseEncode": 24.888,
  "BaseResolution": 82,
  "BodyPartExamined": "BRAIN",
  "ConsistencyInfo": "N4_VE11E_LATEST_20181129",
  "ConversionSoftware": "dcm2niix",
  "ConversionSoftwareVersion": "v1.0.20201102",
  "DerivedVendorReportedEchoSpacing": 0.00049,
  "DeviceSerialNumber": "66112",
  "DwellTime": 2e-06,
  "EchoTime": 0.0272,
  "EchoTrainLength": 82,
  "EffectiveEchoSpacing": 0.00049,
  "FlipAngle": 44,
  "ImageComments": "Unaliased MB8/PE3",
  "ImageOrientationPatientDICOM": [0.999305, -0.0303518, -0.0216175, 0.0312299, 0.99865, 0.0415089],
  "ImageType": [
    "ORIGINAL",
    "PRIMARY",
    "M",
    "MB",
    "ND",
    "NORM",
    "MOSAIC"
],
  "ImagingFrequency": 123.252,
  "InPlanePhaseEncodingDirectionDICOM": "COL",
  "InstitutionAddress": "Maynard 3,Hanover,NH,US,03755",
  "InstitutionName": "Dartmouth College - PBS",
  "InstitutionalDepartmentName": "Department",
  "MRAcquisitionType": "2D",
  "MagneticFieldStrength": 3,
  "Manufacturer": "Siemens",
  "ManufacturersModelName": "Prisma",
  "Modality": "MR",
  "MultibandAccelerationFactor": 8,
  "PartialFourier": 1,
  "PatientPosition": "HFS",
  "PercentPhaseFOV": 100,
  "PercentSampling": 100,
  "PhaseEncodingDirection": "j-",
  "PhaseEncodingSteps": 82,
  "PhaseResolution": 1,
  "PixelBandwidth": 3050,
  "ProcedureStepDescription": "Wager_Wager^1076_spacetop",
  "ProtocolName": "func_run-01_task-social_acq-ap-mb8",
  "PulseSequenceDetails": "%CustomerSeq%\\cmrr_mbep2d_bold",
  "ReceiveCoilActiveElements": "HEA;HEP",
  "ReceiveCoilName": "Head_32",
  "ReconMatrixPE": 82,
  "RepetitionTime": 0.46,
  "SAR": 0.11319,
  "ScanOptions": "FS",
  "ScanningSequence": "EP",
  "SequenceName": "epfid2d1_82",
  "SequenceVariant": "SK\\SS",
  "SeriesDescription": "func_run-01_task-social_acq-ap-mb8",
  "SeriesNumber": 12,
  "ShimSetting": [4131, -7757, -7277, 554, -77, -41, -26, 80],
  "SliceThickness": 2.7,
  "SliceTiming": [0, 0.2525, 0.0625, 0.315, 0.1275, 0.3775, 0.19, 0, 0.2525, 0.0625, 0.315, 0.1275, 0.3775, 0.19, 0, 0.2525, 0.0625, 0.315, 0.1275, 0.3775, 0.19, 0, 0.2525, 0.0625, 0.315, 0.1275, 0.3775, 0.19, 0, 0.2525, 0.0625, 0.315, 0.1275, 0.3775, 0.19, 0, 0.2525, 0.0625, 0.315, 0.1275, 0.3775, 0.19, 0, 0.2525, 0.0625, 0.315, 0.1275, 0.3775, 0.19, 0, 0.2525, 0.0625, 0.315, 0.1275, 0.3775, 0.19],
  "SoftwareVersions": "syngo MR E11",
  "SpacingBetweenSlices": 2.7,
  "StationName": "AWP66112",
  "TaskName": "social",
  "TotalReadoutTime": 0.03969,
  "TxRefAmp": 261.932,
  "WipMemBlock": "4579464f-1869-46ae-8551-e900303b933b||Sequence: R016 ve11e/master r/434b28f1; Aug  7 2019 18:53:46 by eja",
  "dcmmeta_affine": [
    [-2.681063652038574, 0.08378744125366211, -0.054886844009160995, 110.87623596191406],
    [0.08143174648284912, 2.679304838180542, 0.11381898820400238, -101.37508392333984],
    [-0.05799821764230728, -0.11136533319950104, 2.6970415115356445, -64.10438537597656],
    [0.0, 0.0, 0.0, 1.0]
],
  "dcmmeta_reorient_transform": [
    [0.0, -1.0, 0.0, 81.0],
    [1.0, 0.0, 0.0, 0.0],
    [0.0, 0.0, 1.0, 0.0],
    [0.0, 0.0, 0.0, 1.0]
],
  "dcmmeta_shape": [82, 82, 56, 872],
  "dcmmeta_slice_dim": 2,
  "dcmmeta_version": 0.6,
  "global": {
    "const": {
      "AccessionNumber": "A003916",
      "AcquisitionMatrix": [82, 0, 0, 82],
      "AngioFlag": "N",
      "BitsAllocated": 16,
      "BitsStored": 16,
      "BodyPartExamined": "BRAIN",
      "Columns": 656,
      "EchoNumbers": 1,
      "EchoTime": 27.2,
      "EchoTrainLength": 82,
      "FlipAngle": 44.0,
      "HighBit": 15,
      "ImageOrientationPatient": [0.99930548348166, -0.0303518312617, -0.0216175165674, 0.03122986345438, 0.99864994223362, 0.04150889670183],
      "ImagePositionPatient": [-911.17525843308, -861.2381697767, -88.441342731082],
      "ImageType": [
        "ORIGINAL",
        "PRIMARY",
        "M",
        "MB",
        "ND",
        "NORM",
        "MOSAIC"
],
      "ImagedNucleus": "1H",
      "ImagingFrequency": 123.252201,
      "InPlanePhaseEncodingDirection": "COL",
      "MRAcquisitionType": "2D",
      "MagneticFieldStrength": 3.0,
      "Manufacturer": "SIEMENS",
      "ManufacturerModelName": "Prisma",
      "Modality": "MR",
      "NumberOfAverages": 1.0,
      "NumberOfPhaseEncodingSteps": 82,
      "PercentPhaseFieldOfView": 100.0,
      "PercentSampling": 100.0,
      "PerformedProcedureStepStartTime": "152634.498000",
      "PhotometricInterpretation": "MONOCHROME2",
      "PixelBandwidth": 3050.0,
      "PixelRepresentation": 0,
      "PixelSpacing": [2.6829268932343, 2.6829268932343],
      "ProtocolName": "func_run-01_task-social_acq-ap-mb8",
      "RepetitionTime": 460.0,
      "Rows": 656,
      "SAR": 0.113190028055,
      "SamplesPerPixel": 1,
      "ScanOptions": "FS",
      "ScanningSequence": "EP",
      "SequenceName": "epfid2d1_82",
      "SequenceVariant": [
        "SK",
        "SS"
],
      "SeriesDescription": "func_run-01_task-social_acq-ap-mb8",
      "SeriesNumber": 12,
      "SeriesTime": "161053.576000",
      "SliceLocation": -70.56157301199,
      "SliceThickness": 2.7000000476837,
      "SmallestImagePixelValue": 0,
      "SoftwareVersions": "syngo MR E11",
      "SpacingBetweenSlices": 2.6999999920503,
      "SpecificCharacterSet": "ISO_IR 100",
      "StudyID": "4",
      "StudyTime": "152634.447000",
      "TransmitCoilName": "Body",
      "VariableFlipAngleFlag": "N",
      "WindowCenterWidthExplanation": "Algo1"
    },
    "slices": {}
  },
  "time": {
    "samples": {
      "AcquisitionNumber": [1, 2, 3, 4, 5, 6, 7, 8, 9, 10, 11, 12, 13, 14, 15, 16, 17, 18, 19, 20, 21, 22, 23, 24, 25, 26, 27, 28, 29, 30, 31, 32, 33, 34, 35, 36, 37, 38, 39, 40, 41, 42, 43, 44, 45, 46, 47, 48, 49, 50, 51, 52, 53, 54, 55, 56, 57, 58, 59, 60, 61, 62, 63, 64, 65, 66, 67, 68, 69, 70, 71, 72, 73, 74, 75, 76, 77, 78, 79, 80, 81, 82, 83, 84, 85, 86, 87, 88, 89, 90, 91, 92, 93, 94, 95, 96, 97, 98, 99, 100, 101, 102, 103, 104, 105, 106, 107, 108, 109, 110, 111, 112, 113, 114, 115, 116, 117, 118, 119, 120, 121, 122, 123, 124, 125, 126, 127, 128, 129, 130, 131, 132, 133, 134, 135, 136, 137, 138, 139, 140, 141, 142, 143, 144, 145, 146, 147, 148, 149, 150, 151, 152, 153, 154, 155, 156, 157, 158, 159, 160, 161, 162, 163, 164, 165, 166, 167, 168, 169, 170, 171, 172, 173, 174, 175, 176, 177, 178, 179, 180, 181, 182, 183, 184, 185, 186, 187, 188, 189, 190, 191, 192, 193, 194, 195, 196, 197, 198, 199, 200, 201, 202, 203, 204, 205, 206, 207, 208, 209, 210, 211, 212, 213, 214, 215, 216, 217, 218, 219, 220, 221, 222, 223, 224, 225, 226, 227, 228, 229, 230, 231, 232, 233, 234, 235, 236, 237, 238, 239, 240, 241, 242, 243, 244, 245, 246, 247, 248, 249, 250, 251, 252, 253, 254, 255, 256, 257, 258, 259, 260, 261, 262, 263, 264, 265, 266, 267, 268, 269, 270, 271, 272, 273, 274, 275, 276, 277, 278, 279, 280, 281, 282, 283, 284, 285, 286, 287, 288, 289, 290, 291, 292, 293, 294, 295, 296, 297, 298, 299, 300, 301, 302, 303, 304, 305, 306, 307, 308, 309, 310, 311, 312, 313, 314, 315, 316, 317, 318, 319, 320, 321, 322, 323, 324, 325, 326, 327, 328, 329, 330, 331, 332, 333, 334, 335, 336, 337, 338, 339, 340, 341, 342, 343, 344, 345, 346, 347, 348, 349, 350, 351, 352, 353, 354, 355, 356, 357, 358, 359, 360, 361, 362, 363, 364, 365, 366, 367, 368, 369, 370, 371, 372, 373, 374, 375, 376, 377, 378, 379, 380, 381, 382, 383, 384, 385, 386, 387, 388, 389, 390, 391, 392, 393, 394, 395, 396, 397, 398, 399, 400, 401, 402, 403, 404, 405, 406, 407, 408, 409, 410, 411, 412, 413, 414, 415, 416, 417, 418, 419, 420, 421, 422, 423, 424, 425, 426, 427, 428, 429, 430, 431, 432, 433, 434, 435, 436, 437, 438, 439, 440, 441, 442, 443, 444, 445, 446, 447, 448, 449, 450, 451, 452, 453, 454, 455, 456, 457, 458, 459, 460, 461, 462, 463, 464, 465, 466, 467, 468, 469, 470, 471, 472, 473, 474, 475, 476, 477, 478, 479, 480, 481, 482, 483, 484, 485, 486, 487, 488, 489, 490, 491, 492, 493, 494, 495, 496, 497, 498, 499, 500, 501, 502, 503, 504, 505, 506, 507, 508, 509, 510, 511, 512, 513, 514, 515, 516, 517, 518, 519, 520, 521, 522, 523, 524, 525, 526, 527, 528, 529, 530, 531, 532, 533, 534, 535, 536, 537, 538, 539, 540, 541, 542, 543, 544, 545, 546, 547, 548, 549, 550, 551, 552, 553, 554, 555, 556, 557, 558, 559, 560, 561, 562, 563, 564, 565, 566, 567, 568, 569, 570, 571, 572, 573, 574, 575, 576, 577, 578, 579, 580, 581, 582, 583, 584, 585, 586, 587, 588, 589, 590, 591, 592, 593, 594, 595, 596, 597, 598, 599, 600, 601, 602, 603, 604, 605, 606, 607, 608, 609, 610, 611, 612, 613, 614, 615, 616, 617, 618, 619, 620, 621, 622, 623, 624, 625, 626, 627, 628, 629, 630, 631, 632, 633, 634, 635, 636, 637, 638, 639, 640, 641, 642, 643, 644, 645, 646, 647, 648, 649, 650, 651, 652, 653, 654, 655, 656, 657, 658, 659, 660, 661, 662, 663, 664, 665, 666, 667, 668, 669, 670, 671, 672, 673, 674, 675, 676, 677, 678, 679, 680, 681, 682, 683, 684, 685, 686, 687, 688, 689, 690, 691, 692, 693, 694, 695, 696, 697, 698, 699, 700, 701, 702, 703, 704, 705, 706, 707, 708, 709, 710, 711, 712, 713, 714, 715, 716, 717, 718, 719, 720, 721, 722, 723, 724, 725, 726, 727, 728, 729, 730, 731, 732, 733, 734, 735, 736, 737, 738, 739, 740, 741, 742, 743, 744, 745, 746, 747, 748, 749, 750, 751, 752, 753, 754, 755, 756, 757, 758, 759, 760, 761, 762, 763, 764, 765, 766, 767, 768, 769, 770, 771, 772, 773, 774, 775, 776, 777, 778, 779, 780, 781, 782, 783, 784, 785, 786, 787, 788, 789, 790, 791, 792, 793, 794, 795, 796, 797, 798, 799, 800, 801, 802, 803, 804, 805, 806, 807, 808, 809, 810, 811, 812, 813, 814, 815, 816, 817, 818, 819, 820, 821, 822, 823, 824, 825, 826, 827, 828, 829, 830, 831, 832, 833, 834, 835, 836, 837, 838, 839, 840, 841, 842, 843, 844, 845, 846, 847, 848, 849, 850, 851, 852, 853, 854, 855, 856, 857, 858, 859, 860, 861, 862, 863, 864, 865, 866, 867, 868, 869, 870, 871, 872],
      "AcquisitionTime": ["161027.030000", "161027.490000", "161027.950000", "161028.410000", "161028.870000", "161029.330000", "161029.790000", "161030.250000", "161030.710000", "161031.170000", "161031.630000", "161032.090000", "161032.550000", "161033.010000", "161033.470000", "161033.930000", "161034.390000", "161034.850000", "161035.310000", "161035.770000", "161036.230000", "161036.690000", "161037.150000", "161037.610000", "161038.070000", "161038.530000", "161038.990000", "161039.450000", "161039.910000", "161040.370000", "161040.830000", "161041.290000", "161041.750000", "161042.210000", "161042.670000", "161043.130000", "161043.590000", "161044.050000", "161044.510000", "161044.970000", "161045.430000", "161045.890000", "161046.350000", "161046.810000", "161047.270000", "161047.730000", "161048.190000", "161048.650000", "161049.110000", "161049.570000", "161050.030000", "161050.490000", "161050.950000", "161051.410000", "161051.870000", "161052.330000", "161052.790000", "161053.250000", "161053.710000", "161054.170000", "161054.630000", "161055.090000", "161055.550000", "161056.010000", "161056.470000", "161056.930000", "161057.390000", "161057.850000", "161058.310000", "161058.770000", "161059.230000", "161059.690000", "161100.150000", "161100.610000", "161101.070000", "161101.530000", "161101.990000", "161102.450000", "161102.910000", "161103.370000", "161103.830000", "161104.290000", "161104.750000", "161105.210000", "161105.670000", "161106.130000", "161106.590000", "161107.050000", "161107.510000", "161107.970000", "161108.430000", "161108.890000", "161109.350000", "161109.810000", "161110.270000", "161110.730000", "161111.190000", "161111.650000", "161112.110000", "161112.570000", "161113.030000", "161113.490000", "161113.950000", "161114.410000", "161114.870000", "161115.330000", "161115.790000", "161116.250000", "161116.710000", "161117.170000", "161117.630000", "161118.090000", "161118.550000", "161119.010000", "161119.470000", "161119.930000", "161120.390000", "161120.850000", "161121.310000", "161121.770000", "161122.230000", "161122.690000", "161123.150000", "161123.610000", "161124.070000", "161124.530000", "161124.990000", "161125.450000", "161125.910000", "161126.370000", "161126.830000", "161127.290000", "161127.750000", "161128.210000", "161128.670000", "161129.130000", "161129.590000", "161130.050000", "161130.510000", "161130.970000", "161131.430000", "161131.890000", "161132.350000", "161132.810000", "161133.270000", "161133.730000", "161134.190000", "161134.650000", "161135.110000", "161135.570000", "161136.030000", "161136.490000", "161136.950000", "161137.410000", "161137.870000", "161138.330000", "161138.790000", "161139.250000", "161139.710000", "161140.170000", "161140.630000", "161141.090000", "161141.550000", "161142.010000", "161142.470000", "161142.930000", "161143.390000", "161143.850000", "161144.310000", "161144.770000", "161145.230000", "161145.690000", "161146.150000", "161146.610000", "161147.070000", "161147.530000", "161147.990000", "161148.450000", "161148.910000", "161149.370000", "161149.830000", "161150.290000", "161150.750000", "161151.210000", "161151.670000", "161152.130000", "161152.590000", "161153.050000", "161153.510000", "161153.970000", "161154.430000", "161154.890000", "161155.350000", "161155.810000", "161156.270000", "161156.730000", "161157.190000", "161157.650000", "161158.110000", "161158.570000", "161159.030000", "161159.490000", "161159.950000", "161200.410000", "161200.870000", "161201.330000", "161201.790000", "161202.250000", "161202.710000", "161203.170000", "161203.630000", "161204.090000", "161204.550000", "161205.010000", "161205.470000", "161205.930000", "161206.390000", "161206.850000", "161207.310000", "161207.770000", "161208.230000", "161208.690000", "161209.150000", "161209.610000", "161210.070000", "161210.530000", "161210.990000", "161211.450000", "161211.910000", "161212.370000", "161212.830000", "161213.290000", "161213.750000", "161214.210000", "161214.670000", "161215.130000", "161215.590000", "161216.050000", "161216.510000", "161216.970000", "161217.430000", "161217.890000", "161218.350000", "161218.810000", "161219.270000", "161219.730000", "161220.190000", "161220.650000", "161221.110000", "161221.570000", "161222.030000", "161222.490000", "161222.950000", "161223.410000", "161223.870000", "161224.330000", "161224.790000", "161225.250000", "161225.710000", "161226.170000", "161226.630000", "161227.090000", "161227.550000", "161228.010000", "161228.470000", "161228.930000", "161229.390000", "161229.850000", "161230.310000", "161230.770000", "161231.230000", "161231.690000", "161232.150000", "161232.610000", "161233.070000", "161233.530000", "161233.990000", "161234.450000", "161234.910000", "161235.370000", "161235.830000", "161236.290000", "161236.750000", "161237.210000", "161237.670000", "161238.130000", "161238.590000", "161239.050000", "161239.510000", "161239.970000", "161240.430000", "161240.890000", "161241.350000", "161241.810000", "161242.270000", "161242.730000", "161243.190000", "161243.650000", "161244.110000", "161244.570000", "161245.030000", "161245.490000", "161245.950000", "161246.410000", "161246.870000", "161247.330000", "161247.790000", "161248.250000", "161248.710000", "161249.170000", "161249.630000", "161250.090000", "161250.550000", "161251.010000", "161251.470000", "161251.930000", "161252.390000", "161252.850000", "161253.310000", "161253.770000", "161254.230000", "161254.690000", "161255.150000", "161255.610000", "161256.070000", "161256.530000", "161256.990000", "161257.450000", "161257.910000", "161258.370000", "161258.830000", "161259.290000", "161259.750000", "161300.210000", "161300.670000", "161301.130000", "161301.590000", "161302.050000", "161302.510000", "161302.970000", "161303.430000", "161303.890000", "161304.350000", "161304.810000", "161305.270000", "161305.730000", "161306.190000", "161306.650000", "161307.110000", "161307.570000", "161308.030000", "161308.490000", "161308.950000", "161309.410000", "161309.870000", "161310.330000", "161310.790000", "161311.250000", "161311.710000", "161312.170000", "161312.630000", "161313.090000", "161313.550000", "161314.010000", "161314.470000", "161314.930000", "161315.390000", "161315.850000", "161316.310000", "161316.770000", "161317.230000", "161317.690000", "161318.150000", "161318.610000", "161319.070000", "161319.530000", "161319.990000", "161320.450000", "161320.910000", "161321.370000", "161321.830000", "161322.290000", "161322.750000", "161323.210000", "161323.670000", "161324.130000", "161324.590000", "161325.050000", "161325.510000", "161325.970000", "161326.430000", "161326.890000", "161327.350000", "161327.810000", "161328.270000", "161328.730000", "161329.190000", "161329.650000", "161330.110000", "161330.570000", "161331.030000", "161331.490000", "161331.950000", "161332.410000", "161332.870000", "161333.330000", "161333.790000", "161334.250000", "161334.710000", "161335.170000", "161335.630000", "161336.090000", "161336.550000", "161337.010000", "161337.470000", "161337.930000", "161338.390000", "161338.850000", "161339.310000", "161339.770000", "161340.230000", "161340.690000", "161341.150000", "161341.610000", "161342.070000", "161342.530000", "161342.990000", "161343.450000", "161343.910000", "161344.370000", "161344.830000", "161345.290000", "161345.750000", "161346.210000", "161346.670000", "161347.130000", "161347.590000", "161348.050000", "161348.510000", "161348.970000", "161349.430000", "161349.890000", "161350.350000", "161350.810000", "161351.270000", "161351.730000", "161352.190000", "161352.650000", "161353.110000", "161353.570000", "161354.030000", "161354.490000", "161354.950000", "161355.410000", "161355.870000", "161356.330000", "161356.790000", "161357.250000", "161357.710000", "161358.170000", "161358.630000", "161359.090000", "161359.550000", "161400.010000", "161400.470000", "161400.930000", "161401.390000", "161401.850000", "161402.310000", "161402.770000", "161403.230000", "161403.690000", "161404.150000", "161404.610000", "161405.070000", "161405.530000", "161405.990000", "161406.450000", "161406.910000", "161407.370000", "161407.830000", "161408.290000", "161408.750000", "161409.210000", "161409.670000", "161410.130000", "161410.590000", "161411.050000", "161411.510000", "161411.970000", "161412.430000", "161412.890000", "161413.350000", "161413.810000", "161414.270000", "161414.730000", "161415.190000", "161415.650000", "161416.110000", "161416.570000", "161417.030000", "161417.490000", "161417.950000", "161418.410000", "161418.870000", "161419.330000", "161419.790000", "161420.250000", "161420.710000", "161421.170000", "161421.630000", "161422.090000", "161422.550000", "161423.010000", "161423.470000", "161423.930000", "161424.390000", "161424.850000", "161425.310000", "161425.770000", "161426.230000", "161426.690000", "161427.150000", "161427.610000", "161428.070000", "161428.530000", "161428.990000", "161429.450000", "161429.910000", "161430.370000", "161430.830000", "161431.290000", "161431.750000", "161432.210000", "161432.670000", "161433.130000", "161433.590000", "161434.050000", "161434.510000", "161434.970000", "161435.430000", "161435.890000", "161436.350000", "161436.810000", "161437.270000", "161437.730000", "161438.190000", "161438.650000", "161439.110000", "161439.570000", "161440.030000", "161440.490000", "161440.950000", "161441.410000", "161441.870000", "161442.330000", "161442.790000", "161443.250000", "161443.710000", "161444.170000", "161444.630000", "161445.090000", "161445.550000", "161446.010000", "161446.470000", "161446.930000", "161447.390000", "161447.850000", "161448.310000", "161448.770000", "161449.230000", "161449.690000", "161450.150000", "161450.610000", "161451.070000", "161451.530000", "161451.990000", "161452.450000", "161452.910000", "161453.370000", "161453.830000", "161454.290000", "161454.750000", "161455.210000", "161455.670000", "161456.130000", "161456.590000", "161457.050000", "161457.510000", "161457.970000", "161458.430000", "161458.890000", "161459.350000", "161459.810000", "161500.270000", "161500.730000", "161501.190000", "161501.650000", "161502.110000", "161502.570000", "161503.030000", "161503.490000", "161503.950000", "161504.410000", "161504.870000", "161505.330000", "161505.790000", "161506.250000", "161506.710000", "161507.170000", "161507.630000", "161508.090000", "161508.550000", "161509.010000", "161509.470000", "161509.930000", "161510.390000", "161510.850000", "161511.310000", "161511.770000", "161512.230000", "161512.690000", "161513.150000", "161513.610000", "161514.070000", "161514.530000", "161514.990000", "161515.450000", "161515.910000", "161516.370000", "161516.830000", "161517.290000", "161517.750000", "161518.210000", "161518.670000", "161519.130000", "161519.590000", "161520.050000", "161520.510000", "161520.970000", "161521.430000", "161521.890000", "161522.350000", "161522.810000", "161523.270000", "161523.730000", "161524.190000", "161524.650000", "161525.110000", "161525.570000", "161526.030000", "161526.490000", "161526.950000", "161527.410000", "161527.870000", "161528.330000", "161528.790000", "161529.250000", "161529.710000", "161530.170000", "161530.630000", "161531.090000", "161531.550000", "161532.010000", "161532.470000", "161532.930000", "161533.390000", "161533.850000", "161534.310000", "161534.770000", "161535.230000", "161535.690000", "161536.150000", "161536.610000", "161537.070000", "161537.530000", "161537.990000", "161538.450000", "161538.910000", "161539.370000", "161539.830000", "161540.290000", "161540.750000", "161541.210000", "161541.670000", "161542.130000", "161542.590000", "161543.050000", "161543.510000", "161543.970000", "161544.430000", "161544.890000", "161545.350000", "161545.810000", "161546.270000", "161546.730000", "161547.190000", "161547.650000", "161548.110000", "161548.570000", "161549.030000", "161549.490000", "161549.950000", "161550.410000", "161550.870000", "161551.330000", "161551.790000", "161552.250000", "161552.710000", "161553.170000", "161553.630000", "161554.090000", "161554.550000", "161555.010000", "161555.470000", "161555.930000", "161556.390000", "161556.850000", "161557.310000", "161557.770000", "161558.230000", "161558.690000", "161559.150000", "161559.610000", "161600.070000", "161600.530000", "161600.990000", "161601.450000", "161601.910000", "161602.370000", "161602.830000", "161603.290000", "161603.750000", "161604.210000", "161604.670000", "161605.130000", "161605.590000", "161606.050000", "161606.510000", "161606.970000", "161607.430000", "161607.890000", "161608.350000", "161608.810000", "161609.270000", "161609.730000", "161610.190000", "161610.650000", "161611.110000", "161611.570000", "161612.030000", "161612.490000", "161612.950000", "161613.410000", "161613.870000", "161614.330000", "161614.790000", "161615.250000", "161615.710000", "161616.170000", "161616.630000", "161617.090000", "161617.550000", "161618.010000", "161618.470000", "161618.930000", "161619.390000", "161619.850000", "161620.310000", "161620.770000", "161621.230000", "161621.690000", "161622.150000", "161622.610000", "161623.070000", "161623.530000", "161623.990000", "161624.450000", "161624.910000", "161625.370000", "161625.830000", "161626.290000", "161626.750000", "161627.210000", "161627.670000", "161628.130000", "161628.590000", "161629.050000", "161629.510000", "161629.970000", "161630.430000", "161630.890000", "161631.350000", "161631.810000", "161632.270000", "161632.730000", "161633.190000", "161633.650000", "161634.110000", "161634.570000", "161635.030000", "161635.490000", "161635.950000", "161636.410000", "161636.870000", "161637.330000", "161637.790000", "161638.250000", "161638.710000", "161639.170000", "161639.630000", "161640.090000", "161640.550000", "161641.010000", "161641.470000", "161641.930000", "161642.390000", "161642.850000", "161643.310000", "161643.770000", "161644.230000", "161644.690000", "161645.150000", "161645.610000", "161646.070000", "161646.530000", "161646.990000", "161647.450000", "161647.910000", "161648.370000", "161648.830000", "161649.290000", "161649.750000", "161650.210000", "161650.670000", "161651.130000", "161651.590000", "161652.050000", "161652.510000", "161652.970000", "161653.430000", "161653.890000", "161654.350000", "161654.810000", "161655.270000", "161655.730000", "161656.190000", "161656.650000", "161657.110000", "161657.570000", "161658.030000", "161658.490000", "161658.950000", "161659.410000", "161659.870000", "161700.330000", "161700.790000", "161701.250000", "161701.710000", "161702.170000", "161702.630000", "161703.090000", "161703.550000", "161704.010000", "161704.470000", "161704.930000", "161705.390000", "161705.850000", "161706.310000", "161706.770000", "161707.230000", "161707.690000"],
