{
  "AcquisitionMatrixPE": 82,
  "AcquisitionNumber": 1,
  "AcquisitionTime": "16:31:44.092500",
  "BandwidthPerPixelPhaseEncode": 24.888,
  "BaseResolution": 82,
  "BodyPartExamined": "BRAIN",
  "ConsistencyInfo": "N4_VE11E_LATEST_20181129",
  "ConversionSoftware": "dcm2niix",
  "ConversionSoftwareVersion": "v1.0.20201102",
  "DerivedVendorReportedEchoSpacing": 0.00049,
  "DeviceSerialNumber": "66112",
  "DwellTime": 2e-06,
  "EchoTime": 0.0272,
  "EchoTrainLength": 82,
  "EffectiveEchoSpacing": 0.00049,
  "FlipAngle": 44,
  "ImageComments": "Unaliased MB8/PE3",
  "ImageOrientationPatientDICOM": [0.999305, -0.0303518, -0.0216175, 0.0312299, 0.99865, 0.0415089],
  "ImageType": [
    "ORIGINAL",
    "PRIMARY",
    "M",
    "MB",
    "ND",
    "NORM",
    "MOSAIC"
],
  "ImagingFrequency": 123.252,
  "InPlanePhaseEncodingDirectionDICOM": "COL",
  "InstitutionAddress": "Maynard 3,Hanover,NH,US,03755",
  "InstitutionName": "Dartmouth College - PBS",
  "InstitutionalDepartmentName": "Department",
  "MRAcquisitionType": "2D",
  "MagneticFieldStrength": 3,
  "Manufacturer": "Siemens",
  "ManufacturersModelName": "Prisma",
  "Modality": "MR",
  "MultibandAccelerationFactor": 8,
  "PartialFourier": 1,
  "PatientPosition": "HFS",
  "PercentPhaseFOV": 100,
  "PercentSampling": 100,
  "PhaseEncodingDirection": "j-",
  "PhaseEncodingSteps": 82,
  "PhaseResolution": 1,
  "PixelBandwidth": 3050,
  "ProcedureStepDescription": "Wager_Wager^1076_spacetop",
  "ProtocolName": "func_run-04_task-social_acq-ap-mb8",
  "PulseSequenceDetails": "%CustomerSeq%\\cmrr_mbep2d_bold",
  "ReceiveCoilActiveElements": "HEA;HEP",
  "ReceiveCoilName": "Head_32",
  "ReconMatrixPE": 82,
  "RepetitionTime": 0.46,
  "SAR": 0.11319,
  "ScanOptions": "FS",
  "ScanningSequence": "EP",
  "SequenceName": "epfid2d1_82",
  "SequenceVariant": "SK\\SS",
  "SeriesDescription": "func_run-04_task-social_acq-ap-mb8",
  "SeriesNumber": 18,
  "ShimSetting": [4131, -7757, -7277, 554, -77, -41, -26, 80],
  "SliceThickness": 2.7,
  "SliceTiming": [0, 0.25, 0.0625, 0.3125, 0.125, 0.3775, 0.1875, 0, 0.25, 0.0625, 0.3125, 0.125, 0.3775, 0.1875, 0, 0.25, 0.0625, 0.3125, 0.125, 0.3775, 0.1875, 0, 0.25, 0.0625, 0.3125, 0.125, 0.3775, 0.1875, 0, 0.25, 0.0625, 0.3125, 0.125, 0.3775, 0.1875, 0, 0.25, 0.0625, 0.3125, 0.125, 0.3775, 0.1875, 0, 0.25, 0.0625, 0.3125, 0.125, 0.3775, 0.1875, 0, 0.25, 0.0625, 0.3125, 0.125, 0.3775, 0.1875],
  "SoftwareVersions": "syngo MR E11",
  "SpacingBetweenSlices": 2.7,
  "StationName": "AWP66112",
  "TaskName": "social",
  "TotalReadoutTime": 0.03969,
  "TxRefAmp": 261.932,
  "WipMemBlock": "2a78b9aa-ceb5-4177-b497-25c06926efd1||Sequence: R016 ve11e/master r/434b28f1; Aug  7 2019 18:53:46 by eja",
  "dcmmeta_affine": [
    [-2.681063652038574, 0.08378744125366211, -0.054886844009160995, 110.87623596191406],
    [0.08143174648284912, 2.679304838180542, 0.11381898820400238, -101.37508392333984],
    [-0.05799821764230728, -0.11136533319950104, 2.6970415115356445, -64.10438537597656],
    [0.0, 0.0, 0.0, 1.0]
],
  "dcmmeta_reorient_transform": [
    [0.0, -1.0, 0.0, 81.0],
    [1.0, 0.0, 0.0, 0.0],
    [0.0, 0.0, 1.0, 0.0],
    [0.0, 0.0, 0.0, 1.0]
],
  "dcmmeta_shape": [82, 82, 56, 872],
  "dcmmeta_slice_dim": 2,
  "dcmmeta_version": 0.6,
  "global": {
    "const": {
      "AccessionNumber": "A003916",
      "AcquisitionMatrix": [82, 0, 0, 82],
      "AngioFlag": "N",
      "BitsAllocated": 16,
      "BitsStored": 16,
      "BodyPartExamined": "BRAIN",
      "Columns": 656,
      "EchoNumbers": 1,
      "EchoTime": 27.2,
      "EchoTrainLength": 82,
      "FlipAngle": 44.0,
      "HighBit": 15,
      "ImageOrientationPatient": [0.99930548348166, -0.0303518312617, -0.0216175165674, 0.03122986345438, 0.99864994223362, 0.04150889670183],
      "ImagePositionPatient": [-911.17525843308, -861.2381697767, -88.441342731082],
      "ImageType": [
        "ORIGINAL",
        "PRIMARY",
        "M",
        "MB",
        "ND",
        "NORM",
        "MOSAIC"
],
      "ImagedNucleus": "1H",
      "ImagingFrequency": 123.252213,
      "InPlanePhaseEncodingDirection": "COL",
      "MRAcquisitionType": "2D",
      "MagneticFieldStrength": 3.0,
      "Manufacturer": "SIEMENS",
      "ManufacturerModelName": "Prisma",
      "Modality": "MR",
      "NumberOfAverages": 1.0,
      "NumberOfPhaseEncodingSteps": 82,
      "PercentPhaseFieldOfView": 100.0,
      "PercentSampling": 100.0,
      "PerformedProcedureStepStartTime": "152634.498000",
      "PhotometricInterpretation": "MONOCHROME2",
      "PixelBandwidth": 3050.0,
      "PixelRepresentation": 0,
      "PixelSpacing": [2.6829268932343, 2.6829268932343],
      "ProtocolName": "func_run-04_task-social_acq-ap-mb8",
      "RepetitionTime": 460.0,
      "Rows": 656,
      "SAR": 0.113190028055,
      "SamplesPerPixel": 1,
      "ScanOptions": "FS",
      "ScanningSequence": "EP",
      "SequenceName": "epfid2d1_82",
      "SequenceVariant": [
        "SK",
        "SS"
],
      "SeriesDescription": "func_run-04_task-social_acq-ap-mb8",
      "SeriesNumber": 18,
      "SeriesTime": "163213.577000",
      "SliceLocation": -70.56157301199,
      "SliceThickness": 2.7000000476837,
      "SmallestImagePixelValue": 0,
      "SoftwareVersions": "syngo MR E11",
      "SpacingBetweenSlices": 2.6999999920503,
      "SpecificCharacterSet": "ISO_IR 100",
      "StudyID": "4",
      "StudyTime": "152634.447000",
      "TransmitCoilName": "Body",
      "VariableFlipAngleFlag": "N",
      "WindowCenterWidthExplanation": "Algo1"
    },
    "slices": {}
  },
  "time": {
    "samples": {
      "AcquisitionNumber": [1, 2, 3, 4, 5, 6, 7, 8, 9, 10, 11, 12, 13, 14, 15, 16, 17, 18, 19, 20, 21, 22, 23, 24, 25, 26, 27, 28, 29, 30, 31, 32, 33, 34, 35, 36, 37, 38, 39, 40, 41, 42, 43, 44, 45, 46, 47, 48, 49, 50, 51, 52, 53, 54, 55, 56, 57, 58, 59, 60, 61, 62, 63, 64, 65, 66, 67, 68, 69, 70, 71, 72, 73, 74, 75, 76, 77, 78, 79, 80, 81, 82, 83, 84, 85, 86, 87, 88, 89, 90, 91, 92, 93, 94, 95, 96, 97, 98, 99, 100, 101, 102, 103, 104, 105, 106, 107, 108, 109, 110, 111, 112, 113, 114, 115, 116, 117, 118, 119, 120, 121, 122, 123, 124, 125, 126, 127, 128, 129, 130, 131, 132, 133, 134, 135, 136, 137, 138, 139, 140, 141, 142, 143, 144, 145, 146, 147, 148, 149, 150, 151, 152, 153, 154, 155, 156, 157, 158, 159, 160, 161, 162, 163, 164, 165, 166, 167, 168, 169, 170, 171, 172, 173, 174, 175, 176, 177, 178, 179, 180, 181, 182, 183, 184, 185, 186, 187, 188, 189, 190, 191, 192, 193, 194, 195, 196, 197, 198, 199, 200, 201, 202, 203, 204, 205, 206, 207, 208, 209, 210, 211, 212, 213, 214, 215, 216, 217, 218, 219, 220, 221, 222, 223, 224, 225, 226, 227, 228, 229, 230, 231, 232, 233, 234, 235, 236, 237, 238, 239, 240, 241, 242, 243, 244, 245, 246, 247, 248, 249, 250, 251, 252, 253, 254, 255, 256, 257, 258, 259, 260, 261, 262, 263, 264, 265, 266, 267, 268, 269, 270, 271, 272, 273, 274, 275, 276, 277, 278, 279, 280, 281, 282, 283, 284, 285, 286, 287, 288, 289, 290, 291, 292, 293, 294, 295, 296, 297, 298, 299, 300, 301, 302, 303, 304, 305, 306, 307, 308, 309, 310, 311, 312, 313, 314, 315, 316, 317, 318, 319, 320, 321, 322, 323, 324, 325, 326, 327, 328, 329, 330, 331, 332, 333, 334, 335, 336, 337, 338, 339, 340, 341, 342, 343, 344, 345, 346, 347, 348, 349, 350, 351, 352, 353, 354, 355, 356, 357, 358, 359, 360, 361, 362, 363, 364, 365, 366, 367, 368, 369, 370, 371, 372, 373, 374, 375, 376, 377, 378, 379, 380, 381, 382, 383, 384, 385, 386, 387, 388, 389, 390, 391, 392, 393, 394, 395, 396, 397, 398, 399, 400, 401, 402, 403, 404, 405, 406, 407, 408, 409, 410, 411, 412, 413, 414, 415, 416, 417, 418, 419, 420, 421, 422, 423, 424, 425, 426, 427, 428, 429, 430, 431, 432, 433, 434, 435, 436, 437, 438, 439, 440, 441, 442, 443, 444, 445, 446, 447, 448, 449, 450, 451, 452, 453, 454, 455, 456, 457, 458, 459, 460, 461, 462, 463, 464, 465, 466, 467, 468, 469, 470, 471, 472, 473, 474, 475, 476, 477, 478, 479, 480, 481, 482, 483, 484, 485, 486, 487, 488, 489, 490, 491, 492, 493, 494, 495, 496, 497, 498, 499, 500, 501, 502, 503, 504, 505, 506, 507, 508, 509, 510, 511, 512, 513, 514, 515, 516, 517, 518, 519, 520, 521, 522, 523, 524, 525, 526, 527, 528, 529, 530, 531, 532, 533, 534, 535, 536, 537, 538, 539, 540, 541, 542, 543, 544, 545, 546, 547, 548, 549, 550, 551, 552, 553, 554, 555, 556, 557, 558, 559, 560, 561, 562, 563, 564, 565, 566, 567, 568, 569, 570, 571, 572, 573, 574, 575, 576, 577, 578, 579, 580, 581, 582, 583, 584, 585, 586, 587, 588, 589, 590, 591, 592, 593, 594, 595, 596, 597, 598, 599, 600, 601, 602, 603, 604, 605, 606, 607, 608, 609, 610, 611, 612, 613, 614, 615, 616, 617, 618, 619, 620, 621, 622, 623, 624, 625, 626, 627, 628, 629, 630, 631, 632, 633, 634, 635, 636, 637, 638, 639, 640, 641, 642, 643, 644, 645, 646, 647, 648, 649, 650, 651, 652, 653, 654, 655, 656, 657, 658, 659, 660, 661, 662, 663, 664, 665, 666, 667, 668, 669, 670, 671, 672, 673, 674, 675, 676, 677, 678, 679, 680, 681, 682, 683, 684, 685, 686, 687, 688, 689, 690, 691, 692, 693, 694, 695, 696, 697, 698, 699, 700, 701, 702, 703, 704, 705, 706, 707, 708, 709, 710, 711, 712, 713, 714, 715, 716, 717, 718, 719, 720, 721, 722, 723, 724, 725, 726, 727, 728, 729, 730, 731, 732, 733, 734, 735, 736, 737, 738, 739, 740, 741, 742, 743, 744, 745, 746, 747, 748, 749, 750, 751, 752, 753, 754, 755, 756, 757, 758, 759, 760, 761, 762, 763, 764, 765, 766, 767, 768, 769, 770, 771, 772, 773, 774, 775, 776, 777, 778, 779, 780, 781, 782, 783, 784, 785, 786, 787, 788, 789, 790, 791, 792, 793, 794, 795, 796, 797, 798, 799, 800, 801, 802, 803, 804, 805, 806, 807, 808, 809, 810, 811, 812, 813, 814, 815, 816, 817, 818, 819, 820, 821, 822, 823, 824, 825, 826, 827, 828, 829, 830, 831, 832, 833, 834, 835, 836, 837, 838, 839, 840, 841, 842, 843, 844, 845, 846, 847, 848, 849, 850, 851, 852, 853, 854, 855, 856, 857, 858, 859, 860, 861, 862, 863, 864, 865, 866, 867, 868, 869, 870, 871, 872],
      "AcquisitionTime": ["163144.092500", "163144.552500", "163145.012500", "163145.472500", "163145.932500", "163146.392500", "163146.852500", "163147.312500", "163147.772500", "163148.232500", "163148.692500", "163149.152500", "163149.612500", "163150.072500", "163150.532500", "163150.992500", "163151.452500", "163151.912500", "163152.372500", "163152.832500", "163153.292500", "163153.752500", "163154.212500", "163154.672500", "163155.132500", "163155.592500", "163156.052500", "163156.512500", "163156.972500", "163157.432500", "163157.892500", "163158.352500", "163158.812500", "163159.272500", "163159.732500", "163200.192500", "163200.652500", "163201.112500", "163201.572500", "163202.032500", "163202.492500", "163202.952500", "163203.412500", "163203.872500", "163204.332500", "163204.792500", "163205.252500", "163205.712500", "163206.172500", "163206.632500", "163207.092500", "163207.552500", "163208.012500", "163208.472500", "163208.932500", "163209.392500", "163209.852500", "163210.312500", "163210.772500", "163211.232500", "163211.692500", "163212.152500", "163212.612500", "163213.072500", "163213.532500", "163213.992500", "163214.452500", "163214.912500", "163215.372500", "163215.832500", "163216.292500", "163216.752500", "163217.212500", "163217.672500", "163218.132500", "163218.592500", "163219.052500", "163219.512500", "163219.972500", "163220.432500", "163220.892500", "163221.352500", "163221.812500", "163222.272500", "163222.732500", "163223.192500", "163223.652500", "163224.112500", "163224.572500", "163225.032500", "163225.492500", "163225.952500", "163226.412500", "163226.872500", "163227.332500", "163227.792500", "163228.252500", "163228.712500", "163229.172500", "163229.632500", "163230.092500", "163230.552500", "163231.012500", "163231.472500", "163231.932500", "163232.392500", "163232.852500", "163233.312500", "163233.772500", "163234.232500", "163234.692500", "163235.152500", "163235.612500", "163236.072500", "163236.532500", "163236.992500", "163237.452500", "163237.912500", "163238.372500", "163238.832500", "163239.292500", "163239.752500", "163240.212500", "163240.672500", "163241.132500", "163241.592500", "163242.052500", "163242.512500", "163242.972500", "163243.432500", "163243.892500", "163244.352500", "163244.812500", "163245.272500", "163245.732500", "163246.192500", "163246.652500", "163247.112500", "163247.572500", "163248.032500", "163248.492500", "163248.952500", "163249.412500", "163249.872500", "163250.332500", "163250.792500", "163251.252500", "163251.712500", "163252.172500", "163252.632500", "163253.092500", "163253.552500", "163254.012500", "163254.472500", "163254.932500", "163255.392500", "163255.852500", "163256.312500", "163256.772500", "163257.232500", "163257.692500", "163258.152500", "163258.612500", "163259.072500", "163259.532500", "163259.992500", "163300.452500", "163300.912500", "163301.372500", "163301.832500", "163302.292500", "163302.752500", "163303.212500", "163303.672500", "163304.132500", "163304.592500", "163305.052500", "163305.512500", "163305.972500", "163306.432500", "163306.892500", "163307.352500", "163307.812500", "163308.272500", "163308.732500", "163309.192500", "163309.652500", "163310.112500", "163310.572500", "163311.032500", "163311.492500", "163311.952500", "163312.412500", "163312.872500", "163313.332500", "163313.792500", "163314.252500", "163314.712500", "163315.172500", "163315.632500", "163316.092500", "163316.552500", "163317.012500", "163317.472500", "163317.932500", "163318.392500", "163318.852500", "163319.312500", "163319.772500", "163320.232500", "163320.692500", "163321.152500", "163321.612500", "163322.072500", "163322.532500", "163322.992500", "163323.452500", "163323.912500", "163324.372500", "163324.832500", "163325.292500", "163325.752500", "163326.212500", "163326.672500", "163327.132500", "163327.592500", "163328.052500", "163328.512500", "163328.972500", "163329.432500", "163329.892500", "163330.352500", "163330.812500", "163331.272500", "163331.732500", "163332.192500", "163332.652500", "163333.112500", "163333.572500", "163334.032500", "163334.492500", "163334.952500", "163335.412500", "163335.872500", "163336.332500", "163336.792500", "163337.252500", "163337.712500", "163338.172500", "163338.632500", "163339.092500", "163339.552500", "163340.012500", "163340.472500", "163340.932500", "163341.392500", "163341.852500", "163342.312500", "163342.772500", "163343.232500", "163343.692500", "163344.152500", "163344.612500", "163345.072500", "163345.532500", "163345.992500", "163346.452500", "163346.912500", "163347.372500", "163347.832500", "163348.292500", "163348.752500", "163349.212500", "163349.672500", "163350.132500", "163350.592500", "163351.052500", "163351.512500", "163351.972500", "163352.432500", "163352.892500", "163353.352500", "163353.812500", "163354.272500", "163354.732500", "163355.192500", "163355.652500", "163356.112500", "163356.572500", "163357.032500", "163357.492500", "163357.952500", "163358.412500", "163358.872500", "163359.332500", "163359.792500", "163400.252500", "163400.712500", "163401.172500", "163401.632500", "163402.092500", "163402.552500", "163403.012500", "163403.472500", "163403.932500", "163404.392500", "163404.852500", "163405.312500", "163405.772500", "163406.232500", "163406.692500", "163407.152500", "163407.612500", "163408.072500", "163408.532500", "163408.992500", "163409.452500", "163409.912500", "163410.372500", "163410.832500", "163411.292500", "163411.752500", "163412.212500", "163412.672500", "163413.132500", "163413.592500", "163414.052500", "163414.512500", "163414.972500", "163415.432500", "163415.892500", "163416.352500", "163416.812500", "163417.272500", "163417.732500", "163418.192500", "163418.652500", "163419.112500", "163419.572500", "163420.032500", "163420.492500", "163420.952500", "163421.412500", "163421.872500", "163422.332500", "163422.792500", "163423.252500", "163423.712500", "163424.172500", "163424.632500", "163425.092500", "163425.552500", "163426.012500", "163426.472500", "163426.932500", "163427.392500", "163427.852500", "163428.312500", "163428.772500", "163429.232500", "163429.692500", "163430.152500", "163430.612500", "163431.072500", "163431.532500", "163431.992500", "163432.452500", "163432.912500", "163433.372500", "163433.832500", "163434.292500", "163434.752500", "163435.212500", "163435.672500", "163436.132500", "163436.592500", "163437.052500", "163437.512500", "163437.972500", "163438.432500", "163438.892500", "163439.352500", "163439.812500", "163440.272500", "163440.732500", "163441.192500", "163441.652500", "163442.112500", "163442.572500", "163443.032500", "163443.492500", "163443.952500", "163444.412500", "163444.872500", "163445.332500", "163445.792500", "163446.252500", "163446.712500", "163447.172500", "163447.632500", "163448.092500", "163448.552500", "163449.012500", "163449.472500", "163449.932500", "163450.392500", "163450.852500", "163451.312500", "163451.772500", "163452.232500", "163452.692500", "163453.152500", "163453.612500", "163454.072500", "163454.532500", "163454.992500", "163455.452500", "163455.912500", "163456.372500", "163456.832500", "163457.292500", "163457.752500", "163458.212500", "163458.672500", "163459.132500", "163459.592500", "163500.052500", "163500.512500", "163500.972500", "163501.432500", "163501.892500", "163502.352500", "163502.812500", "163503.272500", "163503.732500", "163504.192500", "163504.652500", "163505.112500", "163505.572500", "163506.032500", "163506.492500", "163506.952500", "163507.412500", "163507.872500", "163508.332500", "163508.792500", "163509.252500", "163509.712500", "163510.172500", "163510.632500", "163511.092500", "163511.552500", "163512.012500", "163512.472500", "163512.932500", "163513.392500", "163513.852500", "163514.312500", "163514.772500", "163515.232500", "163515.692500", "163516.152500", "163516.612500", "163517.072500", "163517.532500", "163517.992500", "163518.452500", "163518.912500", "163519.372500", "163519.832500", "163520.292500", "163520.752500", "163521.212500", "163521.672500", "163522.132500", "163522.592500", "163523.052500", "163523.512500", "163523.972500", "163524.432500", "163524.892500", "163525.352500", "163525.812500", "163526.272500", "163526.732500", "163527.192500", "163527.652500", "163528.112500", "163528.572500", "163529.032500", "163529.492500", "163529.952500", "163530.412500", "163530.872500", "163531.332500", "163531.792500", "163532.252500", "163532.712500", "163533.172500", "163533.632500", "163534.092500", "163534.552500", "163535.012500", "163535.472500", "163535.932500", "163536.392500", "163536.852500", "163537.312500", "163537.772500", "163538.232500", "163538.692500", "163539.152500", "163539.612500", "163540.072500", "163540.532500", "163540.992500", "163541.452500", "163541.912500", "163542.372500", "163542.832500", "163543.292500", "163543.752500", "163544.212500", "163544.672500", "163545.132500", "163545.592500", "163546.052500", "163546.512500", "163546.972500", "163547.432500", "163547.892500", "163548.352500", "163548.812500", "163549.272500", "163549.732500", "163550.192500", "163550.652500", "163551.112500", "163551.572500", "163552.032500", "163552.492500", "163552.952500", "163553.412500", "163553.872500", "163554.332500", "163554.792500", "163555.252500", "163555.712500", "163556.172500", "163556.632500", "163557.092500", "163557.552500", "163558.012500", "163558.472500", "163558.932500", "163559.392500", "163559.852500", "163600.312500", "163600.772500", "163601.232500", "163601.692500", "163602.152500", "163602.612500", "163603.072500", "163603.532500", "163603.992500", "163604.452500", "163604.912500", "163605.372500", "163605.832500", "163606.292500", "163606.752500", "163607.212500", "163607.672500", "163608.132500", "163608.592500", "163609.052500", "163609.512500", "163609.972500", "163610.432500", "163610.892500", "163611.352500", "163611.812500", "163612.272500", "163612.732500", "163613.192500", "163613.652500", "163614.112500", "163614.572500", "163615.032500", "163615.492500", "163615.952500", "163616.412500", "163616.872500", "163617.332500", "163617.792500", "163618.252500", "163618.712500", "163619.172500", "163619.632500", "163620.092500", "163620.552500", "163621.012500", "163621.472500", "163621.932500", "163622.392500", "163622.852500", "163623.312500", "163623.772500", "163624.232500", "163624.692500", "163625.152500", "163625.612500", "163626.072500", "163626.532500", "163626.992500", "163627.452500", "163627.912500", "163628.372500", "163628.832500", "163629.292500", "163629.752500", "163630.212500", "163630.672500", "163631.132500", "163631.592500", "163632.052500", "163632.512500", "163632.972500", "163633.432500", "163633.892500", "163634.352500", "163634.812500", "163635.272500", "163635.732500", "163636.192500", "163636.652500", "163637.112500", "163637.572500", "163638.032500", "163638.492500", "163638.952500", "163639.412500", "163639.872500", "163640.332500", "163640.792500", "163641.252500", "163641.712500", "163642.172500", "163642.632500", "163643.092500", "163643.552500", "163644.012500", "163644.472500", "163644.932500", "163645.392500", "163645.852500", "163646.312500", "163646.772500", "163647.232500", "163647.692500", "163648.152500", "163648.612500", "163649.072500", "163649.532500", "163649.992500", "163650.452500", "163650.912500", "163651.372500", "163651.832500", "163652.292500", "163652.752500", "163653.212500", "163653.672500", "163654.132500", "163654.592500", "163655.052500", "163655.512500", "163655.972500", "163656.432500", "163656.892500", "163657.352500", "163657.812500", "163658.272500", "163658.732500", "163659.192500", "163659.652500", "163700.112500", "163700.572500", "163701.032500", "163701.492500", "163701.952500", "163702.412500", "163702.872500", "163703.332500", "163703.792500", "163704.252500", "163704.712500", "163705.172500", "163705.632500", "163706.092500", "163706.552500", "163707.012500", "163707.472500", "163707.932500", "163708.392500", "163708.852500", "163709.312500", "163709.772500", "163710.232500", "163710.692500", "163711.152500", "163711.612500", "163712.072500", "163712.532500", "163712.992500", "163713.452500", "163713.912500", "163714.372500", "163714.832500", "163715.292500", "163715.752500", "163716.212500", "163716.672500", "163717.132500", "163717.592500", "163718.052500", "163718.512500", "163718.972500", "163719.432500", "163719.892500", "163720.352500", "163720.812500", "163721.272500", "163721.732500", "163722.192500", "163722.652500", "163723.112500", "163723.572500", "163724.032500", "163724.492500", "163724.952500", "163725.412500", "163725.872500", "163726.332500", "163726.792500", "163727.252500", "163727.712500", "163728.172500", "163728.632500", "163729.092500", "163729.552500", "163730.012500", "163730.472500", "163730.932500", "163731.392500", "163731.852500", "163732.312500", "163732.772500", "163733.232500", "163733.692500", "163734.152500", "163734.612500", "163735.072500", "163735.532500", "163735.992500", "163736.452500", "163736.912500", "163737.372500", "163737.832500", "163738.292500", "163738.752500", "163739.212500", "163739.672500", "163740.132500", "163740.592500", "163741.052500", "163741.512500", "163741.972500", "163742.432500", "163742.892500", "163743.352500", "163743.812500", "163744.272500", "163744.732500", "163745.192500", "163745.652500", "163746.112500", "163746.572500", "163747.032500", "163747.492500", "163747.952500", "163748.412500", "163748.872500", "163749.332500", "163749.792500", "163750.252500", "163750.712500", "163751.172500", "163751.632500", "163752.092500", "163752.552500", "163753.012500", "163753.472500", "163753.932500", "163754.392500", "163754.852500", "163755.312500", "163755.772500", "163756.232500", "163756.692500", "163757.152500", "163757.612500", "163758.072500", "163758.532500", "163758.992500", "163759.452500", "163759.912500", "163800.372500", "163800.832500", "163801.292500", "163801.752500", "163802.212500", "163802.672500", "163803.132500", "163803.592500", "163804.052500", "163804.512500", "163804.972500", "163805.432500", "163805.892500", "163806.352500", "163806.812500", "163807.272500", "163807.732500", "163808.192500", "163808.652500", "163809.112500", "163809.572500", "163810.032500", "163810.492500", "163810.952500", "163811.412500", "163811.872500", "163812.332500", "163812.792500", "163813.252500", "163813.712500", "163814.172500", "163814.632500", "163815.092500", "163815.552500", "163816.012500", "163816.472500", "163816.932500", "163817.392500", "163817.852500", "163818.312500", "163818.772500", "163819.232500", "163819.692500", "163820.152500", "163820.612500", "163821.072500", "163821.532500", "163821.992500", "163822.452500", "163822.912500", "163823.372500", "163823.832500", "163824.292500", "163824.752500"],
