{
  "AcquisitionMatrixPE": 82,
  "AcquisitionNumber": 1,
  "AcquisitionTime": "17:07:31.585000",
  "BandwidthPerPixelPhaseEncode": 24.888,
  "BaseResolution": 82,
  "BodyPartExamined": "BRAIN",
  "ConsistencyInfo": "N4_VE11E_LATEST_20181129",
  "ConversionSoftware": "dcm2niix",
  "ConversionSoftwareVersion": "v1.0.20201102",
  "DerivedVendorReportedEchoSpacing": 0.00049,
  "DeviceSerialNumber": "66112",
  "DwellTime": 2e-06,
  "EchoTime": 0.0272,
  "EchoTrainLength": 82,
  "EffectiveEchoSpacing": 0.00049,
  "FlipAngle": 44,
  "ImageComments": "Unaliased MB8/PE3",
  "ImageOrientationPatientDICOM": [0.998484, -0.0484906, -0.0260561, 0.0498821, 0.9972, 0.0557143],
  "ImageType": [
    "ORIGINAL",
    "PRIMARY",
    "M",
    "MB",
    "ND",
    "NORM",
    "MOSAIC"
],
  "ImagingFrequency": 123.252,
  "InPlanePhaseEncodingDirectionDICOM": "COL",
  "InstitutionAddress": "Maynard 3,Hanover,NH,US,03755",
  "InstitutionName": "Dartmouth College - PBS",
  "InstitutionalDepartmentName": "Department",
  "MRAcquisitionType": "2D",
  "MagneticFieldStrength": 3,
  "Manufacturer": "Siemens",
  "ManufacturersModelName": "Prisma",
  "Modality": "MR",
  "MultibandAccelerationFactor": 8,
  "PartialFourier": 1,
  "PatientPosition": "HFS",
  "PercentPhaseFOV": 100,
  "PercentSampling": 100,
  "PhaseEncodingDirection": "j-",
  "PhaseEncodingSteps": 82,
  "PhaseResolution": 1,
  "PixelBandwidth": 3050,
  "ProcedureStepDescription": "Wager_Wager^1076_spacetop",
  "ProtocolName": "func_run-02_task-alignvideo_acq-ap-mb8",
  "PulseSequenceDetails": "%CustomerSeq%\\cmrr_mbep2d_bold",
  "ReceiveCoilActiveElements": "HEA;HEP",
  "ReceiveCoilName": "Head_32",
  "ReconMatrixPE": 82,
  "RepetitionTime": 0.46,
  "SAR": 0.113231,
  "ScanOptions": "FS",
  "ScanningSequence": "EP",
  "SequenceName": "epfid2d1_82",
  "SequenceVariant": "SK\\SS",
  "SeriesDescription": "func_run-02_task-alignvideo_acq-ap-mb8",
  "SeriesNumber": 32,
  "ShimSetting": [4131, -7757, -7277, 551, -81, -41, -26, 81],
  "SliceThickness": 2.7,
  "SliceTiming": [0, 0.2525, 0.065, 0.315, 0.1275, 0.3775, 0.19, 0, 0.2525, 0.065, 0.315, 0.1275, 0.3775, 0.19, 0, 0.2525, 0.065, 0.315, 0.1275, 0.3775, 0.19, 0, 0.2525, 0.065, 0.315, 0.1275, 0.3775, 0.19, 0, 0.2525, 0.065, 0.315, 0.1275, 0.3775, 0.19, 0, 0.2525, 0.065, 0.315, 0.1275, 0.3775, 0.19, 0, 0.2525, 0.065, 0.315, 0.1275, 0.3775, 0.19, 0, 0.2525, 0.065, 0.315, 0.1275, 0.3775, 0.19],
  "SoftwareVersions": "syngo MR E11",
  "SpacingBetweenSlices": 2.7,
  "StationName": "AWP66112",
  "TaskName": "alignvideo",
  "TotalReadoutTime": 0.03969,
  "TxRefAmp": 261.932,
  "WipMemBlock": "9846c548-6204-42d1-93c4-0bc4ddc09b21||Sequence: R016 ve11e/master r/434b28f1; Aug  7 2019 18:53:46 by eja",
  "dcmmeta_affine": [
    [-2.678858757019043, 0.13383008539676666, -0.06286010891199112, 108.96863555908203],
    [0.1300966441631317, 2.675414562225342, 0.15370972454547882, -104.6334457397461],
    [-0.06990659981966019, -0.14947731792926788, 2.694888114929199, -61.196720123291016],
    [0.0, 0.0, 0.0, 1.0]
],
  "dcmmeta_reorient_transform": [
    [0.0, -1.0, 0.0, 81.0],
    [1.0, 0.0, 0.0, 0.0],
    [0.0, 0.0, 1.0, 0.0],
    [0.0, 0.0, 0.0, 1.0]
],
  "dcmmeta_shape": [82, 82, 56, 926],
  "dcmmeta_slice_dim": 2,
  "dcmmeta_version": 0.6,
  "global": {
    "const": {
      "AccessionNumber": "A003916",
      "AcquisitionMatrix": [82, 0, 0, 82],
      "AngioFlag": "N",
      "BitsAllocated": 16,
      "BitsStored": 16,
      "BodyPartExamined": "BRAIN",
      "Columns": 656,
      "EchoNumbers": 1,
      "EchoTime": 27.2,
      "EchoTrainLength": 82,
      "FlipAngle": 44.0,
      "HighBit": 15,
      "ImageOrientationPatient": [0.99848372282084, -0.0484905674729, -0.0260560957934, 0.04988212185636, 0.99719992671333, 0.05571427179851],
      "ImagePositionPatient": [-927.05058893061, -842.58135093448, -96.14118006489],
      "ImageType": [
        "ORIGINAL",
        "PRIMARY",
        "M",
        "MB",
        "ND",
        "NORM",
        "MOSAIC"
],
      "ImagedNucleus": "1H",
      "ImagingFrequency": 123.252218,
      "InPlanePhaseEncodingDirection": "COL",
      "MRAcquisitionType": "2D",
      "MagneticFieldStrength": 3.0,
      "Manufacturer": "SIEMENS",
      "ManufacturerModelName": "Prisma",
      "Modality": "MR",
      "NumberOfAverages": 1.0,
      "NumberOfPhaseEncodingSteps": 82,
      "PercentPhaseFieldOfView": 100.0,
      "PercentSampling": 100.0,
      "PerformedProcedureStepStartTime": "152634.498000",
      "PhotometricInterpretation": "MONOCHROME2",
      "PixelBandwidth": 3050.0,
      "PixelRepresentation": 0,
      "PixelSpacing": [2.6829268932343, 2.6829268932343],
      "ProtocolName": "func_run-02_task-alignvideo_acq-ap-mb8",
      "RepetitionTime": 460.0,
      "Rows": 656,
      "SAR": 0.11323103159221,
      "SamplesPerPixel": 1,
      "ScanOptions": "FS",
      "ScanningSequence": "EP",
      "SequenceName": "epfid2d1_82",
      "SequenceVariant": [
        "SK",
        "SS"
],
      "SeriesDescription": "func_run-02_task-alignvideo_acq-ap-mb8",
      "SeriesNumber": 32,
      "SeriesTime": "170753.679000",
      "SliceLocation": -69.574546022197,
      "SliceThickness": 2.7000000476837,
      "SmallestImagePixelValue": 0,
      "SoftwareVersions": "syngo MR E11",
      "SpacingBetweenSlices": 2.7000000557176,
      "SpecificCharacterSet": "ISO_IR 100",
      "StudyID": "4",
      "StudyTime": "152634.447000",
      "TransmitCoilName": "Body",
      "VariableFlipAngleFlag": "N",
      "WindowCenterWidthExplanation": "Algo1"
    },
    "slices": {}
  },
  "time": {
    "samples": {
      "AcquisitionNumber": [1, 2, 3, 4, 5, 6, 7, 8, 9, 10, 11, 12, 13, 14, 15, 16, 17, 18, 19, 20, 21, 22, 23, 24, 25, 26, 27, 28, 29, 30, 31, 32, 33, 34, 35, 36, 37, 38, 39, 40, 41, 42, 43, 44, 45, 46, 47, 48, 49, 50, 51, 52, 53, 54, 55, 56, 57, 58, 59, 60, 61, 62, 63, 64, 65, 66, 67, 68, 69, 70, 71, 72, 73, 74, 75, 76, 77, 78, 79, 80, 81, 82, 83, 84, 85, 86, 87, 88, 89, 90, 91, 92, 93, 94, 95, 96, 97, 98, 99, 100, 101, 102, 103, 104, 105, 106, 107, 108, 109, 110, 111, 112, 113, 114, 115, 116, 117, 118, 119, 120, 121, 122, 123, 124, 125, 126, 127, 128, 129, 130, 131, 132, 133, 134, 135, 136, 137, 138, 139, 140, 141, 142, 143, 144, 145, 146, 147, 148, 149, 150, 151, 152, 153, 154, 155, 156, 157, 158, 159, 160, 161, 162, 163, 164, 165, 166, 167, 168, 169, 170, 171, 172, 173, 174, 175, 176, 177, 178, 179, 180, 181, 182, 183, 184, 185, 186, 187, 188, 189, 190, 191, 192, 193, 194, 195, 196, 197, 198, 199, 200, 201, 202, 203, 204, 205, 206, 207, 208, 209, 210, 211, 212, 213, 214, 215, 216, 217, 218, 219, 220, 221, 222, 223, 224, 225, 226, 227, 228, 229, 230, 231, 232, 233, 234, 235, 236, 237, 238, 239, 240, 241, 242, 243, 244, 245, 246, 247, 248, 249, 250, 251, 252, 253, 254, 255, 256, 257, 258, 259, 260, 261, 262, 263, 264, 265, 266, 267, 268, 269, 270, 271, 272, 273, 274, 275, 276, 277, 278, 279, 280, 281, 282, 283, 284, 285, 286, 287, 288, 289, 290, 291, 292, 293, 294, 295, 296, 297, 298, 299, 300, 301, 302, 303, 304, 305, 306, 307, 308, 309, 310, 311, 312, 313, 314, 315, 316, 317, 318, 319, 320, 321, 322, 323, 324, 325, 326, 327, 328, 329, 330, 331, 332, 333, 334, 335, 336, 337, 338, 339, 340, 341, 342, 343, 344, 345, 346, 347, 348, 349, 350, 351, 352, 353, 354, 355, 356, 357, 358, 359, 360, 361, 362, 363, 364, 365, 366, 367, 368, 369, 370, 371, 372, 373, 374, 375, 376, 377, 378, 379, 380, 381, 382, 383, 384, 385, 386, 387, 388, 389, 390, 391, 392, 393, 394, 395, 396, 397, 398, 399, 400, 401, 402, 403, 404, 405, 406, 407, 408, 409, 410, 411, 412, 413, 414, 415, 416, 417, 418, 419, 420, 421, 422, 423, 424, 425, 426, 427, 428, 429, 430, 431, 432, 433, 434, 435, 436, 437, 438, 439, 440, 441, 442, 443, 444, 445, 446, 447, 448, 449, 450, 451, 452, 453, 454, 455, 456, 457, 458, 459, 460, 461, 462, 463, 464, 465, 466, 467, 468, 469, 470, 471, 472, 473, 474, 475, 476, 477, 478, 479, 480, 481, 482, 483, 484, 485, 486, 487, 488, 489, 490, 491, 492, 493, 494, 495, 496, 497, 498, 499, 500, 501, 502, 503, 504, 505, 506, 507, 508, 509, 510, 511, 512, 513, 514, 515, 516, 517, 518, 519, 520, 521, 522, 523, 524, 525, 526, 527, 528, 529, 530, 531, 532, 533, 534, 535, 536, 537, 538, 539, 540, 541, 542, 543, 544, 545, 546, 547, 548, 549, 550, 551, 552, 553, 554, 555, 556, 557, 558, 559, 560, 561, 562, 563, 564, 565, 566, 567, 568, 569, 570, 571, 572, 573, 574, 575, 576, 577, 578, 579, 580, 581, 582, 583, 584, 585, 586, 587, 588, 589, 590, 591, 592, 593, 594, 595, 596, 597, 598, 599, 600, 601, 602, 603, 604, 605, 606, 607, 608, 609, 610, 611, 612, 613, 614, 615, 616, 617, 618, 619, 620, 621, 622, 623, 624, 625, 626, 627, 628, 629, 630, 631, 632, 633, 634, 635, 636, 637, 638, 639, 640, 641, 642, 643, 644, 645, 646, 647, 648, 649, 650, 651, 652, 653, 654, 655, 656, 657, 658, 659, 660, 661, 662, 663, 664, 665, 666, 667, 668, 669, 670, 671, 672, 673, 674, 675, 676, 677, 678, 679, 680, 681, 682, 683, 684, 685, 686, 687, 688, 689, 690, 691, 692, 693, 694, 695, 696, 697, 698, 699, 700, 701, 702, 703, 704, 705, 706, 707, 708, 709, 710, 711, 712, 713, 714, 715, 716, 717, 718, 719, 720, 721, 722, 723, 724, 725, 726, 727, 728, 729, 730, 731, 732, 733, 734, 735, 736, 737, 738, 739, 740, 741, 742, 743, 744, 745, 746, 747, 748, 749, 750, 751, 752, 753, 754, 755, 756, 757, 758, 759, 760, 761, 762, 763, 764, 765, 766, 767, 768, 769, 770, 771, 772, 773, 774, 775, 776, 777, 778, 779, 780, 781, 782, 783, 784, 785, 786, 787, 788, 789, 790, 791, 792, 793, 794, 795, 796, 797, 798, 799, 800, 801, 802, 803, 804, 805, 806, 807, 808, 809, 810, 811, 812, 813, 814, 815, 816, 817, 818, 819, 820, 821, 822, 823, 824, 825, 826, 827, 828, 829, 830, 831, 832, 833, 834, 835, 836, 837, 838, 839, 840, 841, 842, 843, 844, 845, 846, 847, 848, 849, 850, 851, 852, 853, 854, 855, 856, 857, 858, 859, 860, 861, 862, 863, 864, 865, 866, 867, 868, 869, 870, 871, 872, 873, 874, 875, 876, 877, 878, 879, 880, 881, 882, 883, 884, 885, 886, 887, 888, 889, 890, 891, 892, 893, 894, 895, 896, 897, 898, 899, 900, 901, 902, 903, 904, 905, 906, 907, 908, 909, 910, 911, 912, 913, 914, 915, 916, 917, 918, 919, 920, 921, 922, 923, 924, 925, 926],
      "AcquisitionTime": ["170731.585000", "170732.045000", "170732.505000", "170732.965000", "170733.425000", "170733.885000", "170734.345000", "170734.805000", "170735.265000", "170735.725000", "170736.185000", "170736.645000", "170737.105000", "170737.565000", "170738.025000", "170738.485000", "170738.945000", "170739.405000", "170739.865000", "170740.325000", "170740.785000", "170741.245000", "170741.705000", "170742.165000", "170742.625000", "170743.085000", "170743.545000", "170744.005000", "170744.465000", "170744.925000", "170745.385000", "170745.845000", "170746.305000", "170746.765000", "170747.225000", "170747.685000", "170748.145000", "170748.605000", "170749.065000", "170749.525000", "170749.985000", "170750.445000", "170750.905000", "170751.365000", "170751.825000", "170752.285000", "170752.745000", "170753.205000", "170753.665000", "170754.125000", "170754.585000", "170755.045000", "170755.505000", "170755.965000", "170756.425000", "170756.885000", "170757.345000", "170757.805000", "170758.265000", "170758.725000", "170759.185000", "170759.645000", "170800.105000", "170800.565000", "170801.025000", "170801.485000", "170801.945000", "170802.405000", "170802.865000", "170803.325000", "170803.785000", "170804.245000", "170804.705000", "170805.165000", "170805.625000", "170806.085000", "170806.545000", "170807.005000", "170807.465000", "170807.925000", "170808.385000", "170808.845000", "170809.305000", "170809.765000", "170810.225000", "170810.685000", "170811.145000", "170811.605000", "170812.065000", "170812.525000", "170812.985000", "170813.445000", "170813.905000", "170814.365000", "170814.825000", "170815.285000", "170815.745000", "170816.205000", "170816.665000", "170817.125000", "170817.585000", "170818.045000", "170818.505000", "170818.965000", "170819.425000", "170819.885000", "170820.345000", "170820.805000", "170821.265000", "170821.725000", "170822.185000", "170822.645000", "170823.105000", "170823.565000", "170824.025000", "170824.485000", "170824.945000", "170825.405000", "170825.865000", "170826.325000", "170826.785000", "170827.245000", "170827.705000", "170828.165000", "170828.625000", "170829.085000", "170829.545000", "170830.005000", "170830.465000", "170830.925000", "170831.385000", "170831.845000", "170832.305000", "170832.765000", "170833.225000", "170833.685000", "170834.145000", "170834.605000", "170835.065000", "170835.525000", "170835.985000", "170836.445000", "170836.905000", "170837.365000", "170837.825000", "170838.285000", "170838.745000", "170839.205000", "170839.665000", "170840.125000", "170840.585000", "170841.045000", "170841.505000", "170841.965000", "170842.425000", "170842.885000", "170843.345000", "170843.805000", "170844.265000", "170844.725000", "170845.185000", "170845.645000", "170846.105000", "170846.565000", "170847.025000", "170847.485000", "170847.945000", "170848.405000", "170848.865000", "170849.325000", "170849.785000", "170850.245000", "170850.705000", "170851.165000", "170851.625000", "170852.085000", "170852.545000", "170853.005000", "170853.465000", "170853.925000", "170854.385000", "170854.845000", "170855.305000", "170855.765000", "170856.225000", "170856.685000", "170857.145000", "170857.605000", "170858.065000", "170858.525000", "170858.985000", "170859.445000", "170859.905000", "170900.365000", "170900.825000", "170901.285000", "170901.745000", "170902.205000", "170902.665000", "170903.125000", "170903.585000", "170904.045000", "170904.505000", "170904.965000", "170905.425000", "170905.885000", "170906.345000", "170906.805000", "170907.265000", "170907.725000", "170908.185000", "170908.645000", "170909.105000", "170909.565000", "170910.025000", "170910.485000", "170910.945000", "170911.405000", "170911.865000", "170912.325000", "170912.785000", "170913.245000", "170913.705000", "170914.165000", "170914.625000", "170915.085000", "170915.545000", "170916.005000", "170916.465000", "170916.925000", "170917.385000", "170917.845000", "170918.305000", "170918.765000", "170919.225000", "170919.685000", "170920.145000", "170920.605000", "170921.065000", "170921.525000", "170921.985000", "170922.445000", "170922.905000", "170923.365000", "170923.825000", "170924.285000", "170924.745000", "170925.205000", "170925.665000", "170926.125000", "170926.585000", "170927.045000", "170927.505000", "170927.965000", "170928.425000", "170928.885000", "170929.345000", "170929.805000", "170930.265000", "170930.725000", "170931.185000", "170931.645000", "170932.105000", "170932.565000", "170933.025000", "170933.485000", "170933.945000", "170934.405000", "170934.865000", "170935.325000", "170935.785000", "170936.245000", "170936.705000", "170937.165000", "170937.625000", "170938.085000", "170938.545000", "170939.005000", "170939.465000", "170939.925000", "170940.385000", "170940.845000", "170941.305000", "170941.765000", "170942.225000", "170942.685000", "170943.145000", "170943.605000", "170944.065000", "170944.525000", "170944.985000", "170945.445000", "170945.905000", "170946.365000", "170946.825000", "170947.285000", "170947.745000", "170948.205000", "170948.665000", "170949.125000", "170949.585000", "170950.045000", "170950.505000", "170950.965000", "170951.425000", "170951.885000", "170952.345000", "170952.805000", "170953.265000", "170953.725000", "170954.185000", "170954.645000", "170955.105000", "170955.565000", "170956.025000", "170956.485000", "170956.945000", "170957.405000", "170957.865000", "170958.325000", "170958.785000", "170959.245000", "170959.705000", "171000.165000", "171000.625000", "171001.085000", "171001.545000", "171002.005000", "171002.465000", "171002.925000", "171003.385000", "171003.845000", "171004.305000", "171004.765000", "171005.225000", "171005.685000", "171006.145000", "171006.605000", "171007.065000", "171007.525000", "171007.985000", "171008.445000", "171008.905000", "171009.365000", "171009.825000", "171010.285000", "171010.745000", "171011.205000", "171011.665000", "171012.125000", "171012.585000", "171013.045000", "171013.505000", "171013.965000", "171014.425000", "171014.885000", "171015.345000", "171015.805000", "171016.265000", "171016.725000", "171017.185000", "171017.645000", "171018.105000", "171018.565000", "171019.025000", "171019.485000", "171019.945000", "171020.405000", "171020.865000", "171021.325000", "171021.785000", "171022.245000", "171022.705000", "171023.165000", "171023.625000", "171024.085000", "171024.545000", "171025.005000", "171025.465000", "171025.925000", "171026.385000", "171026.845000", "171027.305000", "171027.765000", "171028.225000", "171028.685000", "171029.145000", "171029.605000", "171030.065000", "171030.525000", "171030.985000", "171031.445000", "171031.905000", "171032.365000", "171032.825000", "171033.285000", "171033.745000", "171034.205000", "171034.665000", "171035.125000", "171035.585000", "171036.045000", "171036.505000", "171036.965000", "171037.425000", "171037.885000", "171038.345000", "171038.805000", "171039.265000", "171039.725000", "171040.185000", "171040.645000", "171041.105000", "171041.565000", "171042.025000", "171042.485000", "171042.945000", "171043.405000", "171043.865000", "171044.325000", "171044.785000", "171045.245000", "171045.705000", "171046.165000", "171046.625000", "171047.085000", "171047.545000", "171048.005000", "171048.465000", "171048.925000", "171049.385000", "171049.845000", "171050.305000", "171050.765000", "171051.225000", "171051.685000", "171052.145000", "171052.605000", "171053.065000", "171053.525000", "171053.985000", "171054.445000", "171054.905000", "171055.365000", "171055.825000", "171056.285000", "171056.745000", "171057.205000", "171057.665000", "171058.125000", "171058.585000", "171059.045000", "171059.505000", "171059.965000", "171100.425000", "171100.885000", "171101.345000", "171101.805000", "171102.265000", "171102.725000", "171103.185000", "171103.645000", "171104.105000", "171104.565000", "171105.025000", "171105.485000", "171105.945000", "171106.405000", "171106.865000", "171107.325000", "171107.785000", "171108.245000", "171108.705000", "171109.165000", "171109.625000", "171110.085000", "171110.545000", "171111.005000", "171111.465000", "171111.925000", "171112.385000", "171112.845000", "171113.305000", "171113.765000", "171114.225000", "171114.685000", "171115.145000", "171115.605000", "171116.065000", "171116.525000", "171116.985000", "171117.445000", "171117.905000", "171118.365000", "171118.825000", "171119.285000", "171119.745000", "171120.205000", "171120.665000", "171121.125000", "171121.585000", "171122.045000", "171122.505000", "171122.965000", "171123.425000", "171123.885000", "171124.345000", "171124.805000", "171125.265000", "171125.725000", "171126.185000", "171126.645000", "171127.105000", "171127.565000", "171128.025000", "171128.485000", "171128.945000", "171129.405000", "171129.865000", "171130.325000", "171130.785000", "171131.245000", "171131.705000", "171132.165000", "171132.625000", "171133.085000", "171133.545000", "171134.005000", "171134.465000", "171134.925000", "171135.385000", "171135.845000", "171136.305000", "171136.765000", "171137.225000", "171137.685000", "171138.145000", "171138.605000", "171139.065000", "171139.525000", "171139.985000", "171140.445000", "171140.905000", "171141.365000", "171141.825000", "171142.285000", "171142.745000", "171143.205000", "171143.665000", "171144.125000", "171144.585000", "171145.045000", "171145.505000", "171145.965000", "171146.425000", "171146.885000", "171147.345000", "171147.805000", "171148.265000", "171148.725000", "171149.185000", "171149.645000", "171150.105000", "171150.565000", "171151.025000", "171151.485000", "171151.945000", "171152.405000", "171152.865000", "171153.325000", "171153.785000", "171154.245000", "171154.705000", "171155.165000", "171155.625000", "171156.085000", "171156.545000", "171157.005000", "171157.465000", "171157.925000", "171158.385000", "171158.845000", "171159.305000", "171159.765000", "171200.225000", "171200.685000", "171201.145000", "171201.605000", "171202.065000", "171202.525000", "171202.985000", "171203.445000", "171203.905000", "171204.365000", "171204.825000", "171205.285000", "171205.745000", "171206.205000", "171206.665000", "171207.125000", "171207.585000", "171208.045000", "171208.505000", "171208.965000", "171209.425000", "171209.885000", "171210.345000", "171210.805000", "171211.265000", "171211.725000", "171212.185000", "171212.645000", "171213.105000", "171213.565000", "171214.025000", "171214.485000", "171214.945000", "171215.405000", "171215.865000", "171216.325000", "171216.785000", "171217.245000", "171217.705000", "171218.165000", "171218.625000", "171219.085000", "171219.545000", "171220.005000", "171220.465000", "171220.925000", "171221.385000", "171221.845000", "171222.305000", "171222.765000", "171223.225000", "171223.685000", "171224.145000", "171224.605000", "171225.065000", "171225.525000", "171225.985000", "171226.445000", "171226.905000", "171227.365000", "171227.825000", "171228.285000", "171228.745000", "171229.205000", "171229.665000", "171230.125000", "171230.585000", "171231.045000", "171231.505000", "171231.965000", "171232.425000", "171232.885000", "171233.345000", "171233.805000", "171234.265000", "171234.725000", "171235.185000", "171235.645000", "171236.105000", "171236.565000", "171237.025000", "171237.485000", "171237.945000", "171238.405000", "171238.865000", "171239.325000", "171239.785000", "171240.245000", "171240.705000", "171241.165000", "171241.625000", "171242.085000", "171242.545000", "171243.005000", "171243.465000", "171243.925000", "171244.385000", "171244.845000", "171245.305000", "171245.765000", "171246.225000", "171246.685000", "171247.145000", "171247.605000", "171248.065000", "171248.525000", "171248.985000", "171249.445000", "171249.905000", "171250.365000", "171250.825000", "171251.285000", "171251.745000", "171252.205000", "171252.665000", "171253.125000", "171253.585000", "171254.045000", "171254.505000", "171254.965000", "171255.425000", "171255.885000", "171256.345000", "171256.805000", "171257.265000", "171257.725000", "171258.185000", "171258.645000", "171259.105000", "171259.565000", "171300.025000", "171300.485000", "171300.945000", "171301.405000", "171301.865000", "171302.325000", "171302.785000", "171303.245000", "171303.705000", "171304.165000", "171304.625000", "171305.085000", "171305.545000", "171306.005000", "171306.465000", "171306.925000", "171307.385000", "171307.845000", "171308.305000", "171308.765000", "171309.225000", "171309.685000", "171310.145000", "171310.605000", "171311.065000", "171311.525000", "171311.985000", "171312.445000", "171312.905000", "171313.365000", "171313.825000", "171314.285000", "171314.745000", "171315.205000", "171315.665000", "171316.125000", "171316.585000", "171317.045000", "171317.505000", "171317.965000", "171318.425000", "171318.885000", "171319.345000", "171319.805000", "171320.265000", "171320.725000", "171321.185000", "171321.645000", "171322.105000", "171322.565000", "171323.025000", "171323.485000", "171323.945000", "171324.405000", "171324.865000", "171325.325000", "171325.785000", "171326.245000", "171326.705000", "171327.165000", "171327.625000", "171328.085000", "171328.545000", "171329.005000", "171329.465000", "171329.925000", "171330.385000", "171330.845000", "171331.305000", "171331.765000", "171332.225000", "171332.685000", "171333.145000", "171333.605000", "171334.065000", "171334.525000", "171334.985000", "171335.445000", "171335.905000", "171336.365000", "171336.825000", "171337.285000", "171337.745000", "171338.205000", "171338.665000", "171339.125000", "171339.585000", "171340.045000", "171340.505000", "171340.965000", "171341.425000", "171341.885000", "171342.345000", "171342.805000", "171343.265000", "171343.725000", "171344.185000", "171344.645000", "171345.105000", "171345.565000", "171346.025000", "171346.485000", "171346.945000", "171347.405000", "171347.865000", "171348.325000", "171348.785000", "171349.245000", "171349.705000", "171350.165000", "171350.625000", "171351.085000", "171351.545000", "171352.005000", "171352.465000", "171352.925000", "171353.385000", "171353.845000", "171354.305000", "171354.765000", "171355.225000", "171355.685000", "171356.145000", "171356.605000", "171357.065000", "171357.525000", "171357.985000", "171358.445000", "171358.905000", "171359.365000", "171359.825000", "171400.285000", "171400.745000", "171401.205000", "171401.665000", "171402.125000", "171402.585000", "171403.045000", "171403.505000", "171403.965000", "171404.425000", "171404.885000", "171405.345000", "171405.805000", "171406.265000", "171406.725000", "171407.185000", "171407.645000", "171408.105000", "171408.565000", "171409.025000", "171409.485000", "171409.945000", "171410.405000", "171410.865000", "171411.325000", "171411.785000", "171412.245000", "171412.705000", "171413.165000", "171413.625000", "171414.085000", "171414.545000", "171415.005000", "171415.465000", "171415.925000", "171416.385000", "171416.845000", "171417.305000", "171417.765000", "171418.225000", "171418.685000", "171419.145000", "171419.605000", "171420.065000", "171420.525000", "171420.985000", "171421.445000", "171421.905000", "171422.365000", "171422.825000", "171423.285000", "171423.745000", "171424.205000", "171424.665000", "171425.125000", "171425.585000", "171426.045000", "171426.505000", "171426.965000", "171427.425000", "171427.885000", "171428.345000", "171428.805000", "171429.265000", "171429.725000", "171430.185000", "171430.645000", "171431.105000", "171431.565000", "171432.025000", "171432.485000", "171432.945000", "171433.405000", "171433.865000", "171434.325000", "171434.785000", "171435.245000", "171435.705000", "171436.165000", "171436.625000", "171437.085000"],
