{
  "AcquisitionMatrixPE": 82,
  "AcquisitionNumber": 1,
  "AcquisitionTime": "16:17:35.062500",
  "BandwidthPerPixelPhaseEncode": 24.888,
  "BaseResolution": 82,
  "BodyPartExamined": "BRAIN",
  "ConsistencyInfo": "N4_VE11E_LATEST_20181129",
  "ConversionSoftware": "dcm2niix",
  "ConversionSoftwareVersion": "v1.0.20201102",
  "DerivedVendorReportedEchoSpacing": 0.00049,
  "DeviceSerialNumber": "66112",
  "DwellTime": 2e-06,
  "EchoTime": 0.0272,
  "EchoTrainLength": 82,
  "EffectiveEchoSpacing": 0.00049,
  "FlipAngle": 44,
  "ImageComments": "Unaliased MB8/PE3",
  "ImageOrientationPatientDICOM": [0.999305, -0.0303518, -0.0216175, 0.0312299, 0.99865, 0.0415089],
  "ImageType": [
    "ORIGINAL",
    "PRIMARY",
    "M",
    "MB",
    "ND",
    "NORM",
    "MOSAIC"
],
  "ImagingFrequency": 123.252,
  "InPlanePhaseEncodingDirectionDICOM": "COL",
  "InstitutionAddress": "Maynard 3,Hanover,NH,US,03755",
  "InstitutionName": "Dartmouth College - PBS",
  "InstitutionalDepartmentName": "Department",
  "MRAcquisitionType": "2D",
  "MagneticFieldStrength": 3,
  "Manufacturer": "Siemens",
  "ManufacturersModelName": "Prisma",
  "Modality": "MR",
  "MultibandAccelerationFactor": 8,
  "PartialFourier": 1,
  "PatientPosition": "HFS",
  "PercentPhaseFOV": 100,
  "PercentSampling": 100,
  "PhaseEncodingDirection": "j-",
  "PhaseEncodingSteps": 82,
  "PhaseResolution": 1,
  "PixelBandwidth": 3050,
  "ProcedureStepDescription": "Wager_Wager^1076_spacetop",
  "ProtocolName": "func_run-02_task-social_acq-ap-mb8",
  "PulseSequenceDetails": "%CustomerSeq%\\cmrr_mbep2d_bold",
  "ReceiveCoilActiveElements": "HEA;HEP",
  "ReceiveCoilName": "Head_32",
  "ReconMatrixPE": 82,
  "RepetitionTime": 0.46,
  "SAR": 0.11319,
  "ScanOptions": "FS",
  "ScanningSequence": "EP",
  "SequenceName": "epfid2d1_82",
  "SequenceVariant": "SK\\SS",
  "SeriesDescription": "func_run-02_task-social_acq-ap-mb8",
  "SeriesNumber": 14,
  "ShimSetting": [4131, -7757, -7277, 554, -77, -41, -26, 80],
  "SliceThickness": 2.7,
  "SliceTiming": [0, 0.25, 0.0625, 0.3125, 0.125, 0.3775, 0.1875, 0, 0.25, 0.0625, 0.3125, 0.125, 0.3775, 0.1875, 0, 0.25, 0.0625, 0.3125, 0.125, 0.3775, 0.1875, 0, 0.25, 0.0625, 0.3125, 0.125, 0.3775, 0.1875, 0, 0.25, 0.0625, 0.3125, 0.125, 0.3775, 0.1875, 0, 0.25, 0.0625, 0.3125, 0.125, 0.3775, 0.1875, 0, 0.25, 0.0625, 0.3125, 0.125, 0.3775, 0.1875, 0, 0.25, 0.0625, 0.3125, 0.125, 0.3775, 0.1875],
  "SoftwareVersions": "syngo MR E11",
  "SpacingBetweenSlices": 2.7,
  "StationName": "AWP66112",
  "TaskName": "social",
  "TotalReadoutTime": 0.03969,
  "TxRefAmp": 261.932,
  "WipMemBlock": "70278243-f558-4c9f-ba0d-56b12b709d2a||Sequence: R016 ve11e/master r/434b28f1; Aug  7 2019 18:53:46 by eja",
  "dcmmeta_affine": [
    [-2.681063652038574, 0.08378744125366211, -0.054886844009160995, 110.87623596191406],
    [0.08143174648284912, 2.679304838180542, 0.11381898820400238, -101.37508392333984],
    [-0.05799821764230728, -0.11136533319950104, 2.6970415115356445, -64.10438537597656],
    [0.0, 0.0, 0.0, 1.0]
],
  "dcmmeta_reorient_transform": [
    [0.0, -1.0, 0.0, 81.0],
    [1.0, 0.0, 0.0, 0.0],
    [0.0, 0.0, 1.0, 0.0],
    [0.0, 0.0, 0.0, 1.0]
],
  "dcmmeta_shape": [82, 82, 56, 872],
  "dcmmeta_slice_dim": 2,
  "dcmmeta_version": 0.6,
  "global": {
    "const": {
      "AccessionNumber": "A003916",
      "AcquisitionMatrix": [82, 0, 0, 82],
      "AngioFlag": "N",
      "BitsAllocated": 16,
      "BitsStored": 16,
      "BodyPartExamined": "BRAIN",
      "Columns": 656,
      "EchoNumbers": 1,
      "EchoTime": 27.2,
      "EchoTrainLength": 82,
      "FlipAngle": 44.0,
      "HighBit": 15,
      "ImageOrientationPatient": [0.99930548348166, -0.0303518312617, -0.0216175165674, 0.03122986345438, 0.99864994223362, 0.04150889670183],
      "ImagePositionPatient": [-911.17525843308, -861.2381697767, -88.441342731082],
      "ImageType": [
        "ORIGINAL",
        "PRIMARY",
        "M",
        "MB",
        "ND",
        "NORM",
        "MOSAIC"
],
      "ImagedNucleus": "1H",
      "ImagingFrequency": 123.252205,
      "InPlanePhaseEncodingDirection": "COL",
      "MRAcquisitionType": "2D",
      "MagneticFieldStrength": 3.0,
      "Manufacturer": "SIEMENS",
      "ManufacturerModelName": "Prisma",
      "Modality": "MR",
      "NumberOfAverages": 1.0,
      "NumberOfPhaseEncodingSteps": 82,
      "PercentPhaseFieldOfView": 100.0,
      "PercentSampling": 100.0,
      "PerformedProcedureStepStartTime": "152634.498000",
      "PhotometricInterpretation": "MONOCHROME2",
      "PixelBandwidth": 3050.0,
      "PixelRepresentation": 0,
      "PixelSpacing": [2.6829268932343, 2.6829268932343],
      "ProtocolName": "func_run-02_task-social_acq-ap-mb8",
      "RepetitionTime": 460.0,
      "Rows": 656,
      "SAR": 0.113190028055,
      "SamplesPerPixel": 1,
      "ScanOptions": "FS",
      "ScanningSequence": "EP",
      "SequenceName": "epfid2d1_82",
      "SequenceVariant": [
        "SK",
        "SS"
],
      "SeriesDescription": "func_run-02_task-social_acq-ap-mb8",
      "SeriesNumber": 14,
      "SeriesTime": "161753.660000",
      "SliceLocation": -70.56157301199,
      "SliceThickness": 2.7000000476837,
      "SmallestImagePixelValue": 0,
      "SoftwareVersions": "syngo MR E11",
      "SpacingBetweenSlices": 2.6999999920503,
      "SpecificCharacterSet": "ISO_IR 100",
      "StudyID": "4",
      "StudyTime": "152634.447000",
      "TransmitCoilName": "Body",
      "VariableFlipAngleFlag": "N",
      "WindowCenterWidthExplanation": "Algo1"
    },
    "slices": {}
  },
  "time": {
    "samples": {
      "AcquisitionNumber": [1, 2, 3, 4, 5, 6, 7, 8, 9, 10, 11, 12, 13, 14, 15, 16, 17, 18, 19, 20, 21, 22, 23, 24, 25, 26, 27, 28, 29, 30, 31, 32, 33, 34, 35, 36, 37, 38, 39, 40, 41, 42, 43, 44, 45, 46, 47, 48, 49, 50, 51, 52, 53, 54, 55, 56, 57, 58, 59, 60, 61, 62, 63, 64, 65, 66, 67, 68, 69, 70, 71, 72, 73, 74, 75, 76, 77, 78, 79, 80, 81, 82, 83, 84, 85, 86, 87, 88, 89, 90, 91, 92, 93, 94, 95, 96, 97, 98, 99, 100, 101, 102, 103, 104, 105, 106, 107, 108, 109, 110, 111, 112, 113, 114, 115, 116, 117, 118, 119, 120, 121, 122, 123, 124, 125, 126, 127, 128, 129, 130, 131, 132, 133, 134, 135, 136, 137, 138, 139, 140, 141, 142, 143, 144, 145, 146, 147, 148, 149, 150, 151, 152, 153, 154, 155, 156, 157, 158, 159, 160, 161, 162, 163, 164, 165, 166, 167, 168, 169, 170, 171, 172, 173, 174, 175, 176, 177, 178, 179, 180, 181, 182, 183, 184, 185, 186, 187, 188, 189, 190, 191, 192, 193, 194, 195, 196, 197, 198, 199, 200, 201, 202, 203, 204, 205, 206, 207, 208, 209, 210, 211, 212, 213, 214, 215, 216, 217, 218, 219, 220, 221, 222, 223, 224, 225, 226, 227, 228, 229, 230, 231, 232, 233, 234, 235, 236, 237, 238, 239, 240, 241, 242, 243, 244, 245, 246, 247, 248, 249, 250, 251, 252, 253, 254, 255, 256, 257, 258, 259, 260, 261, 262, 263, 264, 265, 266, 267, 268, 269, 270, 271, 272, 273, 274, 275, 276, 277, 278, 279, 280, 281, 282, 283, 284, 285, 286, 287, 288, 289, 290, 291, 292, 293, 294, 295, 296, 297, 298, 299, 300, 301, 302, 303, 304, 305, 306, 307, 308, 309, 310, 311, 312, 313, 314, 315, 316, 317, 318, 319, 320, 321, 322, 323, 324, 325, 326, 327, 328, 329, 330, 331, 332, 333, 334, 335, 336, 337, 338, 339, 340, 341, 342, 343, 344, 345, 346, 347, 348, 349, 350, 351, 352, 353, 354, 355, 356, 357, 358, 359, 360, 361, 362, 363, 364, 365, 366, 367, 368, 369, 370, 371, 372, 373, 374, 375, 376, 377, 378, 379, 380, 381, 382, 383, 384, 385, 386, 387, 388, 389, 390, 391, 392, 393, 394, 395, 396, 397, 398, 399, 400, 401, 402, 403, 404, 405, 406, 407, 408, 409, 410, 411, 412, 413, 414, 415, 416, 417, 418, 419, 420, 421, 422, 423, 424, 425, 426, 427, 428, 429, 430, 431, 432, 433, 434, 435, 436, 437, 438, 439, 440, 441, 442, 443, 444, 445, 446, 447, 448, 449, 450, 451, 452, 453, 454, 455, 456, 457, 458, 459, 460, 461, 462, 463, 464, 465, 466, 467, 468, 469, 470, 471, 472, 473, 474, 475, 476, 477, 478, 479, 480, 481, 482, 483, 484, 485, 486, 487, 488, 489, 490, 491, 492, 493, 494, 495, 496, 497, 498, 499, 500, 501, 502, 503, 504, 505, 506, 507, 508, 509, 510, 511, 512, 513, 514, 515, 516, 517, 518, 519, 520, 521, 522, 523, 524, 525, 526, 527, 528, 529, 530, 531, 532, 533, 534, 535, 536, 537, 538, 539, 540, 541, 542, 543, 544, 545, 546, 547, 548, 549, 550, 551, 552, 553, 554, 555, 556, 557, 558, 559, 560, 561, 562, 563, 564, 565, 566, 567, 568, 569, 570, 571, 572, 573, 574, 575, 576, 577, 578, 579, 580, 581, 582, 583, 584, 585, 586, 587, 588, 589, 590, 591, 592, 593, 594, 595, 596, 597, 598, 599, 600, 601, 602, 603, 604, 605, 606, 607, 608, 609, 610, 611, 612, 613, 614, 615, 616, 617, 618, 619, 620, 621, 622, 623, 624, 625, 626, 627, 628, 629, 630, 631, 632, 633, 634, 635, 636, 637, 638, 639, 640, 641, 642, 643, 644, 645, 646, 647, 648, 649, 650, 651, 652, 653, 654, 655, 656, 657, 658, 659, 660, 661, 662, 663, 664, 665, 666, 667, 668, 669, 670, 671, 672, 673, 674, 675, 676, 677, 678, 679, 680, 681, 682, 683, 684, 685, 686, 687, 688, 689, 690, 691, 692, 693, 694, 695, 696, 697, 698, 699, 700, 701, 702, 703, 704, 705, 706, 707, 708, 709, 710, 711, 712, 713, 714, 715, 716, 717, 718, 719, 720, 721, 722, 723, 724, 725, 726, 727, 728, 729, 730, 731, 732, 733, 734, 735, 736, 737, 738, 739, 740, 741, 742, 743, 744, 745, 746, 747, 748, 749, 750, 751, 752, 753, 754, 755, 756, 757, 758, 759, 760, 761, 762, 763, 764, 765, 766, 767, 768, 769, 770, 771, 772, 773, 774, 775, 776, 777, 778, 779, 780, 781, 782, 783, 784, 785, 786, 787, 788, 789, 790, 791, 792, 793, 794, 795, 796, 797, 798, 799, 800, 801, 802, 803, 804, 805, 806, 807, 808, 809, 810, 811, 812, 813, 814, 815, 816, 817, 818, 819, 820, 821, 822, 823, 824, 825, 826, 827, 828, 829, 830, 831, 832, 833, 834, 835, 836, 837, 838, 839, 840, 841, 842, 843, 844, 845, 846, 847, 848, 849, 850, 851, 852, 853, 854, 855, 856, 857, 858, 859, 860, 861, 862, 863, 864, 865, 866, 867, 868, 869, 870, 871, 872],
      "AcquisitionTime": ["161735.062500", "161735.522500", "161735.982500", "161736.442500", "161736.902500", "161737.362500", "161737.822500", "161738.282500", "161738.742500", "161739.202500", "161739.662500", "161740.122500", "161740.582500", "161741.042500", "161741.502500", "161741.962500", "161742.422500", "161742.882500", "161743.342500", "161743.802500", "161744.262500", "161744.722500", "161745.182500", "161745.642500", "161746.102500", "161746.562500", "161747.022500", "161747.482500", "161747.942500", "161748.402500", "161748.862500", "161749.322500", "161749.782500", "161750.242500", "161750.702500", "161751.162500", "161751.622500", "161752.082500", "161752.542500", "161753.002500", "161753.462500", "161753.922500", "161754.382500", "161754.842500", "161755.302500", "161755.762500", "161756.222500", "161756.682500", "161757.142500", "161757.602500", "161758.062500", "161758.522500", "161758.982500", "161759.442500", "161759.902500", "161800.362500", "161800.822500", "161801.282500", "161801.742500", "161802.202500", "161802.662500", "161803.122500", "161803.582500", "161804.042500", "161804.502500", "161804.962500", "161805.422500", "161805.882500", "161806.342500", "161806.802500", "161807.262500", "161807.722500", "161808.182500", "161808.642500", "161809.102500", "161809.562500", "161810.022500", "161810.482500", "161810.942500", "161811.402500", "161811.862500", "161812.322500", "161812.782500", "161813.242500", "161813.702500", "161814.162500", "161814.622500", "161815.082500", "161815.542500", "161816.002500", "161816.462500", "161816.922500", "161817.382500", "161817.842500", "161818.302500", "161818.762500", "161819.222500", "161819.682500", "161820.142500", "161820.602500", "161821.062500", "161821.522500", "161821.982500", "161822.442500", "161822.902500", "161823.362500", "161823.822500", "161824.282500", "161824.742500", "161825.202500", "161825.662500", "161826.122500", "161826.582500", "161827.042500", "161827.502500", "161827.962500", "161828.422500", "161828.882500", "161829.342500", "161829.802500", "161830.262500", "161830.722500", "161831.182500", "161831.642500", "161832.102500", "161832.562500", "161833.022500", "161833.482500", "161833.942500", "161834.402500", "161834.862500", "161835.322500", "161835.782500", "161836.242500", "161836.702500", "161837.162500", "161837.622500", "161838.082500", "161838.542500", "161839.002500", "161839.462500", "161839.922500", "161840.382500", "161840.842500", "161841.302500", "161841.762500", "161842.222500", "161842.682500", "161843.142500", "161843.602500", "161844.062500", "161844.522500", "161844.982500", "161845.442500", "161845.902500", "161846.362500", "161846.822500", "161847.282500", "161847.742500", "161848.202500", "161848.662500", "161849.122500", "161849.582500", "161850.042500", "161850.502500", "161850.962500", "161851.422500", "161851.882500", "161852.342500", "161852.802500", "161853.262500", "161853.722500", "161854.182500", "161854.642500", "161855.102500", "161855.562500", "161856.022500", "161856.482500", "161856.942500", "161857.402500", "161857.862500", "161858.322500", "161858.782500", "161859.242500", "161859.702500", "161900.162500", "161900.622500", "161901.082500", "161901.542500", "161902.002500", "161902.462500", "161902.922500", "161903.382500", "161903.842500", "161904.302500", "161904.762500", "161905.222500", "161905.682500", "161906.142500", "161906.602500", "161907.062500", "161907.522500", "161907.982500", "161908.442500", "161908.902500", "161909.362500", "161909.822500", "161910.282500", "161910.742500", "161911.202500", "161911.662500", "161912.122500", "161912.582500", "161913.042500", "161913.502500", "161913.962500", "161914.422500", "161914.882500", "161915.342500", "161915.802500", "161916.262500", "161916.722500", "161917.182500", "161917.642500", "161918.102500", "161918.562500", "161919.022500", "161919.482500", "161919.942500", "161920.402500", "161920.862500", "161921.322500", "161921.782500", "161922.242500", "161922.702500", "161923.162500", "161923.622500", "161924.082500", "161924.542500", "161925.002500", "161925.462500", "161925.922500", "161926.382500", "161926.842500", "161927.302500", "161927.762500", "161928.222500", "161928.682500", "161929.142500", "161929.602500", "161930.062500", "161930.522500", "161930.982500", "161931.442500", "161931.902500", "161932.362500", "161932.822500", "161933.282500", "161933.742500", "161934.202500", "161934.662500", "161935.122500", "161935.582500", "161936.042500", "161936.502500", "161936.962500", "161937.422500", "161937.882500", "161938.342500", "161938.802500", "161939.262500", "161939.722500", "161940.182500", "161940.642500", "161941.102500", "161941.562500", "161942.022500", "161942.482500", "161942.942500", "161943.402500", "161943.862500", "161944.322500", "161944.782500", "161945.242500", "161945.702500", "161946.162500", "161946.622500", "161947.082500", "161947.542500", "161948.002500", "161948.462500", "161948.922500", "161949.382500", "161949.842500", "161950.302500", "161950.762500", "161951.222500", "161951.682500", "161952.142500", "161952.602500", "161953.062500", "161953.522500", "161953.982500", "161954.442500", "161954.902500", "161955.362500", "161955.822500", "161956.282500", "161956.742500", "161957.202500", "161957.662500", "161958.122500", "161958.582500", "161959.042500", "161959.502500", "161959.962500", "162000.422500", "162000.882500", "162001.342500", "162001.802500", "162002.262500", "162002.722500", "162003.182500", "162003.642500", "162004.102500", "162004.562500", "162005.022500", "162005.482500", "162005.942500", "162006.402500", "162006.862500", "162007.322500", "162007.782500", "162008.242500", "162008.702500", "162009.162500", "162009.622500", "162010.082500", "162010.542500", "162011.002500", "162011.462500", "162011.922500", "162012.382500", "162012.842500", "162013.302500", "162013.762500", "162014.222500", "162014.682500", "162015.142500", "162015.602500", "162016.062500", "162016.522500", "162016.982500", "162017.442500", "162017.902500", "162018.362500", "162018.822500", "162019.282500", "162019.742500", "162020.202500", "162020.662500", "162021.122500", "162021.582500", "162022.042500", "162022.502500", "162022.962500", "162023.422500", "162023.882500", "162024.342500", "162024.802500", "162025.262500", "162025.722500", "162026.182500", "162026.642500", "162027.102500", "162027.562500", "162028.022500", "162028.482500", "162028.942500", "162029.402500", "162029.862500", "162030.322500", "162030.782500", "162031.242500", "162031.702500", "162032.162500", "162032.622500", "162033.082500", "162033.542500", "162034.002500", "162034.462500", "162034.922500", "162035.382500", "162035.842500", "162036.302500", "162036.762500", "162037.222500", "162037.682500", "162038.142500", "162038.602500", "162039.062500", "162039.522500", "162039.982500", "162040.442500", "162040.902500", "162041.362500", "162041.822500", "162042.282500", "162042.742500", "162043.202500", "162043.662500", "162044.122500", "162044.582500", "162045.042500", "162045.502500", "162045.962500", "162046.422500", "162046.882500", "162047.342500", "162047.802500", "162048.262500", "162048.722500", "162049.182500", "162049.642500", "162050.102500", "162050.562500", "162051.022500", "162051.482500", "162051.942500", "162052.402500", "162052.862500", "162053.322500", "162053.782500", "162054.242500", "162054.702500", "162055.162500", "162055.622500", "162056.082500", "162056.542500", "162057.002500", "162057.462500", "162057.922500", "162058.382500", "162058.842500", "162059.302500", "162059.762500", "162100.222500", "162100.682500", "162101.142500", "162101.602500", "162102.062500", "162102.522500", "162102.982500", "162103.442500", "162103.902500", "162104.362500", "162104.822500", "162105.282500", "162105.742500", "162106.202500", "162106.662500", "162107.122500", "162107.582500", "162108.042500", "162108.502500", "162108.962500", "162109.422500", "162109.882500", "162110.342500", "162110.802500", "162111.262500", "162111.722500", "162112.182500", "162112.642500", "162113.102500", "162113.562500", "162114.022500", "162114.482500", "162114.942500", "162115.402500", "162115.862500", "162116.322500", "162116.782500", "162117.242500", "162117.702500", "162118.162500", "162118.622500", "162119.082500", "162119.542500", "162120.002500", "162120.462500", "162120.922500", "162121.382500", "162121.842500", "162122.302500", "162122.762500", "162123.222500", "162123.682500", "162124.142500", "162124.602500", "162125.062500", "162125.522500", "162125.982500", "162126.442500", "162126.902500", "162127.362500", "162127.822500", "162128.282500", "162128.742500", "162129.202500", "162129.662500", "162130.122500", "162130.582500", "162131.042500", "162131.502500", "162131.962500", "162132.422500", "162132.882500", "162133.342500", "162133.802500", "162134.262500", "162134.722500", "162135.182500", "162135.642500", "162136.102500", "162136.562500", "162137.022500", "162137.482500", "162137.942500", "162138.402500", "162138.862500", "162139.322500", "162139.782500", "162140.242500", "162140.702500", "162141.162500", "162141.622500", "162142.082500", "162142.542500", "162143.002500", "162143.462500", "162143.922500", "162144.382500", "162144.842500", "162145.302500", "162145.762500", "162146.222500", "162146.682500", "162147.142500", "162147.602500", "162148.062500", "162148.522500", "162148.982500", "162149.442500", "162149.902500", "162150.362500", "162150.822500", "162151.282500", "162151.742500", "162152.202500", "162152.662500", "162153.122500", "162153.582500", "162154.042500", "162154.502500", "162154.962500", "162155.422500", "162155.882500", "162156.342500", "162156.802500", "162157.262500", "162157.722500", "162158.182500", "162158.642500", "162159.102500", "162159.562500", "162200.022500", "162200.482500", "162200.942500", "162201.402500", "162201.862500", "162202.322500", "162202.782500", "162203.242500", "162203.702500", "162204.162500", "162204.622500", "162205.082500", "162205.542500", "162206.002500", "162206.462500", "162206.922500", "162207.382500", "162207.842500", "162208.302500", "162208.762500", "162209.222500", "162209.682500", "162210.142500", "162210.602500", "162211.062500", "162211.522500", "162211.982500", "162212.442500", "162212.902500", "162213.362500", "162213.822500", "162214.282500", "162214.742500", "162215.202500", "162215.662500", "162216.122500", "162216.582500", "162217.042500", "162217.502500", "162217.962500", "162218.422500", "162218.882500", "162219.342500", "162219.802500", "162220.262500", "162220.722500", "162221.182500", "162221.642500", "162222.102500", "162222.562500", "162223.022500", "162223.482500", "162223.942500", "162224.402500", "162224.862500", "162225.322500", "162225.782500", "162226.242500", "162226.702500", "162227.162500", "162227.622500", "162228.082500", "162228.542500", "162229.002500", "162229.462500", "162229.922500", "162230.382500", "162230.842500", "162231.302500", "162231.762500", "162232.222500", "162232.682500", "162233.142500", "162233.602500", "162234.062500", "162234.522500", "162234.982500", "162235.442500", "162235.902500", "162236.362500", "162236.822500", "162237.282500", "162237.742500", "162238.202500", "162238.662500", "162239.122500", "162239.582500", "162240.042500", "162240.502500", "162240.962500", "162241.422500", "162241.882500", "162242.342500", "162242.802500", "162243.262500", "162243.722500", "162244.182500", "162244.642500", "162245.102500", "162245.562500", "162246.022500", "162246.482500", "162246.942500", "162247.402500", "162247.862500", "162248.322500", "162248.782500", "162249.242500", "162249.702500", "162250.162500", "162250.622500", "162251.082500", "162251.542500", "162252.002500", "162252.462500", "162252.922500", "162253.382500", "162253.842500", "162254.302500", "162254.762500", "162255.222500", "162255.682500", "162256.142500", "162256.602500", "162257.062500", "162257.522500", "162257.982500", "162258.442500", "162258.902500", "162259.362500", "162259.822500", "162300.282500", "162300.742500", "162301.202500", "162301.662500", "162302.122500", "162302.582500", "162303.042500", "162303.502500", "162303.962500", "162304.422500", "162304.882500", "162305.342500", "162305.802500", "162306.262500", "162306.722500", "162307.182500", "162307.642500", "162308.102500", "162308.562500", "162309.022500", "162309.482500", "162309.942500", "162310.402500", "162310.862500", "162311.322500", "162311.782500", "162312.242500", "162312.702500", "162313.162500", "162313.622500", "162314.082500", "162314.542500", "162315.002500", "162315.462500", "162315.922500", "162316.382500", "162316.842500", "162317.302500", "162317.762500", "162318.222500", "162318.682500", "162319.142500", "162319.602500", "162320.062500", "162320.522500", "162320.982500", "162321.442500", "162321.902500", "162322.362500", "162322.822500", "162323.282500", "162323.742500", "162324.202500", "162324.662500", "162325.122500", "162325.582500", "162326.042500", "162326.502500", "162326.962500", "162327.422500", "162327.882500", "162328.342500", "162328.802500", "162329.262500", "162329.722500", "162330.182500", "162330.642500", "162331.102500", "162331.562500", "162332.022500", "162332.482500", "162332.942500", "162333.402500", "162333.862500", "162334.322500", "162334.782500", "162335.242500", "162335.702500", "162336.162500", "162336.622500", "162337.082500", "162337.542500", "162338.002500", "162338.462500", "162338.922500", "162339.382500", "162339.842500", "162340.302500", "162340.762500", "162341.222500", "162341.682500", "162342.142500", "162342.602500", "162343.062500", "162343.522500", "162343.982500", "162344.442500", "162344.902500", "162345.362500", "162345.822500", "162346.282500", "162346.742500", "162347.202500", "162347.662500", "162348.122500", "162348.582500", "162349.042500", "162349.502500", "162349.962500", "162350.422500", "162350.882500", "162351.342500", "162351.802500", "162352.262500", "162352.722500", "162353.182500", "162353.642500", "162354.102500", "162354.562500", "162355.022500", "162355.482500", "162355.942500", "162356.402500", "162356.862500", "162357.322500", "162357.782500", "162358.242500", "162358.702500", "162359.162500", "162359.622500", "162400.082500", "162400.542500", "162401.002500", "162401.462500", "162401.922500", "162402.382500", "162402.842500", "162403.302500", "162403.762500", "162404.222500", "162404.682500", "162405.142500", "162405.602500", "162406.062500", "162406.522500", "162406.982500", "162407.442500", "162407.902500", "162408.362500", "162408.822500", "162409.282500", "162409.742500", "162410.202500", "162410.662500", "162411.122500", "162411.582500", "162412.042500", "162412.502500", "162412.962500", "162413.422500", "162413.882500", "162414.342500", "162414.802500", "162415.262500", "162415.722500"],
