{
  "AcquisitionMatrixPE": 82,
  "AcquisitionNumber": 1,
  "AcquisitionTime": "08:55:18.827500",
  "BandwidthPerPixelPhaseEncode": 24.888,
  "BaseResolution": 82,
  "BodyPartExamined": "BRAIN",
  "ConsistencyInfo": "N4_VE11E_LATEST_20181129",
  "ConversionSoftware": "dcm2niix",
  "ConversionSoftwareVersion": "v1.0.20201102",
  "DerivedVendorReportedEchoSpacing": 0.00049,
  "DeviceSerialNumber": "66112",
  "DwellTime": 2e-06,
  "EchoTime": 0.0272,
  "EchoTrainLength": 82,
  "EffectiveEchoSpacing": 0.00049,
  "FlipAngle": 44,
  "ImageComments": "Unaliased MB8/PE3",
  "ImageOrientationPatientDICOM": [0.999222, -0.0076647, -0.0386751, 0.00837125, 0.9998, 0.01814],
  "ImageType": [
    "ORIGINAL",
    "PRIMARY",
    "M",
    "MB",
    "ND",
    "NORM",
    "MOSAIC"
],
  "ImagingFrequency": 123.252,
  "InPlanePhaseEncodingDirectionDICOM": "COL",
  "InstitutionAddress": "Maynard 3,Hanover,NH,US,03755",
  "InstitutionName": "Dartmouth College - PBS",
  "InstitutionalDepartmentName": "Department",
  "MRAcquisitionType": "2D",
  "MagneticFieldStrength": 3,
  "Manufacturer": "Siemens",
  "ManufacturersModelName": "Prisma",
  "Modality": "MR",
  "MultibandAccelerationFactor": 8,
  "PartialFourier": 1,
  "PatientPosition": "HFS",
  "PercentPhaseFOV": 100,
  "PercentSampling": 100,
  "PhaseEncodingDirection": "j-",
  "PhaseEncodingSteps": 82,
  "PhaseResolution": 1,
  "PixelBandwidth": 3050,
  "ProcedureStepDescription": "Wager_Wager^1076_spacetop",
  "ProtocolName": "func_run-01_task-narratives_acq-ap-mb8",
  "PulseSequenceDetails": "%CustomerSeq%\\cmrr_mbep2d_bold",
  "ReceiveCoilActiveElements": "HEA;HEP",
  "ReceiveCoilName": "Head_32",
  "ReconMatrixPE": 82,
  "RepetitionTime": 0.46,
  "SAR": 0.080994,
  "ScanOptions": "FS",
  "ScanningSequence": "EP",
  "SequenceName": "epfid2d1_82",
  "SequenceVariant": "SK\\SS",
  "SeriesDescription": "func_run-01_task-narratives_acq-ap-mb8",
  "SeriesNumber": 14,
  "ShimSetting": [4134, -7727, -7282, 667, -49, -70, 73, 104],
  "SliceThickness": 2.7,
  "SliceTiming": [0, 0.2525, 0.065, 0.315, 0.1275, 0.3775, 0.19, 0, 0.2525, 0.065, 0.315, 0.1275, 0.3775, 0.19, 0, 0.2525, 0.065, 0.315, 0.1275, 0.3775, 0.19, 0, 0.2525, 0.065, 0.315, 0.1275, 0.3775, 0.19, 0, 0.2525, 0.065, 0.315, 0.1275, 0.3775, 0.19, 0, 0.2525, 0.065, 0.315, 0.1275, 0.3775, 0.19, 0, 0.2525, 0.065, 0.315, 0.1275, 0.3775, 0.19, 0, 0.2525, 0.065, 0.315, 0.1275, 0.3775, 0.19],
  "SoftwareVersions": "syngo MR E11",
  "SpacingBetweenSlices": 2.7,
  "StationName": "AWP66112",
  "TaskName": "narratives",
  "TotalReadoutTime": 0.03969,
  "TxRefAmp": 229.706,
  "WipMemBlock": "f395851a-6a10-4d82-a1fe-3a86955bb842||Sequence: R016 ve11e/master r/434b28f1; Aug  7 2019 18:53:46 by eja",
  "dcmmeta_affine": [
    [-2.6808407306671143, 0.022459447383880615, -0.10402648895978928, 110.41986846923828],
    [0.020563840866088867, 2.682391405105591, 0.04981398209929466, -102.35472869873047],
    [-0.1037624254822731, -0.048668209463357925, 2.697535514831543, -64.79426574707031],
    [0.0, 0.0, 0.0, 1.0]
],
  "dcmmeta_reorient_transform": [
    [0.0, -1.0, 0.0, 81.0],
    [1.0, 0.0, 0.0, 0.0],
    [0.0, 0.0, 1.0, 0.0],
    [0.0, 0.0, 0.0, 1.0]
],
  "dcmmeta_shape": [82, 82, 56, 967],
  "dcmmeta_slice_dim": 2,
  "dcmmeta_version": 0.6,
  "global": {
    "const": {
      "AccessionNumber": "A004234",
      "AcquisitionMatrix": [82, 0, 0, 82],
      "AngioFlag": "N",
      "BitsAllocated": 16,
      "BitsStored": 16,
      "BodyPartExamined": "BRAIN",
      "Columns": 656,
      "EchoNumbers": 1,
      "EchoTime": 27.2,
      "EchoTrainLength": 82,
      "FlipAngle": 44.0,
      "HighBit": 15,
      "ImageOrientationPatient": [0.99922244278716, -0.0076647041041, -0.0386750842464, 0.00837124824634, 0.99980041195931, 0.01813996826883],
      "ImagePositionPatient": [-888.08624124613, -878.86348894781, -52.924352025492],
      "ImageType": [
        "ORIGINAL",
        "PRIMARY",
        "M",
        "MB",
        "ND",
        "NORM",
        "MOSAIC"
],
      "ImagedNucleus": "1H",
      "ImagingFrequency": 123.252196,
      "InPlanePhaseEncodingDirection": "COL",
      "MRAcquisitionType": "2D",
      "MagneticFieldStrength": 3.0,
      "Manufacturer": "SIEMENS",
      "ManufacturerModelName": "Prisma",
      "Modality": "MR",
      "NumberOfAverages": 1.0,
      "NumberOfPhaseEncodingSteps": 82,
      "PercentPhaseFieldOfView": 100.0,
      "PercentSampling": 100.0,
      "PerformedProcedureStepStartTime": "082659.415000",
      "PhotometricInterpretation": "MONOCHROME2",
      "PixelBandwidth": 3050.0,
      "PixelRepresentation": 0,
      "PixelSpacing": [2.6829268932343, 2.6829268932343],
      "ProtocolName": "func_run-01_task-narratives_acq-ap-mb8",
      "RepetitionTime": 460.0,
      "Rows": 656,
      "SAR": 0.08099398710281,
      "SamplesPerPixel": 1,
      "ScanOptions": "FS",
      "ScanningSequence": "EP",
      "SequenceName": "epfid2d1_82",
      "SequenceVariant": [
        "SK",
        "SS"
],
      "SeriesDescription": "func_run-01_task-narratives_acq-ap-mb8",
      "SeriesNumber": 14,
      "SeriesTime": "085530.618000",
      "SliceLocation": -70.87781967571,
      "SliceThickness": 2.7000000476837,
      "SmallestImagePixelValue": 0,
      "SoftwareVersions": "syngo MR E11",
      "SpacingBetweenSlices": 2.7000000607897,
      "SpecificCharacterSet": "ISO_IR 100",
      "StudyID": "1",
      "StudyTime": "082659.270000",
      "TransmitCoilName": "Body",
      "VariableFlipAngleFlag": "N",
      "WindowCenterWidthExplanation": "Algo1"
    },
    "slices": {}
  },
  "time": {
    "samples": {
      "AcquisitionNumber": [1, 2, 3, 4, 5, 6, 7, 8, 9, 10, 11, 12, 13, 14, 15, 16, 17, 18, 19, 20, 21, 22, 23, 24, 25, 26, 27, 28, 29, 30, 31, 32, 33, 34, 35, 36, 37, 38, 39, 40, 41, 42, 43, 44, 45, 46, 47, 48, 49, 50, 51, 52, 53, 54, 55, 56, 57, 58, 59, 60, 61, 62, 63, 64, 65, 66, 67, 68, 69, 70, 71, 72, 73, 74, 75, 76, 77, 78, 79, 80, 81, 82, 83, 84, 85, 86, 87, 88, 89, 90, 91, 92, 93, 94, 95, 96, 97, 98, 99, 100, 101, 102, 103, 104, 105, 106, 107, 108, 109, 110, 111, 112, 113, 114, 115, 116, 117, 118, 119, 120, 121, 122, 123, 124, 125, 126, 127, 128, 129, 130, 131, 132, 133, 134, 135, 136, 137, 138, 139, 140, 141, 142, 143, 144, 145, 146, 147, 148, 149, 150, 151, 152, 153, 154, 155, 156, 157, 158, 159, 160, 161, 162, 163, 164, 165, 166, 167, 168, 169, 170, 171, 172, 173, 174, 175, 176, 177, 178, 179, 180, 181, 182, 183, 184, 185, 186, 187, 188, 189, 190, 191, 192, 193, 194, 195, 196, 197, 198, 199, 200, 201, 202, 203, 204, 205, 206, 207, 208, 209, 210, 211, 212, 213, 214, 215, 216, 217, 218, 219, 220, 221, 222, 223, 224, 225, 226, 227, 228, 229, 230, 231, 232, 233, 234, 235, 236, 237, 238, 239, 240, 241, 242, 243, 244, 245, 246, 247, 248, 249, 250, 251, 252, 253, 254, 255, 256, 257, 258, 259, 260, 261, 262, 263, 264, 265, 266, 267, 268, 269, 270, 271, 272, 273, 274, 275, 276, 277, 278, 279, 280, 281, 282, 283, 284, 285, 286, 287, 288, 289, 290, 291, 292, 293, 294, 295, 296, 297, 298, 299, 300, 301, 302, 303, 304, 305, 306, 307, 308, 309, 310, 311, 312, 313, 314, 315, 316, 317, 318, 319, 320, 321, 322, 323, 324, 325, 326, 327, 328, 329, 330, 331, 332, 333, 334, 335, 336, 337, 338, 339, 340, 341, 342, 343, 344, 345, 346, 347, 348, 349, 350, 351, 352, 353, 354, 355, 356, 357, 358, 359, 360, 361, 362, 363, 364, 365, 366, 367, 368, 369, 370, 371, 372, 373, 374, 375, 376, 377, 378, 379, 380, 381, 382, 383, 384, 385, 386, 387, 388, 389, 390, 391, 392, 393, 394, 395, 396, 397, 398, 399, 400, 401, 402, 403, 404, 405, 406, 407, 408, 409, 410, 411, 412, 413, 414, 415, 416, 417, 418, 419, 420, 421, 422, 423, 424, 425, 426, 427, 428, 429, 430, 431, 432, 433, 434, 435, 436, 437, 438, 439, 440, 441, 442, 443, 444, 445, 446, 447, 448, 449, 450, 451, 452, 453, 454, 455, 456, 457, 458, 459, 460, 461, 462, 463, 464, 465, 466, 467, 468, 469, 470, 471, 472, 473, 474, 475, 476, 477, 478, 479, 480, 481, 482, 483, 484, 485, 486, 487, 488, 489, 490, 491, 492, 493, 494, 495, 496, 497, 498, 499, 500, 501, 502, 503, 504, 505, 506, 507, 508, 509, 510, 511, 512, 513, 514, 515, 516, 517, 518, 519, 520, 521, 522, 523, 524, 525, 526, 527, 528, 529, 530, 531, 532, 533, 534, 535, 536, 537, 538, 539, 540, 541, 542, 543, 544, 545, 546, 547, 548, 549, 550, 551, 552, 553, 554, 555, 556, 557, 558, 559, 560, 561, 562, 563, 564, 565, 566, 567, 568, 569, 570, 571, 572, 573, 574, 575, 576, 577, 578, 579, 580, 581, 582, 583, 584, 585, 586, 587, 588, 589, 590, 591, 592, 593, 594, 595, 596, 597, 598, 599, 600, 601, 602, 603, 604, 605, 606, 607, 608, 609, 610, 611, 612, 613, 614, 615, 616, 617, 618, 619, 620, 621, 622, 623, 624, 625, 626, 627, 628, 629, 630, 631, 632, 633, 634, 635, 636, 637, 638, 639, 640, 641, 642, 643, 644, 645, 646, 647, 648, 649, 650, 651, 652, 653, 654, 655, 656, 657, 658, 659, 660, 661, 662, 663, 664, 665, 666, 667, 668, 669, 670, 671, 672, 673, 674, 675, 676, 677, 678, 679, 680, 681, 682, 683, 684, 685, 686, 687, 688, 689, 690, 691, 692, 693, 694, 695, 696, 697, 698, 699, 700, 701, 702, 703, 704, 705, 706, 707, 708, 709, 710, 711, 712, 713, 714, 715, 716, 717, 718, 719, 720, 721, 722, 723, 724, 725, 726, 727, 728, 729, 730, 731, 732, 733, 734, 735, 736, 737, 738, 739, 740, 741, 742, 743, 744, 745, 746, 747, 748, 749, 750, 751, 752, 753, 754, 755, 756, 757, 758, 759, 760, 761, 762, 763, 764, 765, 766, 767, 768, 769, 770, 771, 772, 773, 774, 775, 776, 777, 778, 779, 780, 781, 782, 783, 784, 785, 786, 787, 788, 789, 790, 791, 792, 793, 794, 795, 796, 797, 798, 799, 800, 801, 802, 803, 804, 805, 806, 807, 808, 809, 810, 811, 812, 813, 814, 815, 816, 817, 818, 819, 820, 821, 822, 823, 824, 825, 826, 827, 828, 829, 830, 831, 832, 833, 834, 835, 836, 837, 838, 839, 840, 841, 842, 843, 844, 845, 846, 847, 848, 849, 850, 851, 852, 853, 854, 855, 856, 857, 858, 859, 860, 861, 862, 863, 864, 865, 866, 867, 868, 869, 870, 871, 872, 873, 874, 875, 876, 877, 878, 879, 880, 881, 882, 883, 884, 885, 886, 887, 888, 889, 890, 891, 892, 893, 894, 895, 896, 897, 898, 899, 900, 901, 902, 903, 904, 905, 906, 907, 908, 909, 910, 911, 912, 913, 914, 915, 916, 917, 918, 919, 920, 921, 922, 923, 924, 925, 926, 927, 928, 929, 930, 931, 932, 933, 934, 935, 936, 937, 938, 939, 940, 941, 942, 943, 944, 945, 946, 947, 948, 949, 950, 951, 952, 953, 954, 955, 956, 957, 958, 959, 960, 961, 962, 963, 964, 965, 966, 967],
      "AcquisitionTime": ["085518.827500", "085519.287500", "085519.747500", "085520.207500", "085520.667500", "085521.127500", "085521.587500", "085522.047500", "085522.507500", "085522.967500", "085523.427500", "085523.887500", "085524.347500", "085524.807500", "085525.267500", "085525.727500", "085526.187500", "085526.647500", "085527.107500", "085527.567500", "085528.027500", "085528.487500", "085528.947500", "085529.407500", "085529.867500", "085530.327500", "085530.787500", "085531.247500", "085531.707500", "085532.167500", "085532.627500", "085533.087500", "085533.547500", "085534.007500", "085534.467500", "085534.927500", "085535.387500", "085535.847500", "085536.307500", "085536.767500", "085537.227500", "085537.687500", "085538.147500", "085538.607500", "085539.067500", "085539.527500", "085539.987500", "085540.447500", "085540.907500", "085541.367500", "085541.827500", "085542.287500", "085542.747500", "085543.207500", "085543.667500", "085544.127500", "085544.587500", "085545.047500", "085545.507500", "085545.967500", "085546.427500", "085546.887500", "085547.347500", "085547.807500", "085548.267500", "085548.727500", "085549.187500", "085549.647500", "085550.107500", "085550.567500", "085551.027500", "085551.487500", "085551.947500", "085552.407500", "085552.867500", "085553.327500", "085553.787500", "085554.247500", "085554.707500", "085555.167500", "085555.627500", "085556.087500", "085556.547500", "085557.007500", "085557.467500", "085557.927500", "085558.387500", "085558.847500", "085559.307500", "085559.767500", "085600.227500", "085600.687500", "085601.147500", "085601.607500", "085602.067500", "085602.527500", "085602.987500", "085603.447500", "085603.907500", "085604.367500", "085604.827500", "085605.287500", "085605.747500", "085606.207500", "085606.667500", "085607.127500", "085607.587500", "085608.047500", "085608.507500", "085608.967500", "085609.427500", "085609.887500", "085610.347500", "085610.807500", "085611.267500", "085611.727500", "085612.187500", "085612.647500", "085613.107500", "085613.567500", "085614.027500", "085614.487500", "085614.947500", "085615.407500", "085615.867500", "085616.327500", "085616.787500", "085617.247500", "085617.707500", "085618.167500", "085618.627500", "085619.087500", "085619.547500", "085620.007500", "085620.467500", "085620.927500", "085621.387500", "085621.847500", "085622.307500", "085622.767500", "085623.227500", "085623.687500", "085624.147500", "085624.607500", "085625.067500", "085625.527500", "085625.987500", "085626.447500", "085626.907500", "085627.367500", "085627.827500", "085628.287500", "085628.747500", "085629.207500", "085629.667500", "085630.127500", "085630.587500", "085631.047500", "085631.507500", "085631.967500", "085632.427500", "085632.887500", "085633.347500", "085633.807500", "085634.267500", "085634.727500", "085635.187500", "085635.647500", "085636.107500", "085636.567500", "085637.027500", "085637.487500", "085637.947500", "085638.407500", "085638.867500", "085639.327500", "085639.787500", "085640.247500", "085640.707500", "085641.167500", "085641.627500", "085642.087500", "085642.547500", "085643.007500", "085643.467500", "085643.927500", "085644.387500", "085644.847500", "085645.307500", "085645.767500", "085646.227500", "085646.687500", "085647.147500", "085647.607500", "085648.067500", "085648.527500", "085648.987500", "085649.447500", "085649.907500", "085650.367500", "085650.827500", "085651.287500", "085651.747500", "085652.207500", "085652.667500", "085653.127500", "085653.587500", "085654.047500", "085654.507500", "085654.967500", "085655.427500", "085655.887500", "085656.347500", "085656.807500", "085657.267500", "085657.727500", "085658.187500", "085658.647500", "085659.107500", "085659.567500", "085700.027500", "085700.487500", "085700.947500", "085701.407500", "085701.867500", "085702.327500", "085702.787500", "085703.247500", "085703.707500", "085704.167500", "085704.627500", "085705.087500", "085705.547500", "085706.007500", "085706.467500", "085706.927500", "085707.387500", "085707.847500", "085708.307500", "085708.767500", "085709.227500", "085709.687500", "085710.147500", "085710.607500", "085711.067500", "085711.527500", "085711.987500", "085712.447500", "085712.907500", "085713.367500", "085713.827500", "085714.287500", "085714.747500", "085715.207500", "085715.667500", "085716.127500", "085716.587500", "085717.047500", "085717.507500", "085717.967500", "085718.427500", "085718.887500", "085719.347500", "085719.807500", "085720.267500", "085720.727500", "085721.187500", "085721.647500", "085722.107500", "085722.567500", "085723.027500", "085723.487500", "085723.947500", "085724.407500", "085724.867500", "085725.327500", "085725.787500", "085726.247500", "085726.707500", "085727.167500", "085727.627500", "085728.087500", "085728.547500", "085729.007500", "085729.467500", "085729.927500", "085730.387500", "085730.847500", "085731.307500", "085731.767500", "085732.227500", "085732.687500", "085733.147500", "085733.607500", "085734.067500", "085734.527500", "085734.987500", "085735.447500", "085735.907500", "085736.367500", "085736.827500", "085737.287500", "085737.747500", "085738.207500", "085738.667500", "085739.127500", "085739.587500", "085740.047500", "085740.507500", "085740.967500", "085741.427500", "085741.887500", "085742.347500", "085742.807500", "085743.267500", "085743.727500", "085744.187500", "085744.647500", "085745.107500", "085745.567500", "085746.027500", "085746.487500", "085746.947500", "085747.407500", "085747.867500", "085748.327500", "085748.787500", "085749.247500", "085749.707500", "085750.167500", "085750.627500", "085751.087500", "085751.547500", "085752.007500", "085752.467500", "085752.927500", "085753.387500", "085753.847500", "085754.307500", "085754.767500", "085755.227500", "085755.687500", "085756.147500", "085756.607500", "085757.067500", "085757.527500", "085757.987500", "085758.447500", "085758.907500", "085759.367500", "085759.827500", "085800.287500", "085800.747500", "085801.207500", "085801.667500", "085802.127500", "085802.587500", "085803.047500", "085803.507500", "085803.967500", "085804.427500", "085804.887500", "085805.347500", "085805.807500", "085806.267500", "085806.727500", "085807.187500", "085807.647500", "085808.107500", "085808.567500", "085809.027500", "085809.487500", "085809.947500", "085810.407500", "085810.867500", "085811.327500", "085811.787500", "085812.247500", "085812.707500", "085813.167500", "085813.627500", "085814.087500", "085814.547500", "085815.007500", "085815.467500", "085815.927500", "085816.387500", "085816.847500", "085817.307500", "085817.767500", "085818.227500", "085818.687500", "085819.147500", "085819.607500", "085820.067500", "085820.527500", "085820.987500", "085821.447500", "085821.907500", "085822.367500", "085822.827500", "085823.287500", "085823.747500", "085824.207500", "085824.667500", "085825.127500", "085825.587500", "085826.047500", "085826.507500", "085826.967500", "085827.427500", "085827.887500", "085828.347500", "085828.807500", "085829.267500", "085829.727500", "085830.187500", "085830.647500", "085831.107500", "085831.567500", "085832.027500", "085832.487500", "085832.947500", "085833.407500", "085833.867500", "085834.327500", "085834.787500", "085835.247500", "085835.707500", "085836.167500", "085836.627500", "085837.087500", "085837.547500", "085838.007500", "085838.467500", "085838.927500", "085839.387500", "085839.847500", "085840.307500", "085840.767500", "085841.227500", "085841.687500", "085842.147500", "085842.607500", "085843.067500", "085843.527500", "085843.987500", "085844.447500", "085844.907500", "085845.367500", "085845.827500", "085846.287500", "085846.747500", "085847.207500", "085847.667500", "085848.127500", "085848.587500", "085849.047500", "085849.507500", "085849.967500", "085850.427500", "085850.887500", "085851.347500", "085851.807500", "085852.267500", "085852.727500", "085853.187500", "085853.647500", "085854.107500", "085854.567500", "085855.027500", "085855.487500", "085855.947500", "085856.407500", "085856.867500", "085857.327500", "085857.787500", "085858.247500", "085858.707500", "085859.167500", "085859.627500", "085900.087500", "085900.547500", "085901.007500", "085901.467500", "085901.927500", "085902.387500", "085902.847500", "085903.307500", "085903.767500", "085904.227500", "085904.687500", "085905.147500", "085905.607500", "085906.067500", "085906.527500", "085906.987500", "085907.447500", "085907.907500", "085908.367500", "085908.827500", "085909.287500", "085909.747500", "085910.207500", "085910.667500", "085911.127500", "085911.587500", "085912.047500", "085912.507500", "085912.967500", "085913.427500", "085913.887500", "085914.347500", "085914.807500", "085915.267500", "085915.727500", "085916.187500", "085916.647500", "085917.107500", "085917.567500", "085918.027500", "085918.487500", "085918.947500", "085919.407500", "085919.867500", "085920.327500", "085920.787500", "085921.247500", "085921.707500", "085922.167500", "085922.627500", "085923.087500", "085923.547500", "085924.007500", "085924.467500", "085924.927500", "085925.387500", "085925.847500", "085926.307500", "085926.767500", "085927.227500", "085927.687500", "085928.147500", "085928.607500", "085929.067500", "085929.527500", "085929.987500", "085930.447500", "085930.907500", "085931.367500", "085931.827500", "085932.287500", "085932.747500", "085933.207500", "085933.667500", "085934.127500", "085934.587500", "085935.047500", "085935.507500", "085935.967500", "085936.427500", "085936.887500", "085937.347500", "085937.807500", "085938.267500", "085938.727500", "085939.187500", "085939.647500", "085940.107500", "085940.567500", "085941.027500", "085941.487500", "085941.947500", "085942.407500", "085942.867500", "085943.327500", "085943.787500", "085944.247500", "085944.707500", "085945.167500", "085945.627500", "085946.087500", "085946.547500", "085947.007500", "085947.467500", "085947.927500", "085948.387500", "085948.847500", "085949.307500", "085949.767500", "085950.227500", "085950.687500", "085951.147500", "085951.607500", "085952.067500", "085952.527500", "085952.987500", "085953.447500", "085953.907500", "085954.367500", "085954.827500", "085955.287500", "085955.747500", "085956.207500", "085956.667500", "085957.127500", "085957.587500", "085958.047500", "085958.507500", "085958.967500", "085959.427500", "085959.887500", "090000.347500", "090000.807500", "090001.267500", "090001.727500", "090002.187500", "090002.647500", "090003.107500", "090003.567500", "090004.027500", "090004.487500", "090004.947500", "090005.407500", "090005.867500", "090006.327500", "090006.787500", "090007.247500", "090007.707500", "090008.167500", "090008.627500", "090009.087500", "090009.547500", "090010.007500", "090010.467500", "090010.927500", "090011.387500", "090011.847500", "090012.307500", "090012.767500", "090013.227500", "090013.687500", "090014.147500", "090014.607500", "090015.067500", "090015.527500", "090015.987500", "090016.447500", "090016.907500", "090017.367500", "090017.827500", "090018.287500", "090018.747500", "090019.207500", "090019.667500", "090020.127500", "090020.587500", "090021.047500", "090021.507500", "090021.967500", "090022.427500", "090022.887500", "090023.347500", "090023.807500", "090024.267500", "090024.727500", "090025.187500", "090025.647500", "090026.107500", "090026.567500", "090027.027500", "090027.487500", "090027.947500", "090028.407500", "090028.867500", "090029.327500", "090029.787500", "090030.247500", "090030.707500", "090031.167500", "090031.627500", "090032.087500", "090032.547500", "090033.007500", "090033.467500", "090033.927500", "090034.387500", "090034.847500", "090035.307500", "090035.767500", "090036.227500", "090036.687500", "090037.147500", "090037.607500", "090038.067500", "090038.527500", "090038.987500", "090039.447500", "090039.907500", "090040.367500", "090040.827500", "090041.287500", "090041.747500", "090042.207500", "090042.667500", "090043.127500", "090043.587500", "090044.047500", "090044.507500", "090044.967500", "090045.427500", "090045.887500", "090046.347500", "090046.807500", "090047.267500", "090047.727500", "090048.187500", "090048.647500", "090049.107500", "090049.567500", "090050.027500", "090050.487500", "090050.947500", "090051.407500", "090051.867500", "090052.327500", "090052.787500", "090053.247500", "090053.707500", "090054.167500", "090054.627500", "090055.087500", "090055.547500", "090056.007500", "090056.467500", "090056.927500", "090057.387500", "090057.847500", "090058.307500", "090058.767500", "090059.227500", "090059.687500", "090100.147500", "090100.607500", "090101.067500", "090101.527500", "090101.987500", "090102.447500", "090102.907500", "090103.367500", "090103.827500", "090104.287500", "090104.747500", "090105.207500", "090105.667500", "090106.127500", "090106.587500", "090107.047500", "090107.507500", "090107.967500", "090108.427500", "090108.887500", "090109.347500", "090109.807500", "090110.267500", "090110.727500", "090111.187500", "090111.647500", "090112.107500", "090112.567500", "090113.027500", "090113.487500", "090113.947500", "090114.407500", "090114.867500", "090115.327500", "090115.787500", "090116.247500", "090116.707500", "090117.167500", "090117.627500", "090118.087500", "090118.547500", "090119.007500", "090119.467500", "090119.927500", "090120.387500", "090120.847500", "090121.307500", "090121.767500", "090122.227500", "090122.687500", "090123.147500", "090123.607500", "090124.067500", "090124.527500", "090124.987500", "090125.447500", "090125.907500", "090126.367500", "090126.827500", "090127.287500", "090127.747500", "090128.207500", "090128.667500", "090129.127500", "090129.587500", "090130.047500", "090130.507500", "090130.967500", "090131.427500", "090131.887500", "090132.347500", "090132.807500", "090133.267500", "090133.727500", "090134.187500", "090134.647500", "090135.107500", "090135.567500", "090136.027500", "090136.487500", "090136.947500", "090137.407500", "090137.867500", "090138.327500", "090138.787500", "090139.247500", "090139.707500", "090140.167500", "090140.627500", "090141.087500", "090141.547500", "090142.007500", "090142.467500", "090142.927500", "090143.387500", "090143.847500", "090144.307500", "090144.767500", "090145.227500", "090145.687500", "090146.147500", "090146.607500", "090147.067500", "090147.527500", "090147.987500", "090148.447500", "090148.907500", "090149.367500", "090149.827500", "090150.287500", "090150.747500", "090151.207500", "090151.667500", "090152.127500", "090152.587500", "090153.047500", "090153.507500", "090153.967500", "090154.427500", "090154.887500", "090155.347500", "090155.807500", "090156.267500", "090156.727500", "090157.187500", "090157.647500", "090158.107500", "090158.567500", "090159.027500", "090159.487500", "090159.947500", "090200.407500", "090200.867500", "090201.327500", "090201.787500", "090202.247500", "090202.707500", "090203.167500", "090203.627500", "090204.087500", "090204.547500", "090205.007500", "090205.467500", "090205.927500", "090206.387500", "090206.847500", "090207.307500", "090207.767500", "090208.227500", "090208.687500", "090209.147500", "090209.607500", "090210.067500", "090210.527500", "090210.987500", "090211.447500", "090211.907500", "090212.367500", "090212.827500", "090213.287500", "090213.747500", "090214.207500", "090214.667500", "090215.127500", "090215.587500", "090216.047500", "090216.507500", "090216.967500", "090217.427500", "090217.887500", "090218.347500", "090218.807500", "090219.267500", "090219.727500", "090220.187500", "090220.647500", "090221.107500", "090221.567500", "090222.027500", "090222.487500", "090222.947500", "090223.407500", "090223.867500", "090224.327500", "090224.787500", "090225.247500", "090225.707500", "090226.167500", "090226.627500", "090227.087500", "090227.547500", "090228.007500", "090228.467500", "090228.927500", "090229.387500", "090229.847500", "090230.307500", "090230.767500", "090231.227500", "090231.687500", "090232.147500", "090232.607500", "090233.067500", "090233.527500", "090233.987500", "090234.447500", "090234.907500", "090235.367500", "090235.827500", "090236.287500", "090236.747500", "090237.207500", "090237.667500", "090238.127500", "090238.587500", "090239.047500", "090239.507500", "090239.967500", "090240.427500", "090240.887500", "090241.347500", "090241.807500", "090242.267500", "090242.727500", "090243.187500"],
