{
  "AcquisitionMatrixPE": 82,
  "AcquisitionNumber": 1,
  "AcquisitionTime": "09:32:33.747500",
  "BandwidthPerPixelPhaseEncode": 24.888,
  "BaseResolution": 82,
  "BodyPartExamined": "BRAIN",
  "ConsistencyInfo": "N4_VE11E_LATEST_20181129",
  "ConversionSoftware": "dcm2niix",
  "ConversionSoftwareVersion": "v1.0.20201102",
  "DerivedVendorReportedEchoSpacing": 0.00049,
  "DeviceSerialNumber": "66112",
  "DwellTime": 2e-06,
  "EchoTime": 0.0272,
  "EchoTrainLength": 82,
  "EffectiveEchoSpacing": 0.00049,
  "FlipAngle": 44,
  "ImageComments": "Unaliased MB8/PE3",
  "ImageOrientationPatientDICOM": [0.999222, -0.0076647, -0.0386751, 0.00837125, 0.9998, 0.01814],
  "ImageType": [
    "ORIGINAL",
    "PRIMARY",
    "M",
    "MB",
    "ND",
    "NORM",
    "MOSAIC"
],
  "ImagingFrequency": 123.252,
  "InPlanePhaseEncodingDirectionDICOM": "COL",
  "InstitutionAddress": "Maynard 3,Hanover,NH,US,03755",
  "InstitutionName": "Dartmouth College - PBS",
  "InstitutionalDepartmentName": "Department",
  "MRAcquisitionType": "2D",
  "MagneticFieldStrength": 3,
  "Manufacturer": "Siemens",
  "ManufacturersModelName": "Prisma",
  "Modality": "MR",
  "MultibandAccelerationFactor": 8,
  "PartialFourier": 1,
  "PatientPosition": "HFS",
  "PercentPhaseFOV": 100,
  "PercentSampling": 100,
  "PhaseEncodingDirection": "j-",
  "PhaseEncodingSteps": 82,
  "PhaseResolution": 1,
  "PixelBandwidth": 3050,
  "ProcedureStepDescription": "Wager_Wager^1076_spacetop",
  "ProtocolName": "func_run-01_task-faces_acq-ap-mb8",
  "PulseSequenceDetails": "%CustomerSeq%\\cmrr_mbep2d_bold",
  "ReceiveCoilActiveElements": "HEA;HEP",
  "ReceiveCoilName": "Head_32",
  "ReconMatrixPE": 82,
  "RepetitionTime": 0.46,
  "SAR": 0.0809677,
  "ScanOptions": "FS",
  "ScanningSequence": "EP",
  "SequenceName": "epfid2d1_82",
  "SequenceVariant": "SK\\SS",
  "SeriesDescription": "func_run-01_task-faces_acq-ap-mb8",
  "SeriesNumber": 22,
  "ShimSetting": [4134, -7727, -7282, 667, -49, -70, 73, 104],
  "SliceThickness": 2.7,
  "SliceTiming": [0, 0.2525, 0.0625, 0.315, 0.125, 0.3775, 0.1875, 0, 0.2525, 0.0625, 0.315, 0.125, 0.3775, 0.1875, 0, 0.2525, 0.0625, 0.315, 0.125, 0.3775, 0.1875, 0, 0.2525, 0.0625, 0.315, 0.125, 0.3775, 0.1875, 0, 0.2525, 0.0625, 0.315, 0.125, 0.3775, 0.1875, 0, 0.2525, 0.0625, 0.315, 0.125, 0.3775, 0.1875, 0, 0.2525, 0.0625, 0.315, 0.125, 0.3775, 0.1875, 0, 0.2525, 0.0625, 0.315, 0.125, 0.3775, 0.1875],
  "SoftwareVersions": "syngo MR E11",
  "SpacingBetweenSlices": 2.7,
  "StationName": "AWP66112",
  "TaskName": "faces",
  "TotalReadoutTime": 0.03969,
  "TxRefAmp": 229.706,
  "WipMemBlock": "c9509226-8d2b-4d36-b556-c685d1867649||Sequence: R016 ve11e/master r/434b28f1; Aug  7 2019 18:53:46 by eja",
  "dcmmeta_affine": [
    [-2.6808407306671143, 0.022459447383880615, -0.10402648895978928, 110.41986846923828],
    [0.020563840866088867, 2.682391405105591, 0.04981398209929466, -102.35472869873047],
    [-0.1037624254822731, -0.048668209463357925, 2.697535514831543, -64.79426574707031],
    [0.0, 0.0, 0.0, 1.0]
],
  "dcmmeta_reorient_transform": [
    [0.0, -1.0, 0.0, 81.0],
    [1.0, 0.0, 0.0, 0.0],
    [0.0, 0.0, 1.0, 0.0],
    [0.0, 0.0, 0.0, 1.0]
],
  "dcmmeta_shape": [82, 82, 56, 914],
  "dcmmeta_slice_dim": 2,
  "dcmmeta_version": 0.6,
  "global": {
    "const": {
      "AccessionNumber": "A004234",
      "AcquisitionMatrix": [82, 0, 0, 82],
      "AngioFlag": "N",
      "BitsAllocated": 16,
      "BitsStored": 16,
      "BodyPartExamined": "BRAIN",
      "Columns": 656,
      "EchoNumbers": 1,
      "EchoTime": 27.2,
      "EchoTrainLength": 82,
      "FlipAngle": 44.0,
      "HighBit": 15,
      "ImageOrientationPatient": [0.99922244278716, -0.0076647041041, -0.0386750842464, 0.00837124824634, 0.99980041195931, 0.01813996826883],
      "ImagePositionPatient": [-888.08624124613, -878.86348894781, -52.924352025492],
      "ImageType": [
        "ORIGINAL",
        "PRIMARY",
        "M",
        "MB",
        "ND",
        "NORM",
        "MOSAIC"
],
      "ImagedNucleus": "1H",
      "ImagingFrequency": 123.252213,
      "InPlanePhaseEncodingDirection": "COL",
      "MRAcquisitionType": "2D",
      "MagneticFieldStrength": 3.0,
      "Manufacturer": "SIEMENS",
      "ManufacturerModelName": "Prisma",
      "Modality": "MR",
      "NumberOfAverages": 1.0,
      "NumberOfPhaseEncodingSteps": 82,
      "PercentPhaseFieldOfView": 100.0,
      "PercentSampling": 100.0,
      "PerformedProcedureStepStartTime": "082659.415000",
      "PhotometricInterpretation": "MONOCHROME2",
      "PixelBandwidth": 3050.0,
      "PixelRepresentation": 0,
      "PixelSpacing": [2.6829268932343, 2.6829268932343],
      "ProtocolName": "func_run-01_task-faces_acq-ap-mb8",
      "RepetitionTime": 460.0,
      "Rows": 656,
      "SAR": 0.0809676584633,
      "SamplesPerPixel": 1,
      "ScanOptions": "FS",
      "ScanningSequence": "EP",
      "SequenceName": "epfid2d1_82",
      "SequenceVariant": [
        "SK",
        "SS"
],
      "SeriesDescription": "func_run-01_task-faces_acq-ap-mb8",
      "SeriesNumber": 22,
      "SeriesTime": "093250.709000",
      "SliceLocation": -70.87781967571,
      "SliceThickness": 2.7000000476837,
      "SmallestImagePixelValue": 0,
      "SoftwareVersions": "syngo MR E11",
      "SpacingBetweenSlices": 2.7000000607897,
      "SpecificCharacterSet": "ISO_IR 100",
      "StudyID": "1",
      "StudyTime": "082659.270000",
      "TransmitCoilName": "Body",
      "VariableFlipAngleFlag": "N",
      "WindowCenterWidthExplanation": "Algo1"
    },
    "slices": {}
  },
  "time": {
    "samples": {
      "AcquisitionNumber": [1, 2, 3, 4, 5, 6, 7, 8, 9, 10, 11, 12, 13, 14, 15, 16, 17, 18, 19, 20, 21, 22, 23, 24, 25, 26, 27, 28, 29, 30, 31, 32, 33, 34, 35, 36, 37, 38, 39, 40, 41, 42, 43, 44, 45, 46, 47, 48, 49, 50, 51, 52, 53, 54, 55, 56, 57, 58, 59, 60, 61, 62, 63, 64, 65, 66, 67, 68, 69, 70, 71, 72, 73, 74, 75, 76, 77, 78, 79, 80, 81, 82, 83, 84, 85, 86, 87, 88, 89, 90, 91, 92, 93, 94, 95, 96, 97, 98, 99, 100, 101, 102, 103, 104, 105, 106, 107, 108, 109, 110, 111, 112, 113, 114, 115, 116, 117, 118, 119, 120, 121, 122, 123, 124, 125, 126, 127, 128, 129, 130, 131, 132, 133, 134, 135, 136, 137, 138, 139, 140, 141, 142, 143, 144, 145, 146, 147, 148, 149, 150, 151, 152, 153, 154, 155, 156, 157, 158, 159, 160, 161, 162, 163, 164, 165, 166, 167, 168, 169, 170, 171, 172, 173, 174, 175, 176, 177, 178, 179, 180, 181, 182, 183, 184, 185, 186, 187, 188, 189, 190, 191, 192, 193, 194, 195, 196, 197, 198, 199, 200, 201, 202, 203, 204, 205, 206, 207, 208, 209, 210, 211, 212, 213, 214, 215, 216, 217, 218, 219, 220, 221, 222, 223, 224, 225, 226, 227, 228, 229, 230, 231, 232, 233, 234, 235, 236, 237, 238, 239, 240, 241, 242, 243, 244, 245, 246, 247, 248, 249, 250, 251, 252, 253, 254, 255, 256, 257, 258, 259, 260, 261, 262, 263, 264, 265, 266, 267, 268, 269, 270, 271, 272, 273, 274, 275, 276, 277, 278, 279, 280, 281, 282, 283, 284, 285, 286, 287, 288, 289, 290, 291, 292, 293, 294, 295, 296, 297, 298, 299, 300, 301, 302, 303, 304, 305, 306, 307, 308, 309, 310, 311, 312, 313, 314, 315, 316, 317, 318, 319, 320, 321, 322, 323, 324, 325, 326, 327, 328, 329, 330, 331, 332, 333, 334, 335, 336, 337, 338, 339, 340, 341, 342, 343, 344, 345, 346, 347, 348, 349, 350, 351, 352, 353, 354, 355, 356, 357, 358, 359, 360, 361, 362, 363, 364, 365, 366, 367, 368, 369, 370, 371, 372, 373, 374, 375, 376, 377, 378, 379, 380, 381, 382, 383, 384, 385, 386, 387, 388, 389, 390, 391, 392, 393, 394, 395, 396, 397, 398, 399, 400, 401, 402, 403, 404, 405, 406, 407, 408, 409, 410, 411, 412, 413, 414, 415, 416, 417, 418, 419, 420, 421, 422, 423, 424, 425, 426, 427, 428, 429, 430, 431, 432, 433, 434, 435, 436, 437, 438, 439, 440, 441, 442, 443, 444, 445, 446, 447, 448, 449, 450, 451, 452, 453, 454, 455, 456, 457, 458, 459, 460, 461, 462, 463, 464, 465, 466, 467, 468, 469, 470, 471, 472, 473, 474, 475, 476, 477, 478, 479, 480, 481, 482, 483, 484, 485, 486, 487, 488, 489, 490, 491, 492, 493, 494, 495, 496, 497, 498, 499, 500, 501, 502, 503, 504, 505, 506, 507, 508, 509, 510, 511, 512, 513, 514, 515, 516, 517, 518, 519, 520, 521, 522, 523, 524, 525, 526, 527, 528, 529, 530, 531, 532, 533, 534, 535, 536, 537, 538, 539, 540, 541, 542, 543, 544, 545, 546, 547, 548, 549, 550, 551, 552, 553, 554, 555, 556, 557, 558, 559, 560, 561, 562, 563, 564, 565, 566, 567, 568, 569, 570, 571, 572, 573, 574, 575, 576, 577, 578, 579, 580, 581, 582, 583, 584, 585, 586, 587, 588, 589, 590, 591, 592, 593, 594, 595, 596, 597, 598, 599, 600, 601, 602, 603, 604, 605, 606, 607, 608, 609, 610, 611, 612, 613, 614, 615, 616, 617, 618, 619, 620, 621, 622, 623, 624, 625, 626, 627, 628, 629, 630, 631, 632, 633, 634, 635, 636, 637, 638, 639, 640, 641, 642, 643, 644, 645, 646, 647, 648, 649, 650, 651, 652, 653, 654, 655, 656, 657, 658, 659, 660, 661, 662, 663, 664, 665, 666, 667, 668, 669, 670, 671, 672, 673, 674, 675, 676, 677, 678, 679, 680, 681, 682, 683, 684, 685, 686, 687, 688, 689, 690, 691, 692, 693, 694, 695, 696, 697, 698, 699, 700, 701, 702, 703, 704, 705, 706, 707, 708, 709, 710, 711, 712, 713, 714, 715, 716, 717, 718, 719, 720, 721, 722, 723, 724, 725, 726, 727, 728, 729, 730, 731, 732, 733, 734, 735, 736, 737, 738, 739, 740, 741, 742, 743, 744, 745, 746, 747, 748, 749, 750, 751, 752, 753, 754, 755, 756, 757, 758, 759, 760, 761, 762, 763, 764, 765, 766, 767, 768, 769, 770, 771, 772, 773, 774, 775, 776, 777, 778, 779, 780, 781, 782, 783, 784, 785, 786, 787, 788, 789, 790, 791, 792, 793, 794, 795, 796, 797, 798, 799, 800, 801, 802, 803, 804, 805, 806, 807, 808, 809, 810, 811, 812, 813, 814, 815, 816, 817, 818, 819, 820, 821, 822, 823, 824, 825, 826, 827, 828, 829, 830, 831, 832, 833, 834, 835, 836, 837, 838, 839, 840, 841, 842, 843, 844, 845, 846, 847, 848, 849, 850, 851, 852, 853, 854, 855, 856, 857, 858, 859, 860, 861, 862, 863, 864, 865, 866, 867, 868, 869, 870, 871, 872, 873, 874, 875, 876, 877, 878, 879, 880, 881, 882, 883, 884, 885, 886, 887, 888, 889, 890, 891, 892, 893, 894, 895, 896, 897, 898, 899, 900, 901, 902, 903, 904, 905, 906, 907, 908, 909, 910, 911, 912, 913, 914],
      "AcquisitionTime": ["093233.747500", "093234.207500", "093234.667500", "093235.127500", "093235.587500", "093236.047500", "093236.507500", "093236.967500", "093237.427500", "093237.887500", "093238.347500", "093238.807500", "093239.267500", "093239.727500", "093240.187500", "093240.647500", "093241.107500", "093241.567500", "093242.027500", "093242.487500", "093242.947500", "093243.407500", "093243.867500", "093244.327500", "093244.787500", "093245.247500", "093245.707500", "093246.167500", "093246.627500", "093247.087500", "093247.547500", "093248.007500", "093248.467500", "093248.927500", "093249.387500", "093249.847500", "093250.307500", "093250.767500", "093251.227500", "093251.687500", "093252.147500", "093252.607500", "093253.067500", "093253.527500", "093253.987500", "093254.447500", "093254.907500", "093255.367500", "093255.827500", "093256.287500", "093256.747500", "093257.207500", "093257.667500", "093258.127500", "093258.587500", "093259.047500", "093259.507500", "093259.967500", "093300.427500", "093300.887500", "093301.347500", "093301.807500", "093302.267500", "093302.727500", "093303.187500", "093303.647500", "093304.107500", "093304.567500", "093305.027500", "093305.487500", "093305.947500", "093306.407500", "093306.867500", "093307.327500", "093307.787500", "093308.247500", "093308.707500", "093309.167500", "093309.627500", "093310.087500", "093310.547500", "093311.007500", "093311.467500", "093311.927500", "093312.387500", "093312.847500", "093313.307500", "093313.767500", "093314.227500", "093314.687500", "093315.147500", "093315.607500", "093316.067500", "093316.527500", "093316.987500", "093317.447500", "093317.907500", "093318.367500", "093318.827500", "093319.287500", "093319.747500", "093320.207500", "093320.667500", "093321.127500", "093321.587500", "093322.047500", "093322.507500", "093322.967500", "093323.427500", "093323.887500", "093324.347500", "093324.807500", "093325.267500", "093325.727500", "093326.187500", "093326.647500", "093327.107500", "093327.567500", "093328.027500", "093328.487500", "093328.947500", "093329.407500", "093329.867500", "093330.327500", "093330.787500", "093331.247500", "093331.707500", "093332.167500", "093332.627500", "093333.087500", "093333.547500", "093334.007500", "093334.467500", "093334.927500", "093335.387500", "093335.847500", "093336.307500", "093336.767500", "093337.227500", "093337.687500", "093338.147500", "093338.607500", "093339.067500", "093339.527500", "093339.987500", "093340.447500", "093340.907500", "093341.367500", "093341.827500", "093342.287500", "093342.747500", "093343.207500", "093343.667500", "093344.127500", "093344.587500", "093345.047500", "093345.507500", "093345.967500", "093346.427500", "093346.887500", "093347.347500", "093347.807500", "093348.267500", "093348.727500", "093349.187500", "093349.647500", "093350.107500", "093350.567500", "093351.027500", "093351.487500", "093351.947500", "093352.407500", "093352.867500", "093353.327500", "093353.787500", "093354.247500", "093354.707500", "093355.167500", "093355.627500", "093356.087500", "093356.547500", "093357.007500", "093357.467500", "093357.927500", "093358.387500", "093358.847500", "093359.307500", "093359.767500", "093400.227500", "093400.687500", "093401.147500", "093401.607500", "093402.067500", "093402.527500", "093402.987500", "093403.447500", "093403.907500", "093404.367500", "093404.827500", "093405.287500", "093405.747500", "093406.207500", "093406.667500", "093407.127500", "093407.587500", "093408.047500", "093408.507500", "093408.967500", "093409.427500", "093409.887500", "093410.347500", "093410.807500", "093411.267500", "093411.727500", "093412.187500", "093412.647500", "093413.107500", "093413.567500", "093414.027500", "093414.487500", "093414.947500", "093415.407500", "093415.867500", "093416.327500", "093416.787500", "093417.247500", "093417.707500", "093418.167500", "093418.627500", "093419.087500", "093419.547500", "093420.007500", "093420.467500", "093420.927500", "093421.387500", "093421.847500", "093422.307500", "093422.767500", "093423.227500", "093423.687500", "093424.147500", "093424.607500", "093425.067500", "093425.527500", "093425.987500", "093426.447500", "093426.907500", "093427.367500", "093427.827500", "093428.287500", "093428.747500", "093429.207500", "093429.667500", "093430.127500", "093430.587500", "093431.047500", "093431.507500", "093431.967500", "093432.427500", "093432.887500", "093433.347500", "093433.807500", "093434.267500", "093434.727500", "093435.187500", "093435.647500", "093436.107500", "093436.567500", "093437.027500", "093437.487500", "093437.947500", "093438.407500", "093438.867500", "093439.327500", "093439.787500", "093440.247500", "093440.707500", "093441.167500", "093441.627500", "093442.087500", "093442.547500", "093443.007500", "093443.467500", "093443.927500", "093444.387500", "093444.847500", "093445.307500", "093445.767500", "093446.227500", "093446.687500", "093447.147500", "093447.607500", "093448.067500", "093448.527500", "093448.987500", "093449.447500", "093449.907500", "093450.367500", "093450.827500", "093451.287500", "093451.747500", "093452.207500", "093452.667500", "093453.127500", "093453.587500", "093454.047500", "093454.507500", "093454.967500", "093455.427500", "093455.887500", "093456.347500", "093456.807500", "093457.267500", "093457.727500", "093458.187500", "093458.647500", "093459.107500", "093459.567500", "093500.027500", "093500.487500", "093500.947500", "093501.407500", "093501.867500", "093502.327500", "093502.787500", "093503.247500", "093503.707500", "093504.167500", "093504.627500", "093505.087500", "093505.547500", "093506.007500", "093506.467500", "093506.927500", "093507.387500", "093507.847500", "093508.307500", "093508.767500", "093509.227500", "093509.687500", "093510.147500", "093510.607500", "093511.067500", "093511.527500", "093511.987500", "093512.447500", "093512.907500", "093513.367500", "093513.827500", "093514.287500", "093514.747500", "093515.207500", "093515.667500", "093516.127500", "093516.587500", "093517.047500", "093517.507500", "093517.967500", "093518.427500", "093518.887500", "093519.347500", "093519.807500", "093520.267500", "093520.727500", "093521.187500", "093521.647500", "093522.107500", "093522.567500", "093523.027500", "093523.487500", "093523.947500", "093524.407500", "093524.867500", "093525.327500", "093525.787500", "093526.247500", "093526.707500", "093527.167500", "093527.627500", "093528.087500", "093528.547500", "093529.007500", "093529.467500", "093529.927500", "093530.387500", "093530.847500", "093531.307500", "093531.767500", "093532.227500", "093532.687500", "093533.147500", "093533.607500", "093534.067500", "093534.527500", "093534.987500", "093535.447500", "093535.907500", "093536.367500", "093536.827500", "093537.287500", "093537.747500", "093538.207500", "093538.667500", "093539.127500", "093539.587500", "093540.047500", "093540.507500", "093540.967500", "093541.427500", "093541.887500", "093542.347500", "093542.807500", "093543.267500", "093543.727500", "093544.187500", "093544.647500", "093545.107500", "093545.567500", "093546.027500", "093546.487500", "093546.947500", "093547.407500", "093547.867500", "093548.327500", "093548.787500", "093549.247500", "093549.707500", "093550.167500", "093550.627500", "093551.087500", "093551.547500", "093552.007500", "093552.467500", "093552.927500", "093553.387500", "093553.847500", "093554.307500", "093554.767500", "093555.227500", "093555.687500", "093556.147500", "093556.607500", "093557.067500", "093557.527500", "093557.987500", "093558.447500", "093558.907500", "093559.367500", "093559.827500", "093600.287500", "093600.747500", "093601.207500", "093601.667500", "093602.127500", "093602.587500", "093603.047500", "093603.507500", "093603.967500", "093604.427500", "093604.887500", "093605.347500", "093605.807500", "093606.267500", "093606.727500", "093607.187500", "093607.647500", "093608.107500", "093608.567500", "093609.027500", "093609.487500", "093609.947500", "093610.407500", "093610.867500", "093611.327500", "093611.787500", "093612.247500", "093612.707500", "093613.167500", "093613.627500", "093614.087500", "093614.547500", "093615.007500", "093615.467500", "093615.927500", "093616.387500", "093616.847500", "093617.307500", "093617.767500", "093618.227500", "093618.687500", "093619.147500", "093619.607500", "093620.067500", "093620.527500", "093620.987500", "093621.447500", "093621.907500", "093622.367500", "093622.827500", "093623.287500", "093623.747500", "093624.207500", "093624.667500", "093625.127500", "093625.587500", "093626.047500", "093626.507500", "093626.967500", "093627.427500", "093627.887500", "093628.347500", "093628.807500", "093629.267500", "093629.727500", "093630.187500", "093630.647500", "093631.107500", "093631.567500", "093632.027500", "093632.487500", "093632.947500", "093633.407500", "093633.867500", "093634.327500", "093634.787500", "093635.247500", "093635.707500", "093636.167500", "093636.627500", "093637.087500", "093637.547500", "093638.007500", "093638.467500", "093638.927500", "093639.387500", "093639.847500", "093640.307500", "093640.767500", "093641.227500", "093641.687500", "093642.147500", "093642.607500", "093643.067500", "093643.527500", "093643.987500", "093644.447500", "093644.907500", "093645.367500", "093645.827500", "093646.287500", "093646.747500", "093647.207500", "093647.667500", "093648.127500", "093648.587500", "093649.047500", "093649.507500", "093649.967500", "093650.427500", "093650.887500", "093651.347500", "093651.807500", "093652.267500", "093652.727500", "093653.187500", "093653.647500", "093654.107500", "093654.567500", "093655.027500", "093655.487500", "093655.947500", "093656.407500", "093656.867500", "093657.327500", "093657.787500", "093658.247500", "093658.707500", "093659.167500", "093659.627500", "093700.087500", "093700.547500", "093701.007500", "093701.467500", "093701.927500", "093702.387500", "093702.847500", "093703.307500", "093703.767500", "093704.227500", "093704.687500", "093705.147500", "093705.607500", "093706.067500", "093706.527500", "093706.987500", "093707.447500", "093707.907500", "093708.367500", "093708.827500", "093709.287500", "093709.747500", "093710.207500", "093710.667500", "093711.127500", "093711.587500", "093712.047500", "093712.507500", "093712.967500", "093713.427500", "093713.887500", "093714.347500", "093714.807500", "093715.267500", "093715.727500", "093716.187500", "093716.647500", "093717.107500", "093717.567500", "093718.027500", "093718.487500", "093718.947500", "093719.407500", "093719.867500", "093720.327500", "093720.787500", "093721.247500", "093721.707500", "093722.167500", "093722.627500", "093723.087500", "093723.547500", "093724.007500", "093724.467500", "093724.927500", "093725.387500", "093725.847500", "093726.307500", "093726.767500", "093727.227500", "093727.687500", "093728.147500", "093728.607500", "093729.067500", "093729.527500", "093729.987500", "093730.447500", "093730.907500", "093731.367500", "093731.827500", "093732.287500", "093732.747500", "093733.207500", "093733.667500", "093734.127500", "093734.587500", "093735.047500", "093735.507500", "093735.967500", "093736.427500", "093736.887500", "093737.347500", "093737.807500", "093738.267500", "093738.727500", "093739.187500", "093739.647500", "093740.107500", "093740.567500", "093741.027500", "093741.487500", "093741.947500", "093742.407500", "093742.867500", "093743.327500", "093743.787500", "093744.247500", "093744.707500", "093745.167500", "093745.627500", "093746.087500", "093746.547500", "093747.007500", "093747.467500", "093747.927500", "093748.387500", "093748.847500", "093749.307500", "093749.767500", "093750.227500", "093750.687500", "093751.147500", "093751.607500", "093752.067500", "093752.527500", "093752.987500", "093753.447500", "093753.907500", "093754.367500", "093754.827500", "093755.287500", "093755.747500", "093756.207500", "093756.667500", "093757.127500", "093757.587500", "093758.047500", "093758.507500", "093758.967500", "093759.427500", "093759.887500", "093800.347500", "093800.807500", "093801.267500", "093801.727500", "093802.187500", "093802.647500", "093803.107500", "093803.567500", "093804.027500", "093804.487500", "093804.947500", "093805.407500", "093805.867500", "093806.327500", "093806.787500", "093807.247500", "093807.707500", "093808.167500", "093808.627500", "093809.087500", "093809.547500", "093810.007500", "093810.467500", "093810.927500", "093811.387500", "093811.847500", "093812.307500", "093812.767500", "093813.227500", "093813.687500", "093814.147500", "093814.607500", "093815.067500", "093815.527500", "093815.987500", "093816.447500", "093816.907500", "093817.367500", "093817.827500", "093818.287500", "093818.747500", "093819.207500", "093819.667500", "093820.127500", "093820.587500", "093821.047500", "093821.507500", "093821.967500", "093822.427500", "093822.887500", "093823.347500", "093823.807500", "093824.267500", "093824.727500", "093825.187500", "093825.647500", "093826.107500", "093826.567500", "093827.027500", "093827.487500", "093827.947500", "093828.407500", "093828.867500", "093829.327500", "093829.787500", "093830.247500", "093830.707500", "093831.167500", "093831.627500", "093832.087500", "093832.547500", "093833.007500", "093833.467500", "093833.927500", "093834.387500", "093834.847500", "093835.307500", "093835.767500", "093836.227500", "093836.687500", "093837.147500", "093837.607500", "093838.067500", "093838.527500", "093838.987500", "093839.447500", "093839.907500", "093840.367500", "093840.827500", "093841.287500", "093841.747500", "093842.207500", "093842.667500", "093843.127500", "093843.587500", "093844.047500", "093844.507500", "093844.967500", "093845.427500", "093845.887500", "093846.347500", "093846.807500", "093847.267500", "093847.727500", "093848.187500", "093848.647500", "093849.107500", "093849.567500", "093850.027500", "093850.487500", "093850.947500", "093851.407500", "093851.867500", "093852.327500", "093852.787500", "093853.247500", "093853.707500", "093854.167500", "093854.627500", "093855.087500", "093855.547500", "093856.007500", "093856.467500", "093856.927500", "093857.387500", "093857.847500", "093858.307500", "093858.767500", "093859.227500", "093859.687500", "093900.147500", "093900.607500", "093901.067500", "093901.527500", "093901.987500", "093902.447500", "093902.907500", "093903.367500", "093903.827500", "093904.287500", "093904.747500", "093905.207500", "093905.667500", "093906.127500", "093906.587500", "093907.047500", "093907.507500", "093907.967500", "093908.427500", "093908.887500", "093909.347500", "093909.807500", "093910.267500", "093910.727500", "093911.187500", "093911.647500", "093912.107500", "093912.567500", "093913.027500", "093913.487500", "093913.947500", "093914.407500", "093914.867500", "093915.327500", "093915.787500", "093916.247500", "093916.707500", "093917.167500", "093917.627500", "093918.087500", "093918.547500", "093919.007500", "093919.467500", "093919.927500", "093920.387500", "093920.847500", "093921.307500", "093921.767500", "093922.227500", "093922.687500", "093923.147500", "093923.607500", "093924.067500", "093924.527500", "093924.987500", "093925.447500", "093925.907500", "093926.367500", "093926.827500", "093927.287500", "093927.747500", "093928.207500", "093928.667500", "093929.127500", "093929.587500", "093930.047500", "093930.507500", "093930.967500", "093931.427500", "093931.887500", "093932.347500", "093932.807500", "093933.267500", "093933.727500"],
