{
  "AcquisitionMatrixPE": 82,
  "AcquisitionNumber": 1,
  "AcquisitionTime": "10:27:46.310000",
  "BandwidthPerPixelPhaseEncode": 24.888,
  "BaseResolution": 82,
  "BodyPartExamined": "BRAIN",
  "ConsistencyInfo": "N4_VE11E_LATEST_20181129",
  "ConversionSoftware": "dcm2niix",
  "ConversionSoftwareVersion": "v1.0.20201102",
  "DerivedVendorReportedEchoSpacing": 0.00049,
  "DeviceSerialNumber": "66112",
  "DwellTime": 2e-06,
  "EchoTime": 0.0272,
  "EchoTrainLength": 82,
  "EffectiveEchoSpacing": 0.00049,
  "FlipAngle": 44,
  "ImageComments": "Unaliased MB8/PE3",
  "ImageOrientationPatientDICOM": [0.998133, 0.0309912, -0.0526316, -0.0311932, 0.999509, -0.00302077],
  "ImageType": [
    "ORIGINAL",
    "PRIMARY",
    "M",
    "MB",
    "ND",
    "NORM",
    "MOSAIC"
],
  "ImagingFrequency": 123.252,
  "InPlanePhaseEncodingDirectionDICOM": "COL",
  "InstitutionAddress": "Maynard 3,Hanover,NH,US,03755",
  "InstitutionName": "Dartmouth College - PBS",
  "InstitutionalDepartmentName": "Department",
  "MRAcquisitionType": "2D",
  "MagneticFieldStrength": 3,
  "Manufacturer": "Siemens",
  "ManufacturersModelName": "Prisma",
  "Modality": "MR",
  "MultibandAccelerationFactor": 8,
  "PartialFourier": 1,
  "PatientPosition": "HFS",
  "PercentPhaseFOV": 100,
  "PercentSampling": 100,
  "PhaseEncodingDirection": "j-",
  "PhaseEncodingSteps": 82,
  "PhaseResolution": 1,
  "PixelBandwidth": 3050,
  "ProcedureStepDescription": "Wager_Wager^1076_spacetop",
  "ProtocolName": "func_run-04_task-alignvideo_acq-ap-mb8",
  "PulseSequenceDetails": "%CustomerSeq%\\cmrr_mbep2d_bold",
  "ReceiveCoilActiveElements": "HEA;HEP",
  "ReceiveCoilName": "Head_32",
  "ReconMatrixPE": 82,
  "RepetitionTime": 0.46,
  "SAR": 0.0809677,
  "ScanOptions": "FS",
  "ScanningSequence": "EP",
  "SequenceName": "epfid2d1_82",
  "SequenceVariant": "SK\\SS",
  "SeriesDescription": "func_run-04_task-alignvideo_acq-ap-mb8",
  "SeriesNumber": 40,
  "ShimSetting": [4134, -7728, -7280, 662, -49, -79, 73, 104],
  "SliceThickness": 2.7,
  "SliceTiming": [0, 0.2525, 0.065, 0.315, 0.1275, 0.3775, 0.19, 0, 0.2525, 0.065, 0.315, 0.1275, 0.3775, 0.19, 0, 0.2525, 0.065, 0.315, 0.1275, 0.3775, 0.19, 0, 0.2525, 0.065, 0.315, 0.1275, 0.3775, 0.19, 0, 0.2525, 0.065, 0.315, 0.1275, 0.3775, 0.19, 0, 0.2525, 0.065, 0.315, 0.1275, 0.3775, 0.19, 0, 0.2525, 0.065, 0.315, 0.1275, 0.3775, 0.19, 0, 0.2525, 0.065, 0.315, 0.1275, 0.3775, 0.19],
  "SoftwareVersions": "syngo MR E11",
  "SpacingBetweenSlices": 2.7,
  "StationName": "AWP66112",
  "TaskName": "alignvideo",
  "TotalReadoutTime": 0.03969,
  "TxRefAmp": 229.706,
  "WipMemBlock": "d63756bb-72f7-40b6-8249-a2eb520280e9||Sequence: R016 ve11e/master r/434b28f1; Aug  7 2019 18:53:46 by eja",
  "dcmmeta_affine": [
    [-2.677917718887329, -0.08368918299674988, -0.1417827159166336, 115.78175354003906],
    [-0.08314722776412964, 2.6816091537475586, -0.01257357932627201, -96.94845581054688],
    [-0.14120669662952423, 0.008104508742690086, 2.6962454319000244, -66.8814926147461],
    [0.0, 0.0, 0.0, 1.0]
],
  "dcmmeta_reorient_transform": [
    [0.0, -1.0, 0.0, 81.0],
    [1.0, 0.0, 0.0, 0.0],
    [0.0, 0.0, 1.0, 0.0],
    [0.0, 0.0, 0.0, 1.0]
],
  "dcmmeta_shape": [82, 82, 56, 914],
  "dcmmeta_slice_dim": 2,
  "dcmmeta_version": 0.6,
  "global": {
    "const": {
      "AccessionNumber": "A004234",
      "AcquisitionMatrix": [82, 0, 0, 82],
      "AngioFlag": "N",
      "BitsAllocated": 16,
      "BitsStored": 16,
      "BodyPartExamined": "BRAIN",
      "Columns": 656,
      "EchoNumbers": 1,
      "EchoTime": 27.2,
      "EchoTrainLength": 82,
      "FlipAngle": 44.0,
      "HighBit": 15,
      "ImageOrientationPatient": [0.99813298685855, 0.03099123776556, -0.0526315848762, -0.0311932412811, 0.99950880768457, -0.003020771318],
      "ImagePositionPatient": [-853.5465494654, -913.74693388935, -23.372711880475],
      "ImageType": [
        "ORIGINAL",
        "PRIMARY",
        "M",
        "MB",
        "ND",
        "NORM",
        "MOSAIC"
],
      "ImagedNucleus": "1H",
      "ImagingFrequency": 123.252226,
      "InPlanePhaseEncodingDirection": "COL",
      "MRAcquisitionType": "2D",
      "MagneticFieldStrength": 3.0,
      "Manufacturer": "SIEMENS",
      "ManufacturerModelName": "Prisma",
      "Modality": "MR",
      "NumberOfAverages": 1.0,
      "NumberOfPhaseEncodingSteps": 82,
      "PercentPhaseFieldOfView": 100.0,
      "PercentSampling": 100.0,
      "PerformedProcedureStepStartTime": "082659.415000",
      "PhotometricInterpretation": "MONOCHROME2",
      "PixelBandwidth": 3050.0,
      "PixelRepresentation": 0,
      "PixelSpacing": [2.6829268932343, 2.6829268932343],
      "ProtocolName": "func_run-04_task-alignvideo_acq-ap-mb8",
      "RepetitionTime": 460.0,
      "Rows": 656,
      "SAR": 0.0809676584633,
      "SamplesPerPixel": 1,
      "ScanOptions": "FS",
      "ScanningSequence": "EP",
      "SequenceName": "epfid2d1_82",
      "SequenceVariant": [
        "SK",
        "SS"
],
      "SeriesDescription": "func_run-04_task-alignvideo_acq-ap-mb8",
      "SeriesNumber": 40,
      "SeriesTime": "102810.706000",
      "SliceLocation": -72.416956137325,
      "SliceThickness": 2.7000000476837,
      "SmallestImagePixelValue": 0,
      "SoftwareVersions": "syngo MR E11",
      "SpacingBetweenSlices": 2.7000000477427,
      "SpecificCharacterSet": "ISO_IR 100",
      "StudyID": "1",
      "StudyTime": "082659.270000",
      "TransmitCoilName": "Body",
      "VariableFlipAngleFlag": "N",
      "WindowCenterWidthExplanation": "Algo1"
    },
    "slices": {}
  },
  "time": {
    "samples": {
      "AcquisitionNumber": [1, 2, 3, 4, 5, 6, 7, 8, 9, 10, 11, 12, 13, 14, 15, 16, 17, 18, 19, 20, 21, 22, 23, 24, 25, 26, 27, 28, 29, 30, 31, 32, 33, 34, 35, 36, 37, 38, 39, 40, 41, 42, 43, 44, 45, 46, 47, 48, 49, 50, 51, 52, 53, 54, 55, 56, 57, 58, 59, 60, 61, 62, 63, 64, 65, 66, 67, 68, 69, 70, 71, 72, 73, 74, 75, 76, 77, 78, 79, 80, 81, 82, 83, 84, 85, 86, 87, 88, 89, 90, 91, 92, 93, 94, 95, 96, 97, 98, 99, 100, 101, 102, 103, 104, 105, 106, 107, 108, 109, 110, 111, 112, 113, 114, 115, 116, 117, 118, 119, 120, 121, 122, 123, 124, 125, 126, 127, 128, 129, 130, 131, 132, 133, 134, 135, 136, 137, 138, 139, 140, 141, 142, 143, 144, 145, 146, 147, 148, 149, 150, 151, 152, 153, 154, 155, 156, 157, 158, 159, 160, 161, 162, 163, 164, 165, 166, 167, 168, 169, 170, 171, 172, 173, 174, 175, 176, 177, 178, 179, 180, 181, 182, 183, 184, 185, 186, 187, 188, 189, 190, 191, 192, 193, 194, 195, 196, 197, 198, 199, 200, 201, 202, 203, 204, 205, 206, 207, 208, 209, 210, 211, 212, 213, 214, 215, 216, 217, 218, 219, 220, 221, 222, 223, 224, 225, 226, 227, 228, 229, 230, 231, 232, 233, 234, 235, 236, 237, 238, 239, 240, 241, 242, 243, 244, 245, 246, 247, 248, 249, 250, 251, 252, 253, 254, 255, 256, 257, 258, 259, 260, 261, 262, 263, 264, 265, 266, 267, 268, 269, 270, 271, 272, 273, 274, 275, 276, 277, 278, 279, 280, 281, 282, 283, 284, 285, 286, 287, 288, 289, 290, 291, 292, 293, 294, 295, 296, 297, 298, 299, 300, 301, 302, 303, 304, 305, 306, 307, 308, 309, 310, 311, 312, 313, 314, 315, 316, 317, 318, 319, 320, 321, 322, 323, 324, 325, 326, 327, 328, 329, 330, 331, 332, 333, 334, 335, 336, 337, 338, 339, 340, 341, 342, 343, 344, 345, 346, 347, 348, 349, 350, 351, 352, 353, 354, 355, 356, 357, 358, 359, 360, 361, 362, 363, 364, 365, 366, 367, 368, 369, 370, 371, 372, 373, 374, 375, 376, 377, 378, 379, 380, 381, 382, 383, 384, 385, 386, 387, 388, 389, 390, 391, 392, 393, 394, 395, 396, 397, 398, 399, 400, 401, 402, 403, 404, 405, 406, 407, 408, 409, 410, 411, 412, 413, 414, 415, 416, 417, 418, 419, 420, 421, 422, 423, 424, 425, 426, 427, 428, 429, 430, 431, 432, 433, 434, 435, 436, 437, 438, 439, 440, 441, 442, 443, 444, 445, 446, 447, 448, 449, 450, 451, 452, 453, 454, 455, 456, 457, 458, 459, 460, 461, 462, 463, 464, 465, 466, 467, 468, 469, 470, 471, 472, 473, 474, 475, 476, 477, 478, 479, 480, 481, 482, 483, 484, 485, 486, 487, 488, 489, 490, 491, 492, 493, 494, 495, 496, 497, 498, 499, 500, 501, 502, 503, 504, 505, 506, 507, 508, 509, 510, 511, 512, 513, 514, 515, 516, 517, 518, 519, 520, 521, 522, 523, 524, 525, 526, 527, 528, 529, 530, 531, 532, 533, 534, 535, 536, 537, 538, 539, 540, 541, 542, 543, 544, 545, 546, 547, 548, 549, 550, 551, 552, 553, 554, 555, 556, 557, 558, 559, 560, 561, 562, 563, 564, 565, 566, 567, 568, 569, 570, 571, 572, 573, 574, 575, 576, 577, 578, 579, 580, 581, 582, 583, 584, 585, 586, 587, 588, 589, 590, 591, 592, 593, 594, 595, 596, 597, 598, 599, 600, 601, 602, 603, 604, 605, 606, 607, 608, 609, 610, 611, 612, 613, 614, 615, 616, 617, 618, 619, 620, 621, 622, 623, 624, 625, 626, 627, 628, 629, 630, 631, 632, 633, 634, 635, 636, 637, 638, 639, 640, 641, 642, 643, 644, 645, 646, 647, 648, 649, 650, 651, 652, 653, 654, 655, 656, 657, 658, 659, 660, 661, 662, 663, 664, 665, 666, 667, 668, 669, 670, 671, 672, 673, 674, 675, 676, 677, 678, 679, 680, 681, 682, 683, 684, 685, 686, 687, 688, 689, 690, 691, 692, 693, 694, 695, 696, 697, 698, 699, 700, 701, 702, 703, 704, 705, 706, 707, 708, 709, 710, 711, 712, 713, 714, 715, 716, 717, 718, 719, 720, 721, 722, 723, 724, 725, 726, 727, 728, 729, 730, 731, 732, 733, 734, 735, 736, 737, 738, 739, 740, 741, 742, 743, 744, 745, 746, 747, 748, 749, 750, 751, 752, 753, 754, 755, 756, 757, 758, 759, 760, 761, 762, 763, 764, 765, 766, 767, 768, 769, 770, 771, 772, 773, 774, 775, 776, 777, 778, 779, 780, 781, 782, 783, 784, 785, 786, 787, 788, 789, 790, 791, 792, 793, 794, 795, 796, 797, 798, 799, 800, 801, 802, 803, 804, 805, 806, 807, 808, 809, 810, 811, 812, 813, 814, 815, 816, 817, 818, 819, 820, 821, 822, 823, 824, 825, 826, 827, 828, 829, 830, 831, 832, 833, 834, 835, 836, 837, 838, 839, 840, 841, 842, 843, 844, 845, 846, 847, 848, 849, 850, 851, 852, 853, 854, 855, 856, 857, 858, 859, 860, 861, 862, 863, 864, 865, 866, 867, 868, 869, 870, 871, 872, 873, 874, 875, 876, 877, 878, 879, 880, 881, 882, 883, 884, 885, 886, 887, 888, 889, 890, 891, 892, 893, 894, 895, 896, 897, 898, 899, 900, 901, 902, 903, 904, 905, 906, 907, 908, 909, 910, 911, 912, 913, 914],
      "AcquisitionTime": ["102746.310000", "102746.770000", "102747.230000", "102747.690000", "102748.150000", "102748.610000", "102749.070000", "102749.530000", "102749.990000", "102750.450000", "102750.910000", "102751.370000", "102751.830000", "102752.290000", "102752.750000", "102753.210000", "102753.670000", "102754.130000", "102754.590000", "102755.050000", "102755.510000", "102755.970000", "102756.430000", "102756.890000", "102757.350000", "102757.810000", "102758.270000", "102758.730000", "102759.190000", "102759.650000", "102800.110000", "102800.570000", "102801.030000", "102801.490000", "102801.950000", "102802.410000", "102802.870000", "102803.330000", "102803.790000", "102804.250000", "102804.710000", "102805.170000", "102805.630000", "102806.090000", "102806.550000", "102807.010000", "102807.470000", "102807.930000", "102808.390000", "102808.850000", "102809.310000", "102809.770000", "102810.230000", "102810.690000", "102811.150000", "102811.610000", "102812.070000", "102812.530000", "102812.990000", "102813.450000", "102813.910000", "102814.370000", "102814.830000", "102815.290000", "102815.750000", "102816.210000", "102816.670000", "102817.130000", "102817.590000", "102818.050000", "102818.510000", "102818.970000", "102819.430000", "102819.890000", "102820.350000", "102820.810000", "102821.270000", "102821.730000", "102822.190000", "102822.650000", "102823.110000", "102823.570000", "102824.030000", "102824.490000", "102824.950000", "102825.410000", "102825.870000", "102826.330000", "102826.790000", "102827.250000", "102827.710000", "102828.170000", "102828.630000", "102829.090000", "102829.550000", "102830.010000", "102830.470000", "102830.930000", "102831.390000", "102831.850000", "102832.310000", "102832.770000", "102833.230000", "102833.690000", "102834.150000", "102834.610000", "102835.070000", "102835.530000", "102835.990000", "102836.450000", "102836.910000", "102837.370000", "102837.830000", "102838.290000", "102838.750000", "102839.210000", "102839.670000", "102840.130000", "102840.590000", "102841.050000", "102841.510000", "102841.970000", "102842.430000", "102842.890000", "102843.350000", "102843.810000", "102844.270000", "102844.730000", "102845.190000", "102845.650000", "102846.110000", "102846.570000", "102847.030000", "102847.490000", "102847.950000", "102848.410000", "102848.870000", "102849.330000", "102849.790000", "102850.250000", "102850.710000", "102851.170000", "102851.630000", "102852.090000", "102852.550000", "102853.010000", "102853.470000", "102853.930000", "102854.390000", "102854.850000", "102855.310000", "102855.770000", "102856.230000", "102856.690000", "102857.150000", "102857.610000", "102858.070000", "102858.530000", "102858.990000", "102859.450000", "102859.910000", "102900.370000", "102900.830000", "102901.290000", "102901.750000", "102902.210000", "102902.670000", "102903.130000", "102903.590000", "102904.050000", "102904.510000", "102904.970000", "102905.430000", "102905.890000", "102906.350000", "102906.810000", "102907.270000", "102907.730000", "102908.190000", "102908.650000", "102909.110000", "102909.570000", "102910.030000", "102910.490000", "102910.950000", "102911.410000", "102911.870000", "102912.330000", "102912.790000", "102913.250000", "102913.710000", "102914.170000", "102914.630000", "102915.090000", "102915.550000", "102916.010000", "102916.470000", "102916.930000", "102917.390000", "102917.850000", "102918.310000", "102918.770000", "102919.230000", "102919.690000", "102920.150000", "102920.610000", "102921.070000", "102921.530000", "102921.990000", "102922.450000", "102922.910000", "102923.370000", "102923.830000", "102924.290000", "102924.750000", "102925.210000", "102925.670000", "102926.130000", "102926.590000", "102927.050000", "102927.510000", "102927.970000", "102928.430000", "102928.890000", "102929.350000", "102929.810000", "102930.270000", "102930.730000", "102931.190000", "102931.650000", "102932.110000", "102932.570000", "102933.030000", "102933.490000", "102933.950000", "102934.410000", "102934.870000", "102935.330000", "102935.790000", "102936.250000", "102936.710000", "102937.170000", "102937.630000", "102938.090000", "102938.550000", "102939.010000", "102939.470000", "102939.930000", "102940.390000", "102940.850000", "102941.310000", "102941.770000", "102942.230000", "102942.690000", "102943.150000", "102943.610000", "102944.070000", "102944.530000", "102944.990000", "102945.450000", "102945.910000", "102946.370000", "102946.830000", "102947.290000", "102947.750000", "102948.210000", "102948.670000", "102949.130000", "102949.590000", "102950.050000", "102950.510000", "102950.970000", "102951.430000", "102951.890000", "102952.350000", "102952.810000", "102953.270000", "102953.730000", "102954.190000", "102954.650000", "102955.110000", "102955.570000", "102956.030000", "102956.490000", "102956.950000", "102957.410000", "102957.870000", "102958.330000", "102958.790000", "102959.250000", "102959.710000", "103000.170000", "103000.630000", "103001.090000", "103001.550000", "103002.010000", "103002.470000", "103002.930000", "103003.390000", "103003.850000", "103004.310000", "103004.770000", "103005.230000", "103005.690000", "103006.150000", "103006.610000", "103007.070000", "103007.530000", "103007.990000", "103008.450000", "103008.910000", "103009.370000", "103009.830000", "103010.290000", "103010.750000", "103011.210000", "103011.670000", "103012.130000", "103012.590000", "103013.050000", "103013.510000", "103013.970000", "103014.430000", "103014.890000", "103015.350000", "103015.810000", "103016.270000", "103016.730000", "103017.190000", "103017.650000", "103018.110000", "103018.570000", "103019.030000", "103019.490000", "103019.950000", "103020.410000", "103020.870000", "103021.330000", "103021.790000", "103022.250000", "103022.710000", "103023.170000", "103023.630000", "103024.090000", "103024.550000", "103025.010000", "103025.470000", "103025.930000", "103026.390000", "103026.850000", "103027.310000", "103027.770000", "103028.230000", "103028.690000", "103029.150000", "103029.610000", "103030.070000", "103030.530000", "103030.990000", "103031.450000", "103031.910000", "103032.370000", "103032.830000", "103033.290000", "103033.750000", "103034.210000", "103034.670000", "103035.130000", "103035.590000", "103036.050000", "103036.510000", "103036.970000", "103037.430000", "103037.890000", "103038.350000", "103038.810000", "103039.270000", "103039.730000", "103040.190000", "103040.650000", "103041.110000", "103041.570000", "103042.030000", "103042.490000", "103042.950000", "103043.410000", "103043.870000", "103044.330000", "103044.790000", "103045.250000", "103045.710000", "103046.170000", "103046.630000", "103047.090000", "103047.550000", "103048.010000", "103048.470000", "103048.930000", "103049.390000", "103049.850000", "103050.310000", "103050.770000", "103051.230000", "103051.690000", "103052.150000", "103052.610000", "103053.070000", "103053.530000", "103053.990000", "103054.450000", "103054.910000", "103055.370000", "103055.830000", "103056.290000", "103056.750000", "103057.210000", "103057.670000", "103058.130000", "103058.590000", "103059.050000", "103059.510000", "103059.970000", "103100.430000", "103100.890000", "103101.350000", "103101.810000", "103102.270000", "103102.730000", "103103.190000", "103103.650000", "103104.110000", "103104.570000", "103105.030000", "103105.490000", "103105.950000", "103106.410000", "103106.870000", "103107.330000", "103107.790000", "103108.250000", "103108.710000", "103109.170000", "103109.630000", "103110.090000", "103110.550000", "103111.010000", "103111.470000", "103111.930000", "103112.390000", "103112.850000", "103113.310000", "103113.770000", "103114.230000", "103114.690000", "103115.150000", "103115.610000", "103116.070000", "103116.530000", "103116.990000", "103117.450000", "103117.910000", "103118.370000", "103118.830000", "103119.290000", "103119.750000", "103120.210000", "103120.670000", "103121.130000", "103121.590000", "103122.050000", "103122.510000", "103122.970000", "103123.430000", "103123.890000", "103124.350000", "103124.810000", "103125.270000", "103125.730000", "103126.190000", "103126.650000", "103127.110000", "103127.570000", "103128.030000", "103128.490000", "103128.950000", "103129.410000", "103129.870000", "103130.330000", "103130.790000", "103131.250000", "103131.710000", "103132.170000", "103132.630000", "103133.090000", "103133.550000", "103134.010000", "103134.470000", "103134.930000", "103135.390000", "103135.850000", "103136.310000", "103136.770000", "103137.230000", "103137.690000", "103138.150000", "103138.610000", "103139.070000", "103139.530000", "103139.990000", "103140.450000", "103140.910000", "103141.370000", "103141.830000", "103142.290000", "103142.750000", "103143.210000", "103143.670000", "103144.130000", "103144.590000", "103145.050000", "103145.510000", "103145.970000", "103146.430000", "103146.890000", "103147.350000", "103147.810000", "103148.270000", "103148.730000", "103149.190000", "103149.650000", "103150.110000", "103150.570000", "103151.030000", "103151.490000", "103151.950000", "103152.410000", "103152.870000", "103153.330000", "103153.790000", "103154.250000", "103154.710000", "103155.170000", "103155.630000", "103156.090000", "103156.550000", "103157.010000", "103157.470000", "103157.930000", "103158.390000", "103158.850000", "103159.310000", "103159.770000", "103200.230000", "103200.690000", "103201.150000", "103201.610000", "103202.070000", "103202.530000", "103202.990000", "103203.450000", "103203.910000", "103204.370000", "103204.830000", "103205.290000", "103205.750000", "103206.210000", "103206.670000", "103207.130000", "103207.590000", "103208.050000", "103208.510000", "103208.970000", "103209.430000", "103209.890000", "103210.350000", "103210.810000", "103211.270000", "103211.730000", "103212.190000", "103212.650000", "103213.110000", "103213.570000", "103214.030000", "103214.490000", "103214.950000", "103215.410000", "103215.870000", "103216.330000", "103216.790000", "103217.250000", "103217.710000", "103218.170000", "103218.630000", "103219.090000", "103219.550000", "103220.010000", "103220.470000", "103220.930000", "103221.390000", "103221.850000", "103222.310000", "103222.770000", "103223.230000", "103223.690000", "103224.150000", "103224.610000", "103225.070000", "103225.530000", "103225.990000", "103226.450000", "103226.910000", "103227.370000", "103227.830000", "103228.290000", "103228.750000", "103229.210000", "103229.670000", "103230.130000", "103230.590000", "103231.050000", "103231.510000", "103231.970000", "103232.430000", "103232.890000", "103233.350000", "103233.810000", "103234.270000", "103234.730000", "103235.190000", "103235.650000", "103236.110000", "103236.570000", "103237.030000", "103237.490000", "103237.950000", "103238.410000", "103238.870000", "103239.330000", "103239.790000", "103240.250000", "103240.710000", "103241.170000", "103241.630000", "103242.090000", "103242.550000", "103243.010000", "103243.470000", "103243.930000", "103244.390000", "103244.850000", "103245.310000", "103245.770000", "103246.230000", "103246.690000", "103247.150000", "103247.610000", "103248.070000", "103248.530000", "103248.990000", "103249.450000", "103249.910000", "103250.370000", "103250.830000", "103251.290000", "103251.750000", "103252.210000", "103252.670000", "103253.130000", "103253.590000", "103254.050000", "103254.510000", "103254.970000", "103255.430000", "103255.890000", "103256.350000", "103256.810000", "103257.270000", "103257.730000", "103258.190000", "103258.650000", "103259.110000", "103259.570000", "103300.030000", "103300.490000", "103300.950000", "103301.410000", "103301.870000", "103302.330000", "103302.790000", "103303.250000", "103303.710000", "103304.170000", "103304.630000", "103305.090000", "103305.550000", "103306.010000", "103306.470000", "103306.930000", "103307.390000", "103307.850000", "103308.310000", "103308.770000", "103309.230000", "103309.690000", "103310.150000", "103310.610000", "103311.070000", "103311.530000", "103311.990000", "103312.450000", "103312.910000", "103313.370000", "103313.830000", "103314.290000", "103314.750000", "103315.210000", "103315.670000", "103316.130000", "103316.590000", "103317.050000", "103317.510000", "103317.970000", "103318.430000", "103318.890000", "103319.350000", "103319.810000", "103320.270000", "103320.730000", "103321.190000", "103321.650000", "103322.110000", "103322.570000", "103323.030000", "103323.490000", "103323.950000", "103324.410000", "103324.870000", "103325.330000", "103325.790000", "103326.250000", "103326.710000", "103327.170000", "103327.630000", "103328.090000", "103328.550000", "103329.010000", "103329.470000", "103329.930000", "103330.390000", "103330.850000", "103331.310000", "103331.770000", "103332.230000", "103332.690000", "103333.150000", "103333.610000", "103334.070000", "103334.530000", "103334.990000", "103335.450000", "103335.910000", "103336.370000", "103336.830000", "103337.290000", "103337.750000", "103338.210000", "103338.670000", "103339.130000", "103339.590000", "103340.050000", "103340.510000", "103340.970000", "103341.430000", "103341.890000", "103342.350000", "103342.810000", "103343.270000", "103343.730000", "103344.190000", "103344.650000", "103345.110000", "103345.570000", "103346.030000", "103346.490000", "103346.950000", "103347.410000", "103347.870000", "103348.330000", "103348.790000", "103349.250000", "103349.710000", "103350.170000", "103350.630000", "103351.090000", "103351.550000", "103352.010000", "103352.470000", "103352.930000", "103353.390000", "103353.850000", "103354.310000", "103354.770000", "103355.230000", "103355.690000", "103356.150000", "103356.610000", "103357.070000", "103357.530000", "103357.990000", "103358.450000", "103358.910000", "103359.370000", "103359.830000", "103400.290000", "103400.750000", "103401.210000", "103401.670000", "103402.130000", "103402.590000", "103403.050000", "103403.510000", "103403.970000", "103404.430000", "103404.890000", "103405.350000", "103405.810000", "103406.270000", "103406.730000", "103407.190000", "103407.650000", "103408.110000", "103408.570000", "103409.030000", "103409.490000", "103409.950000", "103410.410000", "103410.870000", "103411.330000", "103411.790000", "103412.250000", "103412.710000", "103413.170000", "103413.630000", "103414.090000", "103414.550000", "103415.010000", "103415.470000", "103415.930000", "103416.390000", "103416.850000", "103417.310000", "103417.770000", "103418.230000", "103418.690000", "103419.150000", "103419.610000", "103420.070000", "103420.530000", "103420.990000", "103421.450000", "103421.910000", "103422.370000", "103422.830000", "103423.290000", "103423.750000", "103424.210000", "103424.670000", "103425.130000", "103425.590000", "103426.050000", "103426.510000", "103426.970000", "103427.430000", "103427.890000", "103428.350000", "103428.810000", "103429.270000", "103429.730000", "103430.190000", "103430.650000", "103431.110000", "103431.570000", "103432.030000", "103432.490000", "103432.950000", "103433.410000", "103433.870000", "103434.330000", "103434.790000", "103435.250000", "103435.710000", "103436.170000", "103436.630000", "103437.090000", "103437.550000", "103438.010000", "103438.470000", "103438.930000", "103439.390000", "103439.850000", "103440.310000", "103440.770000", "103441.230000", "103441.690000", "103442.150000", "103442.610000", "103443.070000", "103443.530000", "103443.990000", "103444.450000", "103444.910000", "103445.370000", "103445.830000", "103446.290000"],
