{
  "AcquisitionMatrixPE": 82,
  "AcquisitionNumber": 1,
  "AcquisitionTime": "09:39:58.730000",
  "BandwidthPerPixelPhaseEncode": 24.888,
  "BaseResolution": 82,
  "BodyPartExamined": "BRAIN",
  "ConsistencyInfo": "N4_VE11E_LATEST_20181129",
  "ConversionSoftware": "dcm2niix",
  "ConversionSoftwareVersion": "v1.0.20201102",
  "DerivedVendorReportedEchoSpacing": 0.00049,
  "DeviceSerialNumber": "66112",
  "DwellTime": 2e-06,
  "EchoTime": 0.0272,
  "EchoTrainLength": 82,
  "EffectiveEchoSpacing": 0.00049,
  "FlipAngle": 44,
  "ImageComments": "Unaliased MB8/PE3",
  "ImageOrientationPatientDICOM": [0.999222, -0.0076647, -0.0386751, 0.00837125, 0.9998, 0.01814],
  "ImageType": [
    "ORIGINAL",
    "PRIMARY",
    "M",
    "MB",
    "ND",
    "NORM",
    "MOSAIC"
],
  "ImagingFrequency": 123.252,
  "InPlanePhaseEncodingDirectionDICOM": "COL",
  "InstitutionAddress": "Maynard 3,Hanover,NH,US,03755",
  "InstitutionName": "Dartmouth College - PBS",
  "InstitutionalDepartmentName": "Department",
  "MRAcquisitionType": "2D",
  "MagneticFieldStrength": 3,
  "Manufacturer": "Siemens",
  "ManufacturersModelName": "Prisma",
  "Modality": "MR",
  "MultibandAccelerationFactor": 8,
  "PartialFourier": 1,
  "PatientPosition": "HFS",
  "PercentPhaseFOV": 100,
  "PercentSampling": 100,
  "PhaseEncodingDirection": "j-",
  "PhaseEncodingSteps": 82,
  "PhaseResolution": 1,
  "PixelBandwidth": 3050,
  "ProcedureStepDescription": "Wager_Wager^1076_spacetop",
  "ProtocolName": "func_run-02_task-faces_acq-ap-mb8",
  "PulseSequenceDetails": "%CustomerSeq%\\cmrr_mbep2d_bold",
  "ReceiveCoilActiveElements": "HEA;HEP",
  "ReceiveCoilName": "Head_32",
  "ReconMatrixPE": 82,
  "RepetitionTime": 0.46,
  "SAR": 0.0809677,
  "ScanOptions": "FS",
  "ScanningSequence": "EP",
  "SequenceName": "epfid2d1_82",
  "SequenceVariant": "SK\\SS",
  "SeriesDescription": "func_run-02_task-faces_acq-ap-mb8",
  "SeriesNumber": 24,
  "ShimSetting": [4134, -7727, -7282, 667, -49, -70, 73, 104],
  "SliceThickness": 2.7,
  "SliceTiming": [0, 0.2525, 0.0625, 0.315, 0.125, 0.3775, 0.19, 0, 0.2525, 0.0625, 0.315, 0.125, 0.3775, 0.19, 0, 0.2525, 0.0625, 0.315, 0.125, 0.3775, 0.19, 0, 0.2525, 0.0625, 0.315, 0.125, 0.3775, 0.19, 0, 0.2525, 0.0625, 0.315, 0.125, 0.3775, 0.19, 0, 0.2525, 0.0625, 0.315, 0.125, 0.3775, 0.19, 0, 0.2525, 0.0625, 0.315, 0.125, 0.3775, 0.19, 0, 0.2525, 0.0625, 0.315, 0.125, 0.3775, 0.19],
  "SoftwareVersions": "syngo MR E11",
  "SpacingBetweenSlices": 2.7,
  "StationName": "AWP66112",
  "TaskName": "faces",
  "TotalReadoutTime": 0.03969,
  "TxRefAmp": 229.706,
  "WipMemBlock": "1f693be1-2cd6-4cbd-8612-b89e5cbe4dfb||Sequence: R016 ve11e/master r/434b28f1; Aug  7 2019 18:53:46 by eja",
  "dcmmeta_affine": [
    [-2.6808407306671143, 0.022459447383880615, -0.10402648895978928, 110.41986846923828],
    [0.020563840866088867, 2.682391405105591, 0.04981398209929466, -102.35472869873047],
    [-0.1037624254822731, -0.048668209463357925, 2.697535514831543, -64.79426574707031],
    [0.0, 0.0, 0.0, 1.0]
],
  "dcmmeta_reorient_transform": [
    [0.0, -1.0, 0.0, 81.0],
    [1.0, 0.0, 0.0, 0.0],
    [0.0, 0.0, 1.0, 0.0],
    [0.0, 0.0, 0.0, 1.0]
],
  "dcmmeta_shape": [82, 82, 56, 914],
  "dcmmeta_slice_dim": 2,
  "dcmmeta_version": 0.6,
  "global": {
    "const": {
      "AccessionNumber": "A004234",
      "AcquisitionMatrix": [82, 0, 0, 82],
      "AngioFlag": "N",
      "BitsAllocated": 16,
      "BitsStored": 16,
      "BodyPartExamined": "BRAIN",
      "Columns": 656,
      "EchoNumbers": 1,
      "EchoTime": 27.2,
      "EchoTrainLength": 82,
      "FlipAngle": 44.0,
      "HighBit": 15,
      "ImageOrientationPatient": [0.99922244278716, -0.0076647041041, -0.0386750842464, 0.00837124824634, 0.99980041195931, 0.01813996826883],
      "ImagePositionPatient": [-888.08624124613, -878.86348894781, -52.924352025492],
      "ImageType": [
        "ORIGINAL",
        "PRIMARY",
        "M",
        "MB",
        "ND",
        "NORM",
        "MOSAIC"
],
      "ImagedNucleus": "1H",
      "ImagingFrequency": 123.252217,
      "InPlanePhaseEncodingDirection": "COL",
      "MRAcquisitionType": "2D",
      "MagneticFieldStrength": 3.0,
      "Manufacturer": "SIEMENS",
      "ManufacturerModelName": "Prisma",
      "Modality": "MR",
      "NumberOfAverages": 1.0,
      "NumberOfPhaseEncodingSteps": 82,
      "PercentPhaseFieldOfView": 100.0,
      "PercentSampling": 100.0,
      "PerformedProcedureStepStartTime": "082659.415000",
      "PhotometricInterpretation": "MONOCHROME2",
      "PixelBandwidth": 3050.0,
      "PixelRepresentation": 0,
      "PixelSpacing": [2.6829268932343, 2.6829268932343],
      "ProtocolName": "func_run-02_task-faces_acq-ap-mb8",
      "RepetitionTime": 460.0,
      "Rows": 656,
      "SAR": 0.0809676584633,
      "SamplesPerPixel": 1,
      "ScanOptions": "FS",
      "ScanningSequence": "EP",
      "SequenceName": "epfid2d1_82",
      "SequenceVariant": [
        "SK",
        "SS"
],
      "SeriesDescription": "func_run-02_task-faces_acq-ap-mb8",
      "SeriesNumber": 24,
      "SeriesTime": "094010.524000",
      "SliceLocation": -70.87781967571,
      "SliceThickness": 2.7000000476837,
      "SmallestImagePixelValue": 0,
      "SoftwareVersions": "syngo MR E11",
      "SpacingBetweenSlices": 2.7000000607897,
      "SpecificCharacterSet": "ISO_IR 100",
      "StudyID": "1",
      "StudyTime": "082659.270000",
      "TransmitCoilName": "Body",
      "VariableFlipAngleFlag": "N",
      "WindowCenterWidthExplanation": "Algo1"
    },
    "slices": {}
  },
  "time": {
    "samples": {
      "AcquisitionNumber": [1, 2, 3, 4, 5, 6, 7, 8, 9, 10, 11, 12, 13, 14, 15, 16, 17, 18, 19, 20, 21, 22, 23, 24, 25, 26, 27, 28, 29, 30, 31, 32, 33, 34, 35, 36, 37, 38, 39, 40, 41, 42, 43, 44, 45, 46, 47, 48, 49, 50, 51, 52, 53, 54, 55, 56, 57, 58, 59, 60, 61, 62, 63, 64, 65, 66, 67, 68, 69, 70, 71, 72, 73, 74, 75, 76, 77, 78, 79, 80, 81, 82, 83, 84, 85, 86, 87, 88, 89, 90, 91, 92, 93, 94, 95, 96, 97, 98, 99, 100, 101, 102, 103, 104, 105, 106, 107, 108, 109, 110, 111, 112, 113, 114, 115, 116, 117, 118, 119, 120, 121, 122, 123, 124, 125, 126, 127, 128, 129, 130, 131, 132, 133, 134, 135, 136, 137, 138, 139, 140, 141, 142, 143, 144, 145, 146, 147, 148, 149, 150, 151, 152, 153, 154, 155, 156, 157, 158, 159, 160, 161, 162, 163, 164, 165, 166, 167, 168, 169, 170, 171, 172, 173, 174, 175, 176, 177, 178, 179, 180, 181, 182, 183, 184, 185, 186, 187, 188, 189, 190, 191, 192, 193, 194, 195, 196, 197, 198, 199, 200, 201, 202, 203, 204, 205, 206, 207, 208, 209, 210, 211, 212, 213, 214, 215, 216, 217, 218, 219, 220, 221, 222, 223, 224, 225, 226, 227, 228, 229, 230, 231, 232, 233, 234, 235, 236, 237, 238, 239, 240, 241, 242, 243, 244, 245, 246, 247, 248, 249, 250, 251, 252, 253, 254, 255, 256, 257, 258, 259, 260, 261, 262, 263, 264, 265, 266, 267, 268, 269, 270, 271, 272, 273, 274, 275, 276, 277, 278, 279, 280, 281, 282, 283, 284, 285, 286, 287, 288, 289, 290, 291, 292, 293, 294, 295, 296, 297, 298, 299, 300, 301, 302, 303, 304, 305, 306, 307, 308, 309, 310, 311, 312, 313, 314, 315, 316, 317, 318, 319, 320, 321, 322, 323, 324, 325, 326, 327, 328, 329, 330, 331, 332, 333, 334, 335, 336, 337, 338, 339, 340, 341, 342, 343, 344, 345, 346, 347, 348, 349, 350, 351, 352, 353, 354, 355, 356, 357, 358, 359, 360, 361, 362, 363, 364, 365, 366, 367, 368, 369, 370, 371, 372, 373, 374, 375, 376, 377, 378, 379, 380, 381, 382, 383, 384, 385, 386, 387, 388, 389, 390, 391, 392, 393, 394, 395, 396, 397, 398, 399, 400, 401, 402, 403, 404, 405, 406, 407, 408, 409, 410, 411, 412, 413, 414, 415, 416, 417, 418, 419, 420, 421, 422, 423, 424, 425, 426, 427, 428, 429, 430, 431, 432, 433, 434, 435, 436, 437, 438, 439, 440, 441, 442, 443, 444, 445, 446, 447, 448, 449, 450, 451, 452, 453, 454, 455, 456, 457, 458, 459, 460, 461, 462, 463, 464, 465, 466, 467, 468, 469, 470, 471, 472, 473, 474, 475, 476, 477, 478, 479, 480, 481, 482, 483, 484, 485, 486, 487, 488, 489, 490, 491, 492, 493, 494, 495, 496, 497, 498, 499, 500, 501, 502, 503, 504, 505, 506, 507, 508, 509, 510, 511, 512, 513, 514, 515, 516, 517, 518, 519, 520, 521, 522, 523, 524, 525, 526, 527, 528, 529, 530, 531, 532, 533, 534, 535, 536, 537, 538, 539, 540, 541, 542, 543, 544, 545, 546, 547, 548, 549, 550, 551, 552, 553, 554, 555, 556, 557, 558, 559, 560, 561, 562, 563, 564, 565, 566, 567, 568, 569, 570, 571, 572, 573, 574, 575, 576, 577, 578, 579, 580, 581, 582, 583, 584, 585, 586, 587, 588, 589, 590, 591, 592, 593, 594, 595, 596, 597, 598, 599, 600, 601, 602, 603, 604, 605, 606, 607, 608, 609, 610, 611, 612, 613, 614, 615, 616, 617, 618, 619, 620, 621, 622, 623, 624, 625, 626, 627, 628, 629, 630, 631, 632, 633, 634, 635, 636, 637, 638, 639, 640, 641, 642, 643, 644, 645, 646, 647, 648, 649, 650, 651, 652, 653, 654, 655, 656, 657, 658, 659, 660, 661, 662, 663, 664, 665, 666, 667, 668, 669, 670, 671, 672, 673, 674, 675, 676, 677, 678, 679, 680, 681, 682, 683, 684, 685, 686, 687, 688, 689, 690, 691, 692, 693, 694, 695, 696, 697, 698, 699, 700, 701, 702, 703, 704, 705, 706, 707, 708, 709, 710, 711, 712, 713, 714, 715, 716, 717, 718, 719, 720, 721, 722, 723, 724, 725, 726, 727, 728, 729, 730, 731, 732, 733, 734, 735, 736, 737, 738, 739, 740, 741, 742, 743, 744, 745, 746, 747, 748, 749, 750, 751, 752, 753, 754, 755, 756, 757, 758, 759, 760, 761, 762, 763, 764, 765, 766, 767, 768, 769, 770, 771, 772, 773, 774, 775, 776, 777, 778, 779, 780, 781, 782, 783, 784, 785, 786, 787, 788, 789, 790, 791, 792, 793, 794, 795, 796, 797, 798, 799, 800, 801, 802, 803, 804, 805, 806, 807, 808, 809, 810, 811, 812, 813, 814, 815, 816, 817, 818, 819, 820, 821, 822, 823, 824, 825, 826, 827, 828, 829, 830, 831, 832, 833, 834, 835, 836, 837, 838, 839, 840, 841, 842, 843, 844, 845, 846, 847, 848, 849, 850, 851, 852, 853, 854, 855, 856, 857, 858, 859, 860, 861, 862, 863, 864, 865, 866, 867, 868, 869, 870, 871, 872, 873, 874, 875, 876, 877, 878, 879, 880, 881, 882, 883, 884, 885, 886, 887, 888, 889, 890, 891, 892, 893, 894, 895, 896, 897, 898, 899, 900, 901, 902, 903, 904, 905, 906, 907, 908, 909, 910, 911, 912, 913, 914],
      "AcquisitionTime": ["093958.730000", "093959.190000", "093959.650000", "094000.110000", "094000.570000", "094001.030000", "094001.490000", "094001.950000", "094002.410000", "094002.870000", "094003.330000", "094003.790000", "094004.250000", "094004.710000", "094005.170000", "094005.630000", "094006.090000", "094006.550000", "094007.010000", "094007.470000", "094007.930000", "094008.390000", "094008.850000", "094009.310000", "094009.770000", "094010.230000", "094010.690000", "094011.150000", "094011.610000", "094012.070000", "094012.530000", "094012.990000", "094013.450000", "094013.910000", "094014.370000", "094014.830000", "094015.290000", "094015.750000", "094016.210000", "094016.670000", "094017.130000", "094017.590000", "094018.050000", "094018.510000", "094018.970000", "094019.430000", "094019.890000", "094020.350000", "094020.810000", "094021.270000", "094021.730000", "094022.190000", "094022.650000", "094023.110000", "094023.570000", "094024.030000", "094024.490000", "094024.950000", "094025.410000", "094025.870000", "094026.330000", "094026.790000", "094027.250000", "094027.710000", "094028.170000", "094028.630000", "094029.090000", "094029.550000", "094030.010000", "094030.470000", "094030.930000", "094031.390000", "094031.850000", "094032.310000", "094032.770000", "094033.230000", "094033.690000", "094034.150000", "094034.610000", "094035.070000", "094035.530000", "094035.990000", "094036.450000", "094036.910000", "094037.370000", "094037.830000", "094038.290000", "094038.750000", "094039.210000", "094039.670000", "094040.130000", "094040.590000", "094041.050000", "094041.510000", "094041.970000", "094042.430000", "094042.890000", "094043.350000", "094043.810000", "094044.270000", "094044.730000", "094045.190000", "094045.650000", "094046.110000", "094046.570000", "094047.030000", "094047.490000", "094047.950000", "094048.410000", "094048.870000", "094049.330000", "094049.790000", "094050.250000", "094050.710000", "094051.170000", "094051.630000", "094052.090000", "094052.550000", "094053.010000", "094053.470000", "094053.930000", "094054.390000", "094054.850000", "094055.310000", "094055.770000", "094056.230000", "094056.690000", "094057.150000", "094057.610000", "094058.070000", "094058.530000", "094058.990000", "094059.450000", "094059.910000", "094100.370000", "094100.830000", "094101.290000", "094101.750000", "094102.210000", "094102.670000", "094103.130000", "094103.590000", "094104.050000", "094104.510000", "094104.970000", "094105.430000", "094105.890000", "094106.350000", "094106.810000", "094107.270000", "094107.730000", "094108.190000", "094108.650000", "094109.110000", "094109.570000", "094110.030000", "094110.490000", "094110.950000", "094111.410000", "094111.870000", "094112.330000", "094112.790000", "094113.250000", "094113.710000", "094114.170000", "094114.630000", "094115.090000", "094115.550000", "094116.010000", "094116.470000", "094116.930000", "094117.390000", "094117.850000", "094118.310000", "094118.770000", "094119.230000", "094119.690000", "094120.150000", "094120.610000", "094121.070000", "094121.530000", "094121.990000", "094122.450000", "094122.910000", "094123.370000", "094123.830000", "094124.290000", "094124.750000", "094125.210000", "094125.670000", "094126.130000", "094126.590000", "094127.050000", "094127.510000", "094127.970000", "094128.430000", "094128.890000", "094129.350000", "094129.810000", "094130.270000", "094130.730000", "094131.190000", "094131.650000", "094132.110000", "094132.570000", "094133.030000", "094133.490000", "094133.950000", "094134.410000", "094134.870000", "094135.330000", "094135.790000", "094136.250000", "094136.710000", "094137.170000", "094137.630000", "094138.090000", "094138.550000", "094139.010000", "094139.470000", "094139.930000", "094140.390000", "094140.850000", "094141.310000", "094141.770000", "094142.230000", "094142.690000", "094143.150000", "094143.610000", "094144.070000", "094144.530000", "094144.990000", "094145.450000", "094145.910000", "094146.370000", "094146.830000", "094147.290000", "094147.750000", "094148.210000", "094148.670000", "094149.130000", "094149.590000", "094150.050000", "094150.510000", "094150.970000", "094151.430000", "094151.890000", "094152.350000", "094152.810000", "094153.270000", "094153.730000", "094154.190000", "094154.650000", "094155.110000", "094155.570000", "094156.030000", "094156.490000", "094156.950000", "094157.410000", "094157.870000", "094158.330000", "094158.790000", "094159.250000", "094159.710000", "094200.170000", "094200.630000", "094201.090000", "094201.550000", "094202.010000", "094202.470000", "094202.930000", "094203.390000", "094203.850000", "094204.310000", "094204.770000", "094205.230000", "094205.690000", "094206.150000", "094206.610000", "094207.070000", "094207.530000", "094207.990000", "094208.450000", "094208.910000", "094209.370000", "094209.830000", "094210.290000", "094210.750000", "094211.210000", "094211.670000", "094212.130000", "094212.590000", "094213.050000", "094213.510000", "094213.970000", "094214.430000", "094214.890000", "094215.350000", "094215.810000", "094216.270000", "094216.730000", "094217.190000", "094217.650000", "094218.110000", "094218.570000", "094219.030000", "094219.490000", "094219.950000", "094220.410000", "094220.870000", "094221.330000", "094221.790000", "094222.250000", "094222.710000", "094223.170000", "094223.630000", "094224.090000", "094224.550000", "094225.010000", "094225.470000", "094225.930000", "094226.390000", "094226.850000", "094227.310000", "094227.770000", "094228.230000", "094228.690000", "094229.150000", "094229.610000", "094230.070000", "094230.530000", "094230.990000", "094231.450000", "094231.910000", "094232.370000", "094232.830000", "094233.290000", "094233.750000", "094234.210000", "094234.670000", "094235.130000", "094235.590000", "094236.050000", "094236.510000", "094236.970000", "094237.430000", "094237.890000", "094238.350000", "094238.810000", "094239.270000", "094239.730000", "094240.190000", "094240.650000", "094241.110000", "094241.570000", "094242.030000", "094242.490000", "094242.950000", "094243.410000", "094243.870000", "094244.330000", "094244.790000", "094245.250000", "094245.710000", "094246.170000", "094246.630000", "094247.090000", "094247.550000", "094248.010000", "094248.470000", "094248.930000", "094249.390000", "094249.850000", "094250.310000", "094250.770000", "094251.230000", "094251.690000", "094252.150000", "094252.610000", "094253.070000", "094253.530000", "094253.990000", "094254.450000", "094254.910000", "094255.370000", "094255.830000", "094256.290000", "094256.750000", "094257.210000", "094257.670000", "094258.130000", "094258.590000", "094259.050000", "094259.510000", "094259.970000", "094300.430000", "094300.890000", "094301.350000", "094301.810000", "094302.270000", "094302.730000", "094303.190000", "094303.650000", "094304.110000", "094304.570000", "094305.030000", "094305.490000", "094305.950000", "094306.410000", "094306.870000", "094307.330000", "094307.790000", "094308.250000", "094308.710000", "094309.170000", "094309.630000", "094310.090000", "094310.550000", "094311.010000", "094311.470000", "094311.930000", "094312.390000", "094312.850000", "094313.310000", "094313.770000", "094314.230000", "094314.690000", "094315.150000", "094315.610000", "094316.070000", "094316.530000", "094316.990000", "094317.450000", "094317.910000", "094318.370000", "094318.830000", "094319.290000", "094319.750000", "094320.210000", "094320.670000", "094321.130000", "094321.590000", "094322.050000", "094322.510000", "094322.970000", "094323.430000", "094323.890000", "094324.350000", "094324.810000", "094325.270000", "094325.730000", "094326.190000", "094326.650000", "094327.110000", "094327.570000", "094328.030000", "094328.490000", "094328.950000", "094329.410000", "094329.870000", "094330.330000", "094330.790000", "094331.250000", "094331.710000", "094332.170000", "094332.630000", "094333.090000", "094333.550000", "094334.010000", "094334.470000", "094334.930000", "094335.390000", "094335.850000", "094336.310000", "094336.770000", "094337.230000", "094337.690000", "094338.150000", "094338.610000", "094339.070000", "094339.530000", "094339.990000", "094340.450000", "094340.910000", "094341.370000", "094341.830000", "094342.290000", "094342.750000", "094343.210000", "094343.670000", "094344.130000", "094344.590000", "094345.050000", "094345.510000", "094345.970000", "094346.430000", "094346.890000", "094347.350000", "094347.810000", "094348.270000", "094348.730000", "094349.190000", "094349.650000", "094350.110000", "094350.570000", "094351.030000", "094351.490000", "094351.950000", "094352.410000", "094352.870000", "094353.330000", "094353.790000", "094354.250000", "094354.710000", "094355.170000", "094355.630000", "094356.090000", "094356.550000", "094357.010000", "094357.470000", "094357.930000", "094358.390000", "094358.850000", "094359.310000", "094359.770000", "094400.230000", "094400.690000", "094401.150000", "094401.610000", "094402.070000", "094402.530000", "094402.990000", "094403.450000", "094403.910000", "094404.370000", "094404.830000", "094405.290000", "094405.750000", "094406.210000", "094406.670000", "094407.130000", "094407.590000", "094408.050000", "094408.510000", "094408.970000", "094409.430000", "094409.890000", "094410.350000", "094410.810000", "094411.270000", "094411.730000", "094412.190000", "094412.650000", "094413.110000", "094413.570000", "094414.030000", "094414.490000", "094414.950000", "094415.410000", "094415.870000", "094416.330000", "094416.790000", "094417.250000", "094417.710000", "094418.170000", "094418.630000", "094419.090000", "094419.550000", "094420.010000", "094420.470000", "094420.930000", "094421.390000", "094421.850000", "094422.310000", "094422.770000", "094423.230000", "094423.690000", "094424.150000", "094424.610000", "094425.070000", "094425.530000", "094425.990000", "094426.450000", "094426.910000", "094427.370000", "094427.830000", "094428.290000", "094428.750000", "094429.210000", "094429.670000", "094430.130000", "094430.590000", "094431.050000", "094431.510000", "094431.970000", "094432.430000", "094432.890000", "094433.350000", "094433.810000", "094434.270000", "094434.730000", "094435.190000", "094435.650000", "094436.110000", "094436.570000", "094437.030000", "094437.490000", "094437.950000", "094438.410000", "094438.870000", "094439.330000", "094439.790000", "094440.250000", "094440.710000", "094441.170000", "094441.630000", "094442.090000", "094442.550000", "094443.010000", "094443.470000", "094443.930000", "094444.390000", "094444.850000", "094445.310000", "094445.770000", "094446.230000", "094446.690000", "094447.150000", "094447.610000", "094448.070000", "094448.530000", "094448.990000", "094449.450000", "094449.910000", "094450.370000", "094450.830000", "094451.290000", "094451.750000", "094452.210000", "094452.670000", "094453.130000", "094453.590000", "094454.050000", "094454.510000", "094454.970000", "094455.430000", "094455.890000", "094456.350000", "094456.810000", "094457.270000", "094457.730000", "094458.190000", "094458.650000", "094459.110000", "094459.570000", "094500.030000", "094500.490000", "094500.950000", "094501.410000", "094501.870000", "094502.330000", "094502.790000", "094503.250000", "094503.710000", "094504.170000", "094504.630000", "094505.090000", "094505.550000", "094506.010000", "094506.470000", "094506.930000", "094507.390000", "094507.850000", "094508.310000", "094508.770000", "094509.230000", "094509.690000", "094510.150000", "094510.610000", "094511.070000", "094511.530000", "094511.990000", "094512.450000", "094512.910000", "094513.370000", "094513.830000", "094514.290000", "094514.750000", "094515.210000", "094515.670000", "094516.130000", "094516.590000", "094517.050000", "094517.510000", "094517.970000", "094518.430000", "094518.890000", "094519.350000", "094519.810000", "094520.270000", "094520.730000", "094521.190000", "094521.650000", "094522.110000", "094522.570000", "094523.030000", "094523.490000", "094523.950000", "094524.410000", "094524.870000", "094525.330000", "094525.790000", "094526.250000", "094526.710000", "094527.170000", "094527.630000", "094528.090000", "094528.550000", "094529.010000", "094529.470000", "094529.930000", "094530.390000", "094530.850000", "094531.310000", "094531.770000", "094532.230000", "094532.690000", "094533.150000", "094533.610000", "094534.070000", "094534.530000", "094534.990000", "094535.450000", "094535.910000", "094536.370000", "094536.830000", "094537.290000", "094537.750000", "094538.210000", "094538.670000", "094539.130000", "094539.590000", "094540.050000", "094540.510000", "094540.970000", "094541.430000", "094541.890000", "094542.350000", "094542.810000", "094543.270000", "094543.730000", "094544.190000", "094544.650000", "094545.110000", "094545.570000", "094546.030000", "094546.490000", "094546.950000", "094547.410000", "094547.870000", "094548.330000", "094548.790000", "094549.250000", "094549.710000", "094550.170000", "094550.630000", "094551.090000", "094551.550000", "094552.010000", "094552.470000", "094552.930000", "094553.390000", "094553.850000", "094554.310000", "094554.770000", "094555.230000", "094555.690000", "094556.150000", "094556.610000", "094557.070000", "094557.530000", "094557.990000", "094558.450000", "094558.910000", "094559.370000", "094559.830000", "094600.290000", "094600.750000", "094601.210000", "094601.670000", "094602.130000", "094602.590000", "094603.050000", "094603.510000", "094603.970000", "094604.430000", "094604.890000", "094605.350000", "094605.810000", "094606.270000", "094606.730000", "094607.190000", "094607.650000", "094608.110000", "094608.570000", "094609.030000", "094609.490000", "094609.950000", "094610.410000", "094610.870000", "094611.330000", "094611.790000", "094612.250000", "094612.710000", "094613.170000", "094613.630000", "094614.090000", "094614.550000", "094615.010000", "094615.470000", "094615.930000", "094616.390000", "094616.850000", "094617.310000", "094617.770000", "094618.230000", "094618.690000", "094619.150000", "094619.610000", "094620.070000", "094620.530000", "094620.990000", "094621.450000", "094621.910000", "094622.370000", "094622.830000", "094623.290000", "094623.750000", "094624.210000", "094624.670000", "094625.130000", "094625.590000", "094626.050000", "094626.510000", "094626.970000", "094627.430000", "094627.890000", "094628.350000", "094628.810000", "094629.270000", "094629.730000", "094630.190000", "094630.650000", "094631.110000", "094631.570000", "094632.030000", "094632.490000", "094632.950000", "094633.410000", "094633.870000", "094634.330000", "094634.790000", "094635.250000", "094635.710000", "094636.170000", "094636.630000", "094637.090000", "094637.550000", "094638.010000", "094638.470000", "094638.930000", "094639.390000", "094639.850000", "094640.310000", "094640.770000", "094641.230000", "094641.690000", "094642.150000", "094642.610000", "094643.070000", "094643.530000", "094643.990000", "094644.450000", "094644.910000", "094645.370000", "094645.830000", "094646.290000", "094646.750000", "094647.210000", "094647.670000", "094648.130000", "094648.590000", "094649.050000", "094649.510000", "094649.970000", "094650.430000", "094650.890000", "094651.350000", "094651.810000", "094652.270000", "094652.730000", "094653.190000", "094653.650000", "094654.110000", "094654.570000", "094655.030000", "094655.490000", "094655.950000", "094656.410000", "094656.870000", "094657.330000", "094657.790000", "094658.250000", "094658.710000"],
