{
  "AcquisitionMatrixPE": 82,
  "AcquisitionNumber": 1,
  "AcquisitionTime": "20:43:20.877500",
  "BandwidthPerPixelPhaseEncode": 24.888,
  "BaseResolution": 82,
  "BodyPartExamined": "BRAIN",
  "ConsistencyInfo": "N4_VE11E_LATEST_20181129",
  "ConversionSoftware": "dcm2niix",
  "ConversionSoftwareVersion": "v1.0.20201102",
  "DerivedVendorReportedEchoSpacing": 0.00049,
  "DeviceSerialNumber": "66112",
  "DwellTime": 2e-06,
  "EchoTime": 0.0272,
  "EchoTrainLength": 82,
  "EffectiveEchoSpacing": 0.00049,
  "FlipAngle": 44,
  "ImageComments": "Unaliased MB8/PE3",
  "ImageOrientationPatientDICOM": [0.994861, -0.0379318, 0.0938812, 0.0390882, 0.99918, -0.0105086],
  "ImageType": [
    "ORIGINAL",
    "PRIMARY",
    "M",
    "MB",
    "ND",
    "NORM",
    "MOSAIC"
],
  "ImagingFrequency": 123.259,
  "InPlanePhaseEncodingDirectionDICOM": "COL",
  "InstitutionAddress": "Maynard 3,Hanover,NH,US,03755",
  "InstitutionName": "Dartmouth College - PBS",
  "InstitutionalDepartmentName": "Department",
  "MRAcquisitionType": "2D",
  "MagneticFieldStrength": 3,
  "Manufacturer": "Siemens",
  "ManufacturersModelName": "Prisma",
  "Modality": "MR",
  "MultibandAccelerationFactor": 8,
  "PartialFourier": 1,
  "PatientPosition": "HFS",
  "PercentPhaseFOV": 100,
  "PercentSampling": 100,
  "PhaseEncodingDirection": "j-",
  "PhaseEncodingSteps": 82,
  "PhaseResolution": 1,
  "PixelBandwidth": 3050,
  "ProcedureStepDescription": "Wager_Wager^1076_spacetop",
  "ProtocolName": "func_run-06_task-social_acq-ap-mb8",
  "PulseSequenceDetails": "%CustomerSeq%\\cmrr_mbep2d_bold",
  "ReceiveCoilActiveElements": "HEA;HEP",
  "ReceiveCoilName": "Head_32",
  "ReconMatrixPE": 82,
  "RepetitionTime": 0.46,
  "SAR": 0.0849003,
  "ScanOptions": "FS",
  "ScanningSequence": "EP",
  "SequenceName": "epfid2d1_82",
  "SequenceVariant": "SK\\SS",
  "SeriesDescription": "func_run-06_task-social_acq-ap-mb8",
  "SeriesNumber": 22,
  "ShimSetting": [4247, -7815, -7281, 176, -136, -57, -112, 46],
  "SliceThickness": 2.7,
  "SliceTiming": [0, 0.2525, 0.0625, 0.315, 0.125, 0.3775, 0.19, 0, 0.2525, 0.0625, 0.315, 0.125, 0.3775, 0.19, 0, 0.2525, 0.0625, 0.315, 0.125, 0.3775, 0.19, 0, 0.2525, 0.0625, 0.315, 0.125, 0.3775, 0.19, 0, 0.2525, 0.0625, 0.315, 0.125, 0.3775, 0.19, 0, 0.2525, 0.0625, 0.315, 0.125, 0.3775, 0.19, 0, 0.2525, 0.0625, 0.315, 0.125, 0.3775, 0.19, 0, 0.2525, 0.0625, 0.315, 0.125, 0.3775, 0.19],
  "SoftwareVersions": "syngo MR E11",
  "SpacingBetweenSlices": 2.7,
  "StationName": "AWP66112",
  "TaskName": "social",
  "TotalReadoutTime": 0.03969,
  "TxRefAmp": 230.817,
  "WipMemBlock": "9b4e5d87-c66b-406a-8275-8099dee86681||Sequence: R016 ve11e/master r/434b28f1; Aug  7 2019 18:53:46 by eja",
  "dcmmeta_affine": [
    [-2.669138193130493, 0.1048707664012909, 0.25219523906707764, 101.84513092041016],
    [0.10176830738782883, 2.6807281970977783, -0.03813555836677551, -91.3548583984375],
    [0.2518763542175293, 0.028193920850753784, 2.687925338745117, -94.37442779541016],
    [0.0, 0.0, 0.0, 1.0]
],
  "dcmmeta_reorient_transform": [
    [0.0, -1.0, 0.0, 81.0],
    [1.0, 0.0, 0.0, 0.0],
    [0.0, 0.0, 1.0, 0.0],
    [0.0, 0.0, 0.0, 1.0]
],
  "dcmmeta_shape": [82, 82, 56, 872],
  "dcmmeta_slice_dim": 2,
  "dcmmeta_version": 0.6,
  "global": {
    "const": {
      "AccessionNumber": "A004478",
      "AcquisitionMatrix": [82, 0, 0, 82],
      "AngioFlag": "N",
      "BitsAllocated": 16,
      "BitsStored": 16,
      "BodyPartExamined": "BRAIN",
      "Columns": 656,
      "EchoNumbers": 1,
      "EchoTime": 27.2,
      "EchoTrainLength": 82,
      "FlipAngle": 44.0,
      "HighBit": 15,
      "ImageOrientationPatient": [0.99486054271641, -0.0379318236151, 0.09388118716363, 0.03908819466062, 0.99918050494412, -0.0105086430041],
      "ImagePositionPatient": [-906.48020791194, -865.94563555523, -156.28757937913],
      "ImageType": [
        "ORIGINAL",
        "PRIMARY",
        "M",
        "MB",
        "ND",
        "NORM",
        "MOSAIC"
],
      "ImagedNucleus": "1H",
      "ImagingFrequency": 123.259131,
      "InPlanePhaseEncodingDirection": "COL",
      "MRAcquisitionType": "2D",
      "MagneticFieldStrength": 3.0,
      "Manufacturer": "SIEMENS",
      "ManufacturerModelName": "Prisma",
      "Modality": "MR",
      "NumberOfAverages": 1.0,
      "NumberOfPhaseEncodingSteps": 82,
      "PercentPhaseFieldOfView": 100.0,
      "PercentSampling": 100.0,
      "PerformedProcedureStepStartTime": "193430.055000",
      "PhotometricInterpretation": "MONOCHROME2",
      "PixelBandwidth": 3050.0,
      "PixelRepresentation": 0,
      "PixelSpacing": [2.6829268932343, 2.6829268932343],
      "ProtocolName": "func_run-06_task-social_acq-ap-mb8",
      "RepetitionTime": 460.0,
      "Rows": 656,
      "SAR": 0.08490031412422,
      "SamplesPerPixel": 1,
      "ScanOptions": "FS",
      "ScanningSequence": "EP",
      "SequenceName": "epfid2d1_82",
      "SequenceVariant": [
        "SK",
        "SS"
],
      "SeriesDescription": "func_run-06_task-social_acq-ap-mb8",
      "SeriesNumber": 22,
      "SeriesTime": "204331.861000",
      "SliceLocation": -83.149147872498,
      "SliceThickness": 2.7000000476837,
      "SmallestImagePixelValue": 0,
      "SoftwareVersions": "syngo MR E11",
      "SpacingBetweenSlices": 2.6999999893461,
      "SpecificCharacterSet": "ISO_IR 100",
      "StudyID": "1",
      "StudyTime": "193429.908000",
      "TransmitCoilName": "Body",
      "VariableFlipAngleFlag": "N",
      "WindowCenterWidthExplanation": "Algo1"
    },
    "slices": {}
  },
  "time": {
    "samples": {
      "AcquisitionNumber": [1, 2, 3, 4, 5, 6, 7, 8, 9, 10, 11, 12, 13, 14, 15, 16, 17, 18, 19, 20, 21, 22, 23, 24, 25, 26, 27, 28, 29, 30, 31, 32, 33, 34, 35, 36, 37, 38, 39, 40, 41, 42, 43, 44, 45, 46, 47, 48, 49, 50, 51, 52, 53, 54, 55, 56, 57, 58, 59, 60, 61, 62, 63, 64, 65, 66, 67, 68, 69, 70, 71, 72, 73, 74, 75, 76, 77, 78, 79, 80, 81, 82, 83, 84, 85, 86, 87, 88, 89, 90, 91, 92, 93, 94, 95, 96, 97, 98, 99, 100, 101, 102, 103, 104, 105, 106, 107, 108, 109, 110, 111, 112, 113, 114, 115, 116, 117, 118, 119, 120, 121, 122, 123, 124, 125, 126, 127, 128, 129, 130, 131, 132, 133, 134, 135, 136, 137, 138, 139, 140, 141, 142, 143, 144, 145, 146, 147, 148, 149, 150, 151, 152, 153, 154, 155, 156, 157, 158, 159, 160, 161, 162, 163, 164, 165, 166, 167, 168, 169, 170, 171, 172, 173, 174, 175, 176, 177, 178, 179, 180, 181, 182, 183, 184, 185, 186, 187, 188, 189, 190, 191, 192, 193, 194, 195, 196, 197, 198, 199, 200, 201, 202, 203, 204, 205, 206, 207, 208, 209, 210, 211, 212, 213, 214, 215, 216, 217, 218, 219, 220, 221, 222, 223, 224, 225, 226, 227, 228, 229, 230, 231, 232, 233, 234, 235, 236, 237, 238, 239, 240, 241, 242, 243, 244, 245, 246, 247, 248, 249, 250, 251, 252, 253, 254, 255, 256, 257, 258, 259, 260, 261, 262, 263, 264, 265, 266, 267, 268, 269, 270, 271, 272, 273, 274, 275, 276, 277, 278, 279, 280, 281, 282, 283, 284, 285, 286, 287, 288, 289, 290, 291, 292, 293, 294, 295, 296, 297, 298, 299, 300, 301, 302, 303, 304, 305, 306, 307, 308, 309, 310, 311, 312, 313, 314, 315, 316, 317, 318, 319, 320, 321, 322, 323, 324, 325, 326, 327, 328, 329, 330, 331, 332, 333, 334, 335, 336, 337, 338, 339, 340, 341, 342, 343, 344, 345, 346, 347, 348, 349, 350, 351, 352, 353, 354, 355, 356, 357, 358, 359, 360, 361, 362, 363, 364, 365, 366, 367, 368, 369, 370, 371, 372, 373, 374, 375, 376, 377, 378, 379, 380, 381, 382, 383, 384, 385, 386, 387, 388, 389, 390, 391, 392, 393, 394, 395, 396, 397, 398, 399, 400, 401, 402, 403, 404, 405, 406, 407, 408, 409, 410, 411, 412, 413, 414, 415, 416, 417, 418, 419, 420, 421, 422, 423, 424, 425, 426, 427, 428, 429, 430, 431, 432, 433, 434, 435, 436, 437, 438, 439, 440, 441, 442, 443, 444, 445, 446, 447, 448, 449, 450, 451, 452, 453, 454, 455, 456, 457, 458, 459, 460, 461, 462, 463, 464, 465, 466, 467, 468, 469, 470, 471, 472, 473, 474, 475, 476, 477, 478, 479, 480, 481, 482, 483, 484, 485, 486, 487, 488, 489, 490, 491, 492, 493, 494, 495, 496, 497, 498, 499, 500, 501, 502, 503, 504, 505, 506, 507, 508, 509, 510, 511, 512, 513, 514, 515, 516, 517, 518, 519, 520, 521, 522, 523, 524, 525, 526, 527, 528, 529, 530, 531, 532, 533, 534, 535, 536, 537, 538, 539, 540, 541, 542, 543, 544, 545, 546, 547, 548, 549, 550, 551, 552, 553, 554, 555, 556, 557, 558, 559, 560, 561, 562, 563, 564, 565, 566, 567, 568, 569, 570, 571, 572, 573, 574, 575, 576, 577, 578, 579, 580, 581, 582, 583, 584, 585, 586, 587, 588, 589, 590, 591, 592, 593, 594, 595, 596, 597, 598, 599, 600, 601, 602, 603, 604, 605, 606, 607, 608, 609, 610, 611, 612, 613, 614, 615, 616, 617, 618, 619, 620, 621, 622, 623, 624, 625, 626, 627, 628, 629, 630, 631, 632, 633, 634, 635, 636, 637, 638, 639, 640, 641, 642, 643, 644, 645, 646, 647, 648, 649, 650, 651, 652, 653, 654, 655, 656, 657, 658, 659, 660, 661, 662, 663, 664, 665, 666, 667, 668, 669, 670, 671, 672, 673, 674, 675, 676, 677, 678, 679, 680, 681, 682, 683, 684, 685, 686, 687, 688, 689, 690, 691, 692, 693, 694, 695, 696, 697, 698, 699, 700, 701, 702, 703, 704, 705, 706, 707, 708, 709, 710, 711, 712, 713, 714, 715, 716, 717, 718, 719, 720, 721, 722, 723, 724, 725, 726, 727, 728, 729, 730, 731, 732, 733, 734, 735, 736, 737, 738, 739, 740, 741, 742, 743, 744, 745, 746, 747, 748, 749, 750, 751, 752, 753, 754, 755, 756, 757, 758, 759, 760, 761, 762, 763, 764, 765, 766, 767, 768, 769, 770, 771, 772, 773, 774, 775, 776, 777, 778, 779, 780, 781, 782, 783, 784, 785, 786, 787, 788, 789, 790, 791, 792, 793, 794, 795, 796, 797, 798, 799, 800, 801, 802, 803, 804, 805, 806, 807, 808, 809, 810, 811, 812, 813, 814, 815, 816, 817, 818, 819, 820, 821, 822, 823, 824, 825, 826, 827, 828, 829, 830, 831, 832, 833, 834, 835, 836, 837, 838, 839, 840, 841, 842, 843, 844, 845, 846, 847, 848, 849, 850, 851, 852, 853, 854, 855, 856, 857, 858, 859, 860, 861, 862, 863, 864, 865, 866, 867, 868, 869, 870, 871, 872],
      "AcquisitionTime": ["204320.877500", "204321.337500", "204321.797500", "204322.257500", "204322.717500", "204323.177500", "204323.637500", "204324.097500", "204324.557500", "204325.017500", "204325.477500", "204325.937500", "204326.397500", "204326.857500", "204327.317500", "204327.777500", "204328.237500", "204328.697500", "204329.157500", "204329.617500", "204330.077500", "204330.537500", "204330.997500", "204331.457500", "204331.917500", "204332.377500", "204332.837500", "204333.297500", "204333.757500", "204334.217500", "204334.677500", "204335.137500", "204335.597500", "204336.057500", "204336.517500", "204336.977500", "204337.437500", "204337.897500", "204338.357500", "204338.817500", "204339.277500", "204339.737500", "204340.197500", "204340.657500", "204341.117500", "204341.577500", "204342.037500", "204342.497500", "204342.957500", "204343.417500", "204343.877500", "204344.337500", "204344.797500", "204345.257500", "204345.717500", "204346.177500", "204346.637500", "204347.097500", "204347.557500", "204348.017500", "204348.477500", "204348.937500", "204349.397500", "204349.857500", "204350.317500", "204350.777500", "204351.237500", "204351.697500", "204352.157500", "204352.617500", "204353.077500", "204353.537500", "204353.997500", "204354.457500", "204354.917500", "204355.377500", "204355.837500", "204356.297500", "204356.757500", "204357.217500", "204357.677500", "204358.137500", "204358.597500", "204359.057500", "204359.517500", "204359.977500", "204400.437500", "204400.897500", "204401.357500", "204401.817500", "204402.277500", "204402.737500", "204403.197500", "204403.657500", "204404.117500", "204404.577500", "204405.037500", "204405.497500", "204405.957500", "204406.417500", "204406.877500", "204407.337500", "204407.797500", "204408.257500", "204408.717500", "204409.177500", "204409.637500", "204410.097500", "204410.557500", "204411.017500", "204411.477500", "204411.937500", "204412.397500", "204412.857500", "204413.317500", "204413.777500", "204414.237500", "204414.697500", "204415.157500", "204415.617500", "204416.077500", "204416.537500", "204416.997500", "204417.457500", "204417.917500", "204418.377500", "204418.837500", "204419.297500", "204419.757500", "204420.217500", "204420.677500", "204421.137500", "204421.597500", "204422.057500", "204422.517500", "204422.977500", "204423.437500", "204423.897500", "204424.357500", "204424.817500", "204425.277500", "204425.737500", "204426.197500", "204426.657500", "204427.117500", "204427.577500", "204428.037500", "204428.497500", "204428.957500", "204429.417500", "204429.877500", "204430.337500", "204430.797500", "204431.257500", "204431.717500", "204432.177500", "204432.637500", "204433.097500", "204433.557500", "204434.017500", "204434.477500", "204434.937500", "204435.397500", "204435.857500", "204436.317500", "204436.777500", "204437.237500", "204437.697500", "204438.157500", "204438.617500", "204439.077500", "204439.537500", "204439.997500", "204440.457500", "204440.917500", "204441.377500", "204441.837500", "204442.297500", "204442.757500", "204443.217500", "204443.677500", "204444.137500", "204444.597500", "204445.057500", "204445.517500", "204445.977500", "204446.437500", "204446.897500", "204447.357500", "204447.817500", "204448.277500", "204448.737500", "204449.197500", "204449.657500", "204450.117500", "204450.577500", "204451.037500", "204451.497500", "204451.957500", "204452.417500", "204452.877500", "204453.337500", "204453.797500", "204454.257500", "204454.717500", "204455.177500", "204455.637500", "204456.097500", "204456.557500", "204457.017500", "204457.477500", "204457.937500", "204458.397500", "204458.857500", "204459.317500", "204459.777500", "204500.237500", "204500.697500", "204501.157500", "204501.617500", "204502.077500", "204502.537500", "204502.997500", "204503.457500", "204503.917500", "204504.377500", "204504.837500", "204505.297500", "204505.757500", "204506.217500", "204506.677500", "204507.137500", "204507.597500", "204508.057500", "204508.517500", "204508.977500", "204509.437500", "204509.897500", "204510.357500", "204510.817500", "204511.277500", "204511.737500", "204512.197500", "204512.657500", "204513.117500", "204513.577500", "204514.037500", "204514.497500", "204514.957500", "204515.417500", "204515.877500", "204516.337500", "204516.797500", "204517.257500", "204517.717500", "204518.177500", "204518.637500", "204519.097500", "204519.557500", "204520.017500", "204520.477500", "204520.937500", "204521.397500", "204521.857500", "204522.317500", "204522.777500", "204523.237500", "204523.697500", "204524.157500", "204524.617500", "204525.077500", "204525.537500", "204525.997500", "204526.457500", "204526.917500", "204527.377500", "204527.837500", "204528.297500", "204528.757500", "204529.217500", "204529.677500", "204530.137500", "204530.597500", "204531.057500", "204531.517500", "204531.977500", "204532.437500", "204532.897500", "204533.357500", "204533.817500", "204534.277500", "204534.737500", "204535.197500", "204535.657500", "204536.117500", "204536.577500", "204537.037500", "204537.497500", "204537.957500", "204538.417500", "204538.877500", "204539.337500", "204539.797500", "204540.257500", "204540.717500", "204541.177500", "204541.637500", "204542.097500", "204542.557500", "204543.017500", "204543.477500", "204543.937500", "204544.397500", "204544.857500", "204545.317500", "204545.777500", "204546.237500", "204546.697500", "204547.157500", "204547.617500", "204548.077500", "204548.537500", "204548.997500", "204549.457500", "204549.917500", "204550.377500", "204550.837500", "204551.297500", "204551.757500", "204552.217500", "204552.677500", "204553.137500", "204553.597500", "204554.057500", "204554.517500", "204554.977500", "204555.437500", "204555.897500", "204556.357500", "204556.817500", "204557.277500", "204557.737500", "204558.197500", "204558.657500", "204559.117500", "204559.577500", "204600.037500", "204600.497500", "204600.957500", "204601.417500", "204601.877500", "204602.337500", "204602.797500", "204603.257500", "204603.717500", "204604.177500", "204604.637500", "204605.097500", "204605.557500", "204606.017500", "204606.477500", "204606.937500", "204607.397500", "204607.857500", "204608.317500", "204608.777500", "204609.237500", "204609.697500", "204610.157500", "204610.617500", "204611.077500", "204611.537500", "204611.997500", "204612.457500", "204612.917500", "204613.377500", "204613.837500", "204614.297500", "204614.757500", "204615.217500", "204615.677500", "204616.137500", "204616.597500", "204617.057500", "204617.517500", "204617.977500", "204618.437500", "204618.897500", "204619.357500", "204619.817500", "204620.277500", "204620.737500", "204621.197500", "204621.657500", "204622.117500", "204622.577500", "204623.037500", "204623.497500", "204623.957500", "204624.417500", "204624.877500", "204625.337500", "204625.797500", "204626.257500", "204626.717500", "204627.177500", "204627.637500", "204628.097500", "204628.557500", "204629.017500", "204629.477500", "204629.937500", "204630.397500", "204630.857500", "204631.317500", "204631.777500", "204632.237500", "204632.697500", "204633.157500", "204633.617500", "204634.077500", "204634.537500", "204634.997500", "204635.457500", "204635.917500", "204636.377500", "204636.837500", "204637.297500", "204637.757500", "204638.217500", "204638.677500", "204639.137500", "204639.597500", "204640.057500", "204640.517500", "204640.977500", "204641.437500", "204641.897500", "204642.357500", "204642.817500", "204643.277500", "204643.737500", "204644.197500", "204644.657500", "204645.117500", "204645.577500", "204646.037500", "204646.497500", "204646.957500", "204647.417500", "204647.877500", "204648.337500", "204648.797500", "204649.257500", "204649.717500", "204650.177500", "204650.637500", "204651.097500", "204651.557500", "204652.017500", "204652.477500", "204652.937500", "204653.397500", "204653.857500", "204654.317500", "204654.777500", "204655.237500", "204655.697500", "204656.157500", "204656.617500", "204657.077500", "204657.537500", "204657.997500", "204658.457500", "204658.917500", "204659.377500", "204659.837500", "204700.297500", "204700.757500", "204701.217500", "204701.677500", "204702.137500", "204702.597500", "204703.057500", "204703.517500", "204703.977500", "204704.437500", "204704.897500", "204705.357500", "204705.817500", "204706.277500", "204706.737500", "204707.197500", "204707.657500", "204708.117500", "204708.577500", "204709.037500", "204709.497500", "204709.957500", "204710.417500", "204710.877500", "204711.337500", "204711.797500", "204712.257500", "204712.717500", "204713.177500", "204713.637500", "204714.097500", "204714.557500", "204715.017500", "204715.477500", "204715.937500", "204716.397500", "204716.857500", "204717.317500", "204717.777500", "204718.237500", "204718.697500", "204719.157500", "204719.617500", "204720.077500", "204720.537500", "204720.997500", "204721.457500", "204721.917500", "204722.377500", "204722.837500", "204723.297500", "204723.757500", "204724.217500", "204724.677500", "204725.137500", "204725.597500", "204726.057500", "204726.517500", "204726.977500", "204727.437500", "204727.897500", "204728.357500", "204728.817500", "204729.277500", "204729.737500", "204730.197500", "204730.657500", "204731.117500", "204731.577500", "204732.037500", "204732.497500", "204732.957500", "204733.417500", "204733.877500", "204734.337500", "204734.797500", "204735.257500", "204735.717500", "204736.177500", "204736.637500", "204737.097500", "204737.557500", "204738.017500", "204738.477500", "204738.937500", "204739.397500", "204739.857500", "204740.317500", "204740.777500", "204741.237500", "204741.697500", "204742.157500", "204742.617500", "204743.077500", "204743.537500", "204743.997500", "204744.457500", "204744.917500", "204745.377500", "204745.837500", "204746.297500", "204746.757500", "204747.217500", "204747.677500", "204748.137500", "204748.597500", "204749.057500", "204749.517500", "204749.977500", "204750.437500", "204750.897500", "204751.357500", "204751.817500", "204752.277500", "204752.737500", "204753.197500", "204753.657500", "204754.117500", "204754.577500", "204755.037500", "204755.497500", "204755.957500", "204756.417500", "204756.877500", "204757.337500", "204757.797500", "204758.257500", "204758.717500", "204759.177500", "204759.637500", "204800.097500", "204800.557500", "204801.017500", "204801.477500", "204801.937500", "204802.397500", "204802.857500", "204803.317500", "204803.777500", "204804.237500", "204804.697500", "204805.157500", "204805.617500", "204806.077500", "204806.537500", "204806.997500", "204807.457500", "204807.917500", "204808.377500", "204808.837500", "204809.297500", "204809.757500", "204810.217500", "204810.677500", "204811.137500", "204811.597500", "204812.057500", "204812.517500", "204812.977500", "204813.437500", "204813.897500", "204814.357500", "204814.817500", "204815.277500", "204815.737500", "204816.197500", "204816.657500", "204817.117500", "204817.577500", "204818.037500", "204818.497500", "204818.957500", "204819.417500", "204819.877500", "204820.337500", "204820.797500", "204821.257500", "204821.717500", "204822.177500", "204822.637500", "204823.097500", "204823.557500", "204824.017500", "204824.477500", "204824.937500", "204825.397500", "204825.857500", "204826.317500", "204826.777500", "204827.237500", "204827.697500", "204828.157500", "204828.617500", "204829.077500", "204829.537500", "204829.997500", "204830.457500", "204830.917500", "204831.377500", "204831.837500", "204832.297500", "204832.757500", "204833.217500", "204833.677500", "204834.137500", "204834.597500", "204835.057500", "204835.517500", "204835.977500", "204836.437500", "204836.897500", "204837.357500", "204837.817500", "204838.277500", "204838.737500", "204839.197500", "204839.657500", "204840.117500", "204840.577500", "204841.037500", "204841.497500", "204841.957500", "204842.417500", "204842.877500", "204843.337500", "204843.797500", "204844.257500", "204844.717500", "204845.177500", "204845.637500", "204846.097500", "204846.557500", "204847.017500", "204847.477500", "204847.937500", "204848.397500", "204848.857500", "204849.317500", "204849.777500", "204850.237500", "204850.697500", "204851.157500", "204851.617500", "204852.077500", "204852.537500", "204852.997500", "204853.457500", "204853.917500", "204854.377500", "204854.837500", "204855.297500", "204855.757500", "204856.217500", "204856.677500", "204857.137500", "204857.597500", "204858.057500", "204858.517500", "204858.977500", "204859.437500", "204859.897500", "204900.357500", "204900.817500", "204901.277500", "204901.737500", "204902.197500", "204902.657500", "204903.117500", "204903.577500", "204904.037500", "204904.497500", "204904.957500", "204905.417500", "204905.877500", "204906.337500", "204906.797500", "204907.257500", "204907.717500", "204908.177500", "204908.637500", "204909.097500", "204909.557500", "204910.017500", "204910.477500", "204910.937500", "204911.397500", "204911.857500", "204912.317500", "204912.777500", "204913.237500", "204913.697500", "204914.157500", "204914.617500", "204915.077500", "204915.537500", "204915.997500", "204916.457500", "204916.917500", "204917.377500", "204917.837500", "204918.297500", "204918.757500", "204919.217500", "204919.677500", "204920.137500", "204920.597500", "204921.057500", "204921.517500", "204921.977500", "204922.437500", "204922.897500", "204923.357500", "204923.817500", "204924.277500", "204924.737500", "204925.197500", "204925.657500", "204926.117500", "204926.577500", "204927.037500", "204927.497500", "204927.957500", "204928.417500", "204928.877500", "204929.337500", "204929.797500", "204930.257500", "204930.717500", "204931.177500", "204931.637500", "204932.097500", "204932.557500", "204933.017500", "204933.477500", "204933.937500", "204934.397500", "204934.857500", "204935.317500", "204935.777500", "204936.237500", "204936.697500", "204937.157500", "204937.617500", "204938.077500", "204938.537500", "204938.997500", "204939.457500", "204939.917500", "204940.377500", "204940.837500", "204941.297500", "204941.757500", "204942.217500", "204942.677500", "204943.137500", "204943.597500", "204944.057500", "204944.517500", "204944.977500", "204945.437500", "204945.897500", "204946.357500", "204946.817500", "204947.277500", "204947.737500", "204948.197500", "204948.657500", "204949.117500", "204949.577500", "204950.037500", "204950.497500", "204950.957500", "204951.417500", "204951.877500", "204952.337500", "204952.797500", "204953.257500", "204953.717500", "204954.177500", "204954.637500", "204955.097500", "204955.557500", "204956.017500", "204956.477500", "204956.937500", "204957.397500", "204957.857500", "204958.317500", "204958.777500", "204959.237500", "204959.697500", "205000.157500", "205000.617500", "205001.077500", "205001.537500"],
