{
  "AcquisitionMatrixPE": 82,
  "AcquisitionNumber": 1,
  "AcquisitionTime": "17:04:15.567500",
  "BandwidthPerPixelPhaseEncode": 24.888,
  "BaseResolution": 82,
  "BodyPartExamined": "BRAIN",
  "ConsistencyInfo": "N4_VE11E_LATEST_20181129",
  "ConversionSoftware": "dcm2niix",
  "ConversionSoftwareVersion": "v1.0.20201102",
  "DerivedVendorReportedEchoSpacing": 0.00049,
  "DeviceSerialNumber": "66112",
  "DwellTime": 2e-06,
  "EchoTime": 0.0272,
  "EchoTrainLength": 82,
  "EffectiveEchoSpacing": 0.00049,
  "FlipAngle": 44,
  "ImageComments": "Unaliased MB8/PE3",
  "ImageOrientationPatientDICOM": [0.999983, 0.00454059, 0.00364012, -0.00488687, 0.994816, 0.101572],
  "ImageType": [
    "ORIGINAL",
    "PRIMARY",
    "M",
    "MB",
    "ND",
    "NORM",
    "MOSAIC"
],
  "ImagingFrequency": 123.259,
  "InPlanePhaseEncodingDirectionDICOM": "COL",
  "InstitutionAddress": "Maynard 3,Hanover,NH,US,03755",
  "InstitutionName": "Dartmouth College - PBS",
  "InstitutionalDepartmentName": "Department",
  "MRAcquisitionType": "2D",
  "MagneticFieldStrength": 3,
  "Manufacturer": "Siemens",
  "ManufacturersModelName": "Prisma",
  "Modality": "MR",
  "MultibandAccelerationFactor": 8,
  "PartialFourier": 1,
  "PatientPosition": "HFS",
  "PercentPhaseFOV": 100,
  "PercentSampling": 100,
  "PhaseEncodingDirection": "j-",
  "PhaseEncodingSteps": 82,
  "PhaseResolution": 1,
  "PixelBandwidth": 3050,
  "ProcedureStepDescription": "Wager_Wager^1076_spacetop",
  "ProtocolName": "func_run-03_task-alignvideo_acq-ap-mb8",
  "PulseSequenceDetails": "%CustomerSeq%\\cmrr_mbep2d_bold",
  "ReceiveCoilActiveElements": "HEA;HEP",
  "ReceiveCoilName": "Head_32",
  "ReconMatrixPE": 82,
  "RepetitionTime": 0.46,
  "SAR": 0.0839142,
  "ScanOptions": "FS",
  "ScanningSequence": "EP",
  "SequenceName": "epfid2d1_82",
  "SequenceVariant": "SK\\SS",
  "SeriesDescription": "func_run-03_task-alignvideo_acq-ap-mb8",
  "SeriesNumber": 35,
  "ShimSetting": [4205, -7792, -7220, 348, -97, -26, -123, 73],
  "SliceThickness": 2.7,
  "SliceTiming": [0, 0.25, 0.0625, 0.3125, 0.125, 0.3775, 0.1875, 0, 0.25, 0.0625, 0.3125, 0.125, 0.3775, 0.1875, 0, 0.25, 0.0625, 0.3125, 0.125, 0.3775, 0.1875, 0, 0.25, 0.0625, 0.3125, 0.125, 0.3775, 0.1875, 0, 0.25, 0.0625, 0.3125, 0.125, 0.3775, 0.1875, 0, 0.25, 0.0625, 0.3125, 0.125, 0.3775, 0.1875, 0, 0.25, 0.0625, 0.3125, 0.125, 0.3775, 0.1875, 0, 0.25, 0.0625, 0.3125, 0.125, 0.3775, 0.1875],
  "SoftwareVersions": "syngo MR E11",
  "SpacingBetweenSlices": 2.7,
  "StationName": "AWP66112",
  "TaskName": "alignvideo",
  "TotalReadoutTime": 0.03969,
  "TxRefAmp": 218.897,
  "WipMemBlock": "a8d54a17-d326-4f87-8957-6223d2767db2||Sequence: R016 ve11e/master r/434b28f1; Aug  7 2019 18:53:46 by eja",
  "dcmmeta_affine": [
    [-2.6828813552856445, -0.013111112639307976, 0.008532129228115082, 113.51448059082031],
    [-0.012182069942355156, 2.6690189838409424, 0.27428823709487915, -110.91435241699219],
    [0.009766162373125553, -0.27251070737838745, 2.6860179901123047, -50.679378509521484],
    [0.0, 0.0, 0.0, 1.0]
],
  "dcmmeta_reorient_transform": [
    [0.0, -1.0, 0.0, 81.0],
    [1.0, 0.0, 0.0, 0.0],
    [0.0, 0.0, 1.0, 0.0],
    [0.0, 0.0, 0.0, 1.0]
],
  "dcmmeta_shape": [82, 82, 56, 1016],
  "dcmmeta_slice_dim": 2,
  "dcmmeta_version": 0.6,
  "global": {
    "const": {
      "AccessionNumber": "A004537",
      "AcquisitionMatrix": [82, 0, 0, 82],
      "AngioFlag": "N",
      "BitsAllocated": 16,
      "BitsStored": 16,
      "BodyPartExamined": "BRAIN",
      "Columns": 656,
      "EchoNumbers": 1,
      "EchoTime": 27.2,
      "EchoTrainLength": 82,
      "FlipAngle": 44.0,
      "HighBit": 15,
      "ImageOrientationPatient": [0.99998306616008, 0.0045405897699, 0.00364011505763, -0.0048868692531, 0.99481617073052, 0.1015721662759],
      "ImagePositionPatient": [-878.67657269277, -874.78091453983, -153.76620354926],
      "ImageType": [
        "ORIGINAL",
        "PRIMARY",
        "M",
        "MB",
        "ND",
        "NORM",
        "MOSAIC"
],
      "ImagedNucleus": "1H",
      "ImagingFrequency": 123.259091,
      "InPlanePhaseEncodingDirection": "COL",
      "MRAcquisitionType": "2D",
      "MagneticFieldStrength": 3.0,
      "Manufacturer": "SIEMENS",
      "ManufacturerModelName": "Prisma",
      "Modality": "MR",
      "NumberOfAverages": 1.0,
      "NumberOfPhaseEncodingSteps": 82,
      "PercentPhaseFieldOfView": 100.0,
      "PercentSampling": 100.0,
      "PerformedProcedureStepStartTime": "152502.001000",
      "PhotometricInterpretation": "MONOCHROME2",
      "PixelBandwidth": 3050.0,
      "PixelRepresentation": 0,
      "PixelSpacing": [2.6829268932343, 2.6829268932343],
      "ProtocolName": "func_run-03_task-alignvideo_acq-ap-mb8",
      "RepetitionTime": 460.0,
      "Rows": 656,
      "SAR": 0.08391417897495,
      "SamplesPerPixel": 1,
      "ScanOptions": "FS",
      "ScanningSequence": "EP",
      "SequenceName": "epfid2d1_82",
      "SequenceVariant": [
        "SK",
        "SS"
],
      "SeriesDescription": "func_run-03_task-alignvideo_acq-ap-mb8",
      "SeriesNumber": 35,
      "SeriesTime": "170442.763000",
      "SliceLocation": -61.325818301081,
      "SliceThickness": 2.7000000476837,
      "SmallestImagePixelValue": 0,
      "SoftwareVersions": "syngo MR E11",
      "SpacingBetweenSlices": 2.6999999360662,
      "SpecificCharacterSet": "ISO_IR 100",
      "StudyID": "1",
      "StudyTime": "152501.926000",
      "TransmitCoilName": "Body",
      "VariableFlipAngleFlag": "N",
      "WindowCenterWidthExplanation": "Algo1"
    },
    "slices": {}
  },
  "time": {
    "samples": {
      "AcquisitionNumber": [1, 2, 3, 4, 5, 6, 7, 8, 9, 10, 11, 12, 13, 14, 15, 16, 17, 18, 19, 20, 21, 22, 23, 24, 25, 26, 27, 28, 29, 30, 31, 32, 33, 34, 35, 36, 37, 38, 39, 40, 41, 42, 43, 44, 45, 46, 47, 48, 49, 50, 51, 52, 53, 54, 55, 56, 57, 58, 59, 60, 61, 62, 63, 64, 65, 66, 67, 68, 69, 70, 71, 72, 73, 74, 75, 76, 77, 78, 79, 80, 81, 82, 83, 84, 85, 86, 87, 88, 89, 90, 91, 92, 93, 94, 95, 96, 97, 98, 99, 100, 101, 102, 103, 104, 105, 106, 107, 108, 109, 110, 111, 112, 113, 114, 115, 116, 117, 118, 119, 120, 121, 122, 123, 124, 125, 126, 127, 128, 129, 130, 131, 132, 133, 134, 135, 136, 137, 138, 139, 140, 141, 142, 143, 144, 145, 146, 147, 148, 149, 150, 151, 152, 153, 154, 155, 156, 157, 158, 159, 160, 161, 162, 163, 164, 165, 166, 167, 168, 169, 170, 171, 172, 173, 174, 175, 176, 177, 178, 179, 180, 181, 182, 183, 184, 185, 186, 187, 188, 189, 190, 191, 192, 193, 194, 195, 196, 197, 198, 199, 200, 201, 202, 203, 204, 205, 206, 207, 208, 209, 210, 211, 212, 213, 214, 215, 216, 217, 218, 219, 220, 221, 222, 223, 224, 225, 226, 227, 228, 229, 230, 231, 232, 233, 234, 235, 236, 237, 238, 239, 240, 241, 242, 243, 244, 245, 246, 247, 248, 249, 250, 251, 252, 253, 254, 255, 256, 257, 258, 259, 260, 261, 262, 263, 264, 265, 266, 267, 268, 269, 270, 271, 272, 273, 274, 275, 276, 277, 278, 279, 280, 281, 282, 283, 284, 285, 286, 287, 288, 289, 290, 291, 292, 293, 294, 295, 296, 297, 298, 299, 300, 301, 302, 303, 304, 305, 306, 307, 308, 309, 310, 311, 312, 313, 314, 315, 316, 317, 318, 319, 320, 321, 322, 323, 324, 325, 326, 327, 328, 329, 330, 331, 332, 333, 334, 335, 336, 337, 338, 339, 340, 341, 342, 343, 344, 345, 346, 347, 348, 349, 350, 351, 352, 353, 354, 355, 356, 357, 358, 359, 360, 361, 362, 363, 364, 365, 366, 367, 368, 369, 370, 371, 372, 373, 374, 375, 376, 377, 378, 379, 380, 381, 382, 383, 384, 385, 386, 387, 388, 389, 390, 391, 392, 393, 394, 395, 396, 397, 398, 399, 400, 401, 402, 403, 404, 405, 406, 407, 408, 409, 410, 411, 412, 413, 414, 415, 416, 417, 418, 419, 420, 421, 422, 423, 424, 425, 426, 427, 428, 429, 430, 431, 432, 433, 434, 435, 436, 437, 438, 439, 440, 441, 442, 443, 444, 445, 446, 447, 448, 449, 450, 451, 452, 453, 454, 455, 456, 457, 458, 459, 460, 461, 462, 463, 464, 465, 466, 467, 468, 469, 470, 471, 472, 473, 474, 475, 476, 477, 478, 479, 480, 481, 482, 483, 484, 485, 486, 487, 488, 489, 490, 491, 492, 493, 494, 495, 496, 497, 498, 499, 500, 501, 502, 503, 504, 505, 506, 507, 508, 509, 510, 511, 512, 513, 514, 515, 516, 517, 518, 519, 520, 521, 522, 523, 524, 525, 526, 527, 528, 529, 530, 531, 532, 533, 534, 535, 536, 537, 538, 539, 540, 541, 542, 543, 544, 545, 546, 547, 548, 549, 550, 551, 552, 553, 554, 555, 556, 557, 558, 559, 560, 561, 562, 563, 564, 565, 566, 567, 568, 569, 570, 571, 572, 573, 574, 575, 576, 577, 578, 579, 580, 581, 582, 583, 584, 585, 586, 587, 588, 589, 590, 591, 592, 593, 594, 595, 596, 597, 598, 599, 600, 601, 602, 603, 604, 605, 606, 607, 608, 609, 610, 611, 612, 613, 614, 615, 616, 617, 618, 619, 620, 621, 622, 623, 624, 625, 626, 627, 628, 629, 630, 631, 632, 633, 634, 635, 636, 637, 638, 639, 640, 641, 642, 643, 644, 645, 646, 647, 648, 649, 650, 651, 652, 653, 654, 655, 656, 657, 658, 659, 660, 661, 662, 663, 664, 665, 666, 667, 668, 669, 670, 671, 672, 673, 674, 675, 676, 677, 678, 679, 680, 681, 682, 683, 684, 685, 686, 687, 688, 689, 690, 691, 692, 693, 694, 695, 696, 697, 698, 699, 700, 701, 702, 703, 704, 705, 706, 707, 708, 709, 710, 711, 712, 713, 714, 715, 716, 717, 718, 719, 720, 721, 722, 723, 724, 725, 726, 727, 728, 729, 730, 731, 732, 733, 734, 735, 736, 737, 738, 739, 740, 741, 742, 743, 744, 745, 746, 747, 748, 749, 750, 751, 752, 753, 754, 755, 756, 757, 758, 759, 760, 761, 762, 763, 764, 765, 766, 767, 768, 769, 770, 771, 772, 773, 774, 775, 776, 777, 778, 779, 780, 781, 782, 783, 784, 785, 786, 787, 788, 789, 790, 791, 792, 793, 794, 795, 796, 797, 798, 799, 800, 801, 802, 803, 804, 805, 806, 807, 808, 809, 810, 811, 812, 813, 814, 815, 816, 817, 818, 819, 820, 821, 822, 823, 824, 825, 826, 827, 828, 829, 830, 831, 832, 833, 834, 835, 836, 837, 838, 839, 840, 841, 842, 843, 844, 845, 846, 847, 848, 849, 850, 851, 852, 853, 854, 855, 856, 857, 858, 859, 860, 861, 862, 863, 864, 865, 866, 867, 868, 869, 870, 871, 872, 873, 874, 875, 876, 877, 878, 879, 880, 881, 882, 883, 884, 885, 886, 887, 888, 889, 890, 891, 892, 893, 894, 895, 896, 897, 898, 899, 900, 901, 902, 903, 904, 905, 906, 907, 908, 909, 910, 911, 912, 913, 914, 915, 916, 917, 918, 919, 920, 921, 922, 923, 924, 925, 926, 927, 928, 929, 930, 931, 932, 933, 934, 935, 936, 937, 938, 939, 940, 941, 942, 943, 944, 945, 946, 947, 948, 949, 950, 951, 952, 953, 954, 955, 956, 957, 958, 959, 960, 961, 962, 963, 964, 965, 966, 967, 968, 969, 970, 971, 972, 973, 974, 975, 976, 977, 978, 979, 980, 981, 982, 983, 984, 985, 986, 987, 988, 989, 990, 991, 992, 993, 994, 995, 996, 997, 998, 999, 1000, 1001, 1002, 1003, 1004, 1005, 1006, 1007, 1008, 1009, 1010, 1011, 1012, 1013, 1014, 1015, 1016],
      "AcquisitionTime": ["170415.567500", "170416.027500", "170416.487500", "170416.947500", "170417.407500", "170417.867500", "170418.327500", "170418.787500", "170419.247500", "170419.707500", "170420.167500", "170420.627500", "170421.087500", "170421.547500", "170422.007500", "170422.467500", "170422.927500", "170423.387500", "170423.847500", "170424.307500", "170424.767500", "170425.227500", "170425.687500", "170426.147500", "170426.607500", "170427.067500", "170427.527500", "170427.987500", "170428.447500", "170428.907500", "170429.367500", "170429.827500", "170430.287500", "170430.747500", "170431.207500", "170431.667500", "170432.127500", "170432.587500", "170433.047500", "170433.507500", "170433.967500", "170434.427500", "170434.887500", "170435.347500", "170435.807500", "170436.267500", "170436.727500", "170437.187500", "170437.647500", "170438.107500", "170438.567500", "170439.027500", "170439.487500", "170439.947500", "170440.407500", "170440.867500", "170441.327500", "170441.787500", "170442.247500", "170442.707500", "170443.167500", "170443.627500", "170444.087500", "170444.547500", "170445.007500", "170445.467500", "170445.927500", "170446.387500", "170446.847500", "170447.307500", "170447.767500", "170448.227500", "170448.687500", "170449.147500", "170449.607500", "170450.067500", "170450.527500", "170450.987500", "170451.447500", "170451.907500", "170452.367500", "170452.827500", "170453.287500", "170453.747500", "170454.207500", "170454.667500", "170455.127500", "170455.587500", "170456.047500", "170456.507500", "170456.967500", "170457.427500", "170457.887500", "170458.347500", "170458.807500", "170459.267500", "170459.727500", "170500.187500", "170500.647500", "170501.107500", "170501.567500", "170502.027500", "170502.487500", "170502.947500", "170503.407500", "170503.867500", "170504.327500", "170504.787500", "170505.247500", "170505.707500", "170506.167500", "170506.627500", "170507.087500", "170507.547500", "170508.007500", "170508.467500", "170508.927500", "170509.387500", "170509.847500", "170510.307500", "170510.767500", "170511.227500", "170511.687500", "170512.147500", "170512.607500", "170513.067500", "170513.527500", "170513.987500", "170514.447500", "170514.907500", "170515.367500", "170515.827500", "170516.287500", "170516.747500", "170517.207500", "170517.667500", "170518.127500", "170518.587500", "170519.047500", "170519.507500", "170519.967500", "170520.427500", "170520.887500", "170521.347500", "170521.807500", "170522.267500", "170522.727500", "170523.187500", "170523.647500", "170524.107500", "170524.567500", "170525.027500", "170525.487500", "170525.947500", "170526.407500", "170526.867500", "170527.327500", "170527.787500", "170528.247500", "170528.707500", "170529.167500", "170529.627500", "170530.087500", "170530.547500", "170531.007500", "170531.467500", "170531.927500", "170532.387500", "170532.847500", "170533.307500", "170533.767500", "170534.227500", "170534.687500", "170535.147500", "170535.607500", "170536.067500", "170536.527500", "170536.987500", "170537.447500", "170537.907500", "170538.367500", "170538.827500", "170539.287500", "170539.747500", "170540.207500", "170540.667500", "170541.127500", "170541.587500", "170542.047500", "170542.507500", "170542.967500", "170543.427500", "170543.887500", "170544.347500", "170544.807500", "170545.267500", "170545.727500", "170546.187500", "170546.647500", "170547.107500", "170547.567500", "170548.027500", "170548.487500", "170548.947500", "170549.407500", "170549.867500", "170550.327500", "170550.787500", "170551.247500", "170551.707500", "170552.167500", "170552.627500", "170553.087500", "170553.547500", "170554.007500", "170554.467500", "170554.927500", "170555.387500", "170555.847500", "170556.307500", "170556.767500", "170557.227500", "170557.687500", "170558.147500", "170558.607500", "170559.067500", "170559.527500", "170559.987500", "170600.447500", "170600.907500", "170601.367500", "170601.827500", "170602.287500", "170602.747500", "170603.207500", "170603.667500", "170604.127500", "170604.587500", "170605.047500", "170605.507500", "170605.967500", "170606.427500", "170606.887500", "170607.347500", "170607.807500", "170608.267500", "170608.727500", "170609.187500", "170609.647500", "170610.107500", "170610.567500", "170611.027500", "170611.487500", "170611.947500", "170612.407500", "170612.867500", "170613.327500", "170613.787500", "170614.247500", "170614.707500", "170615.167500", "170615.627500", "170616.087500", "170616.547500", "170617.007500", "170617.467500", "170617.927500", "170618.387500", "170618.847500", "170619.307500", "170619.767500", "170620.227500", "170620.687500", "170621.147500", "170621.607500", "170622.067500", "170622.527500", "170622.987500", "170623.447500", "170623.907500", "170624.367500", "170624.827500", "170625.287500", "170625.747500", "170626.207500", "170626.667500", "170627.127500", "170627.587500", "170628.047500", "170628.507500", "170628.967500", "170629.427500", "170629.887500", "170630.347500", "170630.807500", "170631.267500", "170631.727500", "170632.187500", "170632.647500", "170633.107500", "170633.567500", "170634.027500", "170634.487500", "170634.947500", "170635.407500", "170635.867500", "170636.327500", "170636.787500", "170637.247500", "170637.707500", "170638.167500", "170638.627500", "170639.087500", "170639.547500", "170640.007500", "170640.467500", "170640.927500", "170641.387500", "170641.847500", "170642.307500", "170642.767500", "170643.227500", "170643.687500", "170644.147500", "170644.607500", "170645.067500", "170645.527500", "170645.987500", "170646.447500", "170646.907500", "170647.367500", "170647.827500", "170648.287500", "170648.747500", "170649.207500", "170649.667500", "170650.127500", "170650.587500", "170651.047500", "170651.507500", "170651.967500", "170652.427500", "170652.887500", "170653.347500", "170653.807500", "170654.267500", "170654.727500", "170655.187500", "170655.647500", "170656.107500", "170656.567500", "170657.027500", "170657.487500", "170657.947500", "170658.407500", "170658.867500", "170659.327500", "170659.787500", "170700.247500", "170700.707500", "170701.167500", "170701.627500", "170702.087500", "170702.547500", "170703.007500", "170703.467500", "170703.927500", "170704.387500", "170704.847500", "170705.307500", "170705.767500", "170706.227500", "170706.687500", "170707.147500", "170707.607500", "170708.067500", "170708.527500", "170708.987500", "170709.447500", "170709.907500", "170710.367500", "170710.827500", "170711.287500", "170711.747500", "170712.207500", "170712.667500", "170713.127500", "170713.587500", "170714.047500", "170714.507500", "170714.967500", "170715.427500", "170715.887500", "170716.347500", "170716.807500", "170717.267500", "170717.727500", "170718.187500", "170718.647500", "170719.107500", "170719.567500", "170720.027500", "170720.487500", "170720.947500", "170721.407500", "170721.867500", "170722.327500", "170722.787500", "170723.247500", "170723.707500", "170724.167500", "170724.627500", "170725.087500", "170725.547500", "170726.007500", "170726.467500", "170726.927500", "170727.387500", "170727.847500", "170728.307500", "170728.767500", "170729.227500", "170729.687500", "170730.147500", "170730.607500", "170731.067500", "170731.527500", "170731.987500", "170732.447500", "170732.907500", "170733.367500", "170733.827500", "170734.287500", "170734.747500", "170735.207500", "170735.667500", "170736.127500", "170736.587500", "170737.047500", "170737.507500", "170737.967500", "170738.427500", "170738.887500", "170739.347500", "170739.807500", "170740.267500", "170740.727500", "170741.187500", "170741.647500", "170742.107500", "170742.567500", "170743.027500", "170743.487500", "170743.947500", "170744.407500", "170744.867500", "170745.327500", "170745.787500", "170746.247500", "170746.707500", "170747.167500", "170747.627500", "170748.087500", "170748.547500", "170749.007500", "170749.467500", "170749.927500", "170750.387500", "170750.847500", "170751.307500", "170751.767500", "170752.227500", "170752.687500", "170753.147500", "170753.607500", "170754.067500", "170754.527500", "170754.987500", "170755.447500", "170755.907500", "170756.367500", "170756.827500", "170757.287500", "170757.747500", "170758.207500", "170758.667500", "170759.127500", "170759.587500", "170800.047500", "170800.507500", "170800.967500", "170801.427500", "170801.887500", "170802.347500", "170802.807500", "170803.267500", "170803.727500", "170804.187500", "170804.647500", "170805.107500", "170805.567500", "170806.027500", "170806.487500", "170806.947500", "170807.407500", "170807.867500", "170808.327500", "170808.787500", "170809.247500", "170809.707500", "170810.167500", "170810.627500", "170811.087500", "170811.547500", "170812.007500", "170812.467500", "170812.927500", "170813.387500", "170813.847500", "170814.307500", "170814.767500", "170815.227500", "170815.687500", "170816.147500", "170816.607500", "170817.067500", "170817.527500", "170817.987500", "170818.447500", "170818.907500", "170819.367500", "170819.827500", "170820.287500", "170820.747500", "170821.207500", "170821.667500", "170822.127500", "170822.587500", "170823.047500", "170823.507500", "170823.967500", "170824.427500", "170824.887500", "170825.347500", "170825.807500", "170826.267500", "170826.727500", "170827.187500", "170827.647500", "170828.107500", "170828.567500", "170829.027500", "170829.487500", "170829.947500", "170830.407500", "170830.867500", "170831.327500", "170831.787500", "170832.247500", "170832.707500", "170833.167500", "170833.627500", "170834.087500", "170834.547500", "170835.007500", "170835.467500", "170835.927500", "170836.387500", "170836.847500", "170837.307500", "170837.767500", "170838.227500", "170838.687500", "170839.147500", "170839.607500", "170840.067500", "170840.527500", "170840.987500", "170841.447500", "170841.907500", "170842.367500", "170842.827500", "170843.287500", "170843.747500", "170844.207500", "170844.667500", "170845.127500", "170845.587500", "170846.047500", "170846.507500", "170846.967500", "170847.427500", "170847.887500", "170848.347500", "170848.807500", "170849.267500", "170849.727500", "170850.187500", "170850.647500", "170851.107500", "170851.567500", "170852.027500", "170852.487500", "170852.947500", "170853.407500", "170853.867500", "170854.327500", "170854.787500", "170855.247500", "170855.707500", "170856.167500", "170856.627500", "170857.087500", "170857.547500", "170858.007500", "170858.467500", "170858.927500", "170859.387500", "170859.847500", "170900.307500", "170900.767500", "170901.227500", "170901.687500", "170902.147500", "170902.607500", "170903.067500", "170903.527500", "170903.987500", "170904.447500", "170904.907500", "170905.367500", "170905.827500", "170906.287500", "170906.747500", "170907.207500", "170907.667500", "170908.127500", "170908.587500", "170909.047500", "170909.507500", "170909.967500", "170910.427500", "170910.887500", "170911.347500", "170911.807500", "170912.267500", "170912.727500", "170913.187500", "170913.647500", "170914.107500", "170914.567500", "170915.027500", "170915.487500", "170915.947500", "170916.407500", "170916.867500", "170917.327500", "170917.787500", "170918.247500", "170918.707500", "170919.167500", "170919.627500", "170920.087500", "170920.547500", "170921.007500", "170921.467500", "170921.927500", "170922.387500", "170922.847500", "170923.307500", "170923.767500", "170924.227500", "170924.687500", "170925.147500", "170925.607500", "170926.067500", "170926.527500", "170926.987500", "170927.447500", "170927.907500", "170928.367500", "170928.827500", "170929.287500", "170929.747500", "170930.207500", "170930.667500", "170931.127500", "170931.587500", "170932.047500", "170932.507500", "170932.967500", "170933.427500", "170933.887500", "170934.347500", "170934.807500", "170935.267500", "170935.727500", "170936.187500", "170936.647500", "170937.107500", "170937.567500", "170938.027500", "170938.487500", "170938.947500", "170939.407500", "170939.867500", "170940.327500", "170940.787500", "170941.247500", "170941.707500", "170942.167500", "170942.627500", "170943.087500", "170943.547500", "170944.007500", "170944.467500", "170944.927500", "170945.387500", "170945.847500", "170946.307500", "170946.767500", "170947.227500", "170947.687500", "170948.147500", "170948.607500", "170949.067500", "170949.527500", "170949.987500", "170950.447500", "170950.907500", "170951.367500", "170951.827500", "170952.287500", "170952.747500", "170953.207500", "170953.667500", "170954.127500", "170954.587500", "170955.047500", "170955.507500", "170955.967500", "170956.427500", "170956.887500", "170957.347500", "170957.807500", "170958.267500", "170958.727500", "170959.187500", "170959.647500", "171000.107500", "171000.567500", "171001.027500", "171001.487500", "171001.947500", "171002.407500", "171002.867500", "171003.327500", "171003.787500", "171004.247500", "171004.707500", "171005.167500", "171005.627500", "171006.087500", "171006.547500", "171007.007500", "171007.467500", "171007.927500", "171008.387500", "171008.847500", "171009.307500", "171009.767500", "171010.227500", "171010.687500", "171011.147500", "171011.607500", "171012.067500", "171012.527500", "171012.987500", "171013.447500", "171013.907500", "171014.367500", "171014.827500", "171015.287500", "171015.747500", "171016.207500", "171016.667500", "171017.127500", "171017.587500", "171018.047500", "171018.507500", "171018.967500", "171019.427500", "171019.887500", "171020.347500", "171020.807500", "171021.267500", "171021.727500", "171022.187500", "171022.647500", "171023.107500", "171023.567500", "171024.027500", "171024.487500", "171024.947500", "171025.407500", "171025.867500", "171026.327500", "171026.787500", "171027.247500", "171027.707500", "171028.167500", "171028.627500", "171029.087500", "171029.547500", "171030.007500", "171030.467500", "171030.927500", "171031.387500", "171031.847500", "171032.307500", "171032.767500", "171033.227500", "171033.687500", "171034.147500", "171034.607500", "171035.067500", "171035.527500", "171035.987500", "171036.447500", "171036.907500", "171037.367500", "171037.827500", "171038.287500", "171038.747500", "171039.207500", "171039.667500", "171040.127500", "171040.587500", "171041.047500", "171041.507500", "171041.967500", "171042.427500", "171042.887500", "171043.347500", "171043.807500", "171044.267500", "171044.727500", "171045.187500", "171045.647500", "171046.107500", "171046.567500", "171047.027500", "171047.487500", "171047.947500", "171048.407500", "171048.867500", "171049.327500", "171049.787500", "171050.247500", "171050.707500", "171051.167500", "171051.627500", "171052.087500", "171052.547500", "171053.007500", "171053.467500", "171053.927500", "171054.387500", "171054.847500", "171055.307500", "171055.767500", "171056.227500", "171056.687500", "171057.147500", "171057.607500", "171058.067500", "171058.527500", "171058.987500", "171059.447500", "171059.907500", "171100.367500", "171100.827500", "171101.287500", "171101.747500", "171102.207500", "171102.667500", "171103.127500", "171103.587500", "171104.047500", "171104.507500", "171104.967500", "171105.427500", "171105.887500", "171106.347500", "171106.807500", "171107.267500", "171107.727500", "171108.187500", "171108.647500", "171109.107500", "171109.567500", "171110.027500", "171110.487500", "171110.947500", "171111.407500", "171111.867500", "171112.327500", "171112.787500", "171113.247500", "171113.707500", "171114.167500", "171114.627500", "171115.087500", "171115.547500", "171116.007500", "171116.467500", "171116.927500", "171117.387500", "171117.847500", "171118.307500", "171118.767500", "171119.227500", "171119.687500", "171120.147500", "171120.607500", "171121.067500", "171121.527500", "171121.987500", "171122.447500", "171122.907500", "171123.367500", "171123.827500", "171124.287500", "171124.747500", "171125.207500", "171125.667500", "171126.127500", "171126.587500", "171127.047500", "171127.507500", "171127.967500", "171128.427500", "171128.887500", "171129.347500", "171129.807500", "171130.267500", "171130.727500", "171131.187500", "171131.647500", "171132.107500", "171132.567500", "171133.027500", "171133.487500", "171133.947500", "171134.407500", "171134.867500", "171135.327500", "171135.787500", "171136.247500", "171136.707500", "171137.167500", "171137.627500", "171138.087500", "171138.547500", "171139.007500", "171139.467500", "171139.927500", "171140.387500", "171140.847500", "171141.307500", "171141.767500", "171142.227500", "171142.687500", "171143.147500", "171143.607500", "171144.067500", "171144.527500", "171144.987500", "171145.447500", "171145.907500", "171146.367500", "171146.827500", "171147.287500", "171147.747500", "171148.207500", "171148.667500", "171149.127500", "171149.587500", "171150.047500", "171150.507500", "171150.967500", "171151.427500", "171151.887500", "171152.347500", "171152.807500", "171153.267500", "171153.727500", "171154.187500", "171154.647500", "171155.107500", "171155.567500", "171156.027500", "171156.487500", "171156.947500", "171157.407500", "171157.867500", "171158.327500", "171158.787500", "171159.247500", "171159.707500", "171200.167500", "171200.627500", "171201.087500", "171201.547500", "171202.007500", "171202.467500"],
