{
  "AcquisitionMatrixPE": 82,
  "AcquisitionNumber": 1,
  "AcquisitionTime": "16:11:37.845000",
  "BandwidthPerPixelPhaseEncode": 24.888,
  "BaseResolution": 82,
  "BodyPartExamined": "BRAIN",
  "ConsistencyInfo": "N4_VE11E_LATEST_20181129",
  "ConversionSoftware": "dcm2niix",
  "ConversionSoftwareVersion": "v1.0.20201102",
  "DerivedVendorReportedEchoSpacing": 0.00049,
  "DeviceSerialNumber": "66112",
  "DwellTime": 2e-06,
  "EchoTime": 0.0272,
  "EchoTrainLength": 82,
  "EffectiveEchoSpacing": 0.00049,
  "FlipAngle": 44,
  "ImageComments": "Unaliased MB8/PE3",
  "ImageOrientationPatientDICOM": [0.9987, -0.0280649, -0.0425566, 0.0326068, 0.993387, 0.110091],
  "ImageType": [
    "ORIGINAL",
    "PRIMARY",
    "M",
    "MB",
    "ND",
    "NORM",
    "MOSAIC"
],
  "ImagingFrequency": 123.259,
  "InPlanePhaseEncodingDirectionDICOM": "COL",
  "InstitutionAddress": "Maynard 3,Hanover,NH,US,03755",
  "InstitutionName": "Dartmouth College - PBS",
  "InstitutionalDepartmentName": "Department",
  "MRAcquisitionType": "2D",
  "MagneticFieldStrength": 3,
  "Manufacturer": "Siemens",
  "ManufacturersModelName": "Prisma",
  "Modality": "MR",
  "MultibandAccelerationFactor": 8,
  "PartialFourier": 1,
  "PatientPosition": "HFS",
  "PercentPhaseFOV": 100,
  "PercentSampling": 100,
  "PhaseEncodingDirection": "j-",
  "PhaseEncodingSteps": 82,
  "PhaseResolution": 1,
  "PixelBandwidth": 3050,
  "ProcedureStepDescription": "Wager_Wager^1076_spacetop",
  "ProtocolName": "func_run-03_task-social_acq-ap-mb8",
  "PulseSequenceDetails": "%CustomerSeq%\\cmrr_mbep2d_bold",
  "ReceiveCoilActiveElements": "HEA;HEP",
  "ReceiveCoilName": "Head_32",
  "ReconMatrixPE": 82,
  "RepetitionTime": 0.46,
  "SAR": 0.0838403,
  "ScanOptions": "FS",
  "ScanningSequence": "EP",
  "SequenceName": "epfid2d1_82",
  "SequenceVariant": "SK\\SS",
  "SeriesDescription": "func_run-03_task-social_acq-ap-mb8",
  "SeriesNumber": 17,
  "ShimSetting": [4205, -7793, -7220, 353, -96, -30, -124, 70],
  "SliceThickness": 2.7,
  "SliceTiming": [0, 0.25, 0.0625, 0.3125, 0.125, 0.3775, 0.1875, 0, 0.25, 0.0625, 0.3125, 0.125, 0.3775, 0.1875, 0, 0.25, 0.0625, 0.3125, 0.125, 0.3775, 0.1875, 0, 0.25, 0.0625, 0.3125, 0.125, 0.3775, 0.1875, 0, 0.25, 0.0625, 0.3125, 0.125, 0.3775, 0.1875, 0, 0.25, 0.0625, 0.3125, 0.125, 0.3775, 0.1875, 0, 0.25, 0.0625, 0.3125, 0.125, 0.3775, 0.1875, 0, 0.25, 0.0625, 0.3125, 0.125, 0.3775, 0.1875],
  "SoftwareVersions": "syngo MR E11",
  "SpacingBetweenSlices": 2.7,
  "StationName": "AWP66112",
  "TaskName": "social",
  "TotalReadoutTime": 0.03969,
  "TxRefAmp": 218.897,
  "WipMemBlock": "45b65dab-e9b3-42eb-a741-41415f06c43b||Sequence: R016 ve11e/master r/434b28f1; Aug  7 2019 18:53:46 by eja",
  "dcmmeta_affine": [
    [-2.679438591003418, 0.08748164027929306, -0.1058008149266243, 112.49258422851562],
    [0.07529605180025101, 2.6651833057403564, 0.30060654878616333, -113.4033203125],
    [-0.11417634040117264, -0.2953668236732483, 2.6811270713806152, -45.4360466003418],
    [0.0, 0.0, 0.0, 1.0]
],
  "dcmmeta_reorient_transform": [
    [0.0, -1.0, 0.0, 81.0],
    [1.0, 0.0, 0.0, 0.0],
    [0.0, 0.0, 1.0, 0.0],
    [0.0, 0.0, 0.0, 1.0]
],
  "dcmmeta_shape": [82, 82, 56, 872],
  "dcmmeta_slice_dim": 2,
  "dcmmeta_version": 0.6,
  "global": {
    "const": {
      "AccessionNumber": "A004537",
      "AcquisitionMatrix": [82, 0, 0, 82],
      "AngioFlag": "N",
      "BitsAllocated": 16,
      "BitsStored": 16,
      "BodyPartExamined": "BRAIN",
      "Columns": 656,
      "EchoNumbers": 1,
      "EchoTime": 27.2,
      "EchoTrainLength": 82,
      "FlipAngle": 44.0,
      "HighBit": 15,
      "ImageOrientationPatient": [0.99869980210516, -0.028064890627, -0.0425566350785, 0.03260679219422, 0.9933864858317, 0.11009126609207],
      "ImagePositionPatient": [-913.68469085877, -845.77417317276, -121.36242632437],
      "ImageType": [
        "ORIGINAL",
        "PRIMARY",
        "M",
        "MB",
        "ND",
        "NORM",
        "MOSAIC"
],
      "ImagedNucleus": "1H",
      "ImagingFrequency": 123.259083,
      "InPlanePhaseEncodingDirection": "COL",
      "MRAcquisitionType": "2D",
      "MagneticFieldStrength": 3.0,
      "Manufacturer": "SIEMENS",
      "ManufacturerModelName": "Prisma",
      "Modality": "MR",
      "NumberOfAverages": 1.0,
      "NumberOfPhaseEncodingSteps": 82,
      "PercentPhaseFieldOfView": 100.0,
      "PercentSampling": 100.0,
      "PerformedProcedureStepStartTime": "152502.001000",
      "PhotometricInterpretation": "MONOCHROME2",
      "PixelBandwidth": 3050.0,
      "PixelRepresentation": 0,
      "PixelSpacing": [2.6829268932343, 2.6829268932343],
      "ProtocolName": "func_run-03_task-social_acq-ap-mb8",
      "RepetitionTime": 460.0,
      "Rows": 656,
      "SAR": 0.0838402528073,
      "SamplesPerPixel": 1,
      "ScanOptions": "FS",
      "ScanningSequence": "EP",
      "SequenceName": "epfid2d1_82",
      "SequenceVariant": [
        "SK",
        "SS"
],
      "SeriesDescription": "func_run-03_task-social_acq-ap-mb8",
      "SeriesNumber": 17,
      "SeriesTime": "161202.733000",
      "SliceLocation": -62.152370299338,
      "SliceThickness": 2.7000000476837,
      "SmallestImagePixelValue": 0,
      "SoftwareVersions": "syngo MR E11",
      "SpacingBetweenSlices": 2.7000000467664,
      "SpecificCharacterSet": "ISO_IR 100",
      "StudyID": "1",
      "StudyTime": "152501.926000",
      "TransmitCoilName": "Body",
      "VariableFlipAngleFlag": "N",
      "WindowCenterWidthExplanation": "Algo1"
    },
    "slices": {}
  },
  "time": {
    "samples": {
      "AcquisitionNumber": [1, 2, 3, 4, 5, 6, 7, 8, 9, 10, 11, 12, 13, 14, 15, 16, 17, 18, 19, 20, 21, 22, 23, 24, 25, 26, 27, 28, 29, 30, 31, 32, 33, 34, 35, 36, 37, 38, 39, 40, 41, 42, 43, 44, 45, 46, 47, 48, 49, 50, 51, 52, 53, 54, 55, 56, 57, 58, 59, 60, 61, 62, 63, 64, 65, 66, 67, 68, 69, 70, 71, 72, 73, 74, 75, 76, 77, 78, 79, 80, 81, 82, 83, 84, 85, 86, 87, 88, 89, 90, 91, 92, 93, 94, 95, 96, 97, 98, 99, 100, 101, 102, 103, 104, 105, 106, 107, 108, 109, 110, 111, 112, 113, 114, 115, 116, 117, 118, 119, 120, 121, 122, 123, 124, 125, 126, 127, 128, 129, 130, 131, 132, 133, 134, 135, 136, 137, 138, 139, 140, 141, 142, 143, 144, 145, 146, 147, 148, 149, 150, 151, 152, 153, 154, 155, 156, 157, 158, 159, 160, 161, 162, 163, 164, 165, 166, 167, 168, 169, 170, 171, 172, 173, 174, 175, 176, 177, 178, 179, 180, 181, 182, 183, 184, 185, 186, 187, 188, 189, 190, 191, 192, 193, 194, 195, 196, 197, 198, 199, 200, 201, 202, 203, 204, 205, 206, 207, 208, 209, 210, 211, 212, 213, 214, 215, 216, 217, 218, 219, 220, 221, 222, 223, 224, 225, 226, 227, 228, 229, 230, 231, 232, 233, 234, 235, 236, 237, 238, 239, 240, 241, 242, 243, 244, 245, 246, 247, 248, 249, 250, 251, 252, 253, 254, 255, 256, 257, 258, 259, 260, 261, 262, 263, 264, 265, 266, 267, 268, 269, 270, 271, 272, 273, 274, 275, 276, 277, 278, 279, 280, 281, 282, 283, 284, 285, 286, 287, 288, 289, 290, 291, 292, 293, 294, 295, 296, 297, 298, 299, 300, 301, 302, 303, 304, 305, 306, 307, 308, 309, 310, 311, 312, 313, 314, 315, 316, 317, 318, 319, 320, 321, 322, 323, 324, 325, 326, 327, 328, 329, 330, 331, 332, 333, 334, 335, 336, 337, 338, 339, 340, 341, 342, 343, 344, 345, 346, 347, 348, 349, 350, 351, 352, 353, 354, 355, 356, 357, 358, 359, 360, 361, 362, 363, 364, 365, 366, 367, 368, 369, 370, 371, 372, 373, 374, 375, 376, 377, 378, 379, 380, 381, 382, 383, 384, 385, 386, 387, 388, 389, 390, 391, 392, 393, 394, 395, 396, 397, 398, 399, 400, 401, 402, 403, 404, 405, 406, 407, 408, 409, 410, 411, 412, 413, 414, 415, 416, 417, 418, 419, 420, 421, 422, 423, 424, 425, 426, 427, 428, 429, 430, 431, 432, 433, 434, 435, 436, 437, 438, 439, 440, 441, 442, 443, 444, 445, 446, 447, 448, 449, 450, 451, 452, 453, 454, 455, 456, 457, 458, 459, 460, 461, 462, 463, 464, 465, 466, 467, 468, 469, 470, 471, 472, 473, 474, 475, 476, 477, 478, 479, 480, 481, 482, 483, 484, 485, 486, 487, 488, 489, 490, 491, 492, 493, 494, 495, 496, 497, 498, 499, 500, 501, 502, 503, 504, 505, 506, 507, 508, 509, 510, 511, 512, 513, 514, 515, 516, 517, 518, 519, 520, 521, 522, 523, 524, 525, 526, 527, 528, 529, 530, 531, 532, 533, 534, 535, 536, 537, 538, 539, 540, 541, 542, 543, 544, 545, 546, 547, 548, 549, 550, 551, 552, 553, 554, 555, 556, 557, 558, 559, 560, 561, 562, 563, 564, 565, 566, 567, 568, 569, 570, 571, 572, 573, 574, 575, 576, 577, 578, 579, 580, 581, 582, 583, 584, 585, 586, 587, 588, 589, 590, 591, 592, 593, 594, 595, 596, 597, 598, 599, 600, 601, 602, 603, 604, 605, 606, 607, 608, 609, 610, 611, 612, 613, 614, 615, 616, 617, 618, 619, 620, 621, 622, 623, 624, 625, 626, 627, 628, 629, 630, 631, 632, 633, 634, 635, 636, 637, 638, 639, 640, 641, 642, 643, 644, 645, 646, 647, 648, 649, 650, 651, 652, 653, 654, 655, 656, 657, 658, 659, 660, 661, 662, 663, 664, 665, 666, 667, 668, 669, 670, 671, 672, 673, 674, 675, 676, 677, 678, 679, 680, 681, 682, 683, 684, 685, 686, 687, 688, 689, 690, 691, 692, 693, 694, 695, 696, 697, 698, 699, 700, 701, 702, 703, 704, 705, 706, 707, 708, 709, 710, 711, 712, 713, 714, 715, 716, 717, 718, 719, 720, 721, 722, 723, 724, 725, 726, 727, 728, 729, 730, 731, 732, 733, 734, 735, 736, 737, 738, 739, 740, 741, 742, 743, 744, 745, 746, 747, 748, 749, 750, 751, 752, 753, 754, 755, 756, 757, 758, 759, 760, 761, 762, 763, 764, 765, 766, 767, 768, 769, 770, 771, 772, 773, 774, 775, 776, 777, 778, 779, 780, 781, 782, 783, 784, 785, 786, 787, 788, 789, 790, 791, 792, 793, 794, 795, 796, 797, 798, 799, 800, 801, 802, 803, 804, 805, 806, 807, 808, 809, 810, 811, 812, 813, 814, 815, 816, 817, 818, 819, 820, 821, 822, 823, 824, 825, 826, 827, 828, 829, 830, 831, 832, 833, 834, 835, 836, 837, 838, 839, 840, 841, 842, 843, 844, 845, 846, 847, 848, 849, 850, 851, 852, 853, 854, 855, 856, 857, 858, 859, 860, 861, 862, 863, 864, 865, 866, 867, 868, 869, 870, 871, 872],
      "AcquisitionTime": ["161137.845000", "161138.305000", "161138.765000", "161139.225000", "161139.685000", "161140.145000", "161140.605000", "161141.065000", "161141.525000", "161141.985000", "161142.445000", "161142.905000", "161143.365000", "161143.825000", "161144.285000", "161144.745000", "161145.205000", "161145.665000", "161146.125000", "161146.585000", "161147.045000", "161147.505000", "161147.965000", "161148.425000", "161148.885000", "161149.345000", "161149.805000", "161150.265000", "161150.725000", "161151.185000", "161151.645000", "161152.105000", "161152.565000", "161153.025000", "161153.485000", "161153.945000", "161154.405000", "161154.865000", "161155.325000", "161155.785000", "161156.245000", "161156.705000", "161157.165000", "161157.625000", "161158.085000", "161158.545000", "161159.005000", "161159.465000", "161159.925000", "161200.385000", "161200.845000", "161201.305000", "161201.765000", "161202.225000", "161202.685000", "161203.145000", "161203.605000", "161204.065000", "161204.525000", "161204.985000", "161205.445000", "161205.905000", "161206.365000", "161206.825000", "161207.285000", "161207.745000", "161208.205000", "161208.665000", "161209.125000", "161209.585000", "161210.045000", "161210.505000", "161210.965000", "161211.425000", "161211.885000", "161212.345000", "161212.805000", "161213.265000", "161213.725000", "161214.185000", "161214.645000", "161215.105000", "161215.565000", "161216.025000", "161216.485000", "161216.945000", "161217.405000", "161217.865000", "161218.325000", "161218.785000", "161219.245000", "161219.705000", "161220.165000", "161220.625000", "161221.085000", "161221.545000", "161222.005000", "161222.465000", "161222.925000", "161223.385000", "161223.845000", "161224.305000", "161224.765000", "161225.225000", "161225.685000", "161226.145000", "161226.605000", "161227.065000", "161227.525000", "161227.985000", "161228.445000", "161228.905000", "161229.365000", "161229.825000", "161230.285000", "161230.745000", "161231.205000", "161231.665000", "161232.125000", "161232.585000", "161233.045000", "161233.505000", "161233.965000", "161234.425000", "161234.885000", "161235.345000", "161235.805000", "161236.265000", "161236.725000", "161237.185000", "161237.645000", "161238.105000", "161238.565000", "161239.025000", "161239.485000", "161239.945000", "161240.405000", "161240.865000", "161241.325000", "161241.785000", "161242.245000", "161242.705000", "161243.165000", "161243.625000", "161244.085000", "161244.545000", "161245.005000", "161245.465000", "161245.925000", "161246.385000", "161246.845000", "161247.305000", "161247.765000", "161248.225000", "161248.685000", "161249.145000", "161249.605000", "161250.065000", "161250.525000", "161250.985000", "161251.445000", "161251.905000", "161252.365000", "161252.825000", "161253.285000", "161253.745000", "161254.205000", "161254.665000", "161255.125000", "161255.585000", "161256.045000", "161256.505000", "161256.965000", "161257.425000", "161257.885000", "161258.345000", "161258.805000", "161259.265000", "161259.725000", "161300.185000", "161300.645000", "161301.105000", "161301.565000", "161302.025000", "161302.485000", "161302.945000", "161303.405000", "161303.865000", "161304.325000", "161304.785000", "161305.245000", "161305.705000", "161306.165000", "161306.625000", "161307.085000", "161307.545000", "161308.005000", "161308.465000", "161308.925000", "161309.385000", "161309.845000", "161310.305000", "161310.765000", "161311.225000", "161311.685000", "161312.145000", "161312.605000", "161313.065000", "161313.525000", "161313.985000", "161314.445000", "161314.905000", "161315.365000", "161315.825000", "161316.285000", "161316.745000", "161317.205000", "161317.665000", "161318.125000", "161318.585000", "161319.045000", "161319.505000", "161319.965000", "161320.425000", "161320.885000", "161321.345000", "161321.805000", "161322.265000", "161322.725000", "161323.185000", "161323.645000", "161324.105000", "161324.565000", "161325.025000", "161325.485000", "161325.945000", "161326.405000", "161326.865000", "161327.325000", "161327.785000", "161328.245000", "161328.705000", "161329.165000", "161329.625000", "161330.085000", "161330.545000", "161331.005000", "161331.465000", "161331.925000", "161332.385000", "161332.845000", "161333.305000", "161333.765000", "161334.225000", "161334.685000", "161335.145000", "161335.605000", "161336.065000", "161336.525000", "161336.985000", "161337.445000", "161337.905000", "161338.365000", "161338.825000", "161339.285000", "161339.745000", "161340.205000", "161340.665000", "161341.125000", "161341.585000", "161342.045000", "161342.505000", "161342.965000", "161343.425000", "161343.885000", "161344.345000", "161344.805000", "161345.265000", "161345.725000", "161346.185000", "161346.645000", "161347.105000", "161347.565000", "161348.025000", "161348.485000", "161348.945000", "161349.405000", "161349.865000", "161350.325000", "161350.785000", "161351.245000", "161351.705000", "161352.165000", "161352.625000", "161353.085000", "161353.545000", "161354.005000", "161354.465000", "161354.925000", "161355.385000", "161355.845000", "161356.305000", "161356.765000", "161357.225000", "161357.685000", "161358.145000", "161358.605000", "161359.065000", "161359.525000", "161359.985000", "161400.445000", "161400.905000", "161401.365000", "161401.825000", "161402.285000", "161402.745000", "161403.205000", "161403.665000", "161404.125000", "161404.585000", "161405.045000", "161405.505000", "161405.965000", "161406.425000", "161406.885000", "161407.345000", "161407.805000", "161408.265000", "161408.725000", "161409.185000", "161409.645000", "161410.105000", "161410.565000", "161411.025000", "161411.485000", "161411.945000", "161412.405000", "161412.865000", "161413.325000", "161413.785000", "161414.245000", "161414.705000", "161415.165000", "161415.625000", "161416.085000", "161416.545000", "161417.005000", "161417.465000", "161417.925000", "161418.385000", "161418.845000", "161419.305000", "161419.765000", "161420.225000", "161420.685000", "161421.145000", "161421.605000", "161422.065000", "161422.525000", "161422.985000", "161423.445000", "161423.905000", "161424.365000", "161424.825000", "161425.285000", "161425.745000", "161426.205000", "161426.665000", "161427.125000", "161427.585000", "161428.045000", "161428.505000", "161428.965000", "161429.425000", "161429.885000", "161430.345000", "161430.805000", "161431.265000", "161431.725000", "161432.185000", "161432.645000", "161433.105000", "161433.565000", "161434.025000", "161434.485000", "161434.945000", "161435.405000", "161435.865000", "161436.325000", "161436.785000", "161437.245000", "161437.705000", "161438.165000", "161438.625000", "161439.085000", "161439.545000", "161440.005000", "161440.465000", "161440.925000", "161441.385000", "161441.845000", "161442.305000", "161442.765000", "161443.225000", "161443.685000", "161444.145000", "161444.605000", "161445.065000", "161445.525000", "161445.985000", "161446.445000", "161446.905000", "161447.365000", "161447.825000", "161448.285000", "161448.745000", "161449.205000", "161449.665000", "161450.125000", "161450.585000", "161451.045000", "161451.505000", "161451.965000", "161452.425000", "161452.885000", "161453.345000", "161453.805000", "161454.265000", "161454.725000", "161455.185000", "161455.645000", "161456.105000", "161456.565000", "161457.025000", "161457.485000", "161457.945000", "161458.405000", "161458.865000", "161459.325000", "161459.785000", "161500.245000", "161500.705000", "161501.165000", "161501.625000", "161502.085000", "161502.545000", "161503.005000", "161503.465000", "161503.925000", "161504.385000", "161504.845000", "161505.305000", "161505.765000", "161506.225000", "161506.685000", "161507.145000", "161507.605000", "161508.065000", "161508.525000", "161508.985000", "161509.445000", "161509.905000", "161510.365000", "161510.825000", "161511.285000", "161511.745000", "161512.205000", "161512.665000", "161513.125000", "161513.585000", "161514.045000", "161514.505000", "161514.965000", "161515.425000", "161515.885000", "161516.345000", "161516.805000", "161517.265000", "161517.725000", "161518.185000", "161518.645000", "161519.105000", "161519.565000", "161520.025000", "161520.485000", "161520.945000", "161521.405000", "161521.865000", "161522.325000", "161522.785000", "161523.245000", "161523.705000", "161524.165000", "161524.625000", "161525.085000", "161525.545000", "161526.005000", "161526.465000", "161526.925000", "161527.385000", "161527.845000", "161528.305000", "161528.765000", "161529.225000", "161529.685000", "161530.145000", "161530.605000", "161531.065000", "161531.525000", "161531.985000", "161532.445000", "161532.905000", "161533.365000", "161533.825000", "161534.285000", "161534.745000", "161535.205000", "161535.665000", "161536.125000", "161536.585000", "161537.045000", "161537.505000", "161537.965000", "161538.425000", "161538.885000", "161539.345000", "161539.805000", "161540.265000", "161540.725000", "161541.185000", "161541.645000", "161542.105000", "161542.565000", "161543.025000", "161543.485000", "161543.945000", "161544.405000", "161544.865000", "161545.325000", "161545.785000", "161546.245000", "161546.705000", "161547.165000", "161547.625000", "161548.085000", "161548.545000", "161549.005000", "161549.465000", "161549.925000", "161550.385000", "161550.845000", "161551.305000", "161551.765000", "161552.225000", "161552.685000", "161553.145000", "161553.605000", "161554.065000", "161554.525000", "161554.985000", "161555.445000", "161555.905000", "161556.365000", "161556.825000", "161557.285000", "161557.745000", "161558.205000", "161558.665000", "161559.125000", "161559.585000", "161600.045000", "161600.505000", "161600.965000", "161601.425000", "161601.885000", "161602.345000", "161602.805000", "161603.265000", "161603.725000", "161604.185000", "161604.645000", "161605.105000", "161605.565000", "161606.025000", "161606.485000", "161606.945000", "161607.405000", "161607.865000", "161608.325000", "161608.785000", "161609.245000", "161609.705000", "161610.165000", "161610.625000", "161611.085000", "161611.545000", "161612.005000", "161612.465000", "161612.925000", "161613.385000", "161613.845000", "161614.305000", "161614.765000", "161615.225000", "161615.685000", "161616.145000", "161616.605000", "161617.065000", "161617.525000", "161617.985000", "161618.445000", "161618.905000", "161619.365000", "161619.825000", "161620.285000", "161620.745000", "161621.205000", "161621.665000", "161622.125000", "161622.585000", "161623.045000", "161623.505000", "161623.965000", "161624.425000", "161624.885000", "161625.345000", "161625.805000", "161626.265000", "161626.725000", "161627.185000", "161627.645000", "161628.105000", "161628.565000", "161629.025000", "161629.485000", "161629.945000", "161630.405000", "161630.865000", "161631.325000", "161631.785000", "161632.245000", "161632.705000", "161633.165000", "161633.625000", "161634.085000", "161634.545000", "161635.005000", "161635.465000", "161635.925000", "161636.385000", "161636.845000", "161637.305000", "161637.765000", "161638.225000", "161638.685000", "161639.145000", "161639.605000", "161640.065000", "161640.525000", "161640.985000", "161641.445000", "161641.905000", "161642.365000", "161642.825000", "161643.285000", "161643.745000", "161644.205000", "161644.665000", "161645.125000", "161645.585000", "161646.045000", "161646.505000", "161646.965000", "161647.425000", "161647.885000", "161648.345000", "161648.805000", "161649.265000", "161649.725000", "161650.185000", "161650.645000", "161651.105000", "161651.565000", "161652.025000", "161652.485000", "161652.945000", "161653.405000", "161653.865000", "161654.325000", "161654.785000", "161655.245000", "161655.705000", "161656.165000", "161656.625000", "161657.085000", "161657.545000", "161658.005000", "161658.465000", "161658.925000", "161659.385000", "161659.845000", "161700.305000", "161700.765000", "161701.225000", "161701.685000", "161702.145000", "161702.605000", "161703.065000", "161703.525000", "161703.985000", "161704.445000", "161704.905000", "161705.365000", "161705.825000", "161706.285000", "161706.745000", "161707.205000", "161707.665000", "161708.125000", "161708.585000", "161709.045000", "161709.505000", "161709.965000", "161710.425000", "161710.885000", "161711.345000", "161711.805000", "161712.265000", "161712.725000", "161713.185000", "161713.645000", "161714.105000", "161714.565000", "161715.025000", "161715.485000", "161715.945000", "161716.405000", "161716.865000", "161717.325000", "161717.785000", "161718.245000", "161718.705000", "161719.165000", "161719.625000", "161720.085000", "161720.545000", "161721.005000", "161721.465000", "161721.925000", "161722.385000", "161722.845000", "161723.305000", "161723.765000", "161724.225000", "161724.685000", "161725.145000", "161725.605000", "161726.065000", "161726.525000", "161726.985000", "161727.445000", "161727.905000", "161728.365000", "161728.825000", "161729.285000", "161729.745000", "161730.205000", "161730.665000", "161731.125000", "161731.585000", "161732.045000", "161732.505000", "161732.965000", "161733.425000", "161733.885000", "161734.345000", "161734.805000", "161735.265000", "161735.725000", "161736.185000", "161736.645000", "161737.105000", "161737.565000", "161738.025000", "161738.485000", "161738.945000", "161739.405000", "161739.865000", "161740.325000", "161740.785000", "161741.245000", "161741.705000", "161742.165000", "161742.625000", "161743.085000", "161743.545000", "161744.005000", "161744.465000", "161744.925000", "161745.385000", "161745.845000", "161746.305000", "161746.765000", "161747.225000", "161747.685000", "161748.145000", "161748.605000", "161749.065000", "161749.525000", "161749.985000", "161750.445000", "161750.905000", "161751.365000", "161751.825000", "161752.285000", "161752.745000", "161753.205000", "161753.665000", "161754.125000", "161754.585000", "161755.045000", "161755.505000", "161755.965000", "161756.425000", "161756.885000", "161757.345000", "161757.805000", "161758.265000", "161758.725000", "161759.185000", "161759.645000", "161800.105000", "161800.565000", "161801.025000", "161801.485000", "161801.945000", "161802.405000", "161802.865000", "161803.325000", "161803.785000", "161804.245000", "161804.705000", "161805.165000", "161805.625000", "161806.085000", "161806.545000", "161807.005000", "161807.465000", "161807.925000", "161808.385000", "161808.845000", "161809.305000", "161809.765000", "161810.225000", "161810.685000", "161811.145000", "161811.605000", "161812.065000", "161812.525000", "161812.985000", "161813.445000", "161813.905000", "161814.365000", "161814.825000", "161815.285000", "161815.745000", "161816.205000", "161816.665000", "161817.125000", "161817.585000", "161818.045000", "161818.505000"],
