{
  "AcquisitionMatrixPE": 82,
  "AcquisitionNumber": 1,
  "AcquisitionTime": "16:44:41.530000",
  "BandwidthPerPixelPhaseEncode": 24.888,
  "BaseResolution": 82,
  "BodyPartExamined": "BRAIN",
  "ConsistencyInfo": "N4_VE11E_LATEST_20181129",
  "ConversionSoftware": "dcm2niix",
  "ConversionSoftwareVersion": "v1.0.20201102",
  "DerivedVendorReportedEchoSpacing": 0.00049,
  "DeviceSerialNumber": "66112",
  "DwellTime": 2e-06,
  "EchoTime": 0.0272,
  "EchoTrainLength": 82,
  "EffectiveEchoSpacing": 0.00049,
  "FlipAngle": 44,
  "ImageComments": "Unaliased MB8/PE3",
  "ImageOrientationPatientDICOM": [0.999983, 0.00454059, 0.00364012, -0.00488687, 0.994816, 0.101572],
  "ImageType": [
    "ORIGINAL",
    "PRIMARY",
    "M",
    "MB",
    "ND",
    "NORM",
    "MOSAIC"
],
  "ImagingFrequency": 123.259,
  "InPlanePhaseEncodingDirectionDICOM": "COL",
  "InstitutionAddress": "Maynard 3,Hanover,NH,US,03755",
  "InstitutionName": "Dartmouth College - PBS",
  "InstitutionalDepartmentName": "Department",
  "MRAcquisitionType": "2D",
  "MagneticFieldStrength": 3,
  "Manufacturer": "Siemens",
  "ManufacturersModelName": "Prisma",
  "Modality": "MR",
  "MultibandAccelerationFactor": 8,
  "PartialFourier": 1,
  "PatientPosition": "HFS",
  "PercentPhaseFOV": 100,
  "PercentSampling": 100,
  "PhaseEncodingDirection": "j-",
  "PhaseEncodingSteps": 82,
  "PhaseResolution": 1,
  "PixelBandwidth": 3050,
  "ProcedureStepDescription": "Wager_Wager^1076_spacetop",
  "ProtocolName": "func_run-01_task-alignvideo_acq-ap-mb8",
  "PulseSequenceDetails": "%CustomerSeq%\\cmrr_mbep2d_bold",
  "ReceiveCoilActiveElements": "HEA;HEP",
  "ReceiveCoilName": "Head_32",
  "ReconMatrixPE": 82,
  "RepetitionTime": 0.46,
  "SAR": 0.083938,
  "ScanOptions": "FS",
  "ScanningSequence": "EP",
  "SequenceName": "epfid2d1_82",
  "SequenceVariant": "SK\\SS",
  "SeriesDescription": "func_run-01_task-alignvideo_acq-ap-mb8",
  "SeriesNumber": 31,
  "ShimSetting": [4205, -7792, -7220, 348, -97, -26, -123, 73],
  "SliceThickness": 2.7,
  "SliceTiming": [0, 0.2525, 0.0625, 0.315, 0.125, 0.3775, 0.19, 0, 0.2525, 0.0625, 0.315, 0.125, 0.3775, 0.19, 0, 0.2525, 0.0625, 0.315, 0.125, 0.3775, 0.19, 0, 0.2525, 0.0625, 0.315, 0.125, 0.3775, 0.19, 0, 0.2525, 0.0625, 0.315, 0.125, 0.3775, 0.19, 0, 0.2525, 0.0625, 0.315, 0.125, 0.3775, 0.19, 0, 0.2525, 0.0625, 0.315, 0.125, 0.3775, 0.19, 0, 0.2525, 0.0625, 0.315, 0.125, 0.3775, 0.19],
  "SoftwareVersions": "syngo MR E11",
  "SpacingBetweenSlices": 2.7,
  "StationName": "AWP66112",
  "TaskName": "alignvideo",
  "TotalReadoutTime": 0.03969,
  "TxRefAmp": 218.897,
  "WipMemBlock": "2ff5cc43-ab7a-44b2-ad3b-0818f71abd01||Sequence: R016 ve11e/master r/434b28f1; Aug  7 2019 18:53:46 by eja",
  "dcmmeta_affine": [
    [-2.6828813552856445, -0.013111112639307976, 0.008532129228115082, 113.51448059082031],
    [-0.012182069942355156, 2.6690189838409424, 0.27428823709487915, -110.91435241699219],
    [0.009766162373125553, -0.27251070737838745, 2.6860179901123047, -50.679378509521484],
    [0.0, 0.0, 0.0, 1.0]
],
  "dcmmeta_reorient_transform": [
    [0.0, -1.0, 0.0, 81.0],
    [1.0, 0.0, 0.0, 0.0],
    [0.0, 0.0, 1.0, 0.0],
    [0.0, 0.0, 0.0, 1.0]
],
  "dcmmeta_shape": [82, 82, 56, 1073],
  "dcmmeta_slice_dim": 2,
  "dcmmeta_version": 0.6,
  "global": {
    "const": {
      "AccessionNumber": "A004537",
      "AcquisitionMatrix": [82, 0, 0, 82],
      "AngioFlag": "N",
      "BitsAllocated": 16,
      "BitsStored": 16,
      "BodyPartExamined": "BRAIN",
      "Columns": 656,
      "EchoNumbers": 1,
      "EchoTime": 27.2,
      "EchoTrainLength": 82,
      "FlipAngle": 44.0,
      "HighBit": 15,
      "ImageOrientationPatient": [0.99998306616008, 0.0045405897699, 0.00364011505763, -0.0048868692531, 0.99481617073052, 0.1015721662759],
      "ImagePositionPatient": [-878.67657269277, -874.78091453983, -153.76620354926],
      "ImageType": [
        "ORIGINAL",
        "PRIMARY",
        "M",
        "MB",
        "ND",
        "NORM",
        "MOSAIC"
],
      "ImagedNucleus": "1H",
      "ImagingFrequency": 123.259087,
      "InPlanePhaseEncodingDirection": "COL",
      "MRAcquisitionType": "2D",
      "MagneticFieldStrength": 3.0,
      "Manufacturer": "SIEMENS",
      "ManufacturerModelName": "Prisma",
      "Modality": "MR",
      "NumberOfAverages": 1.0,
      "NumberOfPhaseEncodingSteps": 82,
      "PercentPhaseFieldOfView": 100.0,
      "PercentSampling": 100.0,
      "PerformedProcedureStepStartTime": "152502.001000",
      "PhotometricInterpretation": "MONOCHROME2",
      "PixelBandwidth": 3050.0,
      "PixelRepresentation": 0,
      "PixelSpacing": [2.6829268932343, 2.6829268932343],
      "ProtocolName": "func_run-01_task-alignvideo_acq-ap-mb8",
      "RepetitionTime": 460.0,
      "Rows": 656,
      "SAR": 0.08393803082165,
      "SamplesPerPixel": 1,
      "ScanOptions": "FS",
      "ScanningSequence": "EP",
      "SequenceName": "epfid2d1_82",
      "SequenceVariant": [
        "SK",
        "SS"
],
      "SeriesDescription": "func_run-01_task-alignvideo_acq-ap-mb8",
      "SeriesNumber": 31,
      "SeriesTime": "164502.826000",
      "SliceLocation": -61.325818301081,
      "SliceThickness": 2.7000000476837,
      "SmallestImagePixelValue": 0,
      "SoftwareVersions": "syngo MR E11",
      "SpacingBetweenSlices": 2.6999999360662,
      "SpecificCharacterSet": "ISO_IR 100",
      "StudyID": "1",
      "StudyTime": "152501.926000",
      "TransmitCoilName": "Body",
      "VariableFlipAngleFlag": "N",
      "WindowCenterWidthExplanation": "Algo1"
    },
    "slices": {}
  },
  "time": {
    "samples": {
      "AcquisitionNumber": [1, 2, 3, 4, 5, 6, 7, 8, 9, 10, 11, 12, 13, 14, 15, 16, 17, 18, 19, 20, 21, 22, 23, 24, 25, 26, 27, 28, 29, 30, 31, 32, 33, 34, 35, 36, 37, 38, 39, 40, 41, 42, 43, 44, 45, 46, 47, 48, 49, 50, 51, 52, 53, 54, 55, 56, 57, 58, 59, 60, 61, 62, 63, 64, 65, 66, 67, 68, 69, 70, 71, 72, 73, 74, 75, 76, 77, 78, 79, 80, 81, 82, 83, 84, 85, 86, 87, 88, 89, 90, 91, 92, 93, 94, 95, 96, 97, 98, 99, 100, 101, 102, 103, 104, 105, 106, 107, 108, 109, 110, 111, 112, 113, 114, 115, 116, 117, 118, 119, 120, 121, 122, 123, 124, 125, 126, 127, 128, 129, 130, 131, 132, 133, 134, 135, 136, 137, 138, 139, 140, 141, 142, 143, 144, 145, 146, 147, 148, 149, 150, 151, 152, 153, 154, 155, 156, 157, 158, 159, 160, 161, 162, 163, 164, 165, 166, 167, 168, 169, 170, 171, 172, 173, 174, 175, 176, 177, 178, 179, 180, 181, 182, 183, 184, 185, 186, 187, 188, 189, 190, 191, 192, 193, 194, 195, 196, 197, 198, 199, 200, 201, 202, 203, 204, 205, 206, 207, 208, 209, 210, 211, 212, 213, 214, 215, 216, 217, 218, 219, 220, 221, 222, 223, 224, 225, 226, 227, 228, 229, 230, 231, 232, 233, 234, 235, 236, 237, 238, 239, 240, 241, 242, 243, 244, 245, 246, 247, 248, 249, 250, 251, 252, 253, 254, 255, 256, 257, 258, 259, 260, 261, 262, 263, 264, 265, 266, 267, 268, 269, 270, 271, 272, 273, 274, 275, 276, 277, 278, 279, 280, 281, 282, 283, 284, 285, 286, 287, 288, 289, 290, 291, 292, 293, 294, 295, 296, 297, 298, 299, 300, 301, 302, 303, 304, 305, 306, 307, 308, 309, 310, 311, 312, 313, 314, 315, 316, 317, 318, 319, 320, 321, 322, 323, 324, 325, 326, 327, 328, 329, 330, 331, 332, 333, 334, 335, 336, 337, 338, 339, 340, 341, 342, 343, 344, 345, 346, 347, 348, 349, 350, 351, 352, 353, 354, 355, 356, 357, 358, 359, 360, 361, 362, 363, 364, 365, 366, 367, 368, 369, 370, 371, 372, 373, 374, 375, 376, 377, 378, 379, 380, 381, 382, 383, 384, 385, 386, 387, 388, 389, 390, 391, 392, 393, 394, 395, 396, 397, 398, 399, 400, 401, 402, 403, 404, 405, 406, 407, 408, 409, 410, 411, 412, 413, 414, 415, 416, 417, 418, 419, 420, 421, 422, 423, 424, 425, 426, 427, 428, 429, 430, 431, 432, 433, 434, 435, 436, 437, 438, 439, 440, 441, 442, 443, 444, 445, 446, 447, 448, 449, 450, 451, 452, 453, 454, 455, 456, 457, 458, 459, 460, 461, 462, 463, 464, 465, 466, 467, 468, 469, 470, 471, 472, 473, 474, 475, 476, 477, 478, 479, 480, 481, 482, 483, 484, 485, 486, 487, 488, 489, 490, 491, 492, 493, 494, 495, 496, 497, 498, 499, 500, 501, 502, 503, 504, 505, 506, 507, 508, 509, 510, 511, 512, 513, 514, 515, 516, 517, 518, 519, 520, 521, 522, 523, 524, 525, 526, 527, 528, 529, 530, 531, 532, 533, 534, 535, 536, 537, 538, 539, 540, 541, 542, 543, 544, 545, 546, 547, 548, 549, 550, 551, 552, 553, 554, 555, 556, 557, 558, 559, 560, 561, 562, 563, 564, 565, 566, 567, 568, 569, 570, 571, 572, 573, 574, 575, 576, 577, 578, 579, 580, 581, 582, 583, 584, 585, 586, 587, 588, 589, 590, 591, 592, 593, 594, 595, 596, 597, 598, 599, 600, 601, 602, 603, 604, 605, 606, 607, 608, 609, 610, 611, 612, 613, 614, 615, 616, 617, 618, 619, 620, 621, 622, 623, 624, 625, 626, 627, 628, 629, 630, 631, 632, 633, 634, 635, 636, 637, 638, 639, 640, 641, 642, 643, 644, 645, 646, 647, 648, 649, 650, 651, 652, 653, 654, 655, 656, 657, 658, 659, 660, 661, 662, 663, 664, 665, 666, 667, 668, 669, 670, 671, 672, 673, 674, 675, 676, 677, 678, 679, 680, 681, 682, 683, 684, 685, 686, 687, 688, 689, 690, 691, 692, 693, 694, 695, 696, 697, 698, 699, 700, 701, 702, 703, 704, 705, 706, 707, 708, 709, 710, 711, 712, 713, 714, 715, 716, 717, 718, 719, 720, 721, 722, 723, 724, 725, 726, 727, 728, 729, 730, 731, 732, 733, 734, 735, 736, 737, 738, 739, 740, 741, 742, 743, 744, 745, 746, 747, 748, 749, 750, 751, 752, 753, 754, 755, 756, 757, 758, 759, 760, 761, 762, 763, 764, 765, 766, 767, 768, 769, 770, 771, 772, 773, 774, 775, 776, 777, 778, 779, 780, 781, 782, 783, 784, 785, 786, 787, 788, 789, 790, 791, 792, 793, 794, 795, 796, 797, 798, 799, 800, 801, 802, 803, 804, 805, 806, 807, 808, 809, 810, 811, 812, 813, 814, 815, 816, 817, 818, 819, 820, 821, 822, 823, 824, 825, 826, 827, 828, 829, 830, 831, 832, 833, 834, 835, 836, 837, 838, 839, 840, 841, 842, 843, 844, 845, 846, 847, 848, 849, 850, 851, 852, 853, 854, 855, 856, 857, 858, 859, 860, 861, 862, 863, 864, 865, 866, 867, 868, 869, 870, 871, 872, 873, 874, 875, 876, 877, 878, 879, 880, 881, 882, 883, 884, 885, 886, 887, 888, 889, 890, 891, 892, 893, 894, 895, 896, 897, 898, 899, 900, 901, 902, 903, 904, 905, 906, 907, 908, 909, 910, 911, 912, 913, 914, 915, 916, 917, 918, 919, 920, 921, 922, 923, 924, 925, 926, 927, 928, 929, 930, 931, 932, 933, 934, 935, 936, 937, 938, 939, 940, 941, 942, 943, 944, 945, 946, 947, 948, 949, 950, 951, 952, 953, 954, 955, 956, 957, 958, 959, 960, 961, 962, 963, 964, 965, 966, 967, 968, 969, 970, 971, 972, 973, 974, 975, 976, 977, 978, 979, 980, 981, 982, 983, 984, 985, 986, 987, 988, 989, 990, 991, 992, 993, 994, 995, 996, 997, 998, 999, 1000, 1001, 1002, 1003, 1004, 1005, 1006, 1007, 1008, 1009, 1010, 1011, 1012, 1013, 1014, 1015, 1016, 1017, 1018, 1019, 1020, 1021, 1022, 1023, 1024, 1025, 1026, 1027, 1028, 1029, 1030, 1031, 1032, 1033, 1034, 1035, 1036, 1037, 1038, 1039, 1040, 1041, 1042, 1043, 1044, 1045, 1046, 1047, 1048, 1049, 1050, 1051, 1052, 1053, 1054, 1055, 1056, 1057, 1058, 1059, 1060, 1061, 1062, 1063, 1064, 1065, 1066, 1067, 1068, 1069, 1070, 1071, 1072, 1073],
      "AcquisitionTime": ["164441.530000", "164441.990000", "164442.450000", "164442.910000", "164443.370000", "164443.830000", "164444.290000", "164444.750000", "164445.210000", "164445.670000", "164446.130000", "164446.590000", "164447.050000", "164447.510000", "164447.970000", "164448.430000", "164448.890000", "164449.350000", "164449.810000", "164450.270000", "164450.730000", "164451.190000", "164451.650000", "164452.110000", "164452.570000", "164453.030000", "164453.490000", "164453.950000", "164454.410000", "164454.870000", "164455.330000", "164455.790000", "164456.250000", "164456.710000", "164457.170000", "164457.630000", "164458.090000", "164458.550000", "164459.010000", "164459.470000", "164459.930000", "164500.390000", "164500.850000", "164501.310000", "164501.770000", "164502.230000", "164502.690000", "164503.150000", "164503.610000", "164504.070000", "164504.530000", "164504.990000", "164505.450000", "164505.910000", "164506.370000", "164506.830000", "164507.290000", "164507.750000", "164508.210000", "164508.670000", "164509.130000", "164509.590000", "164510.050000", "164510.510000", "164510.970000", "164511.430000", "164511.890000", "164512.350000", "164512.810000", "164513.270000", "164513.730000", "164514.190000", "164514.650000", "164515.110000", "164515.570000", "164516.030000", "164516.490000", "164516.950000", "164517.410000", "164517.870000", "164518.330000", "164518.790000", "164519.250000", "164519.710000", "164520.170000", "164520.630000", "164521.090000", "164521.550000", "164522.010000", "164522.470000", "164522.930000", "164523.390000", "164523.850000", "164524.310000", "164524.770000", "164525.230000", "164525.690000", "164526.150000", "164526.610000", "164527.070000", "164527.530000", "164527.990000", "164528.450000", "164528.910000", "164529.370000", "164529.830000", "164530.290000", "164530.750000", "164531.210000", "164531.670000", "164532.130000", "164532.590000", "164533.050000", "164533.510000", "164533.970000", "164534.430000", "164534.890000", "164535.350000", "164535.810000", "164536.270000", "164536.730000", "164537.190000", "164537.650000", "164538.110000", "164538.570000", "164539.030000", "164539.490000", "164539.950000", "164540.410000", "164540.870000", "164541.330000", "164541.790000", "164542.250000", "164542.710000", "164543.170000", "164543.630000", "164544.090000", "164544.550000", "164545.010000", "164545.470000", "164545.930000", "164546.390000", "164546.850000", "164547.310000", "164547.770000", "164548.230000", "164548.690000", "164549.150000", "164549.610000", "164550.070000", "164550.530000", "164550.990000", "164551.450000", "164551.910000", "164552.370000", "164552.830000", "164553.290000", "164553.750000", "164554.210000", "164554.670000", "164555.130000", "164555.590000", "164556.050000", "164556.510000", "164556.970000", "164557.430000", "164557.890000", "164558.350000", "164558.810000", "164559.270000", "164559.730000", "164600.190000", "164600.650000", "164601.110000", "164601.570000", "164602.030000", "164602.490000", "164602.950000", "164603.410000", "164603.870000", "164604.330000", "164604.790000", "164605.250000", "164605.710000", "164606.170000", "164606.630000", "164607.090000", "164607.550000", "164608.010000", "164608.470000", "164608.930000", "164609.390000", "164609.850000", "164610.310000", "164610.770000", "164611.230000", "164611.690000", "164612.150000", "164612.610000", "164613.070000", "164613.530000", "164613.990000", "164614.450000", "164614.910000", "164615.370000", "164615.830000", "164616.290000", "164616.750000", "164617.210000", "164617.670000", "164618.130000", "164618.590000", "164619.050000", "164619.510000", "164619.970000", "164620.430000", "164620.890000", "164621.350000", "164621.810000", "164622.270000", "164622.730000", "164623.190000", "164623.650000", "164624.110000", "164624.570000", "164625.030000", "164625.490000", "164625.950000", "164626.410000", "164626.870000", "164627.330000", "164627.790000", "164628.250000", "164628.710000", "164629.170000", "164629.630000", "164630.090000", "164630.550000", "164631.010000", "164631.470000", "164631.930000", "164632.390000", "164632.850000", "164633.310000", "164633.770000", "164634.230000", "164634.690000", "164635.150000", "164635.610000", "164636.070000", "164636.530000", "164636.990000", "164637.450000", "164637.910000", "164638.370000", "164638.830000", "164639.290000", "164639.750000", "164640.210000", "164640.670000", "164641.130000", "164641.590000", "164642.050000", "164642.510000", "164642.970000", "164643.430000", "164643.890000", "164644.350000", "164644.810000", "164645.270000", "164645.730000", "164646.190000", "164646.650000", "164647.110000", "164647.570000", "164648.030000", "164648.490000", "164648.950000", "164649.410000", "164649.870000", "164650.330000", "164650.790000", "164651.250000", "164651.710000", "164652.170000", "164652.630000", "164653.090000", "164653.550000", "164654.010000", "164654.470000", "164654.930000", "164655.390000", "164655.850000", "164656.310000", "164656.770000", "164657.230000", "164657.690000", "164658.150000", "164658.610000", "164659.070000", "164659.530000", "164659.990000", "164700.450000", "164700.910000", "164701.370000", "164701.830000", "164702.290000", "164702.750000", "164703.210000", "164703.670000", "164704.130000", "164704.590000", "164705.050000", "164705.510000", "164705.970000", "164706.430000", "164706.890000", "164707.350000", "164707.810000", "164708.270000", "164708.730000", "164709.190000", "164709.650000", "164710.110000", "164710.570000", "164711.030000", "164711.490000", "164711.950000", "164712.410000", "164712.870000", "164713.330000", "164713.790000", "164714.250000", "164714.710000", "164715.170000", "164715.630000", "164716.090000", "164716.550000", "164717.010000", "164717.470000", "164717.930000", "164718.390000", "164718.850000", "164719.310000", "164719.770000", "164720.230000", "164720.690000", "164721.150000", "164721.610000", "164722.070000", "164722.530000", "164722.990000", "164723.450000", "164723.910000", "164724.370000", "164724.830000", "164725.290000", "164725.750000", "164726.210000", "164726.670000", "164727.130000", "164727.590000", "164728.050000", "164728.510000", "164728.970000", "164729.430000", "164729.890000", "164730.350000", "164730.810000", "164731.270000", "164731.730000", "164732.190000", "164732.650000", "164733.110000", "164733.570000", "164734.030000", "164734.490000", "164734.950000", "164735.410000", "164735.870000", "164736.330000", "164736.790000", "164737.250000", "164737.710000", "164738.170000", "164738.630000", "164739.090000", "164739.550000", "164740.010000", "164740.470000", "164740.930000", "164741.390000", "164741.850000", "164742.310000", "164742.770000", "164743.230000", "164743.690000", "164744.150000", "164744.610000", "164745.070000", "164745.530000", "164745.990000", "164746.450000", "164746.910000", "164747.370000", "164747.830000", "164748.290000", "164748.750000", "164749.210000", "164749.670000", "164750.130000", "164750.590000", "164751.050000", "164751.510000", "164751.970000", "164752.430000", "164752.890000", "164753.350000", "164753.810000", "164754.270000", "164754.730000", "164755.190000", "164755.650000", "164756.110000", "164756.570000", "164757.030000", "164757.490000", "164757.950000", "164758.410000", "164758.870000", "164759.330000", "164759.790000", "164800.250000", "164800.710000", "164801.170000", "164801.630000", "164802.090000", "164802.550000", "164803.010000", "164803.470000", "164803.930000", "164804.390000", "164804.850000", "164805.310000", "164805.770000", "164806.230000", "164806.690000", "164807.150000", "164807.610000", "164808.070000", "164808.530000", "164808.990000", "164809.450000", "164809.910000", "164810.370000", "164810.830000", "164811.290000", "164811.750000", "164812.210000", "164812.670000", "164813.130000", "164813.590000", "164814.050000", "164814.510000", "164814.970000", "164815.430000", "164815.890000", "164816.350000", "164816.810000", "164817.270000", "164817.730000", "164818.190000", "164818.650000", "164819.110000", "164819.570000", "164820.030000", "164820.490000", "164820.950000", "164821.410000", "164821.870000", "164822.330000", "164822.790000", "164823.250000", "164823.710000", "164824.170000", "164824.630000", "164825.090000", "164825.550000", "164826.010000", "164826.470000", "164826.930000", "164827.390000", "164827.850000", "164828.310000", "164828.770000", "164829.230000", "164829.690000", "164830.150000", "164830.610000", "164831.070000", "164831.530000", "164831.990000", "164832.450000", "164832.910000", "164833.370000", "164833.830000", "164834.290000", "164834.750000", "164835.210000", "164835.670000", "164836.130000", "164836.590000", "164837.050000", "164837.510000", "164837.970000", "164838.430000", "164838.890000", "164839.350000", "164839.810000", "164840.270000", "164840.730000", "164841.190000", "164841.650000", "164842.110000", "164842.570000", "164843.030000", "164843.490000", "164843.950000", "164844.410000", "164844.870000", "164845.330000", "164845.790000", "164846.250000", "164846.710000", "164847.170000", "164847.630000", "164848.090000", "164848.550000", "164849.010000", "164849.470000", "164849.930000", "164850.390000", "164850.850000", "164851.310000", "164851.770000", "164852.230000", "164852.690000", "164853.150000", "164853.610000", "164854.070000", "164854.530000", "164854.990000", "164855.450000", "164855.910000", "164856.370000", "164856.830000", "164857.290000", "164857.750000", "164858.210000", "164858.670000", "164859.130000", "164859.590000", "164900.050000", "164900.510000", "164900.970000", "164901.430000", "164901.890000", "164902.350000", "164902.810000", "164903.270000", "164903.730000", "164904.190000", "164904.650000", "164905.110000", "164905.570000", "164906.030000", "164906.490000", "164906.950000", "164907.410000", "164907.870000", "164908.330000", "164908.790000", "164909.250000", "164909.710000", "164910.170000", "164910.630000", "164911.090000", "164911.550000", "164912.010000", "164912.470000", "164912.930000", "164913.390000", "164913.850000", "164914.310000", "164914.770000", "164915.230000", "164915.690000", "164916.150000", "164916.610000", "164917.070000", "164917.530000", "164917.990000", "164918.450000", "164918.910000", "164919.370000", "164919.830000", "164920.290000", "164920.750000", "164921.210000", "164921.670000", "164922.130000", "164922.590000", "164923.050000", "164923.510000", "164923.970000", "164924.430000", "164924.890000", "164925.350000", "164925.810000", "164926.270000", "164926.730000", "164927.190000", "164927.650000", "164928.110000", "164928.570000", "164929.030000", "164929.490000", "164929.950000", "164930.410000", "164930.870000", "164931.330000", "164931.790000", "164932.250000", "164932.710000", "164933.170000", "164933.630000", "164934.090000", "164934.550000", "164935.010000", "164935.470000", "164935.930000", "164936.390000", "164936.850000", "164937.310000", "164937.770000", "164938.230000", "164938.690000", "164939.150000", "164939.610000", "164940.070000", "164940.530000", "164940.990000", "164941.450000", "164941.910000", "164942.370000", "164942.830000", "164943.290000", "164943.750000", "164944.210000", "164944.670000", "164945.130000", "164945.590000", "164946.050000", "164946.510000", "164946.970000", "164947.430000", "164947.890000", "164948.350000", "164948.810000", "164949.270000", "164949.730000", "164950.190000", "164950.650000", "164951.110000", "164951.570000", "164952.030000", "164952.490000", "164952.950000", "164953.410000", "164953.870000", "164954.330000", "164954.790000", "164955.250000", "164955.710000", "164956.170000", "164956.630000", "164957.090000", "164957.550000", "164958.010000", "164958.470000", "164958.930000", "164959.390000", "164959.850000", "165000.310000", "165000.770000", "165001.230000", "165001.690000", "165002.150000", "165002.610000", "165003.070000", "165003.530000", "165003.990000", "165004.450000", "165004.910000", "165005.370000", "165005.830000", "165006.290000", "165006.750000", "165007.210000", "165007.670000", "165008.130000", "165008.590000", "165009.050000", "165009.510000", "165009.970000", "165010.430000", "165010.890000", "165011.350000", "165011.810000", "165012.270000", "165012.730000", "165013.190000", "165013.650000", "165014.110000", "165014.570000", "165015.030000", "165015.490000", "165015.950000", "165016.410000", "165016.870000", "165017.330000", "165017.790000", "165018.250000", "165018.710000", "165019.170000", "165019.630000", "165020.090000", "165020.550000", "165021.010000", "165021.470000", "165021.930000", "165022.390000", "165022.850000", "165023.310000", "165023.770000", "165024.230000", "165024.690000", "165025.150000", "165025.610000", "165026.070000", "165026.530000", "165026.990000", "165027.450000", "165027.910000", "165028.370000", "165028.830000", "165029.290000", "165029.750000", "165030.210000", "165030.670000", "165031.130000", "165031.590000", "165032.050000", "165032.510000", "165032.970000", "165033.430000", "165033.890000", "165034.350000", "165034.810000", "165035.270000", "165035.730000", "165036.190000", "165036.650000", "165037.110000", "165037.570000", "165038.030000", "165038.490000", "165038.950000", "165039.410000", "165039.870000", "165040.330000", "165040.790000", "165041.250000", "165041.710000", "165042.170000", "165042.630000", "165043.090000", "165043.550000", "165044.010000", "165044.470000", "165044.930000", "165045.390000", "165045.850000", "165046.310000", "165046.770000", "165047.230000", "165047.690000", "165048.150000", "165048.610000", "165049.070000", "165049.530000", "165049.990000", "165050.450000", "165050.910000", "165051.370000", "165051.830000", "165052.290000", "165052.750000", "165053.210000", "165053.670000", "165054.130000", "165054.590000", "165055.050000", "165055.510000", "165055.970000", "165056.430000", "165056.890000", "165057.350000", "165057.810000", "165058.270000", "165058.730000", "165059.190000", "165059.650000", "165100.110000", "165100.570000", "165101.030000", "165101.490000", "165101.950000", "165102.410000", "165102.870000", "165103.330000", "165103.790000", "165104.250000", "165104.710000", "165105.170000", "165105.630000", "165106.090000", "165106.550000", "165107.010000", "165107.470000", "165107.930000", "165108.390000", "165108.850000", "165109.310000", "165109.770000", "165110.230000", "165110.690000", "165111.150000", "165111.610000", "165112.070000", "165112.530000", "165112.990000", "165113.450000", "165113.910000", "165114.370000", "165114.830000", "165115.290000", "165115.750000", "165116.210000", "165116.670000", "165117.130000", "165117.590000", "165118.050000", "165118.510000", "165118.970000", "165119.430000", "165119.890000", "165120.350000", "165120.810000", "165121.270000", "165121.730000", "165122.190000", "165122.650000", "165123.110000", "165123.570000", "165124.030000", "165124.490000", "165124.950000", "165125.410000", "165125.870000", "165126.330000", "165126.790000", "165127.250000", "165127.710000", "165128.170000", "165128.630000", "165129.090000", "165129.550000", "165130.010000", "165130.470000", "165130.930000", "165131.390000", "165131.850000", "165132.310000", "165132.770000", "165133.230000", "165133.690000", "165134.150000", "165134.610000", "165135.070000", "165135.530000", "165135.990000", "165136.450000", "165136.910000", "165137.370000", "165137.830000", "165138.290000", "165138.750000", "165139.210000", "165139.670000", "165140.130000", "165140.590000", "165141.050000", "165141.510000", "165141.970000", "165142.430000", "165142.890000", "165143.350000", "165143.810000", "165144.270000", "165144.730000", "165145.190000", "165145.650000", "165146.110000", "165146.570000", "165147.030000", "165147.490000", "165147.950000", "165148.410000", "165148.870000", "165149.330000", "165149.790000", "165150.250000", "165150.710000", "165151.170000", "165151.630000", "165152.090000", "165152.550000", "165153.010000", "165153.470000", "165153.930000", "165154.390000", "165154.850000", "165155.310000", "165155.770000", "165156.230000", "165156.690000", "165157.150000", "165157.610000", "165158.070000", "165158.530000", "165158.990000", "165159.450000", "165159.910000", "165200.370000", "165200.830000", "165201.290000", "165201.750000", "165202.210000", "165202.670000", "165203.130000", "165203.590000", "165204.050000", "165204.510000", "165204.970000", "165205.430000", "165205.890000", "165206.350000", "165206.810000", "165207.270000", "165207.730000", "165208.190000", "165208.650000", "165209.110000", "165209.570000", "165210.030000", "165210.490000", "165210.950000", "165211.410000", "165211.870000", "165212.330000", "165212.790000", "165213.250000", "165213.710000", "165214.170000", "165214.630000", "165215.090000", "165215.550000", "165216.010000", "165216.470000", "165216.930000", "165217.390000", "165217.850000", "165218.310000", "165218.770000", "165219.230000", "165219.690000", "165220.150000", "165220.610000", "165221.070000", "165221.530000", "165221.990000", "165222.450000", "165222.910000", "165223.370000", "165223.830000", "165224.290000", "165224.750000", "165225.210000", "165225.670000", "165226.130000", "165226.590000", "165227.050000", "165227.510000", "165227.970000", "165228.430000", "165228.890000", "165229.350000", "165229.810000", "165230.270000", "165230.730000", "165231.190000", "165231.650000", "165232.110000", "165232.570000", "165233.030000", "165233.490000", "165233.950000", "165234.410000", "165234.870000", "165235.330000", "165235.790000", "165236.250000", "165236.710000", "165237.170000", "165237.630000", "165238.090000", "165238.550000", "165239.010000", "165239.470000", "165239.930000", "165240.390000", "165240.850000", "165241.310000", "165241.770000", "165242.230000", "165242.690000", "165243.150000", "165243.610000", "165244.070000", "165244.530000", "165244.990000", "165245.450000", "165245.910000", "165246.370000", "165246.830000", "165247.290000", "165247.750000", "165248.210000", "165248.670000", "165249.130000", "165249.590000", "165250.050000", "165250.510000", "165250.970000", "165251.430000", "165251.890000", "165252.350000", "165252.810000", "165253.270000", "165253.730000", "165254.190000", "165254.650000"],
