{
  "AcquisitionMatrixPE": 82,
  "AcquisitionNumber": 1,
  "AcquisitionTime": "15:57:30.782500",
  "BandwidthPerPixelPhaseEncode": 24.888,
  "BaseResolution": 82,
  "BodyPartExamined": "BRAIN",
  "ConsistencyInfo": "N4_VE11E_LATEST_20181129",
  "ConversionSoftware": "dcm2niix",
  "ConversionSoftwareVersion": "v1.0.20201102",
  "DerivedVendorReportedEchoSpacing": 0.00049,
  "DeviceSerialNumber": "66112",
  "DwellTime": 2e-06,
  "EchoTime": 0.0272,
  "EchoTrainLength": 82,
  "EffectiveEchoSpacing": 0.00049,
  "FlipAngle": 44,
  "ImageComments": "Unaliased MB8/PE3",
  "ImageOrientationPatientDICOM": [0.9987, -0.0280649, -0.0425566, 0.0326068, 0.993387, 0.110091],
  "ImageType": [
    "ORIGINAL",
    "PRIMARY",
    "M",
    "MB",
    "ND",
    "NORM",
    "MOSAIC"
],
  "ImagingFrequency": 123.259,
  "InPlanePhaseEncodingDirectionDICOM": "COL",
  "InstitutionAddress": "Maynard 3,Hanover,NH,US,03755",
  "InstitutionName": "Dartmouth College - PBS",
  "InstitutionalDepartmentName": "Department",
  "MRAcquisitionType": "2D",
  "MagneticFieldStrength": 3,
  "Manufacturer": "Siemens",
  "ManufacturersModelName": "Prisma",
  "Modality": "MR",
  "MultibandAccelerationFactor": 8,
  "PartialFourier": 1,
  "PatientPosition": "HFS",
  "PercentPhaseFOV": 100,
  "PercentSampling": 100,
  "PhaseEncodingDirection": "j-",
  "PhaseEncodingSteps": 82,
  "PhaseResolution": 1,
  "PixelBandwidth": 3050,
  "ProcedureStepDescription": "Wager_Wager^1076_spacetop",
  "ProtocolName": "func_run-01_task-social_acq-ap-mb8",
  "PulseSequenceDetails": "%CustomerSeq%\\cmrr_mbep2d_bold",
  "ReceiveCoilActiveElements": "HEA;HEP",
  "ReceiveCoilName": "Head_32",
  "ReconMatrixPE": 82,
  "RepetitionTime": 0.46,
  "SAR": 0.0838403,
  "ScanOptions": "FS",
  "ScanningSequence": "EP",
  "SequenceName": "epfid2d1_82",
  "SequenceVariant": "SK\\SS",
  "SeriesDescription": "func_run-01_task-social_acq-ap-mb8",
  "SeriesNumber": 13,
  "ShimSetting": [4205, -7793, -7220, 353, -96, -30, -124, 70],
  "SliceThickness": 2.7,
  "SliceTiming": [0, 0.2525, 0.0625, 0.315, 0.125, 0.3775, 0.1875, 0, 0.2525, 0.0625, 0.315, 0.125, 0.3775, 0.1875, 0, 0.2525, 0.0625, 0.315, 0.125, 0.3775, 0.1875, 0, 0.2525, 0.0625, 0.315, 0.125, 0.3775, 0.1875, 0, 0.2525, 0.0625, 0.315, 0.125, 0.3775, 0.1875, 0, 0.2525, 0.0625, 0.315, 0.125, 0.3775, 0.1875, 0, 0.2525, 0.0625, 0.315, 0.125, 0.3775, 0.1875, 0, 0.2525, 0.0625, 0.315, 0.125, 0.3775, 0.1875],
  "SoftwareVersions": "syngo MR E11",
  "SpacingBetweenSlices": 2.7,
  "StationName": "AWP66112",
  "TaskName": "social",
  "TotalReadoutTime": 0.03969,
  "TxRefAmp": 218.897,
  "WipMemBlock": "5390b92e-df43-4046-bafa-b8e94bc2cf44||Sequence: R016 ve11e/master r/434b28f1; Aug  7 2019 18:53:46 by eja",
  "dcmmeta_affine": [
    [-2.679438591003418, 0.08748164027929306, -0.1058008149266243, 112.49258422851562],
    [0.07529605180025101, 2.6651833057403564, 0.30060654878616333, -113.4033203125],
    [-0.11417634040117264, -0.2953668236732483, 2.6811270713806152, -45.4360466003418],
    [0.0, 0.0, 0.0, 1.0]
],
  "dcmmeta_reorient_transform": [
    [0.0, -1.0, 0.0, 81.0],
    [1.0, 0.0, 0.0, 0.0],
    [0.0, 0.0, 1.0, 0.0],
    [0.0, 0.0, 0.0, 1.0]
],
  "dcmmeta_shape": [82, 82, 56, 872],
  "dcmmeta_slice_dim": 2,
  "dcmmeta_version": 0.6,
  "global": {
    "const": {
      "AccessionNumber": "A004537",
      "AcquisitionMatrix": [82, 0, 0, 82],
      "AngioFlag": "N",
      "BitsAllocated": 16,
      "BitsStored": 16,
      "BodyPartExamined": "BRAIN",
      "Columns": 656,
      "EchoNumbers": 1,
      "EchoTime": 27.2,
      "EchoTrainLength": 82,
      "FlipAngle": 44.0,
      "HighBit": 15,
      "ImageOrientationPatient": [0.99869980210516, -0.028064890627, -0.0425566350785, 0.03260679219422, 0.9933864858317, 0.11009126609207],
      "ImagePositionPatient": [-913.68469085877, -845.77417317276, -121.36242632437],
      "ImageType": [
        "ORIGINAL",
        "PRIMARY",
        "M",
        "MB",
        "ND",
        "NORM",
        "MOSAIC"
],
      "ImagedNucleus": "1H",
      "ImagingFrequency": 123.259077,
      "InPlanePhaseEncodingDirection": "COL",
      "MRAcquisitionType": "2D",
      "MagneticFieldStrength": 3.0,
      "Manufacturer": "SIEMENS",
      "ManufacturerModelName": "Prisma",
      "Modality": "MR",
      "NumberOfAverages": 1.0,
      "NumberOfPhaseEncodingSteps": 82,
      "PercentPhaseFieldOfView": 100.0,
      "PercentSampling": 100.0,
      "PerformedProcedureStepStartTime": "152502.001000",
      "PhotometricInterpretation": "MONOCHROME2",
      "PixelBandwidth": 3050.0,
      "PixelRepresentation": 0,
      "PixelSpacing": [2.6829268932343, 2.6829268932343],
      "ProtocolName": "func_run-01_task-social_acq-ap-mb8",
      "RepetitionTime": 460.0,
      "Rows": 656,
      "SAR": 0.0838402528073,
      "SamplesPerPixel": 1,
      "ScanOptions": "FS",
      "ScanningSequence": "EP",
      "SequenceName": "epfid2d1_82",
      "SequenceVariant": [
        "SK",
        "SS"
],
      "SeriesDescription": "func_run-01_task-social_acq-ap-mb8",
      "SeriesNumber": 13,
      "SeriesTime": "155742.811000",
      "SliceLocation": -62.152370299338,
      "SliceThickness": 2.7000000476837,
      "SmallestImagePixelValue": 0,
      "SoftwareVersions": "syngo MR E11",
      "SpacingBetweenSlices": 2.7000000467664,
      "SpecificCharacterSet": "ISO_IR 100",
      "StudyID": "1",
      "StudyTime": "152501.926000",
      "TransmitCoilName": "Body",
      "VariableFlipAngleFlag": "N",
      "WindowCenterWidthExplanation": "Algo1"
    },
    "slices": {}
  },
  "time": {
    "samples": {
      "AcquisitionNumber": [1, 2, 3, 4, 5, 6, 7, 8, 9, 10, 11, 12, 13, 14, 15, 16, 17, 18, 19, 20, 21, 22, 23, 24, 25, 26, 27, 28, 29, 30, 31, 32, 33, 34, 35, 36, 37, 38, 39, 40, 41, 42, 43, 44, 45, 46, 47, 48, 49, 50, 51, 52, 53, 54, 55, 56, 57, 58, 59, 60, 61, 62, 63, 64, 65, 66, 67, 68, 69, 70, 71, 72, 73, 74, 75, 76, 77, 78, 79, 80, 81, 82, 83, 84, 85, 86, 87, 88, 89, 90, 91, 92, 93, 94, 95, 96, 97, 98, 99, 100, 101, 102, 103, 104, 105, 106, 107, 108, 109, 110, 111, 112, 113, 114, 115, 116, 117, 118, 119, 120, 121, 122, 123, 124, 125, 126, 127, 128, 129, 130, 131, 132, 133, 134, 135, 136, 137, 138, 139, 140, 141, 142, 143, 144, 145, 146, 147, 148, 149, 150, 151, 152, 153, 154, 155, 156, 157, 158, 159, 160, 161, 162, 163, 164, 165, 166, 167, 168, 169, 170, 171, 172, 173, 174, 175, 176, 177, 178, 179, 180, 181, 182, 183, 184, 185, 186, 187, 188, 189, 190, 191, 192, 193, 194, 195, 196, 197, 198, 199, 200, 201, 202, 203, 204, 205, 206, 207, 208, 209, 210, 211, 212, 213, 214, 215, 216, 217, 218, 219, 220, 221, 222, 223, 224, 225, 226, 227, 228, 229, 230, 231, 232, 233, 234, 235, 236, 237, 238, 239, 240, 241, 242, 243, 244, 245, 246, 247, 248, 249, 250, 251, 252, 253, 254, 255, 256, 257, 258, 259, 260, 261, 262, 263, 264, 265, 266, 267, 268, 269, 270, 271, 272, 273, 274, 275, 276, 277, 278, 279, 280, 281, 282, 283, 284, 285, 286, 287, 288, 289, 290, 291, 292, 293, 294, 295, 296, 297, 298, 299, 300, 301, 302, 303, 304, 305, 306, 307, 308, 309, 310, 311, 312, 313, 314, 315, 316, 317, 318, 319, 320, 321, 322, 323, 324, 325, 326, 327, 328, 329, 330, 331, 332, 333, 334, 335, 336, 337, 338, 339, 340, 341, 342, 343, 344, 345, 346, 347, 348, 349, 350, 351, 352, 353, 354, 355, 356, 357, 358, 359, 360, 361, 362, 363, 364, 365, 366, 367, 368, 369, 370, 371, 372, 373, 374, 375, 376, 377, 378, 379, 380, 381, 382, 383, 384, 385, 386, 387, 388, 389, 390, 391, 392, 393, 394, 395, 396, 397, 398, 399, 400, 401, 402, 403, 404, 405, 406, 407, 408, 409, 410, 411, 412, 413, 414, 415, 416, 417, 418, 419, 420, 421, 422, 423, 424, 425, 426, 427, 428, 429, 430, 431, 432, 433, 434, 435, 436, 437, 438, 439, 440, 441, 442, 443, 444, 445, 446, 447, 448, 449, 450, 451, 452, 453, 454, 455, 456, 457, 458, 459, 460, 461, 462, 463, 464, 465, 466, 467, 468, 469, 470, 471, 472, 473, 474, 475, 476, 477, 478, 479, 480, 481, 482, 483, 484, 485, 486, 487, 488, 489, 490, 491, 492, 493, 494, 495, 496, 497, 498, 499, 500, 501, 502, 503, 504, 505, 506, 507, 508, 509, 510, 511, 512, 513, 514, 515, 516, 517, 518, 519, 520, 521, 522, 523, 524, 525, 526, 527, 528, 529, 530, 531, 532, 533, 534, 535, 536, 537, 538, 539, 540, 541, 542, 543, 544, 545, 546, 547, 548, 549, 550, 551, 552, 553, 554, 555, 556, 557, 558, 559, 560, 561, 562, 563, 564, 565, 566, 567, 568, 569, 570, 571, 572, 573, 574, 575, 576, 577, 578, 579, 580, 581, 582, 583, 584, 585, 586, 587, 588, 589, 590, 591, 592, 593, 594, 595, 596, 597, 598, 599, 600, 601, 602, 603, 604, 605, 606, 607, 608, 609, 610, 611, 612, 613, 614, 615, 616, 617, 618, 619, 620, 621, 622, 623, 624, 625, 626, 627, 628, 629, 630, 631, 632, 633, 634, 635, 636, 637, 638, 639, 640, 641, 642, 643, 644, 645, 646, 647, 648, 649, 650, 651, 652, 653, 654, 655, 656, 657, 658, 659, 660, 661, 662, 663, 664, 665, 666, 667, 668, 669, 670, 671, 672, 673, 674, 675, 676, 677, 678, 679, 680, 681, 682, 683, 684, 685, 686, 687, 688, 689, 690, 691, 692, 693, 694, 695, 696, 697, 698, 699, 700, 701, 702, 703, 704, 705, 706, 707, 708, 709, 710, 711, 712, 713, 714, 715, 716, 717, 718, 719, 720, 721, 722, 723, 724, 725, 726, 727, 728, 729, 730, 731, 732, 733, 734, 735, 736, 737, 738, 739, 740, 741, 742, 743, 744, 745, 746, 747, 748, 749, 750, 751, 752, 753, 754, 755, 756, 757, 758, 759, 760, 761, 762, 763, 764, 765, 766, 767, 768, 769, 770, 771, 772, 773, 774, 775, 776, 777, 778, 779, 780, 781, 782, 783, 784, 785, 786, 787, 788, 789, 790, 791, 792, 793, 794, 795, 796, 797, 798, 799, 800, 801, 802, 803, 804, 805, 806, 807, 808, 809, 810, 811, 812, 813, 814, 815, 816, 817, 818, 819, 820, 821, 822, 823, 824, 825, 826, 827, 828, 829, 830, 831, 832, 833, 834, 835, 836, 837, 838, 839, 840, 841, 842, 843, 844, 845, 846, 847, 848, 849, 850, 851, 852, 853, 854, 855, 856, 857, 858, 859, 860, 861, 862, 863, 864, 865, 866, 867, 868, 869, 870, 871, 872],
      "AcquisitionTime": ["155730.782500", "155731.242500", "155731.702500", "155732.162500", "155732.622500", "155733.082500", "155733.542500", "155734.002500", "155734.462500", "155734.922500", "155735.382500", "155735.842500", "155736.302500", "155736.762500", "155737.222500", "155737.682500", "155738.142500", "155738.602500", "155739.062500", "155739.522500", "155739.982500", "155740.442500", "155740.902500", "155741.362500", "155741.822500", "155742.282500", "155742.742500", "155743.202500", "155743.662500", "155744.122500", "155744.582500", "155745.042500", "155745.502500", "155745.962500", "155746.422500", "155746.882500", "155747.342500", "155747.802500", "155748.262500", "155748.722500", "155749.182500", "155749.642500", "155750.102500", "155750.562500", "155751.022500", "155751.482500", "155751.942500", "155752.402500", "155752.862500", "155753.322500", "155753.782500", "155754.242500", "155754.702500", "155755.162500", "155755.622500", "155756.082500", "155756.542500", "155757.002500", "155757.462500", "155757.922500", "155758.382500", "155758.842500", "155759.302500", "155759.762500", "155800.222500", "155800.682500", "155801.142500", "155801.602500", "155802.062500", "155802.522500", "155802.982500", "155803.442500", "155803.902500", "155804.362500", "155804.822500", "155805.282500", "155805.742500", "155806.202500", "155806.662500", "155807.122500", "155807.582500", "155808.042500", "155808.502500", "155808.962500", "155809.422500", "155809.882500", "155810.342500", "155810.802500", "155811.262500", "155811.722500", "155812.182500", "155812.642500", "155813.102500", "155813.562500", "155814.022500", "155814.482500", "155814.942500", "155815.402500", "155815.862500", "155816.322500", "155816.782500", "155817.242500", "155817.702500", "155818.162500", "155818.622500", "155819.082500", "155819.542500", "155820.002500", "155820.462500", "155820.922500", "155821.382500", "155821.842500", "155822.302500", "155822.762500", "155823.222500", "155823.682500", "155824.142500", "155824.602500", "155825.062500", "155825.522500", "155825.982500", "155826.442500", "155826.902500", "155827.362500", "155827.822500", "155828.282500", "155828.742500", "155829.202500", "155829.662500", "155830.122500", "155830.582500", "155831.042500", "155831.502500", "155831.962500", "155832.422500", "155832.882500", "155833.342500", "155833.802500", "155834.262500", "155834.722500", "155835.182500", "155835.642500", "155836.102500", "155836.562500", "155837.022500", "155837.482500", "155837.942500", "155838.402500", "155838.862500", "155839.322500", "155839.782500", "155840.242500", "155840.702500", "155841.162500", "155841.622500", "155842.082500", "155842.542500", "155843.002500", "155843.462500", "155843.922500", "155844.382500", "155844.842500", "155845.302500", "155845.762500", "155846.222500", "155846.682500", "155847.142500", "155847.602500", "155848.062500", "155848.522500", "155848.982500", "155849.442500", "155849.902500", "155850.362500", "155850.822500", "155851.282500", "155851.742500", "155852.202500", "155852.662500", "155853.122500", "155853.582500", "155854.042500", "155854.502500", "155854.962500", "155855.422500", "155855.882500", "155856.342500", "155856.802500", "155857.262500", "155857.722500", "155858.182500", "155858.642500", "155859.102500", "155859.562500", "155900.022500", "155900.482500", "155900.942500", "155901.402500", "155901.862500", "155902.322500", "155902.782500", "155903.242500", "155903.702500", "155904.162500", "155904.622500", "155905.082500", "155905.542500", "155906.002500", "155906.462500", "155906.922500", "155907.382500", "155907.842500", "155908.302500", "155908.762500", "155909.222500", "155909.682500", "155910.142500", "155910.602500", "155911.062500", "155911.522500", "155911.982500", "155912.442500", "155912.902500", "155913.362500", "155913.822500", "155914.282500", "155914.742500", "155915.202500", "155915.662500", "155916.122500", "155916.582500", "155917.042500", "155917.502500", "155917.962500", "155918.422500", "155918.882500", "155919.342500", "155919.802500", "155920.262500", "155920.722500", "155921.182500", "155921.642500", "155922.102500", "155922.562500", "155923.022500", "155923.482500", "155923.942500", "155924.402500", "155924.862500", "155925.322500", "155925.782500", "155926.242500", "155926.702500", "155927.162500", "155927.622500", "155928.082500", "155928.542500", "155929.002500", "155929.462500", "155929.922500", "155930.382500", "155930.842500", "155931.302500", "155931.762500", "155932.222500", "155932.682500", "155933.142500", "155933.602500", "155934.062500", "155934.522500", "155934.982500", "155935.442500", "155935.902500", "155936.362500", "155936.822500", "155937.282500", "155937.742500", "155938.202500", "155938.662500", "155939.122500", "155939.582500", "155940.042500", "155940.502500", "155940.962500", "155941.422500", "155941.882500", "155942.342500", "155942.802500", "155943.262500", "155943.722500", "155944.182500", "155944.642500", "155945.102500", "155945.562500", "155946.022500", "155946.482500", "155946.942500", "155947.402500", "155947.862500", "155948.322500", "155948.782500", "155949.242500", "155949.702500", "155950.162500", "155950.622500", "155951.082500", "155951.542500", "155952.002500", "155952.462500", "155952.922500", "155953.382500", "155953.842500", "155954.302500", "155954.762500", "155955.222500", "155955.682500", "155956.142500", "155956.602500", "155957.062500", "155957.522500", "155957.982500", "155958.442500", "155958.902500", "155959.362500", "155959.822500", "160000.282500", "160000.742500", "160001.202500", "160001.662500", "160002.122500", "160002.582500", "160003.042500", "160003.502500", "160003.962500", "160004.422500", "160004.882500", "160005.342500", "160005.802500", "160006.262500", "160006.722500", "160007.182500", "160007.642500", "160008.102500", "160008.562500", "160009.022500", "160009.482500", "160009.942500", "160010.402500", "160010.862500", "160011.322500", "160011.782500", "160012.242500", "160012.702500", "160013.162500", "160013.622500", "160014.082500", "160014.542500", "160015.002500", "160015.462500", "160015.922500", "160016.382500", "160016.842500", "160017.302500", "160017.762500", "160018.222500", "160018.682500", "160019.142500", "160019.602500", "160020.062500", "160020.522500", "160020.982500", "160021.442500", "160021.902500", "160022.362500", "160022.822500", "160023.282500", "160023.742500", "160024.202500", "160024.662500", "160025.122500", "160025.582500", "160026.042500", "160026.502500", "160026.962500", "160027.422500", "160027.882500", "160028.342500", "160028.802500", "160029.262500", "160029.722500", "160030.182500", "160030.642500", "160031.102500", "160031.562500", "160032.022500", "160032.482500", "160032.942500", "160033.402500", "160033.862500", "160034.322500", "160034.782500", "160035.242500", "160035.702500", "160036.162500", "160036.622500", "160037.082500", "160037.542500", "160038.002500", "160038.462500", "160038.922500", "160039.382500", "160039.842500", "160040.302500", "160040.762500", "160041.222500", "160041.682500", "160042.142500", "160042.602500", "160043.062500", "160043.522500", "160043.982500", "160044.442500", "160044.902500", "160045.362500", "160045.822500", "160046.282500", "160046.742500", "160047.202500", "160047.662500", "160048.122500", "160048.582500", "160049.042500", "160049.502500", "160049.962500", "160050.422500", "160050.882500", "160051.342500", "160051.802500", "160052.262500", "160052.722500", "160053.182500", "160053.642500", "160054.102500", "160054.562500", "160055.022500", "160055.482500", "160055.942500", "160056.402500", "160056.862500", "160057.322500", "160057.782500", "160058.242500", "160058.702500", "160059.162500", "160059.622500", "160100.082500", "160100.542500", "160101.002500", "160101.462500", "160101.922500", "160102.382500", "160102.842500", "160103.302500", "160103.762500", "160104.222500", "160104.682500", "160105.142500", "160105.602500", "160106.062500", "160106.522500", "160106.982500", "160107.442500", "160107.902500", "160108.362500", "160108.822500", "160109.282500", "160109.742500", "160110.202500", "160110.662500", "160111.122500", "160111.582500", "160112.042500", "160112.502500", "160112.962500", "160113.422500", "160113.882500", "160114.342500", "160114.802500", "160115.262500", "160115.722500", "160116.182500", "160116.642500", "160117.102500", "160117.562500", "160118.022500", "160118.482500", "160118.942500", "160119.402500", "160119.862500", "160120.322500", "160120.782500", "160121.242500", "160121.702500", "160122.162500", "160122.622500", "160123.082500", "160123.542500", "160124.002500", "160124.462500", "160124.922500", "160125.382500", "160125.842500", "160126.302500", "160126.762500", "160127.222500", "160127.682500", "160128.142500", "160128.602500", "160129.062500", "160129.522500", "160129.982500", "160130.442500", "160130.902500", "160131.362500", "160131.822500", "160132.282500", "160132.742500", "160133.202500", "160133.662500", "160134.122500", "160134.582500", "160135.042500", "160135.502500", "160135.962500", "160136.422500", "160136.882500", "160137.342500", "160137.802500", "160138.262500", "160138.722500", "160139.182500", "160139.642500", "160140.102500", "160140.562500", "160141.022500", "160141.482500", "160141.942500", "160142.402500", "160142.862500", "160143.322500", "160143.782500", "160144.242500", "160144.702500", "160145.162500", "160145.622500", "160146.082500", "160146.542500", "160147.002500", "160147.462500", "160147.922500", "160148.382500", "160148.842500", "160149.302500", "160149.762500", "160150.222500", "160150.682500", "160151.142500", "160151.602500", "160152.062500", "160152.522500", "160152.982500", "160153.442500", "160153.902500", "160154.362500", "160154.822500", "160155.282500", "160155.742500", "160156.202500", "160156.662500", "160157.122500", "160157.582500", "160158.042500", "160158.502500", "160158.962500", "160159.422500", "160159.882500", "160200.342500", "160200.802500", "160201.262500", "160201.722500", "160202.182500", "160202.642500", "160203.102500", "160203.562500", "160204.022500", "160204.482500", "160204.942500", "160205.402500", "160205.862500", "160206.322500", "160206.782500", "160207.242500", "160207.702500", "160208.162500", "160208.622500", "160209.082500", "160209.542500", "160210.002500", "160210.462500", "160210.922500", "160211.382500", "160211.842500", "160212.302500", "160212.762500", "160213.222500", "160213.682500", "160214.142500", "160214.602500", "160215.062500", "160215.522500", "160215.982500", "160216.442500", "160216.902500", "160217.362500", "160217.822500", "160218.282500", "160218.742500", "160219.202500", "160219.662500", "160220.122500", "160220.582500", "160221.042500", "160221.502500", "160221.962500", "160222.422500", "160222.882500", "160223.342500", "160223.802500", "160224.262500", "160224.722500", "160225.182500", "160225.642500", "160226.102500", "160226.562500", "160227.022500", "160227.482500", "160227.942500", "160228.402500", "160228.862500", "160229.322500", "160229.782500", "160230.242500", "160230.702500", "160231.162500", "160231.622500", "160232.082500", "160232.542500", "160233.002500", "160233.462500", "160233.922500", "160234.382500", "160234.842500", "160235.302500", "160235.762500", "160236.222500", "160236.682500", "160237.142500", "160237.602500", "160238.062500", "160238.522500", "160238.982500", "160239.442500", "160239.902500", "160240.362500", "160240.822500", "160241.282500", "160241.742500", "160242.202500", "160242.662500", "160243.122500", "160243.582500", "160244.042500", "160244.502500", "160244.962500", "160245.422500", "160245.882500", "160246.342500", "160246.802500", "160247.262500", "160247.722500", "160248.182500", "160248.642500", "160249.102500", "160249.562500", "160250.022500", "160250.482500", "160250.942500", "160251.402500", "160251.862500", "160252.322500", "160252.782500", "160253.242500", "160253.702500", "160254.162500", "160254.622500", "160255.082500", "160255.542500", "160256.002500", "160256.462500", "160256.922500", "160257.382500", "160257.842500", "160258.302500", "160258.762500", "160259.222500", "160259.682500", "160300.142500", "160300.602500", "160301.062500", "160301.522500", "160301.982500", "160302.442500", "160302.902500", "160303.362500", "160303.822500", "160304.282500", "160304.742500", "160305.202500", "160305.662500", "160306.122500", "160306.582500", "160307.042500", "160307.502500", "160307.962500", "160308.422500", "160308.882500", "160309.342500", "160309.802500", "160310.262500", "160310.722500", "160311.182500", "160311.642500", "160312.102500", "160312.562500", "160313.022500", "160313.482500", "160313.942500", "160314.402500", "160314.862500", "160315.322500", "160315.782500", "160316.242500", "160316.702500", "160317.162500", "160317.622500", "160318.082500", "160318.542500", "160319.002500", "160319.462500", "160319.922500", "160320.382500", "160320.842500", "160321.302500", "160321.762500", "160322.222500", "160322.682500", "160323.142500", "160323.602500", "160324.062500", "160324.522500", "160324.982500", "160325.442500", "160325.902500", "160326.362500", "160326.822500", "160327.282500", "160327.742500", "160328.202500", "160328.662500", "160329.122500", "160329.582500", "160330.042500", "160330.502500", "160330.962500", "160331.422500", "160331.882500", "160332.342500", "160332.802500", "160333.262500", "160333.722500", "160334.182500", "160334.642500", "160335.102500", "160335.562500", "160336.022500", "160336.482500", "160336.942500", "160337.402500", "160337.862500", "160338.322500", "160338.782500", "160339.242500", "160339.702500", "160340.162500", "160340.622500", "160341.082500", "160341.542500", "160342.002500", "160342.462500", "160342.922500", "160343.382500", "160343.842500", "160344.302500", "160344.762500", "160345.222500", "160345.682500", "160346.142500", "160346.602500", "160347.062500", "160347.522500", "160347.982500", "160348.442500", "160348.902500", "160349.362500", "160349.822500", "160350.282500", "160350.742500", "160351.202500", "160351.662500", "160352.122500", "160352.582500", "160353.042500", "160353.502500", "160353.962500", "160354.422500", "160354.882500", "160355.342500", "160355.802500", "160356.262500", "160356.722500", "160357.182500", "160357.642500", "160358.102500", "160358.562500", "160359.022500", "160359.482500", "160359.942500", "160400.402500", "160400.862500", "160401.322500", "160401.782500", "160402.242500", "160402.702500", "160403.162500", "160403.622500", "160404.082500", "160404.542500", "160405.002500", "160405.462500", "160405.922500", "160406.382500", "160406.842500", "160407.302500", "160407.762500", "160408.222500", "160408.682500", "160409.142500", "160409.602500", "160410.062500", "160410.522500", "160410.982500", "160411.442500"],
