{
  "AcquisitionMatrixPE": 82,
  "AcquisitionNumber": 1,
  "AcquisitionTime": "16:34:55.877500",
  "BandwidthPerPixelPhaseEncode": 24.888,
  "BaseResolution": 82,
  "BodyPartExamined": "BRAIN",
  "ConsistencyInfo": "N4_VE11E_LATEST_20181129",
  "ConversionSoftware": "dcm2niix",
  "ConversionSoftwareVersion": "v1.0.20201102",
  "DerivedVendorReportedEchoSpacing": 0.00049,
  "DeviceSerialNumber": "66112",
  "DwellTime": 2e-06,
  "EchoTime": 0.0272,
  "EchoTrainLength": 82,
  "EffectiveEchoSpacing": 0.00049,
  "FlipAngle": 44,
  "ImageComments": "Unaliased MB8/PE3",
  "ImageOrientationPatientDICOM": [0.9987, -0.0280649, -0.0425566, 0.0326068, 0.993387, 0.110091],
  "ImageType": [
    "ORIGINAL",
    "PRIMARY",
    "M",
    "MB",
    "ND",
    "NORM",
    "MOSAIC"
],
  "ImagingFrequency": 123.259,
  "InPlanePhaseEncodingDirectionDICOM": "COL",
  "InstitutionAddress": "Maynard 3,Hanover,NH,US,03755",
  "InstitutionName": "Dartmouth College - PBS",
  "InstitutionalDepartmentName": "Department",
  "MRAcquisitionType": "2D",
  "MagneticFieldStrength": 3,
  "Manufacturer": "Siemens",
  "ManufacturersModelName": "Prisma",
  "Modality": "MR",
  "MultibandAccelerationFactor": 8,
  "PartialFourier": 1,
  "PatientPosition": "HFS",
  "PercentPhaseFOV": 100,
  "PercentSampling": 100,
  "PhaseEncodingDirection": "j-",
  "PhaseEncodingSteps": 82,
  "PhaseResolution": 1,
  "PixelBandwidth": 3050,
  "ProcedureStepDescription": "Wager_Wager^1076_spacetop",
  "ProtocolName": "func_run-06_task-social_acq-ap-mb8",
  "PulseSequenceDetails": "%CustomerSeq%\\cmrr_mbep2d_bold",
  "ReceiveCoilActiveElements": "HEA;HEP",
  "ReceiveCoilName": "Head_32",
  "ReconMatrixPE": 82,
  "RepetitionTime": 0.46,
  "SAR": 0.0838403,
  "ScanOptions": "FS",
  "ScanningSequence": "EP",
  "SequenceName": "epfid2d1_82",
  "SequenceVariant": "SK\\SS",
  "SeriesDescription": "func_run-06_task-social_acq-ap-mb8",
  "SeriesNumber": 23,
  "ShimSetting": [4205, -7793, -7220, 353, -96, -30, -124, 70],
  "SliceThickness": 2.7,
  "SliceTiming": [0, 0.25, 0.0625, 0.3125, 0.125, 0.375, 0.1875, 0, 0.25, 0.0625, 0.3125, 0.125, 0.375, 0.1875, 0, 0.25, 0.0625, 0.3125, 0.125, 0.375, 0.1875, 0, 0.25, 0.0625, 0.3125, 0.125, 0.375, 0.1875, 0, 0.25, 0.0625, 0.3125, 0.125, 0.375, 0.1875, 0, 0.25, 0.0625, 0.3125, 0.125, 0.375, 0.1875, 0, 0.25, 0.0625, 0.3125, 0.125, 0.375, 0.1875, 0, 0.25, 0.0625, 0.3125, 0.125, 0.375, 0.1875],
  "SoftwareVersions": "syngo MR E11",
  "SpacingBetweenSlices": 2.7,
  "StationName": "AWP66112",
  "TaskName": "social",
  "TotalReadoutTime": 0.03969,
  "TxRefAmp": 218.897,
  "WipMemBlock": "f7594935-ea95-4f49-a34a-af0ecf897e39||Sequence: R016 ve11e/master r/434b28f1; Aug  7 2019 18:53:46 by eja",
  "dcmmeta_affine": [
    [-2.679438591003418, 0.08748164027929306, -0.1058008149266243, 112.49258422851562],
    [0.07529605180025101, 2.6651833057403564, 0.30060654878616333, -113.4033203125],
    [-0.11417634040117264, -0.2953668236732483, 2.6811270713806152, -45.4360466003418],
    [0.0, 0.0, 0.0, 1.0]
],
  "dcmmeta_reorient_transform": [
    [0.0, -1.0, 0.0, 81.0],
    [1.0, 0.0, 0.0, 0.0],
    [0.0, 0.0, 1.0, 0.0],
    [0.0, 0.0, 0.0, 1.0]
],
  "dcmmeta_shape": [82, 82, 56, 872],
  "dcmmeta_slice_dim": 2,
  "dcmmeta_version": 0.6,
  "global": {
    "const": {
      "AccessionNumber": "A004537",
      "AcquisitionMatrix": [82, 0, 0, 82],
      "AngioFlag": "N",
      "BitsAllocated": 16,
      "BitsStored": 16,
      "BodyPartExamined": "BRAIN",
      "Columns": 656,
      "EchoNumbers": 1,
      "EchoTime": 27.2,
      "EchoTrainLength": 82,
      "FlipAngle": 44.0,
      "HighBit": 15,
      "ImageOrientationPatient": [0.99869980210516, -0.028064890627, -0.0425566350785, 0.03260679219422, 0.9933864858317, 0.11009126609207],
      "ImagePositionPatient": [-913.68469085877, -845.77417317276, -121.36242632437],
      "ImageType": [
        "ORIGINAL",
        "PRIMARY",
        "M",
        "MB",
        "ND",
        "NORM",
        "MOSAIC"
],
      "ImagedNucleus": "1H",
      "ImagingFrequency": 123.259082,
      "InPlanePhaseEncodingDirection": "COL",
      "MRAcquisitionType": "2D",
      "MagneticFieldStrength": 3.0,
      "Manufacturer": "SIEMENS",
      "ManufacturerModelName": "Prisma",
      "Modality": "MR",
      "NumberOfAverages": 1.0,
      "NumberOfPhaseEncodingSteps": 82,
      "PercentPhaseFieldOfView": 100.0,
      "PercentSampling": 100.0,
      "PerformedProcedureStepStartTime": "152502.001000",
      "PhotometricInterpretation": "MONOCHROME2",
      "PixelBandwidth": 3050.0,
      "PixelRepresentation": 0,
      "PixelSpacing": [2.6829268932343, 2.6829268932343],
      "ProtocolName": "func_run-06_task-social_acq-ap-mb8",
      "RepetitionTime": 460.0,
      "Rows": 656,
      "SAR": 0.0838402528073,
      "SamplesPerPixel": 1,
      "ScanOptions": "FS",
      "ScanningSequence": "EP",
      "SequenceName": "epfid2d1_82",
      "SequenceVariant": [
        "SK",
        "SS"
],
      "SeriesDescription": "func_run-06_task-social_acq-ap-mb8",
      "SeriesNumber": 23,
      "SeriesTime": "163522.747000",
      "SliceLocation": -62.152370299338,
      "SliceThickness": 2.7000000476837,
      "SmallestImagePixelValue": 0,
      "SoftwareVersions": "syngo MR E11",
      "SpacingBetweenSlices": 2.7000000467664,
      "SpecificCharacterSet": "ISO_IR 100",
      "StudyID": "1",
      "StudyTime": "152501.926000",
      "TransmitCoilName": "Body",
      "VariableFlipAngleFlag": "N",
      "WindowCenterWidthExplanation": "Algo1"
    },
    "slices": {}
  },
  "time": {
    "samples": {
      "AcquisitionNumber": [1, 2, 3, 4, 5, 6, 7, 8, 9, 10, 11, 12, 13, 14, 15, 16, 17, 18, 19, 20, 21, 22, 23, 24, 25, 26, 27, 28, 29, 30, 31, 32, 33, 34, 35, 36, 37, 38, 39, 40, 41, 42, 43, 44, 45, 46, 47, 48, 49, 50, 51, 52, 53, 54, 55, 56, 57, 58, 59, 60, 61, 62, 63, 64, 65, 66, 67, 68, 69, 70, 71, 72, 73, 74, 75, 76, 77, 78, 79, 80, 81, 82, 83, 84, 85, 86, 87, 88, 89, 90, 91, 92, 93, 94, 95, 96, 97, 98, 99, 100, 101, 102, 103, 104, 105, 106, 107, 108, 109, 110, 111, 112, 113, 114, 115, 116, 117, 118, 119, 120, 121, 122, 123, 124, 125, 126, 127, 128, 129, 130, 131, 132, 133, 134, 135, 136, 137, 138, 139, 140, 141, 142, 143, 144, 145, 146, 147, 148, 149, 150, 151, 152, 153, 154, 155, 156, 157, 158, 159, 160, 161, 162, 163, 164, 165, 166, 167, 168, 169, 170, 171, 172, 173, 174, 175, 176, 177, 178, 179, 180, 181, 182, 183, 184, 185, 186, 187, 188, 189, 190, 191, 192, 193, 194, 195, 196, 197, 198, 199, 200, 201, 202, 203, 204, 205, 206, 207, 208, 209, 210, 211, 212, 213, 214, 215, 216, 217, 218, 219, 220, 221, 222, 223, 224, 225, 226, 227, 228, 229, 230, 231, 232, 233, 234, 235, 236, 237, 238, 239, 240, 241, 242, 243, 244, 245, 246, 247, 248, 249, 250, 251, 252, 253, 254, 255, 256, 257, 258, 259, 260, 261, 262, 263, 264, 265, 266, 267, 268, 269, 270, 271, 272, 273, 274, 275, 276, 277, 278, 279, 280, 281, 282, 283, 284, 285, 286, 287, 288, 289, 290, 291, 292, 293, 294, 295, 296, 297, 298, 299, 300, 301, 302, 303, 304, 305, 306, 307, 308, 309, 310, 311, 312, 313, 314, 315, 316, 317, 318, 319, 320, 321, 322, 323, 324, 325, 326, 327, 328, 329, 330, 331, 332, 333, 334, 335, 336, 337, 338, 339, 340, 341, 342, 343, 344, 345, 346, 347, 348, 349, 350, 351, 352, 353, 354, 355, 356, 357, 358, 359, 360, 361, 362, 363, 364, 365, 366, 367, 368, 369, 370, 371, 372, 373, 374, 375, 376, 377, 378, 379, 380, 381, 382, 383, 384, 385, 386, 387, 388, 389, 390, 391, 392, 393, 394, 395, 396, 397, 398, 399, 400, 401, 402, 403, 404, 405, 406, 407, 408, 409, 410, 411, 412, 413, 414, 415, 416, 417, 418, 419, 420, 421, 422, 423, 424, 425, 426, 427, 428, 429, 430, 431, 432, 433, 434, 435, 436, 437, 438, 439, 440, 441, 442, 443, 444, 445, 446, 447, 448, 449, 450, 451, 452, 453, 454, 455, 456, 457, 458, 459, 460, 461, 462, 463, 464, 465, 466, 467, 468, 469, 470, 471, 472, 473, 474, 475, 476, 477, 478, 479, 480, 481, 482, 483, 484, 485, 486, 487, 488, 489, 490, 491, 492, 493, 494, 495, 496, 497, 498, 499, 500, 501, 502, 503, 504, 505, 506, 507, 508, 509, 510, 511, 512, 513, 514, 515, 516, 517, 518, 519, 520, 521, 522, 523, 524, 525, 526, 527, 528, 529, 530, 531, 532, 533, 534, 535, 536, 537, 538, 539, 540, 541, 542, 543, 544, 545, 546, 547, 548, 549, 550, 551, 552, 553, 554, 555, 556, 557, 558, 559, 560, 561, 562, 563, 564, 565, 566, 567, 568, 569, 570, 571, 572, 573, 574, 575, 576, 577, 578, 579, 580, 581, 582, 583, 584, 585, 586, 587, 588, 589, 590, 591, 592, 593, 594, 595, 596, 597, 598, 599, 600, 601, 602, 603, 604, 605, 606, 607, 608, 609, 610, 611, 612, 613, 614, 615, 616, 617, 618, 619, 620, 621, 622, 623, 624, 625, 626, 627, 628, 629, 630, 631, 632, 633, 634, 635, 636, 637, 638, 639, 640, 641, 642, 643, 644, 645, 646, 647, 648, 649, 650, 651, 652, 653, 654, 655, 656, 657, 658, 659, 660, 661, 662, 663, 664, 665, 666, 667, 668, 669, 670, 671, 672, 673, 674, 675, 676, 677, 678, 679, 680, 681, 682, 683, 684, 685, 686, 687, 688, 689, 690, 691, 692, 693, 694, 695, 696, 697, 698, 699, 700, 701, 702, 703, 704, 705, 706, 707, 708, 709, 710, 711, 712, 713, 714, 715, 716, 717, 718, 719, 720, 721, 722, 723, 724, 725, 726, 727, 728, 729, 730, 731, 732, 733, 734, 735, 736, 737, 738, 739, 740, 741, 742, 743, 744, 745, 746, 747, 748, 749, 750, 751, 752, 753, 754, 755, 756, 757, 758, 759, 760, 761, 762, 763, 764, 765, 766, 767, 768, 769, 770, 771, 772, 773, 774, 775, 776, 777, 778, 779, 780, 781, 782, 783, 784, 785, 786, 787, 788, 789, 790, 791, 792, 793, 794, 795, 796, 797, 798, 799, 800, 801, 802, 803, 804, 805, 806, 807, 808, 809, 810, 811, 812, 813, 814, 815, 816, 817, 818, 819, 820, 821, 822, 823, 824, 825, 826, 827, 828, 829, 830, 831, 832, 833, 834, 835, 836, 837, 838, 839, 840, 841, 842, 843, 844, 845, 846, 847, 848, 849, 850, 851, 852, 853, 854, 855, 856, 857, 858, 859, 860, 861, 862, 863, 864, 865, 866, 867, 868, 869, 870, 871, 872],
      "AcquisitionTime": ["163455.877500", "163456.337500", "163456.797500", "163457.257500", "163457.717500", "163458.177500", "163458.637500", "163459.097500", "163459.557500", "163500.017500", "163500.477500", "163500.937500", "163501.397500", "163501.857500", "163502.317500", "163502.777500", "163503.237500", "163503.697500", "163504.157500", "163504.617500", "163505.077500", "163505.537500", "163505.997500", "163506.457500", "163506.917500", "163507.377500", "163507.837500", "163508.297500", "163508.757500", "163509.217500", "163509.677500", "163510.137500", "163510.597500", "163511.057500", "163511.517500", "163511.977500", "163512.437500", "163512.897500", "163513.357500", "163513.817500", "163514.277500", "163514.737500", "163515.197500", "163515.657500", "163516.117500", "163516.577500", "163517.037500", "163517.497500", "163517.957500", "163518.417500", "163518.877500", "163519.337500", "163519.797500", "163520.257500", "163520.717500", "163521.177500", "163521.637500", "163522.097500", "163522.557500", "163523.017500", "163523.477500", "163523.937500", "163524.397500", "163524.857500", "163525.317500", "163525.777500", "163526.237500", "163526.697500", "163527.157500", "163527.617500", "163528.077500", "163528.537500", "163528.997500", "163529.457500", "163529.917500", "163530.377500", "163530.837500", "163531.297500", "163531.757500", "163532.217500", "163532.677500", "163533.137500", "163533.597500", "163534.057500", "163534.517500", "163534.977500", "163535.437500", "163535.897500", "163536.357500", "163536.817500", "163537.277500", "163537.737500", "163538.197500", "163538.657500", "163539.117500", "163539.577500", "163540.037500", "163540.497500", "163540.957500", "163541.417500", "163541.877500", "163542.337500", "163542.797500", "163543.257500", "163543.717500", "163544.177500", "163544.637500", "163545.097500", "163545.557500", "163546.017500", "163546.477500", "163546.937500", "163547.397500", "163547.857500", "163548.317500", "163548.777500", "163549.237500", "163549.697500", "163550.157500", "163550.617500", "163551.077500", "163551.537500", "163551.997500", "163552.457500", "163552.917500", "163553.377500", "163553.837500", "163554.297500", "163554.757500", "163555.217500", "163555.677500", "163556.137500", "163556.597500", "163557.057500", "163557.517500", "163557.977500", "163558.437500", "163558.897500", "163559.357500", "163559.817500", "163600.277500", "163600.737500", "163601.197500", "163601.657500", "163602.117500", "163602.577500", "163603.037500", "163603.497500", "163603.957500", "163604.417500", "163604.877500", "163605.337500", "163605.797500", "163606.257500", "163606.717500", "163607.177500", "163607.637500", "163608.097500", "163608.557500", "163609.017500", "163609.477500", "163609.937500", "163610.397500", "163610.857500", "163611.317500", "163611.777500", "163612.237500", "163612.697500", "163613.157500", "163613.617500", "163614.077500", "163614.537500", "163614.997500", "163615.457500", "163615.917500", "163616.377500", "163616.837500", "163617.297500", "163617.757500", "163618.217500", "163618.677500", "163619.137500", "163619.597500", "163620.057500", "163620.517500", "163620.977500", "163621.437500", "163621.897500", "163622.357500", "163622.817500", "163623.277500", "163623.737500", "163624.197500", "163624.657500", "163625.117500", "163625.577500", "163626.037500", "163626.497500", "163626.957500", "163627.417500", "163627.877500", "163628.337500", "163628.797500", "163629.257500", "163629.717500", "163630.177500", "163630.637500", "163631.097500", "163631.557500", "163632.017500", "163632.477500", "163632.937500", "163633.397500", "163633.857500", "163634.317500", "163634.777500", "163635.237500", "163635.697500", "163636.157500", "163636.617500", "163637.077500", "163637.537500", "163637.997500", "163638.457500", "163638.917500", "163639.377500", "163639.837500", "163640.297500", "163640.757500", "163641.217500", "163641.677500", "163642.137500", "163642.597500", "163643.057500", "163643.517500", "163643.977500", "163644.437500", "163644.897500", "163645.357500", "163645.817500", "163646.277500", "163646.737500", "163647.197500", "163647.657500", "163648.117500", "163648.577500", "163649.037500", "163649.497500", "163649.957500", "163650.417500", "163650.877500", "163651.337500", "163651.797500", "163652.257500", "163652.717500", "163653.177500", "163653.637500", "163654.097500", "163654.557500", "163655.017500", "163655.477500", "163655.937500", "163656.397500", "163656.857500", "163657.317500", "163657.777500", "163658.237500", "163658.697500", "163659.157500", "163659.617500", "163700.077500", "163700.537500", "163700.997500", "163701.457500", "163701.917500", "163702.377500", "163702.837500", "163703.297500", "163703.757500", "163704.217500", "163704.677500", "163705.137500", "163705.597500", "163706.057500", "163706.517500", "163706.977500", "163707.437500", "163707.897500", "163708.357500", "163708.817500", "163709.277500", "163709.737500", "163710.197500", "163710.657500", "163711.117500", "163711.577500", "163712.037500", "163712.497500", "163712.957500", "163713.417500", "163713.877500", "163714.337500", "163714.797500", "163715.257500", "163715.717500", "163716.177500", "163716.637500", "163717.097500", "163717.557500", "163718.017500", "163718.477500", "163718.937500", "163719.397500", "163719.857500", "163720.317500", "163720.777500", "163721.237500", "163721.697500", "163722.157500", "163722.617500", "163723.077500", "163723.537500", "163723.997500", "163724.457500", "163724.917500", "163725.377500", "163725.837500", "163726.297500", "163726.757500", "163727.217500", "163727.677500", "163728.137500", "163728.597500", "163729.057500", "163729.517500", "163729.977500", "163730.437500", "163730.897500", "163731.357500", "163731.817500", "163732.277500", "163732.737500", "163733.197500", "163733.657500", "163734.117500", "163734.577500", "163735.037500", "163735.497500", "163735.957500", "163736.417500", "163736.877500", "163737.337500", "163737.797500", "163738.257500", "163738.717500", "163739.177500", "163739.637500", "163740.097500", "163740.557500", "163741.017500", "163741.477500", "163741.937500", "163742.397500", "163742.857500", "163743.317500", "163743.777500", "163744.237500", "163744.697500", "163745.157500", "163745.617500", "163746.077500", "163746.537500", "163746.997500", "163747.457500", "163747.917500", "163748.377500", "163748.837500", "163749.297500", "163749.757500", "163750.217500", "163750.677500", "163751.137500", "163751.597500", "163752.057500", "163752.517500", "163752.977500", "163753.437500", "163753.897500", "163754.357500", "163754.817500", "163755.277500", "163755.737500", "163756.197500", "163756.657500", "163757.117500", "163757.577500", "163758.037500", "163758.497500", "163758.957500", "163759.417500", "163759.877500", "163800.337500", "163800.797500", "163801.257500", "163801.717500", "163802.177500", "163802.637500", "163803.097500", "163803.557500", "163804.017500", "163804.477500", "163804.937500", "163805.397500", "163805.857500", "163806.317500", "163806.777500", "163807.237500", "163807.697500", "163808.157500", "163808.617500", "163809.077500", "163809.537500", "163809.997500", "163810.457500", "163810.917500", "163811.377500", "163811.837500", "163812.297500", "163812.757500", "163813.217500", "163813.677500", "163814.137500", "163814.597500", "163815.057500", "163815.517500", "163815.977500", "163816.437500", "163816.897500", "163817.357500", "163817.817500", "163818.277500", "163818.737500", "163819.197500", "163819.657500", "163820.117500", "163820.577500", "163821.037500", "163821.497500", "163821.957500", "163822.417500", "163822.877500", "163823.337500", "163823.797500", "163824.257500", "163824.717500", "163825.177500", "163825.637500", "163826.097500", "163826.557500", "163827.017500", "163827.477500", "163827.937500", "163828.397500", "163828.857500", "163829.317500", "163829.777500", "163830.237500", "163830.697500", "163831.157500", "163831.617500", "163832.077500", "163832.537500", "163832.997500", "163833.457500", "163833.917500", "163834.377500", "163834.837500", "163835.297500", "163835.757500", "163836.217500", "163836.677500", "163837.137500", "163837.597500", "163838.057500", "163838.517500", "163838.977500", "163839.437500", "163839.897500", "163840.357500", "163840.817500", "163841.277500", "163841.737500", "163842.197500", "163842.657500", "163843.117500", "163843.577500", "163844.037500", "163844.497500", "163844.957500", "163845.417500", "163845.877500", "163846.337500", "163846.797500", "163847.257500", "163847.717500", "163848.177500", "163848.637500", "163849.097500", "163849.557500", "163850.017500", "163850.477500", "163850.937500", "163851.397500", "163851.857500", "163852.317500", "163852.777500", "163853.237500", "163853.697500", "163854.157500", "163854.617500", "163855.077500", "163855.537500", "163855.997500", "163856.457500", "163856.917500", "163857.377500", "163857.837500", "163858.297500", "163858.757500", "163859.217500", "163859.677500", "163900.137500", "163900.597500", "163901.057500", "163901.517500", "163901.977500", "163902.437500", "163902.897500", "163903.357500", "163903.817500", "163904.277500", "163904.737500", "163905.197500", "163905.657500", "163906.117500", "163906.577500", "163907.037500", "163907.497500", "163907.957500", "163908.417500", "163908.877500", "163909.337500", "163909.797500", "163910.257500", "163910.717500", "163911.177500", "163911.637500", "163912.097500", "163912.557500", "163913.017500", "163913.477500", "163913.937500", "163914.397500", "163914.857500", "163915.317500", "163915.777500", "163916.237500", "163916.697500", "163917.157500", "163917.617500", "163918.077500", "163918.537500", "163918.997500", "163919.457500", "163919.917500", "163920.377500", "163920.837500", "163921.297500", "163921.757500", "163922.217500", "163922.677500", "163923.137500", "163923.597500", "163924.057500", "163924.517500", "163924.977500", "163925.437500", "163925.897500", "163926.357500", "163926.817500", "163927.277500", "163927.737500", "163928.197500", "163928.657500", "163929.117500", "163929.577500", "163930.037500", "163930.497500", "163930.957500", "163931.417500", "163931.877500", "163932.337500", "163932.797500", "163933.257500", "163933.717500", "163934.177500", "163934.637500", "163935.097500", "163935.557500", "163936.017500", "163936.477500", "163936.937500", "163937.397500", "163937.857500", "163938.317500", "163938.777500", "163939.237500", "163939.697500", "163940.157500", "163940.617500", "163941.077500", "163941.537500", "163941.997500", "163942.457500", "163942.917500", "163943.377500", "163943.837500", "163944.297500", "163944.757500", "163945.217500", "163945.677500", "163946.137500", "163946.597500", "163947.057500", "163947.517500", "163947.977500", "163948.437500", "163948.897500", "163949.357500", "163949.817500", "163950.277500", "163950.737500", "163951.197500", "163951.657500", "163952.117500", "163952.577500", "163953.037500", "163953.497500", "163953.957500", "163954.417500", "163954.877500", "163955.337500", "163955.797500", "163956.257500", "163956.717500", "163957.177500", "163957.637500", "163958.097500", "163958.557500", "163959.017500", "163959.477500", "163959.937500", "164000.397500", "164000.857500", "164001.317500", "164001.777500", "164002.237500", "164002.697500", "164003.157500", "164003.617500", "164004.077500", "164004.537500", "164004.997500", "164005.457500", "164005.917500", "164006.377500", "164006.837500", "164007.297500", "164007.757500", "164008.217500", "164008.677500", "164009.137500", "164009.597500", "164010.057500", "164010.517500", "164010.977500", "164011.437500", "164011.897500", "164012.357500", "164012.817500", "164013.277500", "164013.737500", "164014.197500", "164014.657500", "164015.117500", "164015.577500", "164016.037500", "164016.497500", "164016.957500", "164017.417500", "164017.877500", "164018.337500", "164018.797500", "164019.257500", "164019.717500", "164020.177500", "164020.637500", "164021.097500", "164021.557500", "164022.017500", "164022.477500", "164022.937500", "164023.397500", "164023.857500", "164024.317500", "164024.777500", "164025.237500", "164025.697500", "164026.157500", "164026.617500", "164027.077500", "164027.537500", "164027.997500", "164028.457500", "164028.917500", "164029.377500", "164029.837500", "164030.297500", "164030.757500", "164031.217500", "164031.677500", "164032.137500", "164032.597500", "164033.057500", "164033.517500", "164033.977500", "164034.437500", "164034.897500", "164035.357500", "164035.817500", "164036.277500", "164036.737500", "164037.197500", "164037.657500", "164038.117500", "164038.577500", "164039.037500", "164039.497500", "164039.957500", "164040.417500", "164040.877500", "164041.337500", "164041.797500", "164042.257500", "164042.717500", "164043.177500", "164043.637500", "164044.097500", "164044.557500", "164045.017500", "164045.477500", "164045.937500", "164046.397500", "164046.857500", "164047.317500", "164047.777500", "164048.237500", "164048.697500", "164049.157500", "164049.617500", "164050.077500", "164050.537500", "164050.997500", "164051.457500", "164051.917500", "164052.377500", "164052.837500", "164053.297500", "164053.757500", "164054.217500", "164054.677500", "164055.137500", "164055.597500", "164056.057500", "164056.517500", "164056.977500", "164057.437500", "164057.897500", "164058.357500", "164058.817500", "164059.277500", "164059.737500", "164100.197500", "164100.657500", "164101.117500", "164101.577500", "164102.037500", "164102.497500", "164102.957500", "164103.417500", "164103.877500", "164104.337500", "164104.797500", "164105.257500", "164105.717500", "164106.177500", "164106.637500", "164107.097500", "164107.557500", "164108.017500", "164108.477500", "164108.937500", "164109.397500", "164109.857500", "164110.317500", "164110.777500", "164111.237500", "164111.697500", "164112.157500", "164112.617500", "164113.077500", "164113.537500", "164113.997500", "164114.457500", "164114.917500", "164115.377500", "164115.837500", "164116.297500", "164116.757500", "164117.217500", "164117.677500", "164118.137500", "164118.597500", "164119.057500", "164119.517500", "164119.977500", "164120.437500", "164120.897500", "164121.357500", "164121.817500", "164122.277500", "164122.737500", "164123.197500", "164123.657500", "164124.117500", "164124.577500", "164125.037500", "164125.497500", "164125.957500", "164126.417500", "164126.877500", "164127.337500", "164127.797500", "164128.257500", "164128.717500", "164129.177500", "164129.637500", "164130.097500", "164130.557500", "164131.017500", "164131.477500", "164131.937500", "164132.397500", "164132.857500", "164133.317500", "164133.777500", "164134.237500", "164134.697500", "164135.157500", "164135.617500", "164136.077500", "164136.537500"],
