{
  "AcquisitionMatrixPE": 82,
  "AcquisitionNumber": 1,
  "AcquisitionTime": "18:03:50.930000",
  "BandwidthPerPixelPhaseEncode": 24.888,
  "BaseResolution": 82,
  "BodyPartExamined": "BRAIN",
  "ConsistencyInfo": "N4_VE11E_LATEST_20181129",
  "ConversionSoftware": "dcm2niix",
  "ConversionSoftwareVersion": "v1.0.20201102",
  "DerivedVendorReportedEchoSpacing": 0.00049,
  "DeviceSerialNumber": "66112",
  "DwellTime": 2e-06,
  "EchoTime": 0.0272,
  "EchoTrainLength": 82,
  "EffectiveEchoSpacing": 0.00049,
  "FlipAngle": 44,
  "ImageComments": "Unaliased MB8/PE3",
  "ImageOrientationPatientDICOM": [0.999284, 0.0378312, -0.000777441, -0.0373407, 0.989235, 0.141491],
  "ImageType": [
    "ORIGINAL",
    "PRIMARY",
    "M",
    "MB",
    "ND",
    "NORM",
    "MOSAIC"
],
  "ImagingFrequency": 123.252,
  "InPlanePhaseEncodingDirectionDICOM": "COL",
  "InstitutionAddress": "Maynard 3,Hanover,NH,US,03755",
  "InstitutionName": "Dartmouth College - PBS",
  "InstitutionalDepartmentName": "Department",
  "MRAcquisitionType": "2D",
  "MagneticFieldStrength": 3,
  "Manufacturer": "Siemens",
  "ManufacturersModelName": "Prisma",
  "Modality": "MR",
  "MultibandAccelerationFactor": 8,
  "PartialFourier": 1,
  "PatientPosition": "HFS",
  "PercentPhaseFOV": 100,
  "PercentSampling": 100,
  "PhaseEncodingDirection": "j-",
  "PhaseEncodingSteps": 82,
  "PhaseResolution": 1,
  "PixelBandwidth": 3050,
  "ProcedureStepDescription": "Wager_Wager^1076_spacetop",
  "ProtocolName": "func_run-01_task-social_acq-ap-mb8",
  "PulseSequenceDetails": "%CustomerSeq%\\cmrr_mbep2d_bold",
  "ReceiveCoilActiveElements": "HEA;HEP",
  "ReceiveCoilName": "Head_32",
  "ReconMatrixPE": 82,
  "RepetitionTime": 0.46,
  "SAR": 0.0890814,
  "ScanOptions": "FS",
  "ScanningSequence": "EP",
  "SequenceName": "epfid2d1_82",
  "SequenceVariant": "SK\\SS",
  "SeriesDescription": "func_run-01_task-social_acq-ap-mb8",
  "SeriesNumber": 8,
  "ShimSetting": [4143, -7735, -7267, 686, -25, 38, 5, 86],
  "SliceThickness": 2.7,
  "SliceTiming": [0, 0.2525, 0.0625, 0.315, 0.125, 0.3775, 0.19, 0, 0.2525, 0.0625, 0.315, 0.125, 0.3775, 0.19, 0, 0.2525, 0.0625, 0.315, 0.125, 0.3775, 0.19, 0, 0.2525, 0.0625, 0.315, 0.125, 0.3775, 0.19, 0, 0.2525, 0.0625, 0.315, 0.125, 0.3775, 0.19, 0, 0.2525, 0.0625, 0.315, 0.125, 0.3775, 0.19, 0, 0.2525, 0.0625, 0.315, 0.125, 0.3775, 0.19, 0, 0.2525, 0.0625, 0.315, 0.125, 0.3775, 0.19],
  "SoftwareVersions": "syngo MR E11",
  "SpacingBetweenSlices": 2.7,
  "StationName": "AWP66112",
  "TaskName": "social",
  "TotalReadoutTime": 0.03969,
  "TxRefAmp": 228.71,
  "WipMemBlock": "bf6305f9-0e89-4d85-8916-bcc616884bed||Sequence: R016 ve11e/master r/434b28f1; Aug  7 2019 18:53:46 by eja",
  "dcmmeta_affine": [
    [-2.6810054779052734, -0.10018228739500046, -0.016528988257050514, 115.95728302001953],
    [-0.10149829089641571, 2.654045343399048, 0.38167399168014526, -100.1383056640625],
    [-0.002085817977786064, -0.3796102702617645, 2.6728360652923584, -44.41196823120117],
    [0.0, 0.0, 0.0, 1.0]
],
  "dcmmeta_reorient_transform": [
    [0.0, -1.0, 0.0, 81.0],
    [1.0, 0.0, 0.0, 0.0],
    [0.0, 0.0, 1.0, 0.0],
    [0.0, 0.0, 0.0, 1.0]
],
  "dcmmeta_shape": [82, 82, 56, 872],
  "dcmmeta_slice_dim": 2,
  "dcmmeta_version": 0.6,
  "global": {
    "const": {
      "AccessionNumber": "A003980",
      "AcquisitionMatrix": [82, 0, 0, 82],
      "AngioFlag": "N",
      "BitsAllocated": 16,
      "BitsStored": 16,
      "BodyPartExamined": "BRAIN",
      "Columns": 656,
      "EchoNumbers": 1,
      "EchoTime": 27.2,
      "EchoTrainLength": 82,
      "FlipAngle": 44.0,
      "HighBit": 15,
      "ImageOrientationPatient": [0.9992838422546, 0.03783118018212, -0.0007774412568, -0.0373406694651, 0.98923503017026, 0.14149109331664],
      "ImagePositionPatient": [-848.53878149184, -905.68036496786, -183.50991297465],
      "ImageType": [
        "ORIGINAL",
        "PRIMARY",
        "M",
        "MB",
        "ND",
        "NORM",
        "MOSAIC"
],
      "ImagedNucleus": "1H",
      "ImagingFrequency": 123.252186,
      "InPlanePhaseEncodingDirection": "COL",
      "MRAcquisitionType": "2D",
      "MagneticFieldStrength": 3.0,
      "Manufacturer": "SIEMENS",
      "ManufacturerModelName": "Prisma",
      "Modality": "MR",
      "NumberOfAverages": 1.0,
      "NumberOfPhaseEncodingSteps": 82,
      "PercentPhaseFieldOfView": 100.0,
      "PercentSampling": 100.0,
      "PerformedProcedureStepStartTime": "175025.054000",
      "PhotometricInterpretation": "MONOCHROME2",
      "PixelBandwidth": 3050.0,
      "PixelRepresentation": 0,
      "PixelSpacing": [2.6829268932343, 2.6829268932343],
      "ProtocolName": "func_run-01_task-social_acq-ap-mb8",
      "RepetitionTime": 460.0,
      "Rows": 656,
      "SAR": 0.08908138974852,
      "SamplesPerPixel": 1,
      "ScanOptions": "FS",
      "ScanningSequence": "EP",
      "SequenceName": "epfid2d1_82",
      "SequenceVariant": [
        "SK",
        "SS"
],
      "SeriesDescription": "func_run-01_task-social_acq-ap-mb8",
      "SeriesNumber": 8,
      "SeriesTime": "180413.590000",
      "SliceLocation": -58.83064504732,
      "SliceThickness": 2.7000000476837,
      "SmallestImagePixelValue": 0,
      "SoftwareVersions": "syngo MR E11",
      "SpacingBetweenSlices": 2.7000000524983,
      "SpecificCharacterSet": "ISO_IR 100",
      "StudyID": "2",
      "StudyTime": "175025.005000",
      "TransmitCoilName": "Body",
      "VariableFlipAngleFlag": "N",
      "WindowCenterWidthExplanation": "Algo1"
    },
    "slices": {}
  },
  "time": {
    "samples": {
      "AcquisitionNumber": [1, 2, 3, 4, 5, 6, 7, 8, 9, 10, 11, 12, 13, 14, 15, 16, 17, 18, 19, 20, 21, 22, 23, 24, 25, 26, 27, 28, 29, 30, 31, 32, 33, 34, 35, 36, 37, 38, 39, 40, 41, 42, 43, 44, 45, 46, 47, 48, 49, 50, 51, 52, 53, 54, 55, 56, 57, 58, 59, 60, 61, 62, 63, 64, 65, 66, 67, 68, 69, 70, 71, 72, 73, 74, 75, 76, 77, 78, 79, 80, 81, 82, 83, 84, 85, 86, 87, 88, 89, 90, 91, 92, 93, 94, 95, 96, 97, 98, 99, 100, 101, 102, 103, 104, 105, 106, 107, 108, 109, 110, 111, 112, 113, 114, 115, 116, 117, 118, 119, 120, 121, 122, 123, 124, 125, 126, 127, 128, 129, 130, 131, 132, 133, 134, 135, 136, 137, 138, 139, 140, 141, 142, 143, 144, 145, 146, 147, 148, 149, 150, 151, 152, 153, 154, 155, 156, 157, 158, 159, 160, 161, 162, 163, 164, 165, 166, 167, 168, 169, 170, 171, 172, 173, 174, 175, 176, 177, 178, 179, 180, 181, 182, 183, 184, 185, 186, 187, 188, 189, 190, 191, 192, 193, 194, 195, 196, 197, 198, 199, 200, 201, 202, 203, 204, 205, 206, 207, 208, 209, 210, 211, 212, 213, 214, 215, 216, 217, 218, 219, 220, 221, 222, 223, 224, 225, 226, 227, 228, 229, 230, 231, 232, 233, 234, 235, 236, 237, 238, 239, 240, 241, 242, 243, 244, 245, 246, 247, 248, 249, 250, 251, 252, 253, 254, 255, 256, 257, 258, 259, 260, 261, 262, 263, 264, 265, 266, 267, 268, 269, 270, 271, 272, 273, 274, 275, 276, 277, 278, 279, 280, 281, 282, 283, 284, 285, 286, 287, 288, 289, 290, 291, 292, 293, 294, 295, 296, 297, 298, 299, 300, 301, 302, 303, 304, 305, 306, 307, 308, 309, 310, 311, 312, 313, 314, 315, 316, 317, 318, 319, 320, 321, 322, 323, 324, 325, 326, 327, 328, 329, 330, 331, 332, 333, 334, 335, 336, 337, 338, 339, 340, 341, 342, 343, 344, 345, 346, 347, 348, 349, 350, 351, 352, 353, 354, 355, 356, 357, 358, 359, 360, 361, 362, 363, 364, 365, 366, 367, 368, 369, 370, 371, 372, 373, 374, 375, 376, 377, 378, 379, 380, 381, 382, 383, 384, 385, 386, 387, 388, 389, 390, 391, 392, 393, 394, 395, 396, 397, 398, 399, 400, 401, 402, 403, 404, 405, 406, 407, 408, 409, 410, 411, 412, 413, 414, 415, 416, 417, 418, 419, 420, 421, 422, 423, 424, 425, 426, 427, 428, 429, 430, 431, 432, 433, 434, 435, 436, 437, 438, 439, 440, 441, 442, 443, 444, 445, 446, 447, 448, 449, 450, 451, 452, 453, 454, 455, 456, 457, 458, 459, 460, 461, 462, 463, 464, 465, 466, 467, 468, 469, 470, 471, 472, 473, 474, 475, 476, 477, 478, 479, 480, 481, 482, 483, 484, 485, 486, 487, 488, 489, 490, 491, 492, 493, 494, 495, 496, 497, 498, 499, 500, 501, 502, 503, 504, 505, 506, 507, 508, 509, 510, 511, 512, 513, 514, 515, 516, 517, 518, 519, 520, 521, 522, 523, 524, 525, 526, 527, 528, 529, 530, 531, 532, 533, 534, 535, 536, 537, 538, 539, 540, 541, 542, 543, 544, 545, 546, 547, 548, 549, 550, 551, 552, 553, 554, 555, 556, 557, 558, 559, 560, 561, 562, 563, 564, 565, 566, 567, 568, 569, 570, 571, 572, 573, 574, 575, 576, 577, 578, 579, 580, 581, 582, 583, 584, 585, 586, 587, 588, 589, 590, 591, 592, 593, 594, 595, 596, 597, 598, 599, 600, 601, 602, 603, 604, 605, 606, 607, 608, 609, 610, 611, 612, 613, 614, 615, 616, 617, 618, 619, 620, 621, 622, 623, 624, 625, 626, 627, 628, 629, 630, 631, 632, 633, 634, 635, 636, 637, 638, 639, 640, 641, 642, 643, 644, 645, 646, 647, 648, 649, 650, 651, 652, 653, 654, 655, 656, 657, 658, 659, 660, 661, 662, 663, 664, 665, 666, 667, 668, 669, 670, 671, 672, 673, 674, 675, 676, 677, 678, 679, 680, 681, 682, 683, 684, 685, 686, 687, 688, 689, 690, 691, 692, 693, 694, 695, 696, 697, 698, 699, 700, 701, 702, 703, 704, 705, 706, 707, 708, 709, 710, 711, 712, 713, 714, 715, 716, 717, 718, 719, 720, 721, 722, 723, 724, 725, 726, 727, 728, 729, 730, 731, 732, 733, 734, 735, 736, 737, 738, 739, 740, 741, 742, 743, 744, 745, 746, 747, 748, 749, 750, 751, 752, 753, 754, 755, 756, 757, 758, 759, 760, 761, 762, 763, 764, 765, 766, 767, 768, 769, 770, 771, 772, 773, 774, 775, 776, 777, 778, 779, 780, 781, 782, 783, 784, 785, 786, 787, 788, 789, 790, 791, 792, 793, 794, 795, 796, 797, 798, 799, 800, 801, 802, 803, 804, 805, 806, 807, 808, 809, 810, 811, 812, 813, 814, 815, 816, 817, 818, 819, 820, 821, 822, 823, 824, 825, 826, 827, 828, 829, 830, 831, 832, 833, 834, 835, 836, 837, 838, 839, 840, 841, 842, 843, 844, 845, 846, 847, 848, 849, 850, 851, 852, 853, 854, 855, 856, 857, 858, 859, 860, 861, 862, 863, 864, 865, 866, 867, 868, 869, 870, 871, 872],
      "AcquisitionTime": ["180350.930000", "180351.390000", "180351.850000", "180352.310000", "180352.770000", "180353.230000", "180353.690000", "180354.150000", "180354.610000", "180355.070000", "180355.530000", "180355.990000", "180356.450000", "180356.910000", "180357.370000", "180357.830000", "180358.290000", "180358.750000", "180359.210000", "180359.670000", "180400.130000", "180400.590000", "180401.050000", "180401.510000", "180401.970000", "180402.430000", "180402.890000", "180403.350000", "180403.810000", "180404.270000", "180404.730000", "180405.190000", "180405.650000", "180406.110000", "180406.570000", "180407.030000", "180407.490000", "180407.950000", "180408.410000", "180408.870000", "180409.330000", "180409.790000", "180410.250000", "180410.710000", "180411.170000", "180411.630000", "180412.090000", "180412.550000", "180413.010000", "180413.470000", "180413.930000", "180414.390000", "180414.850000", "180415.310000", "180415.770000", "180416.230000", "180416.690000", "180417.150000", "180417.610000", "180418.070000", "180418.530000", "180418.990000", "180419.450000", "180419.910000", "180420.370000", "180420.830000", "180421.290000", "180421.750000", "180422.210000", "180422.670000", "180423.130000", "180423.590000", "180424.050000", "180424.510000", "180424.970000", "180425.430000", "180425.890000", "180426.350000", "180426.810000", "180427.270000", "180427.730000", "180428.190000", "180428.650000", "180429.110000", "180429.570000", "180430.030000", "180430.490000", "180430.950000", "180431.410000", "180431.870000", "180432.330000", "180432.790000", "180433.250000", "180433.710000", "180434.170000", "180434.630000", "180435.090000", "180435.550000", "180436.010000", "180436.470000", "180436.930000", "180437.390000", "180437.850000", "180438.310000", "180438.770000", "180439.230000", "180439.690000", "180440.150000", "180440.610000", "180441.070000", "180441.530000", "180441.990000", "180442.450000", "180442.910000", "180443.370000", "180443.830000", "180444.290000", "180444.750000", "180445.210000", "180445.670000", "180446.130000", "180446.590000", "180447.050000", "180447.510000", "180447.970000", "180448.430000", "180448.890000", "180449.350000", "180449.810000", "180450.270000", "180450.730000", "180451.190000", "180451.650000", "180452.110000", "180452.570000", "180453.030000", "180453.490000", "180453.950000", "180454.410000", "180454.870000", "180455.330000", "180455.790000", "180456.250000", "180456.710000", "180457.170000", "180457.630000", "180458.090000", "180458.550000", "180459.010000", "180459.470000", "180459.930000", "180500.390000", "180500.850000", "180501.310000", "180501.770000", "180502.230000", "180502.690000", "180503.150000", "180503.610000", "180504.070000", "180504.530000", "180504.990000", "180505.450000", "180505.910000", "180506.370000", "180506.830000", "180507.290000", "180507.750000", "180508.210000", "180508.670000", "180509.130000", "180509.590000", "180510.050000", "180510.510000", "180510.970000", "180511.430000", "180511.890000", "180512.350000", "180512.810000", "180513.270000", "180513.730000", "180514.190000", "180514.650000", "180515.110000", "180515.570000", "180516.030000", "180516.490000", "180516.950000", "180517.410000", "180517.870000", "180518.330000", "180518.790000", "180519.250000", "180519.710000", "180520.170000", "180520.630000", "180521.090000", "180521.550000", "180522.010000", "180522.470000", "180522.930000", "180523.390000", "180523.850000", "180524.310000", "180524.770000", "180525.230000", "180525.690000", "180526.150000", "180526.610000", "180527.070000", "180527.530000", "180527.990000", "180528.450000", "180528.910000", "180529.370000", "180529.830000", "180530.290000", "180530.750000", "180531.210000", "180531.670000", "180532.130000", "180532.590000", "180533.050000", "180533.510000", "180533.970000", "180534.430000", "180534.890000", "180535.350000", "180535.810000", "180536.270000", "180536.730000", "180537.190000", "180537.650000", "180538.110000", "180538.570000", "180539.030000", "180539.490000", "180539.950000", "180540.410000", "180540.870000", "180541.330000", "180541.790000", "180542.250000", "180542.710000", "180543.170000", "180543.630000", "180544.090000", "180544.550000", "180545.010000", "180545.470000", "180545.930000", "180546.390000", "180546.850000", "180547.310000", "180547.770000", "180548.230000", "180548.690000", "180549.150000", "180549.610000", "180550.070000", "180550.530000", "180550.990000", "180551.450000", "180551.910000", "180552.370000", "180552.830000", "180553.290000", "180553.750000", "180554.210000", "180554.670000", "180555.130000", "180555.590000", "180556.050000", "180556.510000", "180556.970000", "180557.430000", "180557.890000", "180558.350000", "180558.810000", "180559.270000", "180559.730000", "180600.190000", "180600.650000", "180601.110000", "180601.570000", "180602.030000", "180602.490000", "180602.950000", "180603.410000", "180603.870000", "180604.330000", "180604.790000", "180605.250000", "180605.710000", "180606.170000", "180606.630000", "180607.090000", "180607.550000", "180608.010000", "180608.470000", "180608.930000", "180609.390000", "180609.850000", "180610.310000", "180610.770000", "180611.230000", "180611.690000", "180612.150000", "180612.610000", "180613.070000", "180613.530000", "180613.990000", "180614.450000", "180614.910000", "180615.370000", "180615.830000", "180616.290000", "180616.750000", "180617.210000", "180617.670000", "180618.130000", "180618.590000", "180619.050000", "180619.510000", "180619.970000", "180620.430000", "180620.890000", "180621.350000", "180621.810000", "180622.270000", "180622.730000", "180623.190000", "180623.650000", "180624.110000", "180624.570000", "180625.030000", "180625.490000", "180625.950000", "180626.410000", "180626.870000", "180627.330000", "180627.790000", "180628.250000", "180628.710000", "180629.170000", "180629.630000", "180630.090000", "180630.550000", "180631.010000", "180631.470000", "180631.930000", "180632.390000", "180632.850000", "180633.310000", "180633.770000", "180634.230000", "180634.690000", "180635.150000", "180635.610000", "180636.070000", "180636.530000", "180636.990000", "180637.450000", "180637.910000", "180638.370000", "180638.830000", "180639.290000", "180639.750000", "180640.210000", "180640.670000", "180641.130000", "180641.590000", "180642.050000", "180642.510000", "180642.970000", "180643.430000", "180643.890000", "180644.350000", "180644.810000", "180645.270000", "180645.730000", "180646.190000", "180646.650000", "180647.110000", "180647.570000", "180648.030000", "180648.490000", "180648.950000", "180649.410000", "180649.870000", "180650.330000", "180650.790000", "180651.250000", "180651.710000", "180652.170000", "180652.630000", "180653.090000", "180653.550000", "180654.010000", "180654.470000", "180654.930000", "180655.390000", "180655.850000", "180656.310000", "180656.770000", "180657.230000", "180657.690000", "180658.150000", "180658.610000", "180659.070000", "180659.530000", "180659.990000", "180700.450000", "180700.910000", "180701.370000", "180701.830000", "180702.290000", "180702.750000", "180703.210000", "180703.670000", "180704.130000", "180704.590000", "180705.050000", "180705.510000", "180705.970000", "180706.430000", "180706.890000", "180707.350000", "180707.810000", "180708.270000", "180708.730000", "180709.190000", "180709.650000", "180710.110000", "180710.570000", "180711.030000", "180711.490000", "180711.950000", "180712.410000", "180712.870000", "180713.330000", "180713.790000", "180714.250000", "180714.710000", "180715.170000", "180715.630000", "180716.090000", "180716.550000", "180717.010000", "180717.470000", "180717.930000", "180718.390000", "180718.850000", "180719.310000", "180719.770000", "180720.230000", "180720.690000", "180721.150000", "180721.610000", "180722.070000", "180722.530000", "180722.990000", "180723.450000", "180723.910000", "180724.370000", "180724.830000", "180725.290000", "180725.750000", "180726.210000", "180726.670000", "180727.130000", "180727.590000", "180728.050000", "180728.510000", "180728.970000", "180729.430000", "180729.890000", "180730.350000", "180730.810000", "180731.270000", "180731.730000", "180732.190000", "180732.650000", "180733.110000", "180733.570000", "180734.030000", "180734.490000", "180734.950000", "180735.410000", "180735.870000", "180736.330000", "180736.790000", "180737.250000", "180737.710000", "180738.170000", "180738.630000", "180739.090000", "180739.550000", "180740.010000", "180740.470000", "180740.930000", "180741.390000", "180741.850000", "180742.310000", "180742.770000", "180743.230000", "180743.690000", "180744.150000", "180744.610000", "180745.070000", "180745.530000", "180745.990000", "180746.450000", "180746.910000", "180747.370000", "180747.830000", "180748.290000", "180748.750000", "180749.210000", "180749.670000", "180750.130000", "180750.590000", "180751.050000", "180751.510000", "180751.970000", "180752.430000", "180752.890000", "180753.350000", "180753.810000", "180754.270000", "180754.730000", "180755.190000", "180755.650000", "180756.110000", "180756.570000", "180757.030000", "180757.490000", "180757.950000", "180758.410000", "180758.870000", "180759.330000", "180759.790000", "180800.250000", "180800.710000", "180801.170000", "180801.630000", "180802.090000", "180802.550000", "180803.010000", "180803.470000", "180803.930000", "180804.390000", "180804.850000", "180805.310000", "180805.770000", "180806.230000", "180806.690000", "180807.150000", "180807.610000", "180808.070000", "180808.530000", "180808.990000", "180809.450000", "180809.910000", "180810.370000", "180810.830000", "180811.290000", "180811.750000", "180812.210000", "180812.670000", "180813.130000", "180813.590000", "180814.050000", "180814.510000", "180814.970000", "180815.430000", "180815.890000", "180816.350000", "180816.810000", "180817.270000", "180817.730000", "180818.190000", "180818.650000", "180819.110000", "180819.570000", "180820.030000", "180820.490000", "180820.950000", "180821.410000", "180821.870000", "180822.330000", "180822.790000", "180823.250000", "180823.710000", "180824.170000", "180824.630000", "180825.090000", "180825.550000", "180826.010000", "180826.470000", "180826.930000", "180827.390000", "180827.850000", "180828.310000", "180828.770000", "180829.230000", "180829.690000", "180830.150000", "180830.610000", "180831.070000", "180831.530000", "180831.990000", "180832.450000", "180832.910000", "180833.370000", "180833.830000", "180834.290000", "180834.750000", "180835.210000", "180835.670000", "180836.130000", "180836.590000", "180837.050000", "180837.510000", "180837.970000", "180838.430000", "180838.890000", "180839.350000", "180839.810000", "180840.270000", "180840.730000", "180841.190000", "180841.650000", "180842.110000", "180842.570000", "180843.030000", "180843.490000", "180843.950000", "180844.410000", "180844.870000", "180845.330000", "180845.790000", "180846.250000", "180846.710000", "180847.170000", "180847.630000", "180848.090000", "180848.550000", "180849.010000", "180849.470000", "180849.930000", "180850.390000", "180850.850000", "180851.310000", "180851.770000", "180852.230000", "180852.690000", "180853.150000", "180853.610000", "180854.070000", "180854.530000", "180854.990000", "180855.450000", "180855.910000", "180856.370000", "180856.830000", "180857.290000", "180857.750000", "180858.210000", "180858.670000", "180859.130000", "180859.590000", "180900.050000", "180900.510000", "180900.970000", "180901.430000", "180901.890000", "180902.350000", "180902.810000", "180903.270000", "180903.730000", "180904.190000", "180904.650000", "180905.110000", "180905.570000", "180906.030000", "180906.490000", "180906.950000", "180907.410000", "180907.870000", "180908.330000", "180908.790000", "180909.250000", "180909.710000", "180910.170000", "180910.630000", "180911.090000", "180911.550000", "180912.010000", "180912.470000", "180912.930000", "180913.390000", "180913.850000", "180914.310000", "180914.770000", "180915.230000", "180915.690000", "180916.150000", "180916.610000", "180917.070000", "180917.530000", "180917.990000", "180918.450000", "180918.910000", "180919.370000", "180919.830000", "180920.290000", "180920.750000", "180921.210000", "180921.670000", "180922.130000", "180922.590000", "180923.050000", "180923.510000", "180923.970000", "180924.430000", "180924.890000", "180925.350000", "180925.810000", "180926.270000", "180926.730000", "180927.190000", "180927.650000", "180928.110000", "180928.570000", "180929.030000", "180929.490000", "180929.950000", "180930.410000", "180930.870000", "180931.330000", "180931.790000", "180932.250000", "180932.710000", "180933.170000", "180933.630000", "180934.090000", "180934.550000", "180935.010000", "180935.470000", "180935.930000", "180936.390000", "180936.850000", "180937.310000", "180937.770000", "180938.230000", "180938.690000", "180939.150000", "180939.610000", "180940.070000", "180940.530000", "180940.990000", "180941.450000", "180941.910000", "180942.370000", "180942.830000", "180943.290000", "180943.750000", "180944.210000", "180944.670000", "180945.130000", "180945.590000", "180946.050000", "180946.510000", "180946.970000", "180947.430000", "180947.890000", "180948.350000", "180948.810000", "180949.270000", "180949.730000", "180950.190000", "180950.650000", "180951.110000", "180951.570000", "180952.030000", "180952.490000", "180952.950000", "180953.410000", "180953.870000", "180954.330000", "180954.790000", "180955.250000", "180955.710000", "180956.170000", "180956.630000", "180957.090000", "180957.550000", "180958.010000", "180958.470000", "180958.930000", "180959.390000", "180959.850000", "181000.310000", "181000.770000", "181001.230000", "181001.690000", "181002.150000", "181002.610000", "181003.070000", "181003.530000", "181003.990000", "181004.450000", "181004.910000", "181005.370000", "181005.830000", "181006.290000", "181006.750000", "181007.210000", "181007.670000", "181008.130000", "181008.590000", "181009.050000", "181009.510000", "181009.970000", "181010.430000", "181010.890000", "181011.350000", "181011.810000", "181012.270000", "181012.730000", "181013.190000", "181013.650000", "181014.110000", "181014.570000", "181015.030000", "181015.490000", "181015.950000", "181016.410000", "181016.870000", "181017.330000", "181017.790000", "181018.250000", "181018.710000", "181019.170000", "181019.630000", "181020.090000", "181020.550000", "181021.010000", "181021.470000", "181021.930000", "181022.390000", "181022.850000", "181023.310000", "181023.770000", "181024.230000", "181024.690000", "181025.150000", "181025.610000", "181026.070000", "181026.530000", "181026.990000", "181027.450000", "181027.910000", "181028.370000", "181028.830000", "181029.290000", "181029.750000", "181030.210000", "181030.670000", "181031.130000", "181031.590000"],
