{
  "AcquisitionMatrixPE": 82,
  "AcquisitionNumber": 1,
  "AcquisitionTime": "18:17:57.897500",
  "BandwidthPerPixelPhaseEncode": 24.888,
  "BaseResolution": 82,
  "BodyPartExamined": "BRAIN",
  "ConsistencyInfo": "N4_VE11E_LATEST_20181129",
  "ConversionSoftware": "dcm2niix",
  "ConversionSoftwareVersion": "v1.0.20201102",
  "DerivedVendorReportedEchoSpacing": 0.00049,
  "DeviceSerialNumber": "66112",
  "DwellTime": 2e-06,
  "EchoTime": 0.0272,
  "EchoTrainLength": 82,
  "EffectiveEchoSpacing": 0.00049,
  "FlipAngle": 44,
  "ImageComments": "Unaliased MB8/PE3",
  "ImageOrientationPatientDICOM": [0.999284, 0.0378312, -0.000777441, -0.0373407, 0.989235, 0.141491],
  "ImageType": [
    "ORIGINAL",
    "PRIMARY",
    "M",
    "MB",
    "ND",
    "NORM",
    "MOSAIC"
],
  "ImagingFrequency": 123.252,
  "InPlanePhaseEncodingDirectionDICOM": "COL",
  "InstitutionAddress": "Maynard 3,Hanover,NH,US,03755",
  "InstitutionName": "Dartmouth College - PBS",
  "InstitutionalDepartmentName": "Department",
  "MRAcquisitionType": "2D",
  "MagneticFieldStrength": 3,
  "Manufacturer": "Siemens",
  "ManufacturersModelName": "Prisma",
  "Modality": "MR",
  "MultibandAccelerationFactor": 8,
  "PartialFourier": 1,
  "PatientPosition": "HFS",
  "PercentPhaseFOV": 100,
  "PercentSampling": 100,
  "PhaseEncodingDirection": "j-",
  "PhaseEncodingSteps": 82,
  "PhaseResolution": 1,
  "PixelBandwidth": 3050,
  "ProcedureStepDescription": "Wager_Wager^1076_spacetop",
  "ProtocolName": "func_run-03_task-social_acq-ap-mb8",
  "PulseSequenceDetails": "%CustomerSeq%\\cmrr_mbep2d_bold",
  "ReceiveCoilActiveElements": "HEA;HEP",
  "ReceiveCoilName": "Head_32",
  "ReconMatrixPE": 82,
  "RepetitionTime": 0.46,
  "SAR": 0.0890814,
  "ScanOptions": "FS",
  "ScanningSequence": "EP",
  "SequenceName": "epfid2d1_82",
  "SequenceVariant": "SK\\SS",
  "SeriesDescription": "func_run-03_task-social_acq-ap-mb8",
  "SeriesNumber": 12,
  "ShimSetting": [4143, -7735, -7267, 686, -25, 38, 5, 86],
  "SliceThickness": 2.7,
  "SliceTiming": [0, 0.2525, 0.065, 0.315, 0.1275, 0.3775, 0.19, 0, 0.2525, 0.065, 0.315, 0.1275, 0.3775, 0.19, 0, 0.2525, 0.065, 0.315, 0.1275, 0.3775, 0.19, 0, 0.2525, 0.065, 0.315, 0.1275, 0.3775, 0.19, 0, 0.2525, 0.065, 0.315, 0.1275, 0.3775, 0.19, 0, 0.2525, 0.065, 0.315, 0.1275, 0.3775, 0.19, 0, 0.2525, 0.065, 0.315, 0.1275, 0.3775, 0.19, 0, 0.2525, 0.065, 0.315, 0.1275, 0.3775, 0.19],
  "SoftwareVersions": "syngo MR E11",
  "SpacingBetweenSlices": 2.7,
  "StationName": "AWP66112",
  "TaskName": "social",
  "TotalReadoutTime": 0.03969,
  "TxRefAmp": 228.71,
  "WipMemBlock": "cf47fa17-ab99-4962-8304-d1bd58ada709||Sequence: R016 ve11e/master r/434b28f1; Aug  7 2019 18:53:46 by eja",
  "dcmmeta_affine": [
    [-2.6810054779052734, -0.10018228739500046, -0.016528988257050514, 115.95728302001953],
    [-0.10149829089641571, 2.654045343399048, 0.38167399168014526, -100.1383056640625],
    [-0.002085817977786064, -0.3796102702617645, 2.6728360652923584, -44.41196823120117],
    [0.0, 0.0, 0.0, 1.0]
],
  "dcmmeta_reorient_transform": [
    [0.0, -1.0, 0.0, 81.0],
    [1.0, 0.0, 0.0, 0.0],
    [0.0, 0.0, 1.0, 0.0],
    [0.0, 0.0, 0.0, 1.0]
],
  "dcmmeta_shape": [82, 82, 56, 872],
  "dcmmeta_slice_dim": 2,
  "dcmmeta_version": 0.6,
  "global": {
    "const": {
      "AccessionNumber": "A003980",
      "AcquisitionMatrix": [82, 0, 0, 82],
      "AngioFlag": "N",
      "BitsAllocated": 16,
      "BitsStored": 16,
      "BodyPartExamined": "BRAIN",
      "Columns": 656,
      "EchoNumbers": 1,
      "EchoTime": 27.2,
      "EchoTrainLength": 82,
      "FlipAngle": 44.0,
      "HighBit": 15,
      "ImageOrientationPatient": [0.9992838422546, 0.03783118018212, -0.0007774412568, -0.0373406694651, 0.98923503017026, 0.14149109331664],
      "ImagePositionPatient": [-848.53878149184, -905.68036496786, -183.50991297465],
      "ImageType": [
        "ORIGINAL",
        "PRIMARY",
        "M",
        "MB",
        "ND",
        "NORM",
        "MOSAIC"
],
      "ImagedNucleus": "1H",
      "ImagingFrequency": 123.252193,
      "InPlanePhaseEncodingDirection": "COL",
      "MRAcquisitionType": "2D",
      "MagneticFieldStrength": 3.0,
      "Manufacturer": "SIEMENS",
      "ManufacturerModelName": "Prisma",
      "Modality": "MR",
      "NumberOfAverages": 1.0,
      "NumberOfPhaseEncodingSteps": 82,
      "PercentPhaseFieldOfView": 100.0,
      "PercentSampling": 100.0,
      "PerformedProcedureStepStartTime": "175025.054000",
      "PhotometricInterpretation": "MONOCHROME2",
      "PixelBandwidth": 3050.0,
      "PixelRepresentation": 0,
      "PixelSpacing": [2.6829268932343, 2.6829268932343],
      "ProtocolName": "func_run-03_task-social_acq-ap-mb8",
      "RepetitionTime": 460.0,
      "Rows": 656,
      "SAR": 0.08908138974852,
      "SamplesPerPixel": 1,
      "ScanOptions": "FS",
      "ScanningSequence": "EP",
      "SequenceName": "epfid2d1_82",
      "SequenceVariant": [
        "SK",
        "SS"
],
      "SeriesDescription": "func_run-03_task-social_acq-ap-mb8",
      "SeriesNumber": 12,
      "SeriesTime": "181813.512000",
      "SliceLocation": -58.83064504732,
      "SliceThickness": 2.7000000476837,
      "SmallestImagePixelValue": 0,
      "SoftwareVersions": "syngo MR E11",
      "SpacingBetweenSlices": 2.7000000524983,
      "SpecificCharacterSet": "ISO_IR 100",
      "StudyID": "2",
      "StudyTime": "175025.005000",
      "TransmitCoilName": "Body",
      "VariableFlipAngleFlag": "N",
      "WindowCenterWidthExplanation": "Algo1"
    },
    "slices": {}
  },
  "time": {
    "samples": {
      "AcquisitionNumber": [1, 2, 3, 4, 5, 6, 7, 8, 9, 10, 11, 12, 13, 14, 15, 16, 17, 18, 19, 20, 21, 22, 23, 24, 25, 26, 27, 28, 29, 30, 31, 32, 33, 34, 35, 36, 37, 38, 39, 40, 41, 42, 43, 44, 45, 46, 47, 48, 49, 50, 51, 52, 53, 54, 55, 56, 57, 58, 59, 60, 61, 62, 63, 64, 65, 66, 67, 68, 69, 70, 71, 72, 73, 74, 75, 76, 77, 78, 79, 80, 81, 82, 83, 84, 85, 86, 87, 88, 89, 90, 91, 92, 93, 94, 95, 96, 97, 98, 99, 100, 101, 102, 103, 104, 105, 106, 107, 108, 109, 110, 111, 112, 113, 114, 115, 116, 117, 118, 119, 120, 121, 122, 123, 124, 125, 126, 127, 128, 129, 130, 131, 132, 133, 134, 135, 136, 137, 138, 139, 140, 141, 142, 143, 144, 145, 146, 147, 148, 149, 150, 151, 152, 153, 154, 155, 156, 157, 158, 159, 160, 161, 162, 163, 164, 165, 166, 167, 168, 169, 170, 171, 172, 173, 174, 175, 176, 177, 178, 179, 180, 181, 182, 183, 184, 185, 186, 187, 188, 189, 190, 191, 192, 193, 194, 195, 196, 197, 198, 199, 200, 201, 202, 203, 204, 205, 206, 207, 208, 209, 210, 211, 212, 213, 214, 215, 216, 217, 218, 219, 220, 221, 222, 223, 224, 225, 226, 227, 228, 229, 230, 231, 232, 233, 234, 235, 236, 237, 238, 239, 240, 241, 242, 243, 244, 245, 246, 247, 248, 249, 250, 251, 252, 253, 254, 255, 256, 257, 258, 259, 260, 261, 262, 263, 264, 265, 266, 267, 268, 269, 270, 271, 272, 273, 274, 275, 276, 277, 278, 279, 280, 281, 282, 283, 284, 285, 286, 287, 288, 289, 290, 291, 292, 293, 294, 295, 296, 297, 298, 299, 300, 301, 302, 303, 304, 305, 306, 307, 308, 309, 310, 311, 312, 313, 314, 315, 316, 317, 318, 319, 320, 321, 322, 323, 324, 325, 326, 327, 328, 329, 330, 331, 332, 333, 334, 335, 336, 337, 338, 339, 340, 341, 342, 343, 344, 345, 346, 347, 348, 349, 350, 351, 352, 353, 354, 355, 356, 357, 358, 359, 360, 361, 362, 363, 364, 365, 366, 367, 368, 369, 370, 371, 372, 373, 374, 375, 376, 377, 378, 379, 380, 381, 382, 383, 384, 385, 386, 387, 388, 389, 390, 391, 392, 393, 394, 395, 396, 397, 398, 399, 400, 401, 402, 403, 404, 405, 406, 407, 408, 409, 410, 411, 412, 413, 414, 415, 416, 417, 418, 419, 420, 421, 422, 423, 424, 425, 426, 427, 428, 429, 430, 431, 432, 433, 434, 435, 436, 437, 438, 439, 440, 441, 442, 443, 444, 445, 446, 447, 448, 449, 450, 451, 452, 453, 454, 455, 456, 457, 458, 459, 460, 461, 462, 463, 464, 465, 466, 467, 468, 469, 470, 471, 472, 473, 474, 475, 476, 477, 478, 479, 480, 481, 482, 483, 484, 485, 486, 487, 488, 489, 490, 491, 492, 493, 494, 495, 496, 497, 498, 499, 500, 501, 502, 503, 504, 505, 506, 507, 508, 509, 510, 511, 512, 513, 514, 515, 516, 517, 518, 519, 520, 521, 522, 523, 524, 525, 526, 527, 528, 529, 530, 531, 532, 533, 534, 535, 536, 537, 538, 539, 540, 541, 542, 543, 544, 545, 546, 547, 548, 549, 550, 551, 552, 553, 554, 555, 556, 557, 558, 559, 560, 561, 562, 563, 564, 565, 566, 567, 568, 569, 570, 571, 572, 573, 574, 575, 576, 577, 578, 579, 580, 581, 582, 583, 584, 585, 586, 587, 588, 589, 590, 591, 592, 593, 594, 595, 596, 597, 598, 599, 600, 601, 602, 603, 604, 605, 606, 607, 608, 609, 610, 611, 612, 613, 614, 615, 616, 617, 618, 619, 620, 621, 622, 623, 624, 625, 626, 627, 628, 629, 630, 631, 632, 633, 634, 635, 636, 637, 638, 639, 640, 641, 642, 643, 644, 645, 646, 647, 648, 649, 650, 651, 652, 653, 654, 655, 656, 657, 658, 659, 660, 661, 662, 663, 664, 665, 666, 667, 668, 669, 670, 671, 672, 673, 674, 675, 676, 677, 678, 679, 680, 681, 682, 683, 684, 685, 686, 687, 688, 689, 690, 691, 692, 693, 694, 695, 696, 697, 698, 699, 700, 701, 702, 703, 704, 705, 706, 707, 708, 709, 710, 711, 712, 713, 714, 715, 716, 717, 718, 719, 720, 721, 722, 723, 724, 725, 726, 727, 728, 729, 730, 731, 732, 733, 734, 735, 736, 737, 738, 739, 740, 741, 742, 743, 744, 745, 746, 747, 748, 749, 750, 751, 752, 753, 754, 755, 756, 757, 758, 759, 760, 761, 762, 763, 764, 765, 766, 767, 768, 769, 770, 771, 772, 773, 774, 775, 776, 777, 778, 779, 780, 781, 782, 783, 784, 785, 786, 787, 788, 789, 790, 791, 792, 793, 794, 795, 796, 797, 798, 799, 800, 801, 802, 803, 804, 805, 806, 807, 808, 809, 810, 811, 812, 813, 814, 815, 816, 817, 818, 819, 820, 821, 822, 823, 824, 825, 826, 827, 828, 829, 830, 831, 832, 833, 834, 835, 836, 837, 838, 839, 840, 841, 842, 843, 844, 845, 846, 847, 848, 849, 850, 851, 852, 853, 854, 855, 856, 857, 858, 859, 860, 861, 862, 863, 864, 865, 866, 867, 868, 869, 870, 871, 872],
      "AcquisitionTime": ["181757.897500", "181758.357500", "181758.817500", "181759.277500", "181759.737500", "181800.197500", "181800.657500", "181801.117500", "181801.577500", "181802.037500", "181802.497500", "181802.957500", "181803.417500", "181803.877500", "181804.337500", "181804.797500", "181805.257500", "181805.717500", "181806.177500", "181806.637500", "181807.097500", "181807.557500", "181808.017500", "181808.477500", "181808.937500", "181809.397500", "181809.857500", "181810.317500", "181810.777500", "181811.237500", "181811.697500", "181812.157500", "181812.617500", "181813.077500", "181813.537500", "181813.997500", "181814.457500", "181814.917500", "181815.377500", "181815.837500", "181816.297500", "181816.757500", "181817.217500", "181817.677500", "181818.137500", "181818.597500", "181819.057500", "181819.517500", "181819.977500", "181820.437500", "181820.897500", "181821.357500", "181821.817500", "181822.277500", "181822.737500", "181823.197500", "181823.657500", "181824.117500", "181824.577500", "181825.037500", "181825.497500", "181825.957500", "181826.417500", "181826.877500", "181827.337500", "181827.797500", "181828.257500", "181828.717500", "181829.177500", "181829.637500", "181830.097500", "181830.557500", "181831.017500", "181831.477500", "181831.937500", "181832.397500", "181832.857500", "181833.317500", "181833.777500", "181834.237500", "181834.697500", "181835.157500", "181835.617500", "181836.077500", "181836.537500", "181836.997500", "181837.457500", "181837.917500", "181838.377500", "181838.837500", "181839.297500", "181839.757500", "181840.217500", "181840.677500", "181841.137500", "181841.597500", "181842.057500", "181842.517500", "181842.977500", "181843.437500", "181843.897500", "181844.357500", "181844.817500", "181845.277500", "181845.737500", "181846.197500", "181846.657500", "181847.117500", "181847.577500", "181848.037500", "181848.497500", "181848.957500", "181849.417500", "181849.877500", "181850.337500", "181850.797500", "181851.257500", "181851.717500", "181852.177500", "181852.637500", "181853.097500", "181853.557500", "181854.017500", "181854.477500", "181854.937500", "181855.397500", "181855.857500", "181856.317500", "181856.777500", "181857.237500", "181857.697500", "181858.157500", "181858.617500", "181859.077500", "181859.537500", "181859.997500", "181900.457500", "181900.917500", "181901.377500", "181901.837500", "181902.297500", "181902.757500", "181903.217500", "181903.677500", "181904.137500", "181904.597500", "181905.057500", "181905.517500", "181905.977500", "181906.437500", "181906.897500", "181907.357500", "181907.817500", "181908.277500", "181908.737500", "181909.197500", "181909.657500", "181910.117500", "181910.577500", "181911.037500", "181911.497500", "181911.957500", "181912.417500", "181912.877500", "181913.337500", "181913.797500", "181914.257500", "181914.717500", "181915.177500", "181915.637500", "181916.097500", "181916.557500", "181917.017500", "181917.477500", "181917.937500", "181918.397500", "181918.857500", "181919.317500", "181919.777500", "181920.237500", "181920.697500", "181921.157500", "181921.617500", "181922.077500", "181922.537500", "181922.997500", "181923.457500", "181923.917500", "181924.377500", "181924.837500", "181925.297500", "181925.757500", "181926.217500", "181926.677500", "181927.137500", "181927.597500", "181928.057500", "181928.517500", "181928.977500", "181929.437500", "181929.897500", "181930.357500", "181930.817500", "181931.277500", "181931.737500", "181932.197500", "181932.657500", "181933.117500", "181933.577500", "181934.037500", "181934.497500", "181934.957500", "181935.417500", "181935.877500", "181936.337500", "181936.797500", "181937.257500", "181937.717500", "181938.177500", "181938.637500", "181939.097500", "181939.557500", "181940.017500", "181940.477500", "181940.937500", "181941.397500", "181941.857500", "181942.317500", "181942.777500", "181943.237500", "181943.697500", "181944.157500", "181944.617500", "181945.077500", "181945.537500", "181945.997500", "181946.457500", "181946.917500", "181947.377500", "181947.837500", "181948.297500", "181948.757500", "181949.217500", "181949.677500", "181950.137500", "181950.597500", "181951.057500", "181951.517500", "181951.977500", "181952.437500", "181952.897500", "181953.357500", "181953.817500", "181954.277500", "181954.737500", "181955.197500", "181955.657500", "181956.117500", "181956.577500", "181957.037500", "181957.497500", "181957.957500", "181958.417500", "181958.877500", "181959.337500", "181959.797500", "182000.257500", "182000.717500", "182001.177500", "182001.637500", "182002.097500", "182002.557500", "182003.017500", "182003.477500", "182003.937500", "182004.397500", "182004.857500", "182005.317500", "182005.777500", "182006.237500", "182006.697500", "182007.157500", "182007.617500", "182008.077500", "182008.537500", "182008.997500", "182009.457500", "182009.917500", "182010.377500", "182010.837500", "182011.297500", "182011.757500", "182012.217500", "182012.677500", "182013.137500", "182013.597500", "182014.057500", "182014.517500", "182014.977500", "182015.437500", "182015.897500", "182016.357500", "182016.817500", "182017.277500", "182017.737500", "182018.197500", "182018.657500", "182019.117500", "182019.577500", "182020.037500", "182020.497500", "182020.957500", "182021.417500", "182021.877500", "182022.337500", "182022.797500", "182023.257500", "182023.717500", "182024.177500", "182024.637500", "182025.097500", "182025.557500", "182026.017500", "182026.477500", "182026.937500", "182027.397500", "182027.857500", "182028.317500", "182028.777500", "182029.237500", "182029.697500", "182030.157500", "182030.617500", "182031.077500", "182031.537500", "182031.997500", "182032.457500", "182032.917500", "182033.377500", "182033.837500", "182034.297500", "182034.757500", "182035.217500", "182035.677500", "182036.137500", "182036.597500", "182037.057500", "182037.517500", "182037.977500", "182038.437500", "182038.897500", "182039.357500", "182039.817500", "182040.277500", "182040.737500", "182041.197500", "182041.657500", "182042.117500", "182042.577500", "182043.037500", "182043.497500", "182043.957500", "182044.417500", "182044.877500", "182045.337500", "182045.797500", "182046.257500", "182046.717500", "182047.177500", "182047.637500", "182048.097500", "182048.557500", "182049.017500", "182049.477500", "182049.937500", "182050.397500", "182050.857500", "182051.317500", "182051.777500", "182052.237500", "182052.697500", "182053.157500", "182053.617500", "182054.077500", "182054.537500", "182054.997500", "182055.457500", "182055.917500", "182056.377500", "182056.837500", "182057.297500", "182057.757500", "182058.217500", "182058.677500", "182059.137500", "182059.597500", "182100.057500", "182100.517500", "182100.977500", "182101.437500", "182101.897500", "182102.357500", "182102.817500", "182103.277500", "182103.737500", "182104.197500", "182104.657500", "182105.117500", "182105.577500", "182106.037500", "182106.497500", "182106.957500", "182107.417500", "182107.877500", "182108.337500", "182108.797500", "182109.257500", "182109.717500", "182110.177500", "182110.637500", "182111.097500", "182111.557500", "182112.017500", "182112.477500", "182112.937500", "182113.397500", "182113.857500", "182114.317500", "182114.777500", "182115.237500", "182115.697500", "182116.157500", "182116.617500", "182117.077500", "182117.537500", "182117.997500", "182118.457500", "182118.917500", "182119.377500", "182119.837500", "182120.297500", "182120.757500", "182121.217500", "182121.677500", "182122.137500", "182122.597500", "182123.057500", "182123.517500", "182123.977500", "182124.437500", "182124.897500", "182125.357500", "182125.817500", "182126.277500", "182126.737500", "182127.197500", "182127.657500", "182128.117500", "182128.577500", "182129.037500", "182129.497500", "182129.957500", "182130.417500", "182130.877500", "182131.337500", "182131.797500", "182132.257500", "182132.717500", "182133.177500", "182133.637500", "182134.097500", "182134.557500", "182135.017500", "182135.477500", "182135.937500", "182136.397500", "182136.857500", "182137.317500", "182137.777500", "182138.237500", "182138.697500", "182139.157500", "182139.617500", "182140.077500", "182140.537500", "182140.997500", "182141.457500", "182141.917500", "182142.377500", "182142.837500", "182143.297500", "182143.757500", "182144.217500", "182144.677500", "182145.137500", "182145.597500", "182146.057500", "182146.517500", "182146.977500", "182147.437500", "182147.897500", "182148.357500", "182148.817500", "182149.277500", "182149.737500", "182150.197500", "182150.657500", "182151.117500", "182151.577500", "182152.037500", "182152.497500", "182152.957500", "182153.417500", "182153.877500", "182154.337500", "182154.797500", "182155.257500", "182155.717500", "182156.177500", "182156.637500", "182157.097500", "182157.557500", "182158.017500", "182158.477500", "182158.937500", "182159.397500", "182159.857500", "182200.317500", "182200.777500", "182201.237500", "182201.697500", "182202.157500", "182202.617500", "182203.077500", "182203.537500", "182203.997500", "182204.457500", "182204.917500", "182205.377500", "182205.837500", "182206.297500", "182206.757500", "182207.217500", "182207.677500", "182208.137500", "182208.597500", "182209.057500", "182209.517500", "182209.977500", "182210.437500", "182210.897500", "182211.357500", "182211.817500", "182212.277500", "182212.737500", "182213.197500", "182213.657500", "182214.117500", "182214.577500", "182215.037500", "182215.497500", "182215.957500", "182216.417500", "182216.877500", "182217.337500", "182217.797500", "182218.257500", "182218.717500", "182219.177500", "182219.637500", "182220.097500", "182220.557500", "182221.017500", "182221.477500", "182221.937500", "182222.397500", "182222.857500", "182223.317500", "182223.777500", "182224.237500", "182224.697500", "182225.157500", "182225.617500", "182226.077500", "182226.537500", "182226.997500", "182227.457500", "182227.917500", "182228.377500", "182228.837500", "182229.297500", "182229.757500", "182230.217500", "182230.677500", "182231.137500", "182231.597500", "182232.057500", "182232.517500", "182232.977500", "182233.437500", "182233.897500", "182234.357500", "182234.817500", "182235.277500", "182235.737500", "182236.197500", "182236.657500", "182237.117500", "182237.577500", "182238.037500", "182238.497500", "182238.957500", "182239.417500", "182239.877500", "182240.337500", "182240.797500", "182241.257500", "182241.717500", "182242.177500", "182242.637500", "182243.097500", "182243.557500", "182244.017500", "182244.477500", "182244.937500", "182245.397500", "182245.857500", "182246.317500", "182246.777500", "182247.237500", "182247.697500", "182248.157500", "182248.617500", "182249.077500", "182249.537500", "182249.997500", "182250.457500", "182250.917500", "182251.377500", "182251.837500", "182252.297500", "182252.757500", "182253.217500", "182253.677500", "182254.137500", "182254.597500", "182255.057500", "182255.517500", "182255.977500", "182256.437500", "182256.897500", "182257.357500", "182257.817500", "182258.277500", "182258.737500", "182259.197500", "182259.657500", "182300.117500", "182300.577500", "182301.037500", "182301.497500", "182301.957500", "182302.417500", "182302.877500", "182303.337500", "182303.797500", "182304.257500", "182304.717500", "182305.177500", "182305.637500", "182306.097500", "182306.557500", "182307.017500", "182307.477500", "182307.937500", "182308.397500", "182308.857500", "182309.317500", "182309.777500", "182310.237500", "182310.697500", "182311.157500", "182311.617500", "182312.077500", "182312.537500", "182312.997500", "182313.457500", "182313.917500", "182314.377500", "182314.837500", "182315.297500", "182315.757500", "182316.217500", "182316.677500", "182317.137500", "182317.597500", "182318.057500", "182318.517500", "182318.977500", "182319.437500", "182319.897500", "182320.357500", "182320.817500", "182321.277500", "182321.737500", "182322.197500", "182322.657500", "182323.117500", "182323.577500", "182324.037500", "182324.497500", "182324.957500", "182325.417500", "182325.877500", "182326.337500", "182326.797500", "182327.257500", "182327.717500", "182328.177500", "182328.637500", "182329.097500", "182329.557500", "182330.017500", "182330.477500", "182330.937500", "182331.397500", "182331.857500", "182332.317500", "182332.777500", "182333.237500", "182333.697500", "182334.157500", "182334.617500", "182335.077500", "182335.537500", "182335.997500", "182336.457500", "182336.917500", "182337.377500", "182337.837500", "182338.297500", "182338.757500", "182339.217500", "182339.677500", "182340.137500", "182340.597500", "182341.057500", "182341.517500", "182341.977500", "182342.437500", "182342.897500", "182343.357500", "182343.817500", "182344.277500", "182344.737500", "182345.197500", "182345.657500", "182346.117500", "182346.577500", "182347.037500", "182347.497500", "182347.957500", "182348.417500", "182348.877500", "182349.337500", "182349.797500", "182350.257500", "182350.717500", "182351.177500", "182351.637500", "182352.097500", "182352.557500", "182353.017500", "182353.477500", "182353.937500", "182354.397500", "182354.857500", "182355.317500", "182355.777500", "182356.237500", "182356.697500", "182357.157500", "182357.617500", "182358.077500", "182358.537500", "182358.997500", "182359.457500", "182359.917500", "182400.377500", "182400.837500", "182401.297500", "182401.757500", "182402.217500", "182402.677500", "182403.137500", "182403.597500", "182404.057500", "182404.517500", "182404.977500", "182405.437500", "182405.897500", "182406.357500", "182406.817500", "182407.277500", "182407.737500", "182408.197500", "182408.657500", "182409.117500", "182409.577500", "182410.037500", "182410.497500", "182410.957500", "182411.417500", "182411.877500", "182412.337500", "182412.797500", "182413.257500", "182413.717500", "182414.177500", "182414.637500", "182415.097500", "182415.557500", "182416.017500", "182416.477500", "182416.937500", "182417.397500", "182417.857500", "182418.317500", "182418.777500", "182419.237500", "182419.697500", "182420.157500", "182420.617500", "182421.077500", "182421.537500", "182421.997500", "182422.457500", "182422.917500", "182423.377500", "182423.837500", "182424.297500", "182424.757500", "182425.217500", "182425.677500", "182426.137500", "182426.597500", "182427.057500", "182427.517500", "182427.977500", "182428.437500", "182428.897500", "182429.357500", "182429.817500", "182430.277500", "182430.737500", "182431.197500", "182431.657500", "182432.117500", "182432.577500", "182433.037500", "182433.497500", "182433.957500", "182434.417500", "182434.877500", "182435.337500", "182435.797500", "182436.257500", "182436.717500", "182437.177500", "182437.637500", "182438.097500", "182438.557500"],
