{
  "AcquisitionMatrixPE": 82,
  "AcquisitionNumber": 1,
  "AcquisitionTime": "18:05:32.212500",
  "BandwidthPerPixelPhaseEncode": 24.888,
  "BaseResolution": 82,
  "BodyPartExamined": "BRAIN",
  "ConsistencyInfo": "N4_VE11E_LATEST_20181129",
  "ConversionSoftware": "dcm2niix",
  "ConversionSoftwareVersion": "v1.0.20201102",
  "DerivedVendorReportedEchoSpacing": 0.00049,
  "DeviceSerialNumber": "66112",
  "DwellTime": 2e-06,
  "EchoTime": 0.0272,
  "EchoTrainLength": 82,
  "EffectiveEchoSpacing": 0.00049,
  "FlipAngle": 44,
  "ImageComments": "Unaliased MB8/PE3",
  "ImageOrientationPatientDICOM": [0.997595, 0.0672646, -0.016696, -0.0662602, 0.996297, 0.0547839],
  "ImageType": [
    "ORIGINAL",
    "PRIMARY",
    "M",
    "MB",
    "ND",
    "NORM",
    "MOSAIC"
],
  "ImagingFrequency": 123.259,
  "InPlanePhaseEncodingDirectionDICOM": "COL",
  "InstitutionAddress": "Maynard 3,Hanover,NH,US,03755",
  "InstitutionName": "Dartmouth College - PBS",
  "InstitutionalDepartmentName": "Department",
  "MRAcquisitionType": "2D",
  "MagneticFieldStrength": 3,
  "Manufacturer": "Siemens",
  "ManufacturersModelName": "Prisma",
  "Modality": "MR",
  "MultibandAccelerationFactor": 8,
  "PartialFourier": 1,
  "PatientPosition": "HFS",
  "PercentPhaseFOV": 100,
  "PercentSampling": 100,
  "PhaseEncodingDirection": "j-",
  "PhaseEncodingSteps": 82,
  "PhaseResolution": 1,
  "PixelBandwidth": 3050,
  "ProcedureStepDescription": "Wager_Wager^1076_spacetop",
  "ProtocolName": "func_run-03_task-social_acq-ap-mb8",
  "PulseSequenceDetails": "%CustomerSeq%\\cmrr_mbep2d_bold",
  "ReceiveCoilActiveElements": "HEA;HEP",
  "ReceiveCoilName": "Head_32",
  "ReconMatrixPE": 82,
  "RepetitionTime": 0.46,
  "SAR": 0.0880239,
  "ScanOptions": "FS",
  "ScanningSequence": "EP",
  "SequenceName": "epfid2d1_82",
  "SequenceVariant": "SK\\SS",
  "SeriesDescription": "func_run-03_task-social_acq-ap-mb8",
  "SeriesNumber": 20,
  "ShimSetting": [4211, -8138, -7339, 618, -229, -981, 794, 116],
  "SliceThickness": 2.7,
  "SliceTiming": [0, 0.2525, 0.0625, 0.315, 0.125, 0.3775, 0.1875, 0, 0.2525, 0.0625, 0.315, 0.125, 0.3775, 0.1875, 0, 0.2525, 0.0625, 0.315, 0.125, 0.3775, 0.1875, 0, 0.2525, 0.0625, 0.315, 0.125, 0.3775, 0.1875, 0, 0.2525, 0.0625, 0.315, 0.125, 0.3775, 0.1875, 0, 0.2525, 0.0625, 0.315, 0.125, 0.3775, 0.1875, 0, 0.2525, 0.0625, 0.315, 0.125, 0.3775, 0.1875, 0, 0.2525, 0.0625, 0.315, 0.125, 0.3775, 0.1875],
  "SoftwareVersions": "syngo MR E11",
  "SpacingBetweenSlices": 2.7,
  "StationName": "AWP66112",
  "TaskName": "social",
  "TotalReadoutTime": 0.03969,
  "TxRefAmp": 232.369,
  "WipMemBlock": "a586fa61-1e4d-4a39-8168-e3991aea00e7||Sequence: R016 ve11e/master r/434b28f1; Aug  7 2019 18:53:46 by eja",
  "dcmmeta_affine": [
    [-2.676475763320923, -0.17777137458324432, -0.05486191436648369, 122.99714660644531],
    [-0.18046613037586212, 2.672992706298828, 0.1445738971233368, -98.4102783203125],
    [-0.044794220477342606, -0.14698119461536407, 2.695568323135376, -61.668800354003906],
    [0.0, 0.0, 0.0, 1.0]
],
  "dcmmeta_reorient_transform": [
    [0.0, -1.0, 0.0, 81.0],
    [1.0, 0.0, 0.0, 0.0],
    [0.0, 0.0, 1.0, 0.0],
    [0.0, 0.0, 0.0, 1.0]
],
  "dcmmeta_shape": [82, 82, 56, 872],
  "dcmmeta_slice_dim": 2,
  "dcmmeta_version": 0.6,
  "global": {
    "const": {
      "AccessionNumber": "A004808",
      "AcquisitionMatrix": [82, 0, 0, 82],
      "AngioFlag": "N",
      "BitsAllocated": 16,
      "BitsStored": 16,
      "BodyPartExamined": "BRAIN",
      "Columns": 656,
      "EchoNumbers": 1,
      "EchoTime": 27.2,
      "EchoTrainLength": 82,
      "FlipAngle": 44.0,
      "HighBit": 15,
      "ImageOrientationPatient": [0.99759546407035, 0.06726464702889, -0.016696027262, -0.0662602376965, 0.99629729760711, 0.05478389983544],
      "ImagePositionPatient": [-825.72580657957, -937.0448544006, -102.90194170085],
      "ImageType": [
        "ORIGINAL",
        "PRIMARY",
        "M",
        "MB",
        "ND",
        "NORM",
        "MOSAIC"
],
      "ImagedNucleus": "1H",
      "ImagingFrequency": 123.259178,
      "InPlanePhaseEncodingDirection": "COL",
      "MRAcquisitionType": "2D",
      "MagneticFieldStrength": 3.0,
      "Manufacturer": "SIEMENS",
      "ManufacturerModelName": "Prisma",
      "Modality": "MR",
      "NumberOfAverages": 1.0,
      "NumberOfPhaseEncodingSteps": 82,
      "PercentPhaseFieldOfView": 100.0,
      "PercentSampling": 100.0,
      "PerformedProcedureStepStartTime": "170756.271000",
      "PhotometricInterpretation": "MONOCHROME2",
      "PixelBandwidth": 3050.0,
      "PixelRepresentation": 0,
      "PixelSpacing": [2.6829268932343, 2.6829268932343],
      "ProtocolName": "func_run-03_task-social_acq-ap-mb8",
      "RepetitionTime": 460.0,
      "Rows": 656,
      "SAR": 0.08802392478293,
      "SamplesPerPixel": 1,
      "ScanOptions": "FS",
      "ScanningSequence": "EP",
      "SequenceName": "epfid2d1_82",
      "SequenceVariant": [
        "SK",
        "SS"
],
      "SeriesDescription": "func_run-03_task-social_acq-ap-mb8",
      "SeriesNumber": 20,
      "SeriesTime": "180543.812000",
      "SliceLocation": -69.336253801506,
      "SliceThickness": 2.7000000476837,
      "SmallestImagePixelValue": 0,
      "SoftwareVersions": "syngo MR E11",
      "SpacingBetweenSlices": 2.7000001126656,
      "SpecificCharacterSet": "ISO_IR 100",
      "StudyID": "1",
      "StudyTime": "170756.166000",
      "TransmitCoilName": "Body",
      "VariableFlipAngleFlag": "N",
      "WindowCenterWidthExplanation": "Algo1"
    },
    "slices": {}
  },
  "time": {
    "samples": {
      "AcquisitionNumber": [1, 2, 3, 4, 5, 6, 7, 8, 9, 10, 11, 12, 13, 14, 15, 16, 17, 18, 19, 20, 21, 22, 23, 24, 25, 26, 27, 28, 29, 30, 31, 32, 33, 34, 35, 36, 37, 38, 39, 40, 41, 42, 43, 44, 45, 46, 47, 48, 49, 50, 51, 52, 53, 54, 55, 56, 57, 58, 59, 60, 61, 62, 63, 64, 65, 66, 67, 68, 69, 70, 71, 72, 73, 74, 75, 76, 77, 78, 79, 80, 81, 82, 83, 84, 85, 86, 87, 88, 89, 90, 91, 92, 93, 94, 95, 96, 97, 98, 99, 100, 101, 102, 103, 104, 105, 106, 107, 108, 109, 110, 111, 112, 113, 114, 115, 116, 117, 118, 119, 120, 121, 122, 123, 124, 125, 126, 127, 128, 129, 130, 131, 132, 133, 134, 135, 136, 137, 138, 139, 140, 141, 142, 143, 144, 145, 146, 147, 148, 149, 150, 151, 152, 153, 154, 155, 156, 157, 158, 159, 160, 161, 162, 163, 164, 165, 166, 167, 168, 169, 170, 171, 172, 173, 174, 175, 176, 177, 178, 179, 180, 181, 182, 183, 184, 185, 186, 187, 188, 189, 190, 191, 192, 193, 194, 195, 196, 197, 198, 199, 200, 201, 202, 203, 204, 205, 206, 207, 208, 209, 210, 211, 212, 213, 214, 215, 216, 217, 218, 219, 220, 221, 222, 223, 224, 225, 226, 227, 228, 229, 230, 231, 232, 233, 234, 235, 236, 237, 238, 239, 240, 241, 242, 243, 244, 245, 246, 247, 248, 249, 250, 251, 252, 253, 254, 255, 256, 257, 258, 259, 260, 261, 262, 263, 264, 265, 266, 267, 268, 269, 270, 271, 272, 273, 274, 275, 276, 277, 278, 279, 280, 281, 282, 283, 284, 285, 286, 287, 288, 289, 290, 291, 292, 293, 294, 295, 296, 297, 298, 299, 300, 301, 302, 303, 304, 305, 306, 307, 308, 309, 310, 311, 312, 313, 314, 315, 316, 317, 318, 319, 320, 321, 322, 323, 324, 325, 326, 327, 328, 329, 330, 331, 332, 333, 334, 335, 336, 337, 338, 339, 340, 341, 342, 343, 344, 345, 346, 347, 348, 349, 350, 351, 352, 353, 354, 355, 356, 357, 358, 359, 360, 361, 362, 363, 364, 365, 366, 367, 368, 369, 370, 371, 372, 373, 374, 375, 376, 377, 378, 379, 380, 381, 382, 383, 384, 385, 386, 387, 388, 389, 390, 391, 392, 393, 394, 395, 396, 397, 398, 399, 400, 401, 402, 403, 404, 405, 406, 407, 408, 409, 410, 411, 412, 413, 414, 415, 416, 417, 418, 419, 420, 421, 422, 423, 424, 425, 426, 427, 428, 429, 430, 431, 432, 433, 434, 435, 436, 437, 438, 439, 440, 441, 442, 443, 444, 445, 446, 447, 448, 449, 450, 451, 452, 453, 454, 455, 456, 457, 458, 459, 460, 461, 462, 463, 464, 465, 466, 467, 468, 469, 470, 471, 472, 473, 474, 475, 476, 477, 478, 479, 480, 481, 482, 483, 484, 485, 486, 487, 488, 489, 490, 491, 492, 493, 494, 495, 496, 497, 498, 499, 500, 501, 502, 503, 504, 505, 506, 507, 508, 509, 510, 511, 512, 513, 514, 515, 516, 517, 518, 519, 520, 521, 522, 523, 524, 525, 526, 527, 528, 529, 530, 531, 532, 533, 534, 535, 536, 537, 538, 539, 540, 541, 542, 543, 544, 545, 546, 547, 548, 549, 550, 551, 552, 553, 554, 555, 556, 557, 558, 559, 560, 561, 562, 563, 564, 565, 566, 567, 568, 569, 570, 571, 572, 573, 574, 575, 576, 577, 578, 579, 580, 581, 582, 583, 584, 585, 586, 587, 588, 589, 590, 591, 592, 593, 594, 595, 596, 597, 598, 599, 600, 601, 602, 603, 604, 605, 606, 607, 608, 609, 610, 611, 612, 613, 614, 615, 616, 617, 618, 619, 620, 621, 622, 623, 624, 625, 626, 627, 628, 629, 630, 631, 632, 633, 634, 635, 636, 637, 638, 639, 640, 641, 642, 643, 644, 645, 646, 647, 648, 649, 650, 651, 652, 653, 654, 655, 656, 657, 658, 659, 660, 661, 662, 663, 664, 665, 666, 667, 668, 669, 670, 671, 672, 673, 674, 675, 676, 677, 678, 679, 680, 681, 682, 683, 684, 685, 686, 687, 688, 689, 690, 691, 692, 693, 694, 695, 696, 697, 698, 699, 700, 701, 702, 703, 704, 705, 706, 707, 708, 709, 710, 711, 712, 713, 714, 715, 716, 717, 718, 719, 720, 721, 722, 723, 724, 725, 726, 727, 728, 729, 730, 731, 732, 733, 734, 735, 736, 737, 738, 739, 740, 741, 742, 743, 744, 745, 746, 747, 748, 749, 750, 751, 752, 753, 754, 755, 756, 757, 758, 759, 760, 761, 762, 763, 764, 765, 766, 767, 768, 769, 770, 771, 772, 773, 774, 775, 776, 777, 778, 779, 780, 781, 782, 783, 784, 785, 786, 787, 788, 789, 790, 791, 792, 793, 794, 795, 796, 797, 798, 799, 800, 801, 802, 803, 804, 805, 806, 807, 808, 809, 810, 811, 812, 813, 814, 815, 816, 817, 818, 819, 820, 821, 822, 823, 824, 825, 826, 827, 828, 829, 830, 831, 832, 833, 834, 835, 836, 837, 838, 839, 840, 841, 842, 843, 844, 845, 846, 847, 848, 849, 850, 851, 852, 853, 854, 855, 856, 857, 858, 859, 860, 861, 862, 863, 864, 865, 866, 867, 868, 869, 870, 871, 872],
      "AcquisitionTime": ["180532.212500", "180532.672500", "180533.132500", "180533.592500", "180534.052500", "180534.512500", "180534.972500", "180535.432500", "180535.892500", "180536.352500", "180536.812500", "180537.272500", "180537.732500", "180538.192500", "180538.652500", "180539.112500", "180539.572500", "180540.032500", "180540.492500", "180540.952500", "180541.412500", "180541.872500", "180542.332500", "180542.792500", "180543.252500", "180543.712500", "180544.172500", "180544.632500", "180545.092500", "180545.552500", "180546.012500", "180546.472500", "180546.932500", "180547.392500", "180547.852500", "180548.312500", "180548.772500", "180549.232500", "180549.692500", "180550.152500", "180550.612500", "180551.072500", "180551.532500", "180551.992500", "180552.452500", "180552.912500", "180553.372500", "180553.832500", "180554.292500", "180554.752500", "180555.212500", "180555.672500", "180556.132500", "180556.592500", "180557.052500", "180557.512500", "180557.972500", "180558.432500", "180558.892500", "180559.352500", "180559.812500", "180600.272500", "180600.732500", "180601.192500", "180601.652500", "180602.112500", "180602.572500", "180603.032500", "180603.492500", "180603.952500", "180604.412500", "180604.872500", "180605.332500", "180605.792500", "180606.252500", "180606.712500", "180607.172500", "180607.632500", "180608.092500", "180608.552500", "180609.012500", "180609.472500", "180609.932500", "180610.392500", "180610.852500", "180611.312500", "180611.772500", "180612.232500", "180612.692500", "180613.152500", "180613.612500", "180614.072500", "180614.532500", "180614.992500", "180615.452500", "180615.912500", "180616.372500", "180616.832500", "180617.292500", "180617.752500", "180618.212500", "180618.672500", "180619.132500", "180619.592500", "180620.052500", "180620.512500", "180620.972500", "180621.432500", "180621.892500", "180622.352500", "180622.812500", "180623.272500", "180623.732500", "180624.192500", "180624.652500", "180625.112500", "180625.572500", "180626.032500", "180626.492500", "180626.952500", "180627.412500", "180627.872500", "180628.332500", "180628.792500", "180629.252500", "180629.712500", "180630.172500", "180630.632500", "180631.092500", "180631.552500", "180632.012500", "180632.472500", "180632.932500", "180633.392500", "180633.852500", "180634.312500", "180634.772500", "180635.232500", "180635.692500", "180636.152500", "180636.612500", "180637.072500", "180637.532500", "180637.992500", "180638.452500", "180638.912500", "180639.372500", "180639.832500", "180640.292500", "180640.752500", "180641.212500", "180641.672500", "180642.132500", "180642.592500", "180643.052500", "180643.512500", "180643.972500", "180644.432500", "180644.892500", "180645.352500", "180645.812500", "180646.272500", "180646.732500", "180647.192500", "180647.652500", "180648.112500", "180648.572500", "180649.032500", "180649.492500", "180649.952500", "180650.412500", "180650.872500", "180651.332500", "180651.792500", "180652.252500", "180652.712500", "180653.172500", "180653.632500", "180654.092500", "180654.552500", "180655.012500", "180655.472500", "180655.932500", "180656.392500", "180656.852500", "180657.312500", "180657.772500", "180658.232500", "180658.692500", "180659.152500", "180659.612500", "180700.072500", "180700.532500", "180700.992500", "180701.452500", "180701.912500", "180702.372500", "180702.832500", "180703.292500", "180703.752500", "180704.212500", "180704.672500", "180705.132500", "180705.592500", "180706.052500", "180706.512500", "180706.972500", "180707.432500", "180707.892500", "180708.352500", "180708.812500", "180709.272500", "180709.732500", "180710.192500", "180710.652500", "180711.112500", "180711.572500", "180712.032500", "180712.492500", "180712.952500", "180713.412500", "180713.872500", "180714.332500", "180714.792500", "180715.252500", "180715.712500", "180716.172500", "180716.632500", "180717.092500", "180717.552500", "180718.012500", "180718.472500", "180718.932500", "180719.392500", "180719.852500", "180720.312500", "180720.772500", "180721.232500", "180721.692500", "180722.152500", "180722.612500", "180723.072500", "180723.532500", "180723.992500", "180724.452500", "180724.912500", "180725.372500", "180725.832500", "180726.292500", "180726.752500", "180727.212500", "180727.672500", "180728.132500", "180728.592500", "180729.052500", "180729.512500", "180729.972500", "180730.432500", "180730.892500", "180731.352500", "180731.812500", "180732.272500", "180732.732500", "180733.192500", "180733.652500", "180734.112500", "180734.572500", "180735.032500", "180735.492500", "180735.952500", "180736.412500", "180736.872500", "180737.332500", "180737.792500", "180738.252500", "180738.712500", "180739.172500", "180739.632500", "180740.092500", "180740.552500", "180741.012500", "180741.472500", "180741.932500", "180742.392500", "180742.852500", "180743.312500", "180743.772500", "180744.232500", "180744.692500", "180745.152500", "180745.612500", "180746.072500", "180746.532500", "180746.992500", "180747.452500", "180747.912500", "180748.372500", "180748.832500", "180749.292500", "180749.752500", "180750.212500", "180750.672500", "180751.132500", "180751.592500", "180752.052500", "180752.512500", "180752.972500", "180753.432500", "180753.892500", "180754.352500", "180754.812500", "180755.272500", "180755.732500", "180756.192500", "180756.652500", "180757.112500", "180757.572500", "180758.032500", "180758.492500", "180758.952500", "180759.412500", "180759.872500", "180800.332500", "180800.792500", "180801.252500", "180801.712500", "180802.172500", "180802.632500", "180803.092500", "180803.552500", "180804.012500", "180804.472500", "180804.932500", "180805.392500", "180805.852500", "180806.312500", "180806.772500", "180807.232500", "180807.692500", "180808.152500", "180808.612500", "180809.072500", "180809.532500", "180809.992500", "180810.452500", "180810.912500", "180811.372500", "180811.832500", "180812.292500", "180812.752500", "180813.212500", "180813.672500", "180814.132500", "180814.592500", "180815.052500", "180815.512500", "180815.972500", "180816.432500", "180816.892500", "180817.352500", "180817.812500", "180818.272500", "180818.732500", "180819.192500", "180819.652500", "180820.112500", "180820.572500", "180821.032500", "180821.492500", "180821.952500", "180822.412500", "180822.872500", "180823.332500", "180823.792500", "180824.252500", "180824.712500", "180825.172500", "180825.632500", "180826.092500", "180826.552500", "180827.012500", "180827.472500", "180827.932500", "180828.392500", "180828.852500", "180829.312500", "180829.772500", "180830.232500", "180830.692500", "180831.152500", "180831.612500", "180832.072500", "180832.532500", "180832.992500", "180833.452500", "180833.912500", "180834.372500", "180834.832500", "180835.292500", "180835.752500", "180836.212500", "180836.672500", "180837.132500", "180837.592500", "180838.052500", "180838.512500", "180838.972500", "180839.432500", "180839.892500", "180840.352500", "180840.812500", "180841.272500", "180841.732500", "180842.192500", "180842.652500", "180843.112500", "180843.572500", "180844.032500", "180844.492500", "180844.952500", "180845.412500", "180845.872500", "180846.332500", "180846.792500", "180847.252500", "180847.712500", "180848.172500", "180848.632500", "180849.092500", "180849.552500", "180850.012500", "180850.472500", "180850.932500", "180851.392500", "180851.852500", "180852.312500", "180852.772500", "180853.232500", "180853.692500", "180854.152500", "180854.612500", "180855.072500", "180855.532500", "180855.992500", "180856.452500", "180856.912500", "180857.372500", "180857.832500", "180858.292500", "180858.752500", "180859.212500", "180859.672500", "180900.132500", "180900.592500", "180901.052500", "180901.512500", "180901.972500", "180902.432500", "180902.892500", "180903.352500", "180903.812500", "180904.272500", "180904.732500", "180905.192500", "180905.652500", "180906.112500", "180906.572500", "180907.032500", "180907.492500", "180907.952500", "180908.412500", "180908.872500", "180909.332500", "180909.792500", "180910.252500", "180910.712500", "180911.172500", "180911.632500", "180912.092500", "180912.552500", "180913.012500", "180913.472500", "180913.932500", "180914.392500", "180914.852500", "180915.312500", "180915.772500", "180916.232500", "180916.692500", "180917.152500", "180917.612500", "180918.072500", "180918.532500", "180918.992500", "180919.452500", "180919.912500", "180920.372500", "180920.832500", "180921.292500", "180921.752500", "180922.212500", "180922.672500", "180923.132500", "180923.592500", "180924.052500", "180924.512500", "180924.972500", "180925.432500", "180925.892500", "180926.352500", "180926.812500", "180927.272500", "180927.732500", "180928.192500", "180928.652500", "180929.112500", "180929.572500", "180930.032500", "180930.492500", "180930.952500", "180931.412500", "180931.872500", "180932.332500", "180932.792500", "180933.252500", "180933.712500", "180934.172500", "180934.632500", "180935.092500", "180935.552500", "180936.012500", "180936.472500", "180936.932500", "180937.392500", "180937.852500", "180938.312500", "180938.772500", "180939.232500", "180939.692500", "180940.152500", "180940.612500", "180941.072500", "180941.532500", "180941.992500", "180942.452500", "180942.912500", "180943.372500", "180943.832500", "180944.292500", "180944.752500", "180945.212500", "180945.672500", "180946.132500", "180946.592500", "180947.052500", "180947.512500", "180947.972500", "180948.432500", "180948.892500", "180949.352500", "180949.812500", "180950.272500", "180950.732500", "180951.192500", "180951.652500", "180952.112500", "180952.572500", "180953.032500", "180953.492500", "180953.952500", "180954.412500", "180954.872500", "180955.332500", "180955.792500", "180956.252500", "180956.712500", "180957.172500", "180957.632500", "180958.092500", "180958.552500", "180959.012500", "180959.472500", "180959.932500", "181000.392500", "181000.852500", "181001.312500", "181001.772500", "181002.232500", "181002.692500", "181003.152500", "181003.612500", "181004.072500", "181004.532500", "181004.992500", "181005.452500", "181005.912500", "181006.372500", "181006.832500", "181007.292500", "181007.752500", "181008.212500", "181008.672500", "181009.132500", "181009.592500", "181010.052500", "181010.512500", "181010.972500", "181011.432500", "181011.892500", "181012.352500", "181012.812500", "181013.272500", "181013.732500", "181014.192500", "181014.652500", "181015.112500", "181015.572500", "181016.032500", "181016.492500", "181016.952500", "181017.412500", "181017.872500", "181018.332500", "181018.792500", "181019.252500", "181019.712500", "181020.172500", "181020.632500", "181021.092500", "181021.552500", "181022.012500", "181022.472500", "181022.932500", "181023.392500", "181023.852500", "181024.312500", "181024.772500", "181025.232500", "181025.692500", "181026.152500", "181026.612500", "181027.072500", "181027.532500", "181027.992500", "181028.452500", "181028.912500", "181029.372500", "181029.832500", "181030.292500", "181030.752500", "181031.212500", "181031.672500", "181032.132500", "181032.592500", "181033.052500", "181033.512500", "181033.972500", "181034.432500", "181034.892500", "181035.352500", "181035.812500", "181036.272500", "181036.732500", "181037.192500", "181037.652500", "181038.112500", "181038.572500", "181039.032500", "181039.492500", "181039.952500", "181040.412500", "181040.872500", "181041.332500", "181041.792500", "181042.252500", "181042.712500", "181043.172500", "181043.632500", "181044.092500", "181044.552500", "181045.012500", "181045.472500", "181045.932500", "181046.392500", "181046.852500", "181047.312500", "181047.772500", "181048.232500", "181048.692500", "181049.152500", "181049.612500", "181050.072500", "181050.532500", "181050.992500", "181051.452500", "181051.912500", "181052.372500", "181052.832500", "181053.292500", "181053.752500", "181054.212500", "181054.672500", "181055.132500", "181055.592500", "181056.052500", "181056.512500", "181056.972500", "181057.432500", "181057.892500", "181058.352500", "181058.812500", "181059.272500", "181059.732500", "181100.192500", "181100.652500", "181101.112500", "181101.572500", "181102.032500", "181102.492500", "181102.952500", "181103.412500", "181103.872500", "181104.332500", "181104.792500", "181105.252500", "181105.712500", "181106.172500", "181106.632500", "181107.092500", "181107.552500", "181108.012500", "181108.472500", "181108.932500", "181109.392500", "181109.852500", "181110.312500", "181110.772500", "181111.232500", "181111.692500", "181112.152500", "181112.612500", "181113.072500", "181113.532500", "181113.992500", "181114.452500", "181114.912500", "181115.372500", "181115.832500", "181116.292500", "181116.752500", "181117.212500", "181117.672500", "181118.132500", "181118.592500", "181119.052500", "181119.512500", "181119.972500", "181120.432500", "181120.892500", "181121.352500", "181121.812500", "181122.272500", "181122.732500", "181123.192500", "181123.652500", "181124.112500", "181124.572500", "181125.032500", "181125.492500", "181125.952500", "181126.412500", "181126.872500", "181127.332500", "181127.792500", "181128.252500", "181128.712500", "181129.172500", "181129.632500", "181130.092500", "181130.552500", "181131.012500", "181131.472500", "181131.932500", "181132.392500", "181132.852500", "181133.312500", "181133.772500", "181134.232500", "181134.692500", "181135.152500", "181135.612500", "181136.072500", "181136.532500", "181136.992500", "181137.452500", "181137.912500", "181138.372500", "181138.832500", "181139.292500", "181139.752500", "181140.212500", "181140.672500", "181141.132500", "181141.592500", "181142.052500", "181142.512500", "181142.972500", "181143.432500", "181143.892500", "181144.352500", "181144.812500", "181145.272500", "181145.732500", "181146.192500", "181146.652500", "181147.112500", "181147.572500", "181148.032500", "181148.492500", "181148.952500", "181149.412500", "181149.872500", "181150.332500", "181150.792500", "181151.252500", "181151.712500", "181152.172500", "181152.632500", "181153.092500", "181153.552500", "181154.012500", "181154.472500", "181154.932500", "181155.392500", "181155.852500", "181156.312500", "181156.772500", "181157.232500", "181157.692500", "181158.152500", "181158.612500", "181159.072500", "181159.532500", "181159.992500", "181200.452500", "181200.912500", "181201.372500", "181201.832500", "181202.292500", "181202.752500", "181203.212500", "181203.672500", "181204.132500", "181204.592500", "181205.052500", "181205.512500", "181205.972500", "181206.432500", "181206.892500", "181207.352500", "181207.812500", "181208.272500", "181208.732500", "181209.192500", "181209.652500", "181210.112500", "181210.572500", "181211.032500", "181211.492500", "181211.952500", "181212.412500", "181212.872500"],
