{
  "AcquisitionMatrixPE": 82,
  "AcquisitionNumber": 1,
  "AcquisitionTime": "18:24:53.195000",
  "BandwidthPerPixelPhaseEncode": 24.888,
  "BaseResolution": 82,
  "BodyPartExamined": "BRAIN",
  "ConsistencyInfo": "N4_VE11E_LATEST_20181129",
  "ConversionSoftware": "dcm2niix",
  "ConversionSoftwareVersion": "v1.0.20201102",
  "DerivedVendorReportedEchoSpacing": 0.00049,
  "DeviceSerialNumber": "66112",
  "DwellTime": 2e-06,
  "EchoTime": 0.0272,
  "EchoTrainLength": 82,
  "EffectiveEchoSpacing": 0.00049,
  "FlipAngle": 44,
  "ImageComments": "Unaliased MB8/PE3",
  "ImageOrientationPatientDICOM": [0.997595, 0.0672646, -0.016696, -0.0662602, 0.996297, 0.0547839],
  "ImageType": [
    "ORIGINAL",
    "PRIMARY",
    "M",
    "MB",
    "ND",
    "NORM",
    "MOSAIC"
],
  "ImagingFrequency": 123.259,
  "InPlanePhaseEncodingDirectionDICOM": "COL",
  "InstitutionAddress": "Maynard 3,Hanover,NH,US,03755",
  "InstitutionName": "Dartmouth College - PBS",
  "InstitutionalDepartmentName": "Department",
  "MRAcquisitionType": "2D",
  "MagneticFieldStrength": 3,
  "Manufacturer": "Siemens",
  "ManufacturersModelName": "Prisma",
  "Modality": "MR",
  "MultibandAccelerationFactor": 8,
  "PartialFourier": 1,
  "PatientPosition": "HFS",
  "PercentPhaseFOV": 100,
  "PercentSampling": 100,
  "PhaseEncodingDirection": "j-",
  "PhaseEncodingSteps": 82,
  "PhaseResolution": 1,
  "PixelBandwidth": 3050,
  "ProcedureStepDescription": "Wager_Wager^1076_spacetop",
  "ProtocolName": "func_run-06_task-social_acq-ap-mb8",
  "PulseSequenceDetails": "%CustomerSeq%\\cmrr_mbep2d_bold",
  "ReceiveCoilActiveElements": "HEA;HEP",
  "ReceiveCoilName": "Head_32",
  "ReconMatrixPE": 82,
  "RepetitionTime": 0.46,
  "SAR": 0.0880239,
  "ScanOptions": "FS",
  "ScanningSequence": "EP",
  "SequenceName": "epfid2d1_82",
  "SequenceVariant": "SK\\SS",
  "SeriesDescription": "func_run-06_task-social_acq-ap-mb8",
  "SeriesNumber": 26,
  "ShimSetting": [4211, -8138, -7339, 618, -229, -981, 794, 116],
  "SliceThickness": 2.7,
  "SliceTiming": [0, 0.2525, 0.0625, 0.315, 0.125, 0.3775, 0.19, 0, 0.2525, 0.0625, 0.315, 0.125, 0.3775, 0.19, 0, 0.2525, 0.0625, 0.315, 0.125, 0.3775, 0.19, 0, 0.2525, 0.0625, 0.315, 0.125, 0.3775, 0.19, 0, 0.2525, 0.0625, 0.315, 0.125, 0.3775, 0.19, 0, 0.2525, 0.0625, 0.315, 0.125, 0.3775, 0.19, 0, 0.2525, 0.0625, 0.315, 0.125, 0.3775, 0.19, 0, 0.2525, 0.0625, 0.315, 0.125, 0.3775, 0.19],
  "SoftwareVersions": "syngo MR E11",
  "SpacingBetweenSlices": 2.7,
  "StationName": "AWP66112",
  "TaskName": "social",
  "TotalReadoutTime": 0.03969,
  "TxRefAmp": 232.369,
  "WipMemBlock": "377e465a-b842-47f7-a198-20917788a0ec||Sequence: R016 ve11e/master r/434b28f1; Aug  7 2019 18:53:46 by eja",
  "dcmmeta_affine": [
    [-2.676475763320923, -0.17777137458324432, -0.05486191436648369, 122.99714660644531],
    [-0.18046613037586212, 2.672992706298828, 0.1445738971233368, -98.4102783203125],
    [-0.044794220477342606, -0.14698119461536407, 2.695568323135376, -61.668800354003906],
    [0.0, 0.0, 0.0, 1.0]
],
  "dcmmeta_reorient_transform": [
    [0.0, -1.0, 0.0, 81.0],
    [1.0, 0.0, 0.0, 0.0],
    [0.0, 0.0, 1.0, 0.0],
    [0.0, 0.0, 0.0, 1.0]
],
  "dcmmeta_shape": [82, 82, 56, 872],
  "dcmmeta_slice_dim": 2,
  "dcmmeta_version": 0.6,
  "global": {
    "const": {
      "AccessionNumber": "A004808",
      "AcquisitionMatrix": [82, 0, 0, 82],
      "AngioFlag": "N",
      "BitsAllocated": 16,
      "BitsStored": 16,
      "BodyPartExamined": "BRAIN",
      "Columns": 656,
      "EchoNumbers": 1,
      "EchoTime": 27.2,
      "EchoTrainLength": 82,
      "FlipAngle": 44.0,
      "HighBit": 15,
      "ImageOrientationPatient": [0.99759546407035, 0.06726464702889, -0.016696027262, -0.0662602376965, 0.99629729760711, 0.05478389983544],
      "ImagePositionPatient": [-825.72580657957, -937.0448544006, -102.90194170085],
      "ImageType": [
        "ORIGINAL",
        "PRIMARY",
        "M",
        "MB",
        "ND",
        "NORM",
        "MOSAIC"
],
      "ImagedNucleus": "1H",
      "ImagingFrequency": 123.259183,
      "InPlanePhaseEncodingDirection": "COL",
      "MRAcquisitionType": "2D",
      "MagneticFieldStrength": 3.0,
      "Manufacturer": "SIEMENS",
      "ManufacturerModelName": "Prisma",
      "Modality": "MR",
      "NumberOfAverages": 1.0,
      "NumberOfPhaseEncodingSteps": 82,
      "PercentPhaseFieldOfView": 100.0,
      "PercentSampling": 100.0,
      "PerformedProcedureStepStartTime": "170756.271000",
      "PhotometricInterpretation": "MONOCHROME2",
      "PixelBandwidth": 3050.0,
      "PixelRepresentation": 0,
      "PixelSpacing": [2.6829268932343, 2.6829268932343],
      "ProtocolName": "func_run-06_task-social_acq-ap-mb8",
      "RepetitionTime": 460.0,
      "Rows": 656,
      "SAR": 0.08802392478293,
      "SamplesPerPixel": 1,
      "ScanOptions": "FS",
      "ScanningSequence": "EP",
      "SequenceName": "epfid2d1_82",
      "SequenceVariant": [
        "SK",
        "SS"
],
      "SeriesDescription": "func_run-06_task-social_acq-ap-mb8",
      "SeriesNumber": 26,
      "SeriesTime": "182503.818000",
      "SliceLocation": -69.336253801506,
      "SliceThickness": 2.7000000476837,
      "SmallestImagePixelValue": 0,
      "SoftwareVersions": "syngo MR E11",
      "SpacingBetweenSlices": 2.7000001126656,
      "SpecificCharacterSet": "ISO_IR 100",
      "StudyID": "1",
      "StudyTime": "170756.166000",
      "TransmitCoilName": "Body",
      "VariableFlipAngleFlag": "N",
      "WindowCenterWidthExplanation": "Algo1"
    },
    "slices": {}
  },
  "time": {
    "samples": {
      "AcquisitionNumber": [1, 2, 3, 4, 5, 6, 7, 8, 9, 10, 11, 12, 13, 14, 15, 16, 17, 18, 19, 20, 21, 22, 23, 24, 25, 26, 27, 28, 29, 30, 31, 32, 33, 34, 35, 36, 37, 38, 39, 40, 41, 42, 43, 44, 45, 46, 47, 48, 49, 50, 51, 52, 53, 54, 55, 56, 57, 58, 59, 60, 61, 62, 63, 64, 65, 66, 67, 68, 69, 70, 71, 72, 73, 74, 75, 76, 77, 78, 79, 80, 81, 82, 83, 84, 85, 86, 87, 88, 89, 90, 91, 92, 93, 94, 95, 96, 97, 98, 99, 100, 101, 102, 103, 104, 105, 106, 107, 108, 109, 110, 111, 112, 113, 114, 115, 116, 117, 118, 119, 120, 121, 122, 123, 124, 125, 126, 127, 128, 129, 130, 131, 132, 133, 134, 135, 136, 137, 138, 139, 140, 141, 142, 143, 144, 145, 146, 147, 148, 149, 150, 151, 152, 153, 154, 155, 156, 157, 158, 159, 160, 161, 162, 163, 164, 165, 166, 167, 168, 169, 170, 171, 172, 173, 174, 175, 176, 177, 178, 179, 180, 181, 182, 183, 184, 185, 186, 187, 188, 189, 190, 191, 192, 193, 194, 195, 196, 197, 198, 199, 200, 201, 202, 203, 204, 205, 206, 207, 208, 209, 210, 211, 212, 213, 214, 215, 216, 217, 218, 219, 220, 221, 222, 223, 224, 225, 226, 227, 228, 229, 230, 231, 232, 233, 234, 235, 236, 237, 238, 239, 240, 241, 242, 243, 244, 245, 246, 247, 248, 249, 250, 251, 252, 253, 254, 255, 256, 257, 258, 259, 260, 261, 262, 263, 264, 265, 266, 267, 268, 269, 270, 271, 272, 273, 274, 275, 276, 277, 278, 279, 280, 281, 282, 283, 284, 285, 286, 287, 288, 289, 290, 291, 292, 293, 294, 295, 296, 297, 298, 299, 300, 301, 302, 303, 304, 305, 306, 307, 308, 309, 310, 311, 312, 313, 314, 315, 316, 317, 318, 319, 320, 321, 322, 323, 324, 325, 326, 327, 328, 329, 330, 331, 332, 333, 334, 335, 336, 337, 338, 339, 340, 341, 342, 343, 344, 345, 346, 347, 348, 349, 350, 351, 352, 353, 354, 355, 356, 357, 358, 359, 360, 361, 362, 363, 364, 365, 366, 367, 368, 369, 370, 371, 372, 373, 374, 375, 376, 377, 378, 379, 380, 381, 382, 383, 384, 385, 386, 387, 388, 389, 390, 391, 392, 393, 394, 395, 396, 397, 398, 399, 400, 401, 402, 403, 404, 405, 406, 407, 408, 409, 410, 411, 412, 413, 414, 415, 416, 417, 418, 419, 420, 421, 422, 423, 424, 425, 426, 427, 428, 429, 430, 431, 432, 433, 434, 435, 436, 437, 438, 439, 440, 441, 442, 443, 444, 445, 446, 447, 448, 449, 450, 451, 452, 453, 454, 455, 456, 457, 458, 459, 460, 461, 462, 463, 464, 465, 466, 467, 468, 469, 470, 471, 472, 473, 474, 475, 476, 477, 478, 479, 480, 481, 482, 483, 484, 485, 486, 487, 488, 489, 490, 491, 492, 493, 494, 495, 496, 497, 498, 499, 500, 501, 502, 503, 504, 505, 506, 507, 508, 509, 510, 511, 512, 513, 514, 515, 516, 517, 518, 519, 520, 521, 522, 523, 524, 525, 526, 527, 528, 529, 530, 531, 532, 533, 534, 535, 536, 537, 538, 539, 540, 541, 542, 543, 544, 545, 546, 547, 548, 549, 550, 551, 552, 553, 554, 555, 556, 557, 558, 559, 560, 561, 562, 563, 564, 565, 566, 567, 568, 569, 570, 571, 572, 573, 574, 575, 576, 577, 578, 579, 580, 581, 582, 583, 584, 585, 586, 587, 588, 589, 590, 591, 592, 593, 594, 595, 596, 597, 598, 599, 600, 601, 602, 603, 604, 605, 606, 607, 608, 609, 610, 611, 612, 613, 614, 615, 616, 617, 618, 619, 620, 621, 622, 623, 624, 625, 626, 627, 628, 629, 630, 631, 632, 633, 634, 635, 636, 637, 638, 639, 640, 641, 642, 643, 644, 645, 646, 647, 648, 649, 650, 651, 652, 653, 654, 655, 656, 657, 658, 659, 660, 661, 662, 663, 664, 665, 666, 667, 668, 669, 670, 671, 672, 673, 674, 675, 676, 677, 678, 679, 680, 681, 682, 683, 684, 685, 686, 687, 688, 689, 690, 691, 692, 693, 694, 695, 696, 697, 698, 699, 700, 701, 702, 703, 704, 705, 706, 707, 708, 709, 710, 711, 712, 713, 714, 715, 716, 717, 718, 719, 720, 721, 722, 723, 724, 725, 726, 727, 728, 729, 730, 731, 732, 733, 734, 735, 736, 737, 738, 739, 740, 741, 742, 743, 744, 745, 746, 747, 748, 749, 750, 751, 752, 753, 754, 755, 756, 757, 758, 759, 760, 761, 762, 763, 764, 765, 766, 767, 768, 769, 770, 771, 772, 773, 774, 775, 776, 777, 778, 779, 780, 781, 782, 783, 784, 785, 786, 787, 788, 789, 790, 791, 792, 793, 794, 795, 796, 797, 798, 799, 800, 801, 802, 803, 804, 805, 806, 807, 808, 809, 810, 811, 812, 813, 814, 815, 816, 817, 818, 819, 820, 821, 822, 823, 824, 825, 826, 827, 828, 829, 830, 831, 832, 833, 834, 835, 836, 837, 838, 839, 840, 841, 842, 843, 844, 845, 846, 847, 848, 849, 850, 851, 852, 853, 854, 855, 856, 857, 858, 859, 860, 861, 862, 863, 864, 865, 866, 867, 868, 869, 870, 871, 872],
      "AcquisitionTime": ["182453.195000", "182453.655000", "182454.115000", "182454.575000", "182455.035000", "182455.495000", "182455.955000", "182456.415000", "182456.875000", "182457.335000", "182457.795000", "182458.255000", "182458.715000", "182459.175000", "182459.635000", "182500.095000", "182500.555000", "182501.015000", "182501.475000", "182501.935000", "182502.395000", "182502.855000", "182503.315000", "182503.775000", "182504.235000", "182504.695000", "182505.155000", "182505.615000", "182506.075000", "182506.535000", "182506.995000", "182507.455000", "182507.915000", "182508.375000", "182508.835000", "182509.295000", "182509.755000", "182510.215000", "182510.675000", "182511.135000", "182511.595000", "182512.055000", "182512.515000", "182512.975000", "182513.435000", "182513.895000", "182514.355000", "182514.815000", "182515.275000", "182515.735000", "182516.195000", "182516.655000", "182517.115000", "182517.575000", "182518.035000", "182518.495000", "182518.955000", "182519.415000", "182519.875000", "182520.335000", "182520.795000", "182521.255000", "182521.715000", "182522.175000", "182522.635000", "182523.095000", "182523.555000", "182524.015000", "182524.475000", "182524.935000", "182525.395000", "182525.855000", "182526.315000", "182526.775000", "182527.235000", "182527.695000", "182528.155000", "182528.615000", "182529.075000", "182529.535000", "182529.995000", "182530.455000", "182530.915000", "182531.375000", "182531.835000", "182532.295000", "182532.755000", "182533.215000", "182533.675000", "182534.135000", "182534.595000", "182535.055000", "182535.515000", "182535.975000", "182536.435000", "182536.895000", "182537.355000", "182537.815000", "182538.275000", "182538.735000", "182539.195000", "182539.655000", "182540.115000", "182540.575000", "182541.035000", "182541.495000", "182541.955000", "182542.415000", "182542.875000", "182543.335000", "182543.795000", "182544.255000", "182544.715000", "182545.175000", "182545.635000", "182546.095000", "182546.555000", "182547.015000", "182547.475000", "182547.935000", "182548.395000", "182548.855000", "182549.315000", "182549.775000", "182550.235000", "182550.695000", "182551.155000", "182551.615000", "182552.075000", "182552.535000", "182552.995000", "182553.455000", "182553.915000", "182554.375000", "182554.835000", "182555.295000", "182555.755000", "182556.215000", "182556.675000", "182557.135000", "182557.595000", "182558.055000", "182558.515000", "182558.975000", "182559.435000", "182559.895000", "182600.355000", "182600.815000", "182601.275000", "182601.735000", "182602.195000", "182602.655000", "182603.115000", "182603.575000", "182604.035000", "182604.495000", "182604.955000", "182605.415000", "182605.875000", "182606.335000", "182606.795000", "182607.255000", "182607.715000", "182608.175000", "182608.635000", "182609.095000", "182609.555000", "182610.015000", "182610.475000", "182610.935000", "182611.395000", "182611.855000", "182612.315000", "182612.775000", "182613.235000", "182613.695000", "182614.155000", "182614.615000", "182615.075000", "182615.535000", "182615.995000", "182616.455000", "182616.915000", "182617.375000", "182617.835000", "182618.295000", "182618.755000", "182619.215000", "182619.675000", "182620.135000", "182620.595000", "182621.055000", "182621.515000", "182621.975000", "182622.435000", "182622.895000", "182623.355000", "182623.815000", "182624.275000", "182624.735000", "182625.195000", "182625.655000", "182626.115000", "182626.575000", "182627.035000", "182627.495000", "182627.955000", "182628.415000", "182628.875000", "182629.335000", "182629.795000", "182630.255000", "182630.715000", "182631.175000", "182631.635000", "182632.095000", "182632.555000", "182633.015000", "182633.475000", "182633.935000", "182634.395000", "182634.855000", "182635.315000", "182635.775000", "182636.235000", "182636.695000", "182637.155000", "182637.615000", "182638.075000", "182638.535000", "182638.995000", "182639.455000", "182639.915000", "182640.375000", "182640.835000", "182641.295000", "182641.755000", "182642.215000", "182642.675000", "182643.135000", "182643.595000", "182644.055000", "182644.515000", "182644.975000", "182645.435000", "182645.895000", "182646.355000", "182646.815000", "182647.275000", "182647.735000", "182648.195000", "182648.655000", "182649.115000", "182649.575000", "182650.035000", "182650.495000", "182650.955000", "182651.415000", "182651.875000", "182652.335000", "182652.795000", "182653.255000", "182653.715000", "182654.175000", "182654.635000", "182655.095000", "182655.555000", "182656.015000", "182656.475000", "182656.935000", "182657.395000", "182657.855000", "182658.315000", "182658.775000", "182659.235000", "182659.695000", "182700.155000", "182700.615000", "182701.075000", "182701.535000", "182701.995000", "182702.455000", "182702.915000", "182703.375000", "182703.835000", "182704.295000", "182704.755000", "182705.215000", "182705.675000", "182706.135000", "182706.595000", "182707.055000", "182707.515000", "182707.975000", "182708.435000", "182708.895000", "182709.355000", "182709.815000", "182710.275000", "182710.735000", "182711.195000", "182711.655000", "182712.115000", "182712.575000", "182713.035000", "182713.495000", "182713.955000", "182714.415000", "182714.875000", "182715.335000", "182715.795000", "182716.255000", "182716.715000", "182717.175000", "182717.635000", "182718.095000", "182718.555000", "182719.015000", "182719.475000", "182719.935000", "182720.395000", "182720.855000", "182721.315000", "182721.775000", "182722.235000", "182722.695000", "182723.155000", "182723.615000", "182724.075000", "182724.535000", "182724.995000", "182725.455000", "182725.915000", "182726.375000", "182726.835000", "182727.295000", "182727.755000", "182728.215000", "182728.675000", "182729.135000", "182729.595000", "182730.055000", "182730.515000", "182730.975000", "182731.435000", "182731.895000", "182732.355000", "182732.815000", "182733.275000", "182733.735000", "182734.195000", "182734.655000", "182735.115000", "182735.575000", "182736.035000", "182736.495000", "182736.955000", "182737.415000", "182737.875000", "182738.335000", "182738.795000", "182739.255000", "182739.715000", "182740.175000", "182740.635000", "182741.095000", "182741.555000", "182742.015000", "182742.475000", "182742.935000", "182743.395000", "182743.855000", "182744.315000", "182744.775000", "182745.235000", "182745.695000", "182746.155000", "182746.615000", "182747.075000", "182747.535000", "182747.995000", "182748.455000", "182748.915000", "182749.375000", "182749.835000", "182750.295000", "182750.755000", "182751.215000", "182751.675000", "182752.135000", "182752.595000", "182753.055000", "182753.515000", "182753.975000", "182754.435000", "182754.895000", "182755.355000", "182755.815000", "182756.275000", "182756.735000", "182757.195000", "182757.655000", "182758.115000", "182758.575000", "182759.035000", "182759.495000", "182759.955000", "182800.415000", "182800.875000", "182801.335000", "182801.795000", "182802.255000", "182802.715000", "182803.175000", "182803.635000", "182804.095000", "182804.555000", "182805.015000", "182805.475000", "182805.935000", "182806.395000", "182806.855000", "182807.315000", "182807.775000", "182808.235000", "182808.695000", "182809.155000", "182809.615000", "182810.075000", "182810.535000", "182810.995000", "182811.455000", "182811.915000", "182812.375000", "182812.835000", "182813.295000", "182813.755000", "182814.215000", "182814.675000", "182815.135000", "182815.595000", "182816.055000", "182816.515000", "182816.975000", "182817.435000", "182817.895000", "182818.355000", "182818.815000", "182819.275000", "182819.735000", "182820.195000", "182820.655000", "182821.115000", "182821.575000", "182822.035000", "182822.495000", "182822.955000", "182823.415000", "182823.875000", "182824.335000", "182824.795000", "182825.255000", "182825.715000", "182826.175000", "182826.635000", "182827.095000", "182827.555000", "182828.015000", "182828.475000", "182828.935000", "182829.395000", "182829.855000", "182830.315000", "182830.775000", "182831.235000", "182831.695000", "182832.155000", "182832.615000", "182833.075000", "182833.535000", "182833.995000", "182834.455000", "182834.915000", "182835.375000", "182835.835000", "182836.295000", "182836.755000", "182837.215000", "182837.675000", "182838.135000", "182838.595000", "182839.055000", "182839.515000", "182839.975000", "182840.435000", "182840.895000", "182841.355000", "182841.815000", "182842.275000", "182842.735000", "182843.195000", "182843.655000", "182844.115000", "182844.575000", "182845.035000", "182845.495000", "182845.955000", "182846.415000", "182846.875000", "182847.335000", "182847.795000", "182848.255000", "182848.715000", "182849.175000", "182849.635000", "182850.095000", "182850.555000", "182851.015000", "182851.475000", "182851.935000", "182852.395000", "182852.855000", "182853.315000", "182853.775000", "182854.235000", "182854.695000", "182855.155000", "182855.615000", "182856.075000", "182856.535000", "182856.995000", "182857.455000", "182857.915000", "182858.375000", "182858.835000", "182859.295000", "182859.755000", "182900.215000", "182900.675000", "182901.135000", "182901.595000", "182902.055000", "182902.515000", "182902.975000", "182903.435000", "182903.895000", "182904.355000", "182904.815000", "182905.275000", "182905.735000", "182906.195000", "182906.655000", "182907.115000", "182907.575000", "182908.035000", "182908.495000", "182908.955000", "182909.415000", "182909.875000", "182910.335000", "182910.795000", "182911.255000", "182911.715000", "182912.175000", "182912.635000", "182913.095000", "182913.555000", "182914.015000", "182914.475000", "182914.935000", "182915.395000", "182915.855000", "182916.315000", "182916.775000", "182917.235000", "182917.695000", "182918.155000", "182918.615000", "182919.075000", "182919.535000", "182919.995000", "182920.455000", "182920.915000", "182921.375000", "182921.835000", "182922.295000", "182922.755000", "182923.215000", "182923.675000", "182924.135000", "182924.595000", "182925.055000", "182925.515000", "182925.975000", "182926.435000", "182926.895000", "182927.355000", "182927.815000", "182928.275000", "182928.735000", "182929.195000", "182929.655000", "182930.115000", "182930.575000", "182931.035000", "182931.495000", "182931.955000", "182932.415000", "182932.875000", "182933.335000", "182933.795000", "182934.255000", "182934.715000", "182935.175000", "182935.635000", "182936.095000", "182936.555000", "182937.015000", "182937.475000", "182937.935000", "182938.395000", "182938.855000", "182939.315000", "182939.775000", "182940.235000", "182940.695000", "182941.155000", "182941.615000", "182942.075000", "182942.535000", "182942.995000", "182943.455000", "182943.915000", "182944.375000", "182944.835000", "182945.295000", "182945.755000", "182946.215000", "182946.675000", "182947.135000", "182947.595000", "182948.055000", "182948.515000", "182948.975000", "182949.435000", "182949.895000", "182950.355000", "182950.815000", "182951.275000", "182951.735000", "182952.195000", "182952.655000", "182953.115000", "182953.575000", "182954.035000", "182954.495000", "182954.955000", "182955.415000", "182955.875000", "182956.335000", "182956.795000", "182957.255000", "182957.715000", "182958.175000", "182958.635000", "182959.095000", "182959.555000", "183000.015000", "183000.475000", "183000.935000", "183001.395000", "183001.855000", "183002.315000", "183002.775000", "183003.235000", "183003.695000", "183004.155000", "183004.615000", "183005.075000", "183005.535000", "183005.995000", "183006.455000", "183006.915000", "183007.375000", "183007.835000", "183008.295000", "183008.755000", "183009.215000", "183009.675000", "183010.135000", "183010.595000", "183011.055000", "183011.515000", "183011.975000", "183012.435000", "183012.895000", "183013.355000", "183013.815000", "183014.275000", "183014.735000", "183015.195000", "183015.655000", "183016.115000", "183016.575000", "183017.035000", "183017.495000", "183017.955000", "183018.415000", "183018.875000", "183019.335000", "183019.795000", "183020.255000", "183020.715000", "183021.175000", "183021.635000", "183022.095000", "183022.555000", "183023.015000", "183023.475000", "183023.935000", "183024.395000", "183024.855000", "183025.315000", "183025.775000", "183026.235000", "183026.695000", "183027.155000", "183027.615000", "183028.075000", "183028.535000", "183028.995000", "183029.455000", "183029.915000", "183030.375000", "183030.835000", "183031.295000", "183031.755000", "183032.215000", "183032.675000", "183033.135000", "183033.595000", "183034.055000", "183034.515000", "183034.975000", "183035.435000", "183035.895000", "183036.355000", "183036.815000", "183037.275000", "183037.735000", "183038.195000", "183038.655000", "183039.115000", "183039.575000", "183040.035000", "183040.495000", "183040.955000", "183041.415000", "183041.875000", "183042.335000", "183042.795000", "183043.255000", "183043.715000", "183044.175000", "183044.635000", "183045.095000", "183045.555000", "183046.015000", "183046.475000", "183046.935000", "183047.395000", "183047.855000", "183048.315000", "183048.775000", "183049.235000", "183049.695000", "183050.155000", "183050.615000", "183051.075000", "183051.535000", "183051.995000", "183052.455000", "183052.915000", "183053.375000", "183053.835000", "183054.295000", "183054.755000", "183055.215000", "183055.675000", "183056.135000", "183056.595000", "183057.055000", "183057.515000", "183057.975000", "183058.435000", "183058.895000", "183059.355000", "183059.815000", "183100.275000", "183100.735000", "183101.195000", "183101.655000", "183102.115000", "183102.575000", "183103.035000", "183103.495000", "183103.955000", "183104.415000", "183104.875000", "183105.335000", "183105.795000", "183106.255000", "183106.715000", "183107.175000", "183107.635000", "183108.095000", "183108.555000", "183109.015000", "183109.475000", "183109.935000", "183110.395000", "183110.855000", "183111.315000", "183111.775000", "183112.235000", "183112.695000", "183113.155000", "183113.615000", "183114.075000", "183114.535000", "183114.995000", "183115.455000", "183115.915000", "183116.375000", "183116.835000", "183117.295000", "183117.755000", "183118.215000", "183118.675000", "183119.135000", "183119.595000", "183120.055000", "183120.515000", "183120.975000", "183121.435000", "183121.895000", "183122.355000", "183122.815000", "183123.275000", "183123.735000", "183124.195000", "183124.655000", "183125.115000", "183125.575000", "183126.035000", "183126.495000", "183126.955000", "183127.415000", "183127.875000", "183128.335000", "183128.795000", "183129.255000", "183129.715000", "183130.175000", "183130.635000", "183131.095000", "183131.555000", "183132.015000", "183132.475000", "183132.935000", "183133.395000", "183133.855000"],
