{
  "AcquisitionMatrixPE": 82,
  "AcquisitionNumber": 1,
  "AcquisitionTime": "17:57:54.090000",
  "BandwidthPerPixelPhaseEncode": 24.888,
  "BaseResolution": 82,
  "BodyPartExamined": "BRAIN",
  "ConsistencyInfo": "N4_VE11E_LATEST_20181129",
  "ConversionSoftware": "dcm2niix",
  "ConversionSoftwareVersion": "v1.0.20201102",
  "DerivedVendorReportedEchoSpacing": 0.00049,
  "DeviceSerialNumber": "66112",
  "DwellTime": 2e-06,
  "EchoTime": 0.0272,
  "EchoTrainLength": 82,
  "EffectiveEchoSpacing": 0.00049,
  "FlipAngle": 44,
  "ImageComments": "Unaliased MB8/PE3",
  "ImageOrientationPatientDICOM": [0.997595, 0.0672646, -0.016696, -0.0662602, 0.996297, 0.0547839],
  "ImageType": [
    "ORIGINAL",
    "PRIMARY",
    "M",
    "MB",
    "ND",
    "NORM",
    "MOSAIC"
],
  "ImagingFrequency": 123.259,
  "InPlanePhaseEncodingDirectionDICOM": "COL",
  "InstitutionAddress": "Maynard 3,Hanover,NH,US,03755",
  "InstitutionName": "Dartmouth College - PBS",
  "InstitutionalDepartmentName": "Department",
  "MRAcquisitionType": "2D",
  "MagneticFieldStrength": 3,
  "Manufacturer": "Siemens",
  "ManufacturersModelName": "Prisma",
  "Modality": "MR",
  "MultibandAccelerationFactor": 8,
  "PartialFourier": 1,
  "PatientPosition": "HFS",
  "PercentPhaseFOV": 100,
  "PercentSampling": 100,
  "PhaseEncodingDirection": "j-",
  "PhaseEncodingSteps": 82,
  "PhaseResolution": 1,
  "PixelBandwidth": 3050,
  "ProcedureStepDescription": "Wager_Wager^1076_spacetop",
  "ProtocolName": "func_run-02_task-social_acq-ap-mb8",
  "PulseSequenceDetails": "%CustomerSeq%\\cmrr_mbep2d_bold",
  "ReceiveCoilActiveElements": "HEA;HEP",
  "ReceiveCoilName": "Head_32",
  "ReconMatrixPE": 82,
  "RepetitionTime": 0.46,
  "SAR": 0.0880239,
  "ScanOptions": "FS",
  "ScanningSequence": "EP",
  "SequenceName": "epfid2d1_82",
  "SequenceVariant": "SK\\SS",
  "SeriesDescription": "func_run-02_task-social_acq-ap-mb8",
  "SeriesNumber": 18,
  "ShimSetting": [4211, -8138, -7339, 618, -229, -981, 794, 116],
  "SliceThickness": 2.7,
  "SliceTiming": [0, 0.2525, 0.0625, 0.315, 0.125, 0.3775, 0.19, 0, 0.2525, 0.0625, 0.315, 0.125, 0.3775, 0.19, 0, 0.2525, 0.0625, 0.315, 0.125, 0.3775, 0.19, 0, 0.2525, 0.0625, 0.315, 0.125, 0.3775, 0.19, 0, 0.2525, 0.0625, 0.315, 0.125, 0.3775, 0.19, 0, 0.2525, 0.0625, 0.315, 0.125, 0.3775, 0.19, 0, 0.2525, 0.0625, 0.315, 0.125, 0.3775, 0.19, 0, 0.2525, 0.0625, 0.315, 0.125, 0.3775, 0.19],
  "SoftwareVersions": "syngo MR E11",
  "SpacingBetweenSlices": 2.7,
  "StationName": "AWP66112",
  "TaskName": "social",
  "TotalReadoutTime": 0.03969,
  "TxRefAmp": 232.369,
  "WipMemBlock": "222258f0-fbc8-4097-8ab1-7beaa9423665||Sequence: R016 ve11e/master r/434b28f1; Aug  7 2019 18:53:46 by eja",
  "dcmmeta_affine": [
    [-2.676475763320923, -0.17777137458324432, -0.05486191436648369, 122.99714660644531],
    [-0.18046613037586212, 2.672992706298828, 0.1445738971233368, -98.4102783203125],
    [-0.044794220477342606, -0.14698119461536407, 2.695568323135376, -61.668800354003906],
    [0.0, 0.0, 0.0, 1.0]
],
  "dcmmeta_reorient_transform": [
    [0.0, -1.0, 0.0, 81.0],
    [1.0, 0.0, 0.0, 0.0],
    [0.0, 0.0, 1.0, 0.0],
    [0.0, 0.0, 0.0, 1.0]
],
  "dcmmeta_shape": [82, 82, 56, 872],
  "dcmmeta_slice_dim": 2,
  "dcmmeta_version": 0.6,
  "global": {
    "const": {
      "AccessionNumber": "A004808",
      "AcquisitionMatrix": [82, 0, 0, 82],
      "AngioFlag": "N",
      "BitsAllocated": 16,
      "BitsStored": 16,
      "BodyPartExamined": "BRAIN",
      "Columns": 656,
      "EchoNumbers": 1,
      "EchoTime": 27.2,
      "EchoTrainLength": 82,
      "FlipAngle": 44.0,
      "HighBit": 15,
      "ImageOrientationPatient": [0.99759546407035, 0.06726464702889, -0.016696027262, -0.0662602376965, 0.99629729760711, 0.05478389983544],
      "ImagePositionPatient": [-825.72580657957, -937.0448544006, -102.90194170085],
      "ImageType": [
        "ORIGINAL",
        "PRIMARY",
        "M",
        "MB",
        "ND",
        "NORM",
        "MOSAIC"
],
      "ImagedNucleus": "1H",
      "ImagingFrequency": 123.259176,
      "InPlanePhaseEncodingDirection": "COL",
      "MRAcquisitionType": "2D",
      "MagneticFieldStrength": 3.0,
      "Manufacturer": "SIEMENS",
      "ManufacturerModelName": "Prisma",
      "Modality": "MR",
      "NumberOfAverages": 1.0,
      "NumberOfPhaseEncodingSteps": 82,
      "PercentPhaseFieldOfView": 100.0,
      "PercentSampling": 100.0,
      "PerformedProcedureStepStartTime": "170756.271000",
      "PhotometricInterpretation": "MONOCHROME2",
      "PixelBandwidth": 3050.0,
      "PixelRepresentation": 0,
      "PixelSpacing": [2.6829268932343, 2.6829268932343],
      "ProtocolName": "func_run-02_task-social_acq-ap-mb8",
      "RepetitionTime": 460.0,
      "Rows": 656,
      "SAR": 0.08802392478293,
      "SamplesPerPixel": 1,
      "ScanOptions": "FS",
      "ScanningSequence": "EP",
      "SequenceName": "epfid2d1_82",
      "SequenceVariant": [
        "SK",
        "SS"
],
      "SeriesDescription": "func_run-02_task-social_acq-ap-mb8",
      "SeriesNumber": 18,
      "SeriesTime": "175823.724000",
      "SliceLocation": -69.336253801506,
      "SliceThickness": 2.7000000476837,
      "SmallestImagePixelValue": 0,
      "SoftwareVersions": "syngo MR E11",
      "SpacingBetweenSlices": 2.7000001126656,
      "SpecificCharacterSet": "ISO_IR 100",
      "StudyID": "1",
      "StudyTime": "170756.166000",
      "TransmitCoilName": "Body",
      "VariableFlipAngleFlag": "N",
      "WindowCenterWidthExplanation": "Algo1"
    },
    "slices": {}
  },
  "time": {
    "samples": {
      "AcquisitionNumber": [1, 2, 3, 4, 5, 6, 7, 8, 9, 10, 11, 12, 13, 14, 15, 16, 17, 18, 19, 20, 21, 22, 23, 24, 25, 26, 27, 28, 29, 30, 31, 32, 33, 34, 35, 36, 37, 38, 39, 40, 41, 42, 43, 44, 45, 46, 47, 48, 49, 50, 51, 52, 53, 54, 55, 56, 57, 58, 59, 60, 61, 62, 63, 64, 65, 66, 67, 68, 69, 70, 71, 72, 73, 74, 75, 76, 77, 78, 79, 80, 81, 82, 83, 84, 85, 86, 87, 88, 89, 90, 91, 92, 93, 94, 95, 96, 97, 98, 99, 100, 101, 102, 103, 104, 105, 106, 107, 108, 109, 110, 111, 112, 113, 114, 115, 116, 117, 118, 119, 120, 121, 122, 123, 124, 125, 126, 127, 128, 129, 130, 131, 132, 133, 134, 135, 136, 137, 138, 139, 140, 141, 142, 143, 144, 145, 146, 147, 148, 149, 150, 151, 152, 153, 154, 155, 156, 157, 158, 159, 160, 161, 162, 163, 164, 165, 166, 167, 168, 169, 170, 171, 172, 173, 174, 175, 176, 177, 178, 179, 180, 181, 182, 183, 184, 185, 186, 187, 188, 189, 190, 191, 192, 193, 194, 195, 196, 197, 198, 199, 200, 201, 202, 203, 204, 205, 206, 207, 208, 209, 210, 211, 212, 213, 214, 215, 216, 217, 218, 219, 220, 221, 222, 223, 224, 225, 226, 227, 228, 229, 230, 231, 232, 233, 234, 235, 236, 237, 238, 239, 240, 241, 242, 243, 244, 245, 246, 247, 248, 249, 250, 251, 252, 253, 254, 255, 256, 257, 258, 259, 260, 261, 262, 263, 264, 265, 266, 267, 268, 269, 270, 271, 272, 273, 274, 275, 276, 277, 278, 279, 280, 281, 282, 283, 284, 285, 286, 287, 288, 289, 290, 291, 292, 293, 294, 295, 296, 297, 298, 299, 300, 301, 302, 303, 304, 305, 306, 307, 308, 309, 310, 311, 312, 313, 314, 315, 316, 317, 318, 319, 320, 321, 322, 323, 324, 325, 326, 327, 328, 329, 330, 331, 332, 333, 334, 335, 336, 337, 338, 339, 340, 341, 342, 343, 344, 345, 346, 347, 348, 349, 350, 351, 352, 353, 354, 355, 356, 357, 358, 359, 360, 361, 362, 363, 364, 365, 366, 367, 368, 369, 370, 371, 372, 373, 374, 375, 376, 377, 378, 379, 380, 381, 382, 383, 384, 385, 386, 387, 388, 389, 390, 391, 392, 393, 394, 395, 396, 397, 398, 399, 400, 401, 402, 403, 404, 405, 406, 407, 408, 409, 410, 411, 412, 413, 414, 415, 416, 417, 418, 419, 420, 421, 422, 423, 424, 425, 426, 427, 428, 429, 430, 431, 432, 433, 434, 435, 436, 437, 438, 439, 440, 441, 442, 443, 444, 445, 446, 447, 448, 449, 450, 451, 452, 453, 454, 455, 456, 457, 458, 459, 460, 461, 462, 463, 464, 465, 466, 467, 468, 469, 470, 471, 472, 473, 474, 475, 476, 477, 478, 479, 480, 481, 482, 483, 484, 485, 486, 487, 488, 489, 490, 491, 492, 493, 494, 495, 496, 497, 498, 499, 500, 501, 502, 503, 504, 505, 506, 507, 508, 509, 510, 511, 512, 513, 514, 515, 516, 517, 518, 519, 520, 521, 522, 523, 524, 525, 526, 527, 528, 529, 530, 531, 532, 533, 534, 535, 536, 537, 538, 539, 540, 541, 542, 543, 544, 545, 546, 547, 548, 549, 550, 551, 552, 553, 554, 555, 556, 557, 558, 559, 560, 561, 562, 563, 564, 565, 566, 567, 568, 569, 570, 571, 572, 573, 574, 575, 576, 577, 578, 579, 580, 581, 582, 583, 584, 585, 586, 587, 588, 589, 590, 591, 592, 593, 594, 595, 596, 597, 598, 599, 600, 601, 602, 603, 604, 605, 606, 607, 608, 609, 610, 611, 612, 613, 614, 615, 616, 617, 618, 619, 620, 621, 622, 623, 624, 625, 626, 627, 628, 629, 630, 631, 632, 633, 634, 635, 636, 637, 638, 639, 640, 641, 642, 643, 644, 645, 646, 647, 648, 649, 650, 651, 652, 653, 654, 655, 656, 657, 658, 659, 660, 661, 662, 663, 664, 665, 666, 667, 668, 669, 670, 671, 672, 673, 674, 675, 676, 677, 678, 679, 680, 681, 682, 683, 684, 685, 686, 687, 688, 689, 690, 691, 692, 693, 694, 695, 696, 697, 698, 699, 700, 701, 702, 703, 704, 705, 706, 707, 708, 709, 710, 711, 712, 713, 714, 715, 716, 717, 718, 719, 720, 721, 722, 723, 724, 725, 726, 727, 728, 729, 730, 731, 732, 733, 734, 735, 736, 737, 738, 739, 740, 741, 742, 743, 744, 745, 746, 747, 748, 749, 750, 751, 752, 753, 754, 755, 756, 757, 758, 759, 760, 761, 762, 763, 764, 765, 766, 767, 768, 769, 770, 771, 772, 773, 774, 775, 776, 777, 778, 779, 780, 781, 782, 783, 784, 785, 786, 787, 788, 789, 790, 791, 792, 793, 794, 795, 796, 797, 798, 799, 800, 801, 802, 803, 804, 805, 806, 807, 808, 809, 810, 811, 812, 813, 814, 815, 816, 817, 818, 819, 820, 821, 822, 823, 824, 825, 826, 827, 828, 829, 830, 831, 832, 833, 834, 835, 836, 837, 838, 839, 840, 841, 842, 843, 844, 845, 846, 847, 848, 849, 850, 851, 852, 853, 854, 855, 856, 857, 858, 859, 860, 861, 862, 863, 864, 865, 866, 867, 868, 869, 870, 871, 872],
      "AcquisitionTime": ["175754.090000", "175754.550000", "175755.010000", "175755.470000", "175755.930000", "175756.390000", "175756.850000", "175757.310000", "175757.770000", "175758.230000", "175758.690000", "175759.150000", "175759.610000", "175800.070000", "175800.530000", "175800.990000", "175801.450000", "175801.910000", "175802.370000", "175802.830000", "175803.290000", "175803.750000", "175804.210000", "175804.670000", "175805.130000", "175805.590000", "175806.050000", "175806.510000", "175806.970000", "175807.430000", "175807.890000", "175808.350000", "175808.810000", "175809.270000", "175809.730000", "175810.190000", "175810.650000", "175811.110000", "175811.570000", "175812.030000", "175812.490000", "175812.950000", "175813.410000", "175813.870000", "175814.330000", "175814.790000", "175815.250000", "175815.710000", "175816.170000", "175816.630000", "175817.090000", "175817.550000", "175818.010000", "175818.470000", "175818.930000", "175819.390000", "175819.850000", "175820.310000", "175820.770000", "175821.230000", "175821.690000", "175822.150000", "175822.610000", "175823.070000", "175823.530000", "175823.990000", "175824.450000", "175824.910000", "175825.370000", "175825.830000", "175826.290000", "175826.750000", "175827.210000", "175827.670000", "175828.130000", "175828.590000", "175829.050000", "175829.510000", "175829.970000", "175830.430000", "175830.890000", "175831.350000", "175831.810000", "175832.270000", "175832.730000", "175833.190000", "175833.650000", "175834.110000", "175834.570000", "175835.030000", "175835.490000", "175835.950000", "175836.410000", "175836.870000", "175837.330000", "175837.790000", "175838.250000", "175838.710000", "175839.170000", "175839.630000", "175840.090000", "175840.550000", "175841.010000", "175841.470000", "175841.930000", "175842.390000", "175842.850000", "175843.310000", "175843.770000", "175844.230000", "175844.690000", "175845.150000", "175845.610000", "175846.070000", "175846.530000", "175846.990000", "175847.450000", "175847.910000", "175848.370000", "175848.830000", "175849.290000", "175849.750000", "175850.210000", "175850.670000", "175851.130000", "175851.590000", "175852.050000", "175852.510000", "175852.970000", "175853.430000", "175853.890000", "175854.350000", "175854.810000", "175855.270000", "175855.730000", "175856.190000", "175856.650000", "175857.110000", "175857.570000", "175858.030000", "175858.490000", "175858.950000", "175859.410000", "175859.870000", "175900.330000", "175900.790000", "175901.250000", "175901.710000", "175902.170000", "175902.630000", "175903.090000", "175903.550000", "175904.010000", "175904.470000", "175904.930000", "175905.390000", "175905.850000", "175906.310000", "175906.770000", "175907.230000", "175907.690000", "175908.150000", "175908.610000", "175909.070000", "175909.530000", "175909.990000", "175910.450000", "175910.910000", "175911.370000", "175911.830000", "175912.290000", "175912.750000", "175913.210000", "175913.670000", "175914.130000", "175914.590000", "175915.050000", "175915.510000", "175915.970000", "175916.430000", "175916.890000", "175917.350000", "175917.810000", "175918.270000", "175918.730000", "175919.190000", "175919.650000", "175920.110000", "175920.570000", "175921.030000", "175921.490000", "175921.950000", "175922.410000", "175922.870000", "175923.330000", "175923.790000", "175924.250000", "175924.710000", "175925.170000", "175925.630000", "175926.090000", "175926.550000", "175927.010000", "175927.470000", "175927.930000", "175928.390000", "175928.850000", "175929.310000", "175929.770000", "175930.230000", "175930.690000", "175931.150000", "175931.610000", "175932.070000", "175932.530000", "175932.990000", "175933.450000", "175933.910000", "175934.370000", "175934.830000", "175935.290000", "175935.750000", "175936.210000", "175936.670000", "175937.130000", "175937.590000", "175938.050000", "175938.510000", "175938.970000", "175939.430000", "175939.890000", "175940.350000", "175940.810000", "175941.270000", "175941.730000", "175942.190000", "175942.650000", "175943.110000", "175943.570000", "175944.030000", "175944.490000", "175944.950000", "175945.410000", "175945.870000", "175946.330000", "175946.790000", "175947.250000", "175947.710000", "175948.170000", "175948.630000", "175949.090000", "175949.550000", "175950.010000", "175950.470000", "175950.930000", "175951.390000", "175951.850000", "175952.310000", "175952.770000", "175953.230000", "175953.690000", "175954.150000", "175954.610000", "175955.070000", "175955.530000", "175955.990000", "175956.450000", "175956.910000", "175957.370000", "175957.830000", "175958.290000", "175958.750000", "175959.210000", "175959.670000", "180000.130000", "180000.590000", "180001.050000", "180001.510000", "180001.970000", "180002.430000", "180002.890000", "180003.350000", "180003.810000", "180004.270000", "180004.730000", "180005.190000", "180005.650000", "180006.110000", "180006.570000", "180007.030000", "180007.490000", "180007.950000", "180008.410000", "180008.870000", "180009.330000", "180009.790000", "180010.250000", "180010.710000", "180011.170000", "180011.630000", "180012.090000", "180012.550000", "180013.010000", "180013.470000", "180013.930000", "180014.390000", "180014.850000", "180015.310000", "180015.770000", "180016.230000", "180016.690000", "180017.150000", "180017.610000", "180018.070000", "180018.530000", "180018.990000", "180019.450000", "180019.910000", "180020.370000", "180020.830000", "180021.290000", "180021.750000", "180022.210000", "180022.670000", "180023.130000", "180023.590000", "180024.050000", "180024.510000", "180024.970000", "180025.430000", "180025.890000", "180026.350000", "180026.810000", "180027.270000", "180027.730000", "180028.190000", "180028.650000", "180029.110000", "180029.570000", "180030.030000", "180030.490000", "180030.950000", "180031.410000", "180031.870000", "180032.330000", "180032.790000", "180033.250000", "180033.710000", "180034.170000", "180034.630000", "180035.090000", "180035.550000", "180036.010000", "180036.470000", "180036.930000", "180037.390000", "180037.850000", "180038.310000", "180038.770000", "180039.230000", "180039.690000", "180040.150000", "180040.610000", "180041.070000", "180041.530000", "180041.990000", "180042.450000", "180042.910000", "180043.370000", "180043.830000", "180044.290000", "180044.750000", "180045.210000", "180045.670000", "180046.130000", "180046.590000", "180047.050000", "180047.510000", "180047.970000", "180048.430000", "180048.890000", "180049.350000", "180049.810000", "180050.270000", "180050.730000", "180051.190000", "180051.650000", "180052.110000", "180052.570000", "180053.030000", "180053.490000", "180053.950000", "180054.410000", "180054.870000", "180055.330000", "180055.790000", "180056.250000", "180056.710000", "180057.170000", "180057.630000", "180058.090000", "180058.550000", "180059.010000", "180059.470000", "180059.930000", "180100.390000", "180100.850000", "180101.310000", "180101.770000", "180102.230000", "180102.690000", "180103.150000", "180103.610000", "180104.070000", "180104.530000", "180104.990000", "180105.450000", "180105.910000", "180106.370000", "180106.830000", "180107.290000", "180107.750000", "180108.210000", "180108.670000", "180109.130000", "180109.590000", "180110.050000", "180110.510000", "180110.970000", "180111.430000", "180111.890000", "180112.350000", "180112.810000", "180113.270000", "180113.730000", "180114.190000", "180114.650000", "180115.110000", "180115.570000", "180116.030000", "180116.490000", "180116.950000", "180117.410000", "180117.870000", "180118.330000", "180118.790000", "180119.250000", "180119.710000", "180120.170000", "180120.630000", "180121.090000", "180121.550000", "180122.010000", "180122.470000", "180122.930000", "180123.390000", "180123.850000", "180124.310000", "180124.770000", "180125.230000", "180125.690000", "180126.150000", "180126.610000", "180127.070000", "180127.530000", "180127.990000", "180128.450000", "180128.910000", "180129.370000", "180129.830000", "180130.290000", "180130.750000", "180131.210000", "180131.670000", "180132.130000", "180132.590000", "180133.050000", "180133.510000", "180133.970000", "180134.430000", "180134.890000", "180135.350000", "180135.810000", "180136.270000", "180136.730000", "180137.190000", "180137.650000", "180138.110000", "180138.570000", "180139.030000", "180139.490000", "180139.950000", "180140.410000", "180140.870000", "180141.330000", "180141.790000", "180142.250000", "180142.710000", "180143.170000", "180143.630000", "180144.090000", "180144.550000", "180145.010000", "180145.470000", "180145.930000", "180146.390000", "180146.850000", "180147.310000", "180147.770000", "180148.230000", "180148.690000", "180149.150000", "180149.610000", "180150.070000", "180150.530000", "180150.990000", "180151.450000", "180151.910000", "180152.370000", "180152.830000", "180153.290000", "180153.750000", "180154.210000", "180154.670000", "180155.130000", "180155.590000", "180156.050000", "180156.510000", "180156.970000", "180157.430000", "180157.890000", "180158.350000", "180158.810000", "180159.270000", "180159.730000", "180200.190000", "180200.650000", "180201.110000", "180201.570000", "180202.030000", "180202.490000", "180202.950000", "180203.410000", "180203.870000", "180204.330000", "180204.790000", "180205.250000", "180205.710000", "180206.170000", "180206.630000", "180207.090000", "180207.550000", "180208.010000", "180208.470000", "180208.930000", "180209.390000", "180209.850000", "180210.310000", "180210.770000", "180211.230000", "180211.690000", "180212.150000", "180212.610000", "180213.070000", "180213.530000", "180213.990000", "180214.450000", "180214.910000", "180215.370000", "180215.830000", "180216.290000", "180216.750000", "180217.210000", "180217.670000", "180218.130000", "180218.590000", "180219.050000", "180219.510000", "180219.970000", "180220.430000", "180220.890000", "180221.350000", "180221.810000", "180222.270000", "180222.730000", "180223.190000", "180223.650000", "180224.110000", "180224.570000", "180225.030000", "180225.490000", "180225.950000", "180226.410000", "180226.870000", "180227.330000", "180227.790000", "180228.250000", "180228.710000", "180229.170000", "180229.630000", "180230.090000", "180230.550000", "180231.010000", "180231.470000", "180231.930000", "180232.390000", "180232.850000", "180233.310000", "180233.770000", "180234.230000", "180234.690000", "180235.150000", "180235.610000", "180236.070000", "180236.530000", "180236.990000", "180237.450000", "180237.910000", "180238.370000", "180238.830000", "180239.290000", "180239.750000", "180240.210000", "180240.670000", "180241.130000", "180241.590000", "180242.050000", "180242.510000", "180242.970000", "180243.430000", "180243.890000", "180244.350000", "180244.810000", "180245.270000", "180245.730000", "180246.190000", "180246.650000", "180247.110000", "180247.570000", "180248.030000", "180248.490000", "180248.950000", "180249.410000", "180249.870000", "180250.330000", "180250.790000", "180251.250000", "180251.710000", "180252.170000", "180252.630000", "180253.090000", "180253.550000", "180254.010000", "180254.470000", "180254.930000", "180255.390000", "180255.850000", "180256.310000", "180256.770000", "180257.230000", "180257.690000", "180258.150000", "180258.610000", "180259.070000", "180259.530000", "180259.990000", "180300.450000", "180300.910000", "180301.370000", "180301.830000", "180302.290000", "180302.750000", "180303.210000", "180303.670000", "180304.130000", "180304.590000", "180305.050000", "180305.510000", "180305.970000", "180306.430000", "180306.890000", "180307.350000", "180307.810000", "180308.270000", "180308.730000", "180309.190000", "180309.650000", "180310.110000", "180310.570000", "180311.030000", "180311.490000", "180311.950000", "180312.410000", "180312.870000", "180313.330000", "180313.790000", "180314.250000", "180314.710000", "180315.170000", "180315.630000", "180316.090000", "180316.550000", "180317.010000", "180317.470000", "180317.930000", "180318.390000", "180318.850000", "180319.310000", "180319.770000", "180320.230000", "180320.690000", "180321.150000", "180321.610000", "180322.070000", "180322.530000", "180322.990000", "180323.450000", "180323.910000", "180324.370000", "180324.830000", "180325.290000", "180325.750000", "180326.210000", "180326.670000", "180327.130000", "180327.590000", "180328.050000", "180328.510000", "180328.970000", "180329.430000", "180329.890000", "180330.350000", "180330.810000", "180331.270000", "180331.730000", "180332.190000", "180332.650000", "180333.110000", "180333.570000", "180334.030000", "180334.490000", "180334.950000", "180335.410000", "180335.870000", "180336.330000", "180336.790000", "180337.250000", "180337.710000", "180338.170000", "180338.630000", "180339.090000", "180339.550000", "180340.010000", "180340.470000", "180340.930000", "180341.390000", "180341.850000", "180342.310000", "180342.770000", "180343.230000", "180343.690000", "180344.150000", "180344.610000", "180345.070000", "180345.530000", "180345.990000", "180346.450000", "180346.910000", "180347.370000", "180347.830000", "180348.290000", "180348.750000", "180349.210000", "180349.670000", "180350.130000", "180350.590000", "180351.050000", "180351.510000", "180351.970000", "180352.430000", "180352.890000", "180353.350000", "180353.810000", "180354.270000", "180354.730000", "180355.190000", "180355.650000", "180356.110000", "180356.570000", "180357.030000", "180357.490000", "180357.950000", "180358.410000", "180358.870000", "180359.330000", "180359.790000", "180400.250000", "180400.710000", "180401.170000", "180401.630000", "180402.090000", "180402.550000", "180403.010000", "180403.470000", "180403.930000", "180404.390000", "180404.850000", "180405.310000", "180405.770000", "180406.230000", "180406.690000", "180407.150000", "180407.610000", "180408.070000", "180408.530000", "180408.990000", "180409.450000", "180409.910000", "180410.370000", "180410.830000", "180411.290000", "180411.750000", "180412.210000", "180412.670000", "180413.130000", "180413.590000", "180414.050000", "180414.510000", "180414.970000", "180415.430000", "180415.890000", "180416.350000", "180416.810000", "180417.270000", "180417.730000", "180418.190000", "180418.650000", "180419.110000", "180419.570000", "180420.030000", "180420.490000", "180420.950000", "180421.410000", "180421.870000", "180422.330000", "180422.790000", "180423.250000", "180423.710000", "180424.170000", "180424.630000", "180425.090000", "180425.550000", "180426.010000", "180426.470000", "180426.930000", "180427.390000", "180427.850000", "180428.310000", "180428.770000", "180429.230000", "180429.690000", "180430.150000", "180430.610000", "180431.070000", "180431.530000", "180431.990000", "180432.450000", "180432.910000", "180433.370000", "180433.830000", "180434.290000", "180434.750000"],
