{
  "AcquisitionMatrixPE": 82,
  "AcquisitionNumber": 1,
  "AcquisitionTime": "18:12:30.657500",
  "BandwidthPerPixelPhaseEncode": 24.888,
  "BaseResolution": 82,
  "BodyPartExamined": "BRAIN",
  "ConsistencyInfo": "N4_VE11E_LATEST_20181129",
  "ConversionSoftware": "dcm2niix",
  "ConversionSoftwareVersion": "v1.0.20201102",
  "DerivedVendorReportedEchoSpacing": 0.00049,
  "DeviceSerialNumber": "66112",
  "DwellTime": 2e-06,
  "EchoTime": 0.0272,
  "EchoTrainLength": 82,
  "EffectiveEchoSpacing": 0.00049,
  "FlipAngle": 44,
  "ImageComments": "Unaliased MB8/PE3",
  "ImageOrientationPatientDICOM": [0.997595, 0.0672646, -0.016696, -0.0662602, 0.996297, 0.0547839],
  "ImageType": [
    "ORIGINAL",
    "PRIMARY",
    "M",
    "MB",
    "ND",
    "NORM",
    "MOSAIC"
],
  "ImagingFrequency": 123.259,
  "InPlanePhaseEncodingDirectionDICOM": "COL",
  "InstitutionAddress": "Maynard 3,Hanover,NH,US,03755",
  "InstitutionName": "Dartmouth College - PBS",
  "InstitutionalDepartmentName": "Department",
  "MRAcquisitionType": "2D",
  "MagneticFieldStrength": 3,
  "Manufacturer": "Siemens",
  "ManufacturersModelName": "Prisma",
  "Modality": "MR",
  "MultibandAccelerationFactor": 8,
  "PartialFourier": 1,
  "PatientPosition": "HFS",
  "PercentPhaseFOV": 100,
  "PercentSampling": 100,
  "PhaseEncodingDirection": "j-",
  "PhaseEncodingSteps": 82,
  "PhaseResolution": 1,
  "PixelBandwidth": 3050,
  "ProcedureStepDescription": "Wager_Wager^1076_spacetop",
  "ProtocolName": "func_run-04_task-social_acq-ap-mb8",
  "PulseSequenceDetails": "%CustomerSeq%\\cmrr_mbep2d_bold",
  "ReceiveCoilActiveElements": "HEA;HEP",
  "ReceiveCoilName": "Head_32",
  "ReconMatrixPE": 82,
  "RepetitionTime": 0.46,
  "SAR": 0.0880239,
  "ScanOptions": "FS",
  "ScanningSequence": "EP",
  "SequenceName": "epfid2d1_82",
  "SequenceVariant": "SK\\SS",
  "SeriesDescription": "func_run-04_task-social_acq-ap-mb8",
  "SeriesNumber": 22,
  "ShimSetting": [4211, -8138, -7339, 618, -229, -981, 794, 116],
  "SliceThickness": 2.7,
  "SliceTiming": [0, 0.25, 0.0625, 0.315, 0.125, 0.3775, 0.1875, 0, 0.25, 0.0625, 0.315, 0.125, 0.3775, 0.1875, 0, 0.25, 0.0625, 0.315, 0.125, 0.3775, 0.1875, 0, 0.25, 0.0625, 0.315, 0.125, 0.3775, 0.1875, 0, 0.25, 0.0625, 0.315, 0.125, 0.3775, 0.1875, 0, 0.25, 0.0625, 0.315, 0.125, 0.3775, 0.1875, 0, 0.25, 0.0625, 0.315, 0.125, 0.3775, 0.1875, 0, 0.25, 0.0625, 0.315, 0.125, 0.3775, 0.1875],
  "SoftwareVersions": "syngo MR E11",
  "SpacingBetweenSlices": 2.7,
  "StationName": "AWP66112",
  "TaskName": "social",
  "TotalReadoutTime": 0.03969,
  "TxRefAmp": 232.369,
  "WipMemBlock": "184b1e8d-1b0f-4edc-85ce-cf2f2bfc2b85||Sequence: R016 ve11e/master r/434b28f1; Aug  7 2019 18:53:46 by eja",
  "dcmmeta_affine": [
    [-2.676475763320923, -0.17777137458324432, -0.05486191436648369, 122.99714660644531],
    [-0.18046613037586212, 2.672992706298828, 0.1445738971233368, -98.4102783203125],
    [-0.044794220477342606, -0.14698119461536407, 2.695568323135376, -61.668800354003906],
    [0.0, 0.0, 0.0, 1.0]
],
  "dcmmeta_reorient_transform": [
    [0.0, -1.0, 0.0, 81.0],
    [1.0, 0.0, 0.0, 0.0],
    [0.0, 0.0, 1.0, 0.0],
    [0.0, 0.0, 0.0, 1.0]
],
  "dcmmeta_shape": [82, 82, 56, 872],
  "dcmmeta_slice_dim": 2,
  "dcmmeta_version": 0.6,
  "global": {
    "const": {
      "AccessionNumber": "A004808",
      "AcquisitionMatrix": [82, 0, 0, 82],
      "AngioFlag": "N",
      "BitsAllocated": 16,
      "BitsStored": 16,
      "BodyPartExamined": "BRAIN",
      "Columns": 656,
      "EchoNumbers": 1,
      "EchoTime": 27.2,
      "EchoTrainLength": 82,
      "FlipAngle": 44.0,
      "HighBit": 15,
      "ImageOrientationPatient": [0.99759546407035, 0.06726464702889, -0.016696027262, -0.0662602376965, 0.99629729760711, 0.05478389983544],
      "ImagePositionPatient": [-825.72580657957, -937.0448544006, -102.90194170085],
      "ImageType": [
        "ORIGINAL",
        "PRIMARY",
        "M",
        "MB",
        "ND",
        "NORM",
        "MOSAIC"
],
      "ImagedNucleus": "1H",
      "ImagingFrequency": 123.259183,
      "InPlanePhaseEncodingDirection": "COL",
      "MRAcquisitionType": "2D",
      "MagneticFieldStrength": 3.0,
      "Manufacturer": "SIEMENS",
      "ManufacturerModelName": "Prisma",
      "Modality": "MR",
      "NumberOfAverages": 1.0,
      "NumberOfPhaseEncodingSteps": 82,
      "PercentPhaseFieldOfView": 100.0,
      "PercentSampling": 100.0,
      "PerformedProcedureStepStartTime": "170756.271000",
      "PhotometricInterpretation": "MONOCHROME2",
      "PixelBandwidth": 3050.0,
      "PixelRepresentation": 0,
      "PixelSpacing": [2.6829268932343, 2.6829268932343],
      "ProtocolName": "func_run-04_task-social_acq-ap-mb8",
      "RepetitionTime": 460.0,
      "Rows": 656,
      "SAR": 0.08802392478293,
      "SamplesPerPixel": 1,
      "ScanOptions": "FS",
      "ScanningSequence": "EP",
      "SequenceName": "epfid2d1_82",
      "SequenceVariant": [
        "SK",
        "SS"
],
      "SeriesDescription": "func_run-04_task-social_acq-ap-mb8",
      "SeriesNumber": 22,
      "SeriesTime": "181243.936000",
      "SliceLocation": -69.336253801506,
      "SliceThickness": 2.7000000476837,
      "SmallestImagePixelValue": 0,
      "SoftwareVersions": "syngo MR E11",
      "SpacingBetweenSlices": 2.7000001126656,
      "SpecificCharacterSet": "ISO_IR 100",
      "StudyID": "1",
      "StudyTime": "170756.166000",
      "TransmitCoilName": "Body",
      "VariableFlipAngleFlag": "N",
      "WindowCenterWidthExplanation": "Algo1"
    },
    "slices": {}
  },
  "time": {
    "samples": {
      "AcquisitionNumber": [1, 2, 3, 4, 5, 6, 7, 8, 9, 10, 11, 12, 13, 14, 15, 16, 17, 18, 19, 20, 21, 22, 23, 24, 25, 26, 27, 28, 29, 30, 31, 32, 33, 34, 35, 36, 37, 38, 39, 40, 41, 42, 43, 44, 45, 46, 47, 48, 49, 50, 51, 52, 53, 54, 55, 56, 57, 58, 59, 60, 61, 62, 63, 64, 65, 66, 67, 68, 69, 70, 71, 72, 73, 74, 75, 76, 77, 78, 79, 80, 81, 82, 83, 84, 85, 86, 87, 88, 89, 90, 91, 92, 93, 94, 95, 96, 97, 98, 99, 100, 101, 102, 103, 104, 105, 106, 107, 108, 109, 110, 111, 112, 113, 114, 115, 116, 117, 118, 119, 120, 121, 122, 123, 124, 125, 126, 127, 128, 129, 130, 131, 132, 133, 134, 135, 136, 137, 138, 139, 140, 141, 142, 143, 144, 145, 146, 147, 148, 149, 150, 151, 152, 153, 154, 155, 156, 157, 158, 159, 160, 161, 162, 163, 164, 165, 166, 167, 168, 169, 170, 171, 172, 173, 174, 175, 176, 177, 178, 179, 180, 181, 182, 183, 184, 185, 186, 187, 188, 189, 190, 191, 192, 193, 194, 195, 196, 197, 198, 199, 200, 201, 202, 203, 204, 205, 206, 207, 208, 209, 210, 211, 212, 213, 214, 215, 216, 217, 218, 219, 220, 221, 222, 223, 224, 225, 226, 227, 228, 229, 230, 231, 232, 233, 234, 235, 236, 237, 238, 239, 240, 241, 242, 243, 244, 245, 246, 247, 248, 249, 250, 251, 252, 253, 254, 255, 256, 257, 258, 259, 260, 261, 262, 263, 264, 265, 266, 267, 268, 269, 270, 271, 272, 273, 274, 275, 276, 277, 278, 279, 280, 281, 282, 283, 284, 285, 286, 287, 288, 289, 290, 291, 292, 293, 294, 295, 296, 297, 298, 299, 300, 301, 302, 303, 304, 305, 306, 307, 308, 309, 310, 311, 312, 313, 314, 315, 316, 317, 318, 319, 320, 321, 322, 323, 324, 325, 326, 327, 328, 329, 330, 331, 332, 333, 334, 335, 336, 337, 338, 339, 340, 341, 342, 343, 344, 345, 346, 347, 348, 349, 350, 351, 352, 353, 354, 355, 356, 357, 358, 359, 360, 361, 362, 363, 364, 365, 366, 367, 368, 369, 370, 371, 372, 373, 374, 375, 376, 377, 378, 379, 380, 381, 382, 383, 384, 385, 386, 387, 388, 389, 390, 391, 392, 393, 394, 395, 396, 397, 398, 399, 400, 401, 402, 403, 404, 405, 406, 407, 408, 409, 410, 411, 412, 413, 414, 415, 416, 417, 418, 419, 420, 421, 422, 423, 424, 425, 426, 427, 428, 429, 430, 431, 432, 433, 434, 435, 436, 437, 438, 439, 440, 441, 442, 443, 444, 445, 446, 447, 448, 449, 450, 451, 452, 453, 454, 455, 456, 457, 458, 459, 460, 461, 462, 463, 464, 465, 466, 467, 468, 469, 470, 471, 472, 473, 474, 475, 476, 477, 478, 479, 480, 481, 482, 483, 484, 485, 486, 487, 488, 489, 490, 491, 492, 493, 494, 495, 496, 497, 498, 499, 500, 501, 502, 503, 504, 505, 506, 507, 508, 509, 510, 511, 512, 513, 514, 515, 516, 517, 518, 519, 520, 521, 522, 523, 524, 525, 526, 527, 528, 529, 530, 531, 532, 533, 534, 535, 536, 537, 538, 539, 540, 541, 542, 543, 544, 545, 546, 547, 548, 549, 550, 551, 552, 553, 554, 555, 556, 557, 558, 559, 560, 561, 562, 563, 564, 565, 566, 567, 568, 569, 570, 571, 572, 573, 574, 575, 576, 577, 578, 579, 580, 581, 582, 583, 584, 585, 586, 587, 588, 589, 590, 591, 592, 593, 594, 595, 596, 597, 598, 599, 600, 601, 602, 603, 604, 605, 606, 607, 608, 609, 610, 611, 612, 613, 614, 615, 616, 617, 618, 619, 620, 621, 622, 623, 624, 625, 626, 627, 628, 629, 630, 631, 632, 633, 634, 635, 636, 637, 638, 639, 640, 641, 642, 643, 644, 645, 646, 647, 648, 649, 650, 651, 652, 653, 654, 655, 656, 657, 658, 659, 660, 661, 662, 663, 664, 665, 666, 667, 668, 669, 670, 671, 672, 673, 674, 675, 676, 677, 678, 679, 680, 681, 682, 683, 684, 685, 686, 687, 688, 689, 690, 691, 692, 693, 694, 695, 696, 697, 698, 699, 700, 701, 702, 703, 704, 705, 706, 707, 708, 709, 710, 711, 712, 713, 714, 715, 716, 717, 718, 719, 720, 721, 722, 723, 724, 725, 726, 727, 728, 729, 730, 731, 732, 733, 734, 735, 736, 737, 738, 739, 740, 741, 742, 743, 744, 745, 746, 747, 748, 749, 750, 751, 752, 753, 754, 755, 756, 757, 758, 759, 760, 761, 762, 763, 764, 765, 766, 767, 768, 769, 770, 771, 772, 773, 774, 775, 776, 777, 778, 779, 780, 781, 782, 783, 784, 785, 786, 787, 788, 789, 790, 791, 792, 793, 794, 795, 796, 797, 798, 799, 800, 801, 802, 803, 804, 805, 806, 807, 808, 809, 810, 811, 812, 813, 814, 815, 816, 817, 818, 819, 820, 821, 822, 823, 824, 825, 826, 827, 828, 829, 830, 831, 832, 833, 834, 835, 836, 837, 838, 839, 840, 841, 842, 843, 844, 845, 846, 847, 848, 849, 850, 851, 852, 853, 854, 855, 856, 857, 858, 859, 860, 861, 862, 863, 864, 865, 866, 867, 868, 869, 870, 871, 872],
      "AcquisitionTime": ["181230.657500", "181231.117500", "181231.577500", "181232.037500", "181232.497500", "181232.957500", "181233.417500", "181233.877500", "181234.337500", "181234.797500", "181235.257500", "181235.717500", "181236.177500", "181236.637500", "181237.097500", "181237.557500", "181238.017500", "181238.477500", "181238.937500", "181239.397500", "181239.857500", "181240.317500", "181240.777500", "181241.237500", "181241.697500", "181242.157500", "181242.617500", "181243.077500", "181243.537500", "181243.997500", "181244.457500", "181244.917500", "181245.377500", "181245.837500", "181246.297500", "181246.757500", "181247.217500", "181247.677500", "181248.137500", "181248.597500", "181249.057500", "181249.517500", "181249.977500", "181250.437500", "181250.897500", "181251.357500", "181251.817500", "181252.277500", "181252.737500", "181253.197500", "181253.657500", "181254.117500", "181254.577500", "181255.037500", "181255.497500", "181255.957500", "181256.417500", "181256.877500", "181257.337500", "181257.797500", "181258.257500", "181258.717500", "181259.177500", "181259.637500", "181300.097500", "181300.557500", "181301.017500", "181301.477500", "181301.937500", "181302.397500", "181302.857500", "181303.317500", "181303.777500", "181304.237500", "181304.697500", "181305.157500", "181305.617500", "181306.077500", "181306.537500", "181306.997500", "181307.457500", "181307.917500", "181308.377500", "181308.837500", "181309.297500", "181309.757500", "181310.217500", "181310.677500", "181311.137500", "181311.597500", "181312.057500", "181312.517500", "181312.977500", "181313.437500", "181313.897500", "181314.357500", "181314.817500", "181315.277500", "181315.737500", "181316.197500", "181316.657500", "181317.117500", "181317.577500", "181318.037500", "181318.497500", "181318.957500", "181319.417500", "181319.877500", "181320.337500", "181320.797500", "181321.257500", "181321.717500", "181322.177500", "181322.637500", "181323.097500", "181323.557500", "181324.017500", "181324.477500", "181324.937500", "181325.397500", "181325.857500", "181326.317500", "181326.777500", "181327.237500", "181327.697500", "181328.157500", "181328.617500", "181329.077500", "181329.537500", "181329.997500", "181330.457500", "181330.917500", "181331.377500", "181331.837500", "181332.297500", "181332.757500", "181333.217500", "181333.677500", "181334.137500", "181334.597500", "181335.057500", "181335.517500", "181335.977500", "181336.437500", "181336.897500", "181337.357500", "181337.817500", "181338.277500", "181338.737500", "181339.197500", "181339.657500", "181340.117500", "181340.577500", "181341.037500", "181341.497500", "181341.957500", "181342.417500", "181342.877500", "181343.337500", "181343.797500", "181344.257500", "181344.717500", "181345.177500", "181345.637500", "181346.097500", "181346.557500", "181347.017500", "181347.477500", "181347.937500", "181348.397500", "181348.857500", "181349.317500", "181349.777500", "181350.237500", "181350.697500", "181351.157500", "181351.617500", "181352.077500", "181352.537500", "181352.997500", "181353.457500", "181353.917500", "181354.377500", "181354.837500", "181355.297500", "181355.757500", "181356.217500", "181356.677500", "181357.137500", "181357.597500", "181358.057500", "181358.517500", "181358.977500", "181359.437500", "181359.897500", "181400.357500", "181400.817500", "181401.277500", "181401.737500", "181402.197500", "181402.657500", "181403.117500", "181403.577500", "181404.037500", "181404.497500", "181404.957500", "181405.417500", "181405.877500", "181406.337500", "181406.797500", "181407.257500", "181407.717500", "181408.177500", "181408.637500", "181409.097500", "181409.557500", "181410.017500", "181410.477500", "181410.937500", "181411.397500", "181411.857500", "181412.317500", "181412.777500", "181413.237500", "181413.697500", "181414.157500", "181414.617500", "181415.077500", "181415.537500", "181415.997500", "181416.457500", "181416.917500", "181417.377500", "181417.837500", "181418.297500", "181418.757500", "181419.217500", "181419.677500", "181420.137500", "181420.597500", "181421.057500", "181421.517500", "181421.977500", "181422.437500", "181422.897500", "181423.357500", "181423.817500", "181424.277500", "181424.737500", "181425.197500", "181425.657500", "181426.117500", "181426.577500", "181427.037500", "181427.497500", "181427.957500", "181428.417500", "181428.877500", "181429.337500", "181429.797500", "181430.257500", "181430.717500", "181431.177500", "181431.637500", "181432.097500", "181432.557500", "181433.017500", "181433.477500", "181433.937500", "181434.397500", "181434.857500", "181435.317500", "181435.777500", "181436.237500", "181436.697500", "181437.157500", "181437.617500", "181438.077500", "181438.537500", "181438.997500", "181439.457500", "181439.917500", "181440.377500", "181440.837500", "181441.297500", "181441.757500", "181442.217500", "181442.677500", "181443.137500", "181443.597500", "181444.057500", "181444.517500", "181444.977500", "181445.437500", "181445.897500", "181446.357500", "181446.817500", "181447.277500", "181447.737500", "181448.197500", "181448.657500", "181449.117500", "181449.577500", "181450.037500", "181450.497500", "181450.957500", "181451.417500", "181451.877500", "181452.337500", "181452.797500", "181453.257500", "181453.717500", "181454.177500", "181454.637500", "181455.097500", "181455.557500", "181456.017500", "181456.477500", "181456.937500", "181457.397500", "181457.857500", "181458.317500", "181458.777500", "181459.237500", "181459.697500", "181500.157500", "181500.617500", "181501.077500", "181501.537500", "181501.997500", "181502.457500", "181502.917500", "181503.377500", "181503.837500", "181504.297500", "181504.757500", "181505.217500", "181505.677500", "181506.137500", "181506.597500", "181507.057500", "181507.517500", "181507.977500", "181508.437500", "181508.897500", "181509.357500", "181509.817500", "181510.277500", "181510.737500", "181511.197500", "181511.657500", "181512.117500", "181512.577500", "181513.037500", "181513.497500", "181513.957500", "181514.417500", "181514.877500", "181515.337500", "181515.797500", "181516.257500", "181516.717500", "181517.177500", "181517.637500", "181518.097500", "181518.557500", "181519.017500", "181519.477500", "181519.937500", "181520.397500", "181520.857500", "181521.317500", "181521.777500", "181522.237500", "181522.697500", "181523.157500", "181523.617500", "181524.077500", "181524.537500", "181524.997500", "181525.457500", "181525.917500", "181526.377500", "181526.837500", "181527.297500", "181527.757500", "181528.217500", "181528.677500", "181529.137500", "181529.597500", "181530.057500", "181530.517500", "181530.977500", "181531.437500", "181531.897500", "181532.357500", "181532.817500", "181533.277500", "181533.737500", "181534.197500", "181534.657500", "181535.117500", "181535.577500", "181536.037500", "181536.497500", "181536.957500", "181537.417500", "181537.877500", "181538.337500", "181538.797500", "181539.257500", "181539.717500", "181540.177500", "181540.637500", "181541.097500", "181541.557500", "181542.017500", "181542.477500", "181542.937500", "181543.397500", "181543.857500", "181544.317500", "181544.777500", "181545.237500", "181545.697500", "181546.157500", "181546.617500", "181547.077500", "181547.537500", "181547.997500", "181548.457500", "181548.917500", "181549.377500", "181549.837500", "181550.297500", "181550.757500", "181551.217500", "181551.677500", "181552.137500", "181552.597500", "181553.057500", "181553.517500", "181553.977500", "181554.437500", "181554.897500", "181555.357500", "181555.817500", "181556.277500", "181556.737500", "181557.197500", "181557.657500", "181558.117500", "181558.577500", "181559.037500", "181559.497500", "181559.957500", "181600.417500", "181600.877500", "181601.337500", "181601.797500", "181602.257500", "181602.717500", "181603.177500", "181603.637500", "181604.097500", "181604.557500", "181605.017500", "181605.477500", "181605.937500", "181606.397500", "181606.857500", "181607.317500", "181607.777500", "181608.237500", "181608.697500", "181609.157500", "181609.617500", "181610.077500", "181610.537500", "181610.997500", "181611.457500", "181611.917500", "181612.377500", "181612.837500", "181613.297500", "181613.757500", "181614.217500", "181614.677500", "181615.137500", "181615.597500", "181616.057500", "181616.517500", "181616.977500", "181617.437500", "181617.897500", "181618.357500", "181618.817500", "181619.277500", "181619.737500", "181620.197500", "181620.657500", "181621.117500", "181621.577500", "181622.037500", "181622.497500", "181622.957500", "181623.417500", "181623.877500", "181624.337500", "181624.797500", "181625.257500", "181625.717500", "181626.177500", "181626.637500", "181627.097500", "181627.557500", "181628.017500", "181628.477500", "181628.937500", "181629.397500", "181629.857500", "181630.317500", "181630.777500", "181631.237500", "181631.697500", "181632.157500", "181632.617500", "181633.077500", "181633.537500", "181633.997500", "181634.457500", "181634.917500", "181635.377500", "181635.837500", "181636.297500", "181636.757500", "181637.217500", "181637.677500", "181638.137500", "181638.597500", "181639.057500", "181639.517500", "181639.977500", "181640.437500", "181640.897500", "181641.357500", "181641.817500", "181642.277500", "181642.737500", "181643.197500", "181643.657500", "181644.117500", "181644.577500", "181645.037500", "181645.497500", "181645.957500", "181646.417500", "181646.877500", "181647.337500", "181647.797500", "181648.257500", "181648.717500", "181649.177500", "181649.637500", "181650.097500", "181650.557500", "181651.017500", "181651.477500", "181651.937500", "181652.397500", "181652.857500", "181653.317500", "181653.777500", "181654.237500", "181654.697500", "181655.157500", "181655.617500", "181656.077500", "181656.537500", "181656.997500", "181657.457500", "181657.917500", "181658.377500", "181658.837500", "181659.297500", "181659.757500", "181700.217500", "181700.677500", "181701.137500", "181701.597500", "181702.057500", "181702.517500", "181702.977500", "181703.437500", "181703.897500", "181704.357500", "181704.817500", "181705.277500", "181705.737500", "181706.197500", "181706.657500", "181707.117500", "181707.577500", "181708.037500", "181708.497500", "181708.957500", "181709.417500", "181709.877500", "181710.337500", "181710.797500", "181711.257500", "181711.717500", "181712.177500", "181712.637500", "181713.097500", "181713.557500", "181714.017500", "181714.477500", "181714.937500", "181715.397500", "181715.857500", "181716.317500", "181716.777500", "181717.237500", "181717.697500", "181718.157500", "181718.617500", "181719.077500", "181719.537500", "181719.997500", "181720.457500", "181720.917500", "181721.377500", "181721.837500", "181722.297500", "181722.757500", "181723.217500", "181723.677500", "181724.137500", "181724.597500", "181725.057500", "181725.517500", "181725.977500", "181726.437500", "181726.897500", "181727.357500", "181727.817500", "181728.277500", "181728.737500", "181729.197500", "181729.657500", "181730.117500", "181730.577500", "181731.037500", "181731.497500", "181731.957500", "181732.417500", "181732.877500", "181733.337500", "181733.797500", "181734.257500", "181734.717500", "181735.177500", "181735.637500", "181736.097500", "181736.557500", "181737.017500", "181737.477500", "181737.937500", "181738.397500", "181738.857500", "181739.317500", "181739.777500", "181740.237500", "181740.697500", "181741.157500", "181741.617500", "181742.077500", "181742.537500", "181742.997500", "181743.457500", "181743.917500", "181744.377500", "181744.837500", "181745.297500", "181745.757500", "181746.217500", "181746.677500", "181747.137500", "181747.597500", "181748.057500", "181748.517500", "181748.977500", "181749.437500", "181749.897500", "181750.357500", "181750.817500", "181751.277500", "181751.737500", "181752.197500", "181752.657500", "181753.117500", "181753.577500", "181754.037500", "181754.497500", "181754.957500", "181755.417500", "181755.877500", "181756.337500", "181756.797500", "181757.257500", "181757.717500", "181758.177500", "181758.637500", "181759.097500", "181759.557500", "181800.017500", "181800.477500", "181800.937500", "181801.397500", "181801.857500", "181802.317500", "181802.777500", "181803.237500", "181803.697500", "181804.157500", "181804.617500", "181805.077500", "181805.537500", "181805.997500", "181806.457500", "181806.917500", "181807.377500", "181807.837500", "181808.297500", "181808.757500", "181809.217500", "181809.677500", "181810.137500", "181810.597500", "181811.057500", "181811.517500", "181811.977500", "181812.437500", "181812.897500", "181813.357500", "181813.817500", "181814.277500", "181814.737500", "181815.197500", "181815.657500", "181816.117500", "181816.577500", "181817.037500", "181817.497500", "181817.957500", "181818.417500", "181818.877500", "181819.337500", "181819.797500", "181820.257500", "181820.717500", "181821.177500", "181821.637500", "181822.097500", "181822.557500", "181823.017500", "181823.477500", "181823.937500", "181824.397500", "181824.857500", "181825.317500", "181825.777500", "181826.237500", "181826.697500", "181827.157500", "181827.617500", "181828.077500", "181828.537500", "181828.997500", "181829.457500", "181829.917500", "181830.377500", "181830.837500", "181831.297500", "181831.757500", "181832.217500", "181832.677500", "181833.137500", "181833.597500", "181834.057500", "181834.517500", "181834.977500", "181835.437500", "181835.897500", "181836.357500", "181836.817500", "181837.277500", "181837.737500", "181838.197500", "181838.657500", "181839.117500", "181839.577500", "181840.037500", "181840.497500", "181840.957500", "181841.417500", "181841.877500", "181842.337500", "181842.797500", "181843.257500", "181843.717500", "181844.177500", "181844.637500", "181845.097500", "181845.557500", "181846.017500", "181846.477500", "181846.937500", "181847.397500", "181847.857500", "181848.317500", "181848.777500", "181849.237500", "181849.697500", "181850.157500", "181850.617500", "181851.077500", "181851.537500", "181851.997500", "181852.457500", "181852.917500", "181853.377500", "181853.837500", "181854.297500", "181854.757500", "181855.217500", "181855.677500", "181856.137500", "181856.597500", "181857.057500", "181857.517500", "181857.977500", "181858.437500", "181858.897500", "181859.357500", "181859.817500", "181900.277500", "181900.737500", "181901.197500", "181901.657500", "181902.117500", "181902.577500", "181903.037500", "181903.497500", "181903.957500", "181904.417500", "181904.877500", "181905.337500", "181905.797500", "181906.257500", "181906.717500", "181907.177500", "181907.637500", "181908.097500", "181908.557500", "181909.017500", "181909.477500", "181909.937500", "181910.397500", "181910.857500", "181911.317500"],
