{
  "AcquisitionMatrixPE": 82,
  "AcquisitionNumber": 1,
  "AcquisitionTime": "17:48:21.235000",
  "BandwidthPerPixelPhaseEncode": 24.888,
  "BaseResolution": 82,
  "BodyPartExamined": "BRAIN",
  "ConsistencyInfo": "N4_VE11E_LATEST_20181129",
  "ConversionSoftware": "dcm2niix",
  "ConversionSoftwareVersion": "v1.0.20201102",
  "DerivedVendorReportedEchoSpacing": 0.00049,
  "DeviceSerialNumber": "66112",
  "DwellTime": 2e-06,
  "EchoTime": 0.0272,
  "EchoTrainLength": 82,
  "EffectiveEchoSpacing": 0.00049,
  "FlipAngle": 44,
  "ImageComments": "Unaliased MB8/PE3",
  "ImageOrientationPatientDICOM": [0.997595, 0.0672646, -0.016696, -0.0662602, 0.996297, 0.0547839],
  "ImageType": [
    "ORIGINAL",
    "PRIMARY",
    "M",
    "MB",
    "ND",
    "NORM",
    "MOSAIC"
],
  "ImagingFrequency": 123.259,
  "InPlanePhaseEncodingDirectionDICOM": "COL",
  "InstitutionAddress": "Maynard 3,Hanover,NH,US,03755",
  "InstitutionName": "Dartmouth College - PBS",
  "InstitutionalDepartmentName": "Department",
  "MRAcquisitionType": "2D",
  "MagneticFieldStrength": 3,
  "Manufacturer": "Siemens",
  "ManufacturersModelName": "Prisma",
  "Modality": "MR",
  "MultibandAccelerationFactor": 8,
  "PartialFourier": 1,
  "PatientPosition": "HFS",
  "PercentPhaseFOV": 100,
  "PercentSampling": 100,
  "PhaseEncodingDirection": "j-",
  "PhaseEncodingSteps": 82,
  "PhaseResolution": 1,
  "PixelBandwidth": 3050,
  "ProcedureStepDescription": "Wager_Wager^1076_spacetop",
  "ProtocolName": "func_run-01_task-social_acq-ap-mb8",
  "PulseSequenceDetails": "%CustomerSeq%\\cmrr_mbep2d_bold",
  "ReceiveCoilActiveElements": "HEA;HEP",
  "ReceiveCoilName": "Head_32",
  "ReconMatrixPE": 82,
  "RepetitionTime": 0.46,
  "SAR": 0.0880239,
  "ScanOptions": "FS",
  "ScanningSequence": "EP",
  "SequenceName": "epfid2d1_82",
  "SequenceVariant": "SK\\SS",
  "SeriesDescription": "func_run-01_task-social_acq-ap-mb8",
  "SeriesNumber": 16,
  "ShimSetting": [4211, -8138, -7339, 618, -229, -981, 794, 116],
  "SliceThickness": 2.7,
  "SliceTiming": [0, 0.25, 0.0625, 0.315, 0.125, 0.3775, 0.1875, 0, 0.25, 0.0625, 0.315, 0.125, 0.3775, 0.1875, 0, 0.25, 0.0625, 0.315, 0.125, 0.3775, 0.1875, 0, 0.25, 0.0625, 0.315, 0.125, 0.3775, 0.1875, 0, 0.25, 0.0625, 0.315, 0.125, 0.3775, 0.1875, 0, 0.25, 0.0625, 0.315, 0.125, 0.3775, 0.1875, 0, 0.25, 0.0625, 0.315, 0.125, 0.3775, 0.1875, 0, 0.25, 0.0625, 0.315, 0.125, 0.3775, 0.1875],
  "SoftwareVersions": "syngo MR E11",
  "SpacingBetweenSlices": 2.7,
  "StationName": "AWP66112",
  "TaskName": "social",
  "TotalReadoutTime": 0.03969,
  "TxRefAmp": 232.369,
  "WipMemBlock": "3d1c4e08-6f78-4a82-83d7-167394f04866||Sequence: R016 ve11e/master r/434b28f1; Aug  7 2019 18:53:46 by eja",
  "dcmmeta_affine": [
    [-2.676475763320923, -0.17777137458324432, -0.05486191436648369, 122.99714660644531],
    [-0.18046613037586212, 2.672992706298828, 0.1445738971233368, -98.4102783203125],
    [-0.044794220477342606, -0.14698119461536407, 2.695568323135376, -61.668800354003906],
    [0.0, 0.0, 0.0, 1.0]
],
  "dcmmeta_reorient_transform": [
    [0.0, -1.0, 0.0, 81.0],
    [1.0, 0.0, 0.0, 0.0],
    [0.0, 0.0, 1.0, 0.0],
    [0.0, 0.0, 0.0, 1.0]
],
  "dcmmeta_shape": [82, 82, 56, 872],
  "dcmmeta_slice_dim": 2,
  "dcmmeta_version": 0.6,
  "global": {
    "const": {
      "AccessionNumber": "A004808",
      "AcquisitionMatrix": [82, 0, 0, 82],
      "AngioFlag": "N",
      "BitsAllocated": 16,
      "BitsStored": 16,
      "BodyPartExamined": "BRAIN",
      "Columns": 656,
      "EchoNumbers": 1,
      "EchoTime": 27.2,
      "EchoTrainLength": 82,
      "FlipAngle": 44.0,
      "HighBit": 15,
      "ImageOrientationPatient": [0.99759546407035, 0.06726464702889, -0.016696027262, -0.0662602376965, 0.99629729760711, 0.05478389983544],
      "ImagePositionPatient": [-825.72580657957, -937.0448544006, -102.90194170085],
      "ImageType": [
        "ORIGINAL",
        "PRIMARY",
        "M",
        "MB",
        "ND",
        "NORM",
        "MOSAIC"
],
      "ImagedNucleus": "1H",
      "ImagingFrequency": 123.259168,
      "InPlanePhaseEncodingDirection": "COL",
      "MRAcquisitionType": "2D",
      "MagneticFieldStrength": 3.0,
      "Manufacturer": "SIEMENS",
      "ManufacturerModelName": "Prisma",
      "Modality": "MR",
      "NumberOfAverages": 1.0,
      "NumberOfPhaseEncodingSteps": 82,
      "PercentPhaseFieldOfView": 100.0,
      "PercentSampling": 100.0,
      "PerformedProcedureStepStartTime": "170756.271000",
      "PhotometricInterpretation": "MONOCHROME2",
      "PixelBandwidth": 3050.0,
      "PixelRepresentation": 0,
      "PixelSpacing": [2.6829268932343, 2.6829268932343],
      "ProtocolName": "func_run-01_task-social_acq-ap-mb8",
      "RepetitionTime": 460.0,
      "Rows": 656,
      "SAR": 0.08802392478293,
      "SamplesPerPixel": 1,
      "ScanOptions": "FS",
      "ScanningSequence": "EP",
      "SequenceName": "epfid2d1_82",
      "SequenceVariant": [
        "SK",
        "SS"
],
      "SeriesDescription": "func_run-01_task-social_acq-ap-mb8",
      "SeriesNumber": 16,
      "SeriesTime": "174843.913000",
      "SliceLocation": -69.336253801506,
      "SliceThickness": 2.7000000476837,
      "SmallestImagePixelValue": 0,
      "SoftwareVersions": "syngo MR E11",
      "SpacingBetweenSlices": 2.7000001126656,
      "SpecificCharacterSet": "ISO_IR 100",
      "StudyID": "1",
      "StudyTime": "170756.166000",
      "TransmitCoilName": "Body",
      "VariableFlipAngleFlag": "N",
      "WindowCenterWidthExplanation": "Algo1"
    },
    "slices": {}
  },
  "time": {
    "samples": {
      "AcquisitionNumber": [1, 2, 3, 4, 5, 6, 7, 8, 9, 10, 11, 12, 13, 14, 15, 16, 17, 18, 19, 20, 21, 22, 23, 24, 25, 26, 27, 28, 29, 30, 31, 32, 33, 34, 35, 36, 37, 38, 39, 40, 41, 42, 43, 44, 45, 46, 47, 48, 49, 50, 51, 52, 53, 54, 55, 56, 57, 58, 59, 60, 61, 62, 63, 64, 65, 66, 67, 68, 69, 70, 71, 72, 73, 74, 75, 76, 77, 78, 79, 80, 81, 82, 83, 84, 85, 86, 87, 88, 89, 90, 91, 92, 93, 94, 95, 96, 97, 98, 99, 100, 101, 102, 103, 104, 105, 106, 107, 108, 109, 110, 111, 112, 113, 114, 115, 116, 117, 118, 119, 120, 121, 122, 123, 124, 125, 126, 127, 128, 129, 130, 131, 132, 133, 134, 135, 136, 137, 138, 139, 140, 141, 142, 143, 144, 145, 146, 147, 148, 149, 150, 151, 152, 153, 154, 155, 156, 157, 158, 159, 160, 161, 162, 163, 164, 165, 166, 167, 168, 169, 170, 171, 172, 173, 174, 175, 176, 177, 178, 179, 180, 181, 182, 183, 184, 185, 186, 187, 188, 189, 190, 191, 192, 193, 194, 195, 196, 197, 198, 199, 200, 201, 202, 203, 204, 205, 206, 207, 208, 209, 210, 211, 212, 213, 214, 215, 216, 217, 218, 219, 220, 221, 222, 223, 224, 225, 226, 227, 228, 229, 230, 231, 232, 233, 234, 235, 236, 237, 238, 239, 240, 241, 242, 243, 244, 245, 246, 247, 248, 249, 250, 251, 252, 253, 254, 255, 256, 257, 258, 259, 260, 261, 262, 263, 264, 265, 266, 267, 268, 269, 270, 271, 272, 273, 274, 275, 276, 277, 278, 279, 280, 281, 282, 283, 284, 285, 286, 287, 288, 289, 290, 291, 292, 293, 294, 295, 296, 297, 298, 299, 300, 301, 302, 303, 304, 305, 306, 307, 308, 309, 310, 311, 312, 313, 314, 315, 316, 317, 318, 319, 320, 321, 322, 323, 324, 325, 326, 327, 328, 329, 330, 331, 332, 333, 334, 335, 336, 337, 338, 339, 340, 341, 342, 343, 344, 345, 346, 347, 348, 349, 350, 351, 352, 353, 354, 355, 356, 357, 358, 359, 360, 361, 362, 363, 364, 365, 366, 367, 368, 369, 370, 371, 372, 373, 374, 375, 376, 377, 378, 379, 380, 381, 382, 383, 384, 385, 386, 387, 388, 389, 390, 391, 392, 393, 394, 395, 396, 397, 398, 399, 400, 401, 402, 403, 404, 405, 406, 407, 408, 409, 410, 411, 412, 413, 414, 415, 416, 417, 418, 419, 420, 421, 422, 423, 424, 425, 426, 427, 428, 429, 430, 431, 432, 433, 434, 435, 436, 437, 438, 439, 440, 441, 442, 443, 444, 445, 446, 447, 448, 449, 450, 451, 452, 453, 454, 455, 456, 457, 458, 459, 460, 461, 462, 463, 464, 465, 466, 467, 468, 469, 470, 471, 472, 473, 474, 475, 476, 477, 478, 479, 480, 481, 482, 483, 484, 485, 486, 487, 488, 489, 490, 491, 492, 493, 494, 495, 496, 497, 498, 499, 500, 501, 502, 503, 504, 505, 506, 507, 508, 509, 510, 511, 512, 513, 514, 515, 516, 517, 518, 519, 520, 521, 522, 523, 524, 525, 526, 527, 528, 529, 530, 531, 532, 533, 534, 535, 536, 537, 538, 539, 540, 541, 542, 543, 544, 545, 546, 547, 548, 549, 550, 551, 552, 553, 554, 555, 556, 557, 558, 559, 560, 561, 562, 563, 564, 565, 566, 567, 568, 569, 570, 571, 572, 573, 574, 575, 576, 577, 578, 579, 580, 581, 582, 583, 584, 585, 586, 587, 588, 589, 590, 591, 592, 593, 594, 595, 596, 597, 598, 599, 600, 601, 602, 603, 604, 605, 606, 607, 608, 609, 610, 611, 612, 613, 614, 615, 616, 617, 618, 619, 620, 621, 622, 623, 624, 625, 626, 627, 628, 629, 630, 631, 632, 633, 634, 635, 636, 637, 638, 639, 640, 641, 642, 643, 644, 645, 646, 647, 648, 649, 650, 651, 652, 653, 654, 655, 656, 657, 658, 659, 660, 661, 662, 663, 664, 665, 666, 667, 668, 669, 670, 671, 672, 673, 674, 675, 676, 677, 678, 679, 680, 681, 682, 683, 684, 685, 686, 687, 688, 689, 690, 691, 692, 693, 694, 695, 696, 697, 698, 699, 700, 701, 702, 703, 704, 705, 706, 707, 708, 709, 710, 711, 712, 713, 714, 715, 716, 717, 718, 719, 720, 721, 722, 723, 724, 725, 726, 727, 728, 729, 730, 731, 732, 733, 734, 735, 736, 737, 738, 739, 740, 741, 742, 743, 744, 745, 746, 747, 748, 749, 750, 751, 752, 753, 754, 755, 756, 757, 758, 759, 760, 761, 762, 763, 764, 765, 766, 767, 768, 769, 770, 771, 772, 773, 774, 775, 776, 777, 778, 779, 780, 781, 782, 783, 784, 785, 786, 787, 788, 789, 790, 791, 792, 793, 794, 795, 796, 797, 798, 799, 800, 801, 802, 803, 804, 805, 806, 807, 808, 809, 810, 811, 812, 813, 814, 815, 816, 817, 818, 819, 820, 821, 822, 823, 824, 825, 826, 827, 828, 829, 830, 831, 832, 833, 834, 835, 836, 837, 838, 839, 840, 841, 842, 843, 844, 845, 846, 847, 848, 849, 850, 851, 852, 853, 854, 855, 856, 857, 858, 859, 860, 861, 862, 863, 864, 865, 866, 867, 868, 869, 870, 871, 872],
      "AcquisitionTime": ["174821.235000", "174821.695000", "174822.155000", "174822.615000", "174823.075000", "174823.535000", "174823.995000", "174824.455000", "174824.915000", "174825.375000", "174825.835000", "174826.295000", "174826.755000", "174827.215000", "174827.675000", "174828.135000", "174828.595000", "174829.055000", "174829.515000", "174829.975000", "174830.435000", "174830.895000", "174831.355000", "174831.815000", "174832.275000", "174832.735000", "174833.195000", "174833.655000", "174834.115000", "174834.575000", "174835.035000", "174835.495000", "174835.955000", "174836.415000", "174836.875000", "174837.335000", "174837.795000", "174838.255000", "174838.715000", "174839.175000", "174839.635000", "174840.095000", "174840.555000", "174841.015000", "174841.475000", "174841.935000", "174842.395000", "174842.855000", "174843.315000", "174843.775000", "174844.235000", "174844.695000", "174845.155000", "174845.615000", "174846.075000", "174846.535000", "174846.995000", "174847.455000", "174847.915000", "174848.375000", "174848.835000", "174849.295000", "174849.755000", "174850.215000", "174850.675000", "174851.135000", "174851.595000", "174852.055000", "174852.515000", "174852.975000", "174853.435000", "174853.895000", "174854.355000", "174854.815000", "174855.275000", "174855.735000", "174856.195000", "174856.655000", "174857.115000", "174857.575000", "174858.035000", "174858.495000", "174858.955000", "174859.415000", "174859.875000", "174900.335000", "174900.795000", "174901.255000", "174901.715000", "174902.175000", "174902.635000", "174903.095000", "174903.555000", "174904.015000", "174904.475000", "174904.935000", "174905.395000", "174905.855000", "174906.315000", "174906.775000", "174907.235000", "174907.695000", "174908.155000", "174908.615000", "174909.075000", "174909.535000", "174909.995000", "174910.455000", "174910.915000", "174911.375000", "174911.835000", "174912.295000", "174912.755000", "174913.215000", "174913.675000", "174914.135000", "174914.595000", "174915.055000", "174915.515000", "174915.975000", "174916.435000", "174916.895000", "174917.355000", "174917.815000", "174918.275000", "174918.735000", "174919.195000", "174919.655000", "174920.115000", "174920.575000", "174921.035000", "174921.495000", "174921.955000", "174922.415000", "174922.875000", "174923.335000", "174923.795000", "174924.255000", "174924.715000", "174925.175000", "174925.635000", "174926.095000", "174926.555000", "174927.015000", "174927.475000", "174927.935000", "174928.395000", "174928.855000", "174929.315000", "174929.775000", "174930.235000", "174930.695000", "174931.155000", "174931.615000", "174932.075000", "174932.535000", "174932.995000", "174933.455000", "174933.915000", "174934.375000", "174934.835000", "174935.295000", "174935.755000", "174936.215000", "174936.675000", "174937.135000", "174937.595000", "174938.055000", "174938.515000", "174938.975000", "174939.435000", "174939.895000", "174940.355000", "174940.815000", "174941.275000", "174941.735000", "174942.195000", "174942.655000", "174943.115000", "174943.575000", "174944.035000", "174944.495000", "174944.955000", "174945.415000", "174945.875000", "174946.335000", "174946.795000", "174947.255000", "174947.715000", "174948.175000", "174948.635000", "174949.095000", "174949.555000", "174950.015000", "174950.475000", "174950.935000", "174951.395000", "174951.855000", "174952.315000", "174952.775000", "174953.235000", "174953.695000", "174954.155000", "174954.615000", "174955.075000", "174955.535000", "174955.995000", "174956.455000", "174956.915000", "174957.375000", "174957.835000", "174958.295000", "174958.755000", "174959.215000", "174959.675000", "175000.135000", "175000.595000", "175001.055000", "175001.515000", "175001.975000", "175002.435000", "175002.895000", "175003.355000", "175003.815000", "175004.275000", "175004.735000", "175005.195000", "175005.655000", "175006.115000", "175006.575000", "175007.035000", "175007.495000", "175007.955000", "175008.415000", "175008.875000", "175009.335000", "175009.795000", "175010.255000", "175010.715000", "175011.175000", "175011.635000", "175012.095000", "175012.555000", "175013.015000", "175013.475000", "175013.935000", "175014.395000", "175014.855000", "175015.315000", "175015.775000", "175016.235000", "175016.695000", "175017.155000", "175017.615000", "175018.075000", "175018.535000", "175018.995000", "175019.455000", "175019.915000", "175020.375000", "175020.835000", "175021.295000", "175021.755000", "175022.215000", "175022.675000", "175023.135000", "175023.595000", "175024.055000", "175024.515000", "175024.975000", "175025.435000", "175025.895000", "175026.355000", "175026.815000", "175027.275000", "175027.735000", "175028.195000", "175028.655000", "175029.115000", "175029.575000", "175030.035000", "175030.495000", "175030.955000", "175031.415000", "175031.875000", "175032.335000", "175032.795000", "175033.255000", "175033.715000", "175034.175000", "175034.635000", "175035.095000", "175035.555000", "175036.015000", "175036.475000", "175036.935000", "175037.395000", "175037.855000", "175038.315000", "175038.775000", "175039.235000", "175039.695000", "175040.155000", "175040.615000", "175041.075000", "175041.535000", "175041.995000", "175042.455000", "175042.915000", "175043.375000", "175043.835000", "175044.295000", "175044.755000", "175045.215000", "175045.675000", "175046.135000", "175046.595000", "175047.055000", "175047.515000", "175047.975000", "175048.435000", "175048.895000", "175049.355000", "175049.815000", "175050.275000", "175050.735000", "175051.195000", "175051.655000", "175052.115000", "175052.575000", "175053.035000", "175053.495000", "175053.955000", "175054.415000", "175054.875000", "175055.335000", "175055.795000", "175056.255000", "175056.715000", "175057.175000", "175057.635000", "175058.095000", "175058.555000", "175059.015000", "175059.475000", "175059.935000", "175100.395000", "175100.855000", "175101.315000", "175101.775000", "175102.235000", "175102.695000", "175103.155000", "175103.615000", "175104.075000", "175104.535000", "175104.995000", "175105.455000", "175105.915000", "175106.375000", "175106.835000", "175107.295000", "175107.755000", "175108.215000", "175108.675000", "175109.135000", "175109.595000", "175110.055000", "175110.515000", "175110.975000", "175111.435000", "175111.895000", "175112.355000", "175112.815000", "175113.275000", "175113.735000", "175114.195000", "175114.655000", "175115.115000", "175115.575000", "175116.035000", "175116.495000", "175116.955000", "175117.415000", "175117.875000", "175118.335000", "175118.795000", "175119.255000", "175119.715000", "175120.175000", "175120.635000", "175121.095000", "175121.555000", "175122.015000", "175122.475000", "175122.935000", "175123.395000", "175123.855000", "175124.315000", "175124.775000", "175125.235000", "175125.695000", "175126.155000", "175126.615000", "175127.075000", "175127.535000", "175127.995000", "175128.455000", "175128.915000", "175129.375000", "175129.835000", "175130.295000", "175130.755000", "175131.215000", "175131.675000", "175132.135000", "175132.595000", "175133.055000", "175133.515000", "175133.975000", "175134.435000", "175134.895000", "175135.355000", "175135.815000", "175136.275000", "175136.735000", "175137.195000", "175137.655000", "175138.115000", "175138.575000", "175139.035000", "175139.495000", "175139.955000", "175140.415000", "175140.875000", "175141.335000", "175141.795000", "175142.255000", "175142.715000", "175143.175000", "175143.635000", "175144.095000", "175144.555000", "175145.015000", "175145.475000", "175145.935000", "175146.395000", "175146.855000", "175147.315000", "175147.775000", "175148.235000", "175148.695000", "175149.155000", "175149.615000", "175150.075000", "175150.535000", "175150.995000", "175151.455000", "175151.915000", "175152.375000", "175152.835000", "175153.295000", "175153.755000", "175154.215000", "175154.675000", "175155.135000", "175155.595000", "175156.055000", "175156.515000", "175156.975000", "175157.435000", "175157.895000", "175158.355000", "175158.815000", "175159.275000", "175159.735000", "175200.195000", "175200.655000", "175201.115000", "175201.575000", "175202.035000", "175202.495000", "175202.955000", "175203.415000", "175203.875000", "175204.335000", "175204.795000", "175205.255000", "175205.715000", "175206.175000", "175206.635000", "175207.095000", "175207.555000", "175208.015000", "175208.475000", "175208.935000", "175209.395000", "175209.855000", "175210.315000", "175210.775000", "175211.235000", "175211.695000", "175212.155000", "175212.615000", "175213.075000", "175213.535000", "175213.995000", "175214.455000", "175214.915000", "175215.375000", "175215.835000", "175216.295000", "175216.755000", "175217.215000", "175217.675000", "175218.135000", "175218.595000", "175219.055000", "175219.515000", "175219.975000", "175220.435000", "175220.895000", "175221.355000", "175221.815000", "175222.275000", "175222.735000", "175223.195000", "175223.655000", "175224.115000", "175224.575000", "175225.035000", "175225.495000", "175225.955000", "175226.415000", "175226.875000", "175227.335000", "175227.795000", "175228.255000", "175228.715000", "175229.175000", "175229.635000", "175230.095000", "175230.555000", "175231.015000", "175231.475000", "175231.935000", "175232.395000", "175232.855000", "175233.315000", "175233.775000", "175234.235000", "175234.695000", "175235.155000", "175235.615000", "175236.075000", "175236.535000", "175236.995000", "175237.455000", "175237.915000", "175238.375000", "175238.835000", "175239.295000", "175239.755000", "175240.215000", "175240.675000", "175241.135000", "175241.595000", "175242.055000", "175242.515000", "175242.975000", "175243.435000", "175243.895000", "175244.355000", "175244.815000", "175245.275000", "175245.735000", "175246.195000", "175246.655000", "175247.115000", "175247.575000", "175248.035000", "175248.495000", "175248.955000", "175249.415000", "175249.875000", "175250.335000", "175250.795000", "175251.255000", "175251.715000", "175252.175000", "175252.635000", "175253.095000", "175253.555000", "175254.015000", "175254.475000", "175254.935000", "175255.395000", "175255.855000", "175256.315000", "175256.775000", "175257.235000", "175257.695000", "175258.155000", "175258.615000", "175259.075000", "175259.535000", "175259.995000", "175300.455000", "175300.915000", "175301.375000", "175301.835000", "175302.295000", "175302.755000", "175303.215000", "175303.675000", "175304.135000", "175304.595000", "175305.055000", "175305.515000", "175305.975000", "175306.435000", "175306.895000", "175307.355000", "175307.815000", "175308.275000", "175308.735000", "175309.195000", "175309.655000", "175310.115000", "175310.575000", "175311.035000", "175311.495000", "175311.955000", "175312.415000", "175312.875000", "175313.335000", "175313.795000", "175314.255000", "175314.715000", "175315.175000", "175315.635000", "175316.095000", "175316.555000", "175317.015000", "175317.475000", "175317.935000", "175318.395000", "175318.855000", "175319.315000", "175319.775000", "175320.235000", "175320.695000", "175321.155000", "175321.615000", "175322.075000", "175322.535000", "175322.995000", "175323.455000", "175323.915000", "175324.375000", "175324.835000", "175325.295000", "175325.755000", "175326.215000", "175326.675000", "175327.135000", "175327.595000", "175328.055000", "175328.515000", "175328.975000", "175329.435000", "175329.895000", "175330.355000", "175330.815000", "175331.275000", "175331.735000", "175332.195000", "175332.655000", "175333.115000", "175333.575000", "175334.035000", "175334.495000", "175334.955000", "175335.415000", "175335.875000", "175336.335000", "175336.795000", "175337.255000", "175337.715000", "175338.175000", "175338.635000", "175339.095000", "175339.555000", "175340.015000", "175340.475000", "175340.935000", "175341.395000", "175341.855000", "175342.315000", "175342.775000", "175343.235000", "175343.695000", "175344.155000", "175344.615000", "175345.075000", "175345.535000", "175345.995000", "175346.455000", "175346.915000", "175347.375000", "175347.835000", "175348.295000", "175348.755000", "175349.215000", "175349.675000", "175350.135000", "175350.595000", "175351.055000", "175351.515000", "175351.975000", "175352.435000", "175352.895000", "175353.355000", "175353.815000", "175354.275000", "175354.735000", "175355.195000", "175355.655000", "175356.115000", "175356.575000", "175357.035000", "175357.495000", "175357.955000", "175358.415000", "175358.875000", "175359.335000", "175359.795000", "175400.255000", "175400.715000", "175401.175000", "175401.635000", "175402.095000", "175402.555000", "175403.015000", "175403.475000", "175403.935000", "175404.395000", "175404.855000", "175405.315000", "175405.775000", "175406.235000", "175406.695000", "175407.155000", "175407.615000", "175408.075000", "175408.535000", "175408.995000", "175409.455000", "175409.915000", "175410.375000", "175410.835000", "175411.295000", "175411.755000", "175412.215000", "175412.675000", "175413.135000", "175413.595000", "175414.055000", "175414.515000", "175414.975000", "175415.435000", "175415.895000", "175416.355000", "175416.815000", "175417.275000", "175417.735000", "175418.195000", "175418.655000", "175419.115000", "175419.575000", "175420.035000", "175420.495000", "175420.955000", "175421.415000", "175421.875000", "175422.335000", "175422.795000", "175423.255000", "175423.715000", "175424.175000", "175424.635000", "175425.095000", "175425.555000", "175426.015000", "175426.475000", "175426.935000", "175427.395000", "175427.855000", "175428.315000", "175428.775000", "175429.235000", "175429.695000", "175430.155000", "175430.615000", "175431.075000", "175431.535000", "175431.995000", "175432.455000", "175432.915000", "175433.375000", "175433.835000", "175434.295000", "175434.755000", "175435.215000", "175435.675000", "175436.135000", "175436.595000", "175437.055000", "175437.515000", "175437.975000", "175438.435000", "175438.895000", "175439.355000", "175439.815000", "175440.275000", "175440.735000", "175441.195000", "175441.655000", "175442.115000", "175442.575000", "175443.035000", "175443.495000", "175443.955000", "175444.415000", "175444.875000", "175445.335000", "175445.795000", "175446.255000", "175446.715000", "175447.175000", "175447.635000", "175448.095000", "175448.555000", "175449.015000", "175449.475000", "175449.935000", "175450.395000", "175450.855000", "175451.315000", "175451.775000", "175452.235000", "175452.695000", "175453.155000", "175453.615000", "175454.075000", "175454.535000", "175454.995000", "175455.455000", "175455.915000", "175456.375000", "175456.835000", "175457.295000", "175457.755000", "175458.215000", "175458.675000", "175459.135000", "175459.595000", "175500.055000", "175500.515000", "175500.975000", "175501.435000", "175501.895000"],
