{
  "AcquisitionMatrixPE": 82,
  "AcquisitionNumber": 1,
  "AcquisitionTime": "17:00:36.412500",
  "BandwidthPerPixelPhaseEncode": 24.888,
  "BaseResolution": 82,
  "BodyPartExamined": "BRAIN",
  "ConsistencyInfo": "N4_VE11C_LATEST_20160120",
  "ConversionSoftware": "dcm2niix",
  "ConversionSoftwareVersion": "v1.0.20201102",
  "DerivedVendorReportedEchoSpacing": 0.00049,
  "DeviceSerialNumber": "66112",
  "DwellTime": 2e-06,
  "EchoTime": 0.0272,
  "EchoTrainLength": 82,
  "EffectiveEchoSpacing": 0.00049,
  "FlipAngle": 44,
  "ImageComments": "Unaliased MB8/PE3",
  "ImageOrientationPatientDICOM": [0.999497, -0.00364085, -0.0315144, 0.00680347, 0.99488, 0.100838],
  "ImageType": [
    "ORIGINAL",
    "PRIMARY",
    "M",
    "MB",
    "ND",
    "NORM",
    "MOSAIC"
],
  "ImagingFrequency": 123.252,
  "InPlanePhaseEncodingDirectionDICOM": "COL",
  "InstitutionAddress": "Maynard 3,Hanover,NH,US,03755",
  "InstitutionName": "Dartmouth College - PBS",
  "InstitutionalDepartmentName": "Department",
  "MRAcquisitionType": "2D",
  "MagneticFieldStrength": 3,
  "Manufacturer": "Siemens",
  "ManufacturersModelName": "Prisma",
  "Modality": "MR",
  "MultibandAccelerationFactor": 8,
  "PartialFourier": 1,
  "PatientPosition": "HFS",
  "PercentPhaseFOV": 100,
  "PercentSampling": 100,
  "PhaseEncodingDirection": "j-",
  "PhaseEncodingSteps": 82,
  "PhaseResolution": 1,
  "PixelBandwidth": 3050,
  "ProcedureStepDescription": "Wager_Wager^1076_spacetop",
  "ProtocolName": "func_run-03_task-social_acq-ap-mb8",
  "PulseSequenceDetails": "%CustomerSeq%\\cmrr_mbep2d_bold",
  "ReceiveCoilActiveElements": "HEA;HEP",
  "ReceiveCoilName": "Head_32",
  "ReconMatrixPE": 82,
  "RepetitionTime": 0.46,
  "SAR": 0.0782851,
  "ScanOptions": "FS",
  "ScanningSequence": "EP",
  "SequenceName": "epfid2d1_82",
  "SequenceVariant": "SK\\SS",
  "SeriesDescription": "func_run-03_task-social_acq-ap-mb8",
  "SeriesNumber": 16,
  "ShimSetting": [4136, -7741, -7224, 601, -32, -68, 42, 81],
  "SliceThickness": 2.7,
  "SliceTiming": [0, 0.2525, 0.0625, 0.315, 0.125, 0.3775, 0.19, 0, 0.2525, 0.0625, 0.315, 0.125, 0.3775, 0.19, 0, 0.2525, 0.0625, 0.315, 0.125, 0.3775, 0.19, 0, 0.2525, 0.0625, 0.315, 0.125, 0.3775, 0.19, 0, 0.2525, 0.0625, 0.315, 0.125, 0.3775, 0.19, 0, 0.2525, 0.0625, 0.315, 0.125, 0.3775, 0.19, 0, 0.2525, 0.0625, 0.315, 0.125, 0.3775, 0.19, 0, 0.2525, 0.0625, 0.315, 0.125, 0.3775, 0.19],
  "SoftwareVersions": "syngo MR E11",
  "SpacingBetweenSlices": 2.7,
  "StationName": "AWP66112",
  "TaskName": "social",
  "TotalReadoutTime": 0.03969,
  "TxRefAmp": 241.162,
  "WipMemBlock": "782c62a4-c902-484e-a2ad-4ba22e5355f2||Sequence: R016 ve11c/master r/e634e98; Dec 19 2017 11:00:25 by eja",
  "dcmmeta_affine": [
    [-2.6815764904022217, 0.018253199756145477, -0.08366191387176514, 115.93814849853516],
    [0.00976813118904829, 2.669189453125, 0.27270326018333435, -101.13042449951172],
    [-0.08455082029104233, -0.270539790391922, 2.684889793395996, -41.494606018066406],
    [0.0, 0.0, 0.0, 1.0]
],
  "dcmmeta_reorient_transform": [
    [0.0, -1.0, 0.0, 81.0],
    [1.0, 0.0, 0.0, 0.0],
    [0.0, 0.0, 1.0, 0.0],
    [0.0, 0.0, 0.0, 1.0]
],
  "dcmmeta_shape": [82, 82, 56, 872],
  "dcmmeta_slice_dim": 2,
  "dcmmeta_version": 0.6,
  "global": {
    "const": {
      "AccessionNumber": "A003804",
      "AcquisitionMatrix": [82, 0, 0, 82],
      "AngioFlag": "N",
      "BitsAllocated": 16,
      "BitsStored": 16,
      "BodyPartExamined": "BRAIN",
      "Columns": 656,
      "EchoNumbers": 1,
      "EchoTime": 27.2,
      "EchoTrainLength": 82,
      "FlipAngle": 44.0,
      "HighBit": 15,
      "ImageOrientationPatient": [0.99949666690374, -0.0036408487984, -0.0315143946212, 0.00680346519987, 0.99487964132708, 0.10083755319407],
      "ImagePositionPatient": [-892.26777589874, -878.32780213172, -116.78716069217],
      "ImageType": [
        "ORIGINAL",
        "PRIMARY",
        "M",
        "MB",
        "ND",
        "NORM",
        "MOSAIC"
],
      "ImagedNucleus": "1H",
      "ImagingFrequency": 123.252203,
      "InPlanePhaseEncodingDirection": "COL",
      "MRAcquisitionType": "2D",
      "MagneticFieldStrength": 3.0,
      "Manufacturer": "SIEMENS",
      "ManufacturerModelName": "Prisma",
      "Modality": "MR",
      "NumberOfAverages": 1.0,
      "NumberOfPhaseEncodingSteps": 82,
      "PercentPhaseFieldOfView": 100.0,
      "PercentSampling": 100.0,
      "PerformedProcedureStepStartTime": "162057.384000",
      "PhotometricInterpretation": "MONOCHROME2",
      "PixelBandwidth": 3050.0,
      "PixelRepresentation": 0,
      "PixelSpacing": [2.6829268932343, 2.6829268932343],
      "ProtocolName": "func_run-03_task-social_acq-ap-mb8",
      "RepetitionTime": 460.0,
      "Rows": 656,
      "SAR": 0.07828506361972,
      "SamplesPerPixel": 1,
      "ScanOptions": "FS",
      "ScanningSequence": "EP",
      "SequenceName": "epfid2d1_82",
      "SequenceVariant": [
        "SK",
        "SS"
],
      "SeriesDescription": "func_run-03_task-social_acq-ap-mb8",
      "SeriesNumber": 16,
      "SeriesTime": "170055.226000",
      "SliceLocation": -55.069128708864,
      "SliceThickness": 2.7000000476837,
      "SmallestImagePixelValue": 0,
      "SoftwareVersions": "syngo MR E11",
      "SpacingBetweenSlices": 2.6999999761152,
      "SpecificCharacterSet": "ISO_IR 100",
      "StudyID": "1",
      "StudyTime": "162057.265000",
      "TransmitCoilName": "Body",
      "VariableFlipAngleFlag": "N",
      "WindowCenterWidthExplanation": "Algo1",
      "dBdt": 0.0},
    "slices": {}
  },
  "time": {
    "samples": {
      "AcquisitionNumber": [1, 2, 3, 4, 5, 6, 7, 8, 9, 10, 11, 12, 13, 14, 15, 16, 17, 18, 19, 20, 21, 22, 23, 24, 25, 26, 27, 28, 29, 30, 31, 32, 33, 34, 35, 36, 37, 38, 39, 40, 41, 42, 43, 44, 45, 46, 47, 48, 49, 50, 51, 52, 53, 54, 55, 56, 57, 58, 59, 60, 61, 62, 63, 64, 65, 66, 67, 68, 69, 70, 71, 72, 73, 74, 75, 76, 77, 78, 79, 80, 81, 82, 83, 84, 85, 86, 87, 88, 89, 90, 91, 92, 93, 94, 95, 96, 97, 98, 99, 100, 101, 102, 103, 104, 105, 106, 107, 108, 109, 110, 111, 112, 113, 114, 115, 116, 117, 118, 119, 120, 121, 122, 123, 124, 125, 126, 127, 128, 129, 130, 131, 132, 133, 134, 135, 136, 137, 138, 139, 140, 141, 142, 143, 144, 145, 146, 147, 148, 149, 150, 151, 152, 153, 154, 155, 156, 157, 158, 159, 160, 161, 162, 163, 164, 165, 166, 167, 168, 169, 170, 171, 172, 173, 174, 175, 176, 177, 178, 179, 180, 181, 182, 183, 184, 185, 186, 187, 188, 189, 190, 191, 192, 193, 194, 195, 196, 197, 198, 199, 200, 201, 202, 203, 204, 205, 206, 207, 208, 209, 210, 211, 212, 213, 214, 215, 216, 217, 218, 219, 220, 221, 222, 223, 224, 225, 226, 227, 228, 229, 230, 231, 232, 233, 234, 235, 236, 237, 238, 239, 240, 241, 242, 243, 244, 245, 246, 247, 248, 249, 250, 251, 252, 253, 254, 255, 256, 257, 258, 259, 260, 261, 262, 263, 264, 265, 266, 267, 268, 269, 270, 271, 272, 273, 274, 275, 276, 277, 278, 279, 280, 281, 282, 283, 284, 285, 286, 287, 288, 289, 290, 291, 292, 293, 294, 295, 296, 297, 298, 299, 300, 301, 302, 303, 304, 305, 306, 307, 308, 309, 310, 311, 312, 313, 314, 315, 316, 317, 318, 319, 320, 321, 322, 323, 324, 325, 326, 327, 328, 329, 330, 331, 332, 333, 334, 335, 336, 337, 338, 339, 340, 341, 342, 343, 344, 345, 346, 347, 348, 349, 350, 351, 352, 353, 354, 355, 356, 357, 358, 359, 360, 361, 362, 363, 364, 365, 366, 367, 368, 369, 370, 371, 372, 373, 374, 375, 376, 377, 378, 379, 380, 381, 382, 383, 384, 385, 386, 387, 388, 389, 390, 391, 392, 393, 394, 395, 396, 397, 398, 399, 400, 401, 402, 403, 404, 405, 406, 407, 408, 409, 410, 411, 412, 413, 414, 415, 416, 417, 418, 419, 420, 421, 422, 423, 424, 425, 426, 427, 428, 429, 430, 431, 432, 433, 434, 435, 436, 437, 438, 439, 440, 441, 442, 443, 444, 445, 446, 447, 448, 449, 450, 451, 452, 453, 454, 455, 456, 457, 458, 459, 460, 461, 462, 463, 464, 465, 466, 467, 468, 469, 470, 471, 472, 473, 474, 475, 476, 477, 478, 479, 480, 481, 482, 483, 484, 485, 486, 487, 488, 489, 490, 491, 492, 493, 494, 495, 496, 497, 498, 499, 500, 501, 502, 503, 504, 505, 506, 507, 508, 509, 510, 511, 512, 513, 514, 515, 516, 517, 518, 519, 520, 521, 522, 523, 524, 525, 526, 527, 528, 529, 530, 531, 532, 533, 534, 535, 536, 537, 538, 539, 540, 541, 542, 543, 544, 545, 546, 547, 548, 549, 550, 551, 552, 553, 554, 555, 556, 557, 558, 559, 560, 561, 562, 563, 564, 565, 566, 567, 568, 569, 570, 571, 572, 573, 574, 575, 576, 577, 578, 579, 580, 581, 582, 583, 584, 585, 586, 587, 588, 589, 590, 591, 592, 593, 594, 595, 596, 597, 598, 599, 600, 601, 602, 603, 604, 605, 606, 607, 608, 609, 610, 611, 612, 613, 614, 615, 616, 617, 618, 619, 620, 621, 622, 623, 624, 625, 626, 627, 628, 629, 630, 631, 632, 633, 634, 635, 636, 637, 638, 639, 640, 641, 642, 643, 644, 645, 646, 647, 648, 649, 650, 651, 652, 653, 654, 655, 656, 657, 658, 659, 660, 661, 662, 663, 664, 665, 666, 667, 668, 669, 670, 671, 672, 673, 674, 675, 676, 677, 678, 679, 680, 681, 682, 683, 684, 685, 686, 687, 688, 689, 690, 691, 692, 693, 694, 695, 696, 697, 698, 699, 700, 701, 702, 703, 704, 705, 706, 707, 708, 709, 710, 711, 712, 713, 714, 715, 716, 717, 718, 719, 720, 721, 722, 723, 724, 725, 726, 727, 728, 729, 730, 731, 732, 733, 734, 735, 736, 737, 738, 739, 740, 741, 742, 743, 744, 745, 746, 747, 748, 749, 750, 751, 752, 753, 754, 755, 756, 757, 758, 759, 760, 761, 762, 763, 764, 765, 766, 767, 768, 769, 770, 771, 772, 773, 774, 775, 776, 777, 778, 779, 780, 781, 782, 783, 784, 785, 786, 787, 788, 789, 790, 791, 792, 793, 794, 795, 796, 797, 798, 799, 800, 801, 802, 803, 804, 805, 806, 807, 808, 809, 810, 811, 812, 813, 814, 815, 816, 817, 818, 819, 820, 821, 822, 823, 824, 825, 826, 827, 828, 829, 830, 831, 832, 833, 834, 835, 836, 837, 838, 839, 840, 841, 842, 843, 844, 845, 846, 847, 848, 849, 850, 851, 852, 853, 854, 855, 856, 857, 858, 859, 860, 861, 862, 863, 864, 865, 866, 867, 868, 869, 870, 871, 872],
      "AcquisitionTime": ["170036.412500", "170036.872500", "170037.332500", "170037.792500", "170038.252500", "170038.712500", "170039.172500", "170039.632500", "170040.092500", "170040.552500", "170041.012500", "170041.472500", "170041.932500", "170042.392500", "170042.852500", "170043.312500", "170043.772500", "170044.232500", "170044.692500", "170045.152500", "170045.612500", "170046.072500", "170046.532500", "170046.992500", "170047.452500", "170047.912500", "170048.372500", "170048.832500", "170049.292500", "170049.752500", "170050.212500", "170050.672500", "170051.132500", "170051.592500", "170052.052500", "170052.512500", "170052.972500", "170053.432500", "170053.892500", "170054.352500", "170054.812500", "170055.272500", "170055.732500", "170056.192500", "170056.652500", "170057.112500", "170057.572500", "170058.032500", "170058.492500", "170058.952500", "170059.412500", "170059.872500", "170100.332500", "170100.792500", "170101.252500", "170101.712500", "170102.172500", "170102.632500", "170103.092500", "170103.552500", "170104.012500", "170104.472500", "170104.932500", "170105.392500", "170105.852500", "170106.312500", "170106.772500", "170107.232500", "170107.692500", "170108.152500", "170108.612500", "170109.072500", "170109.532500", "170109.992500", "170110.452500", "170110.912500", "170111.372500", "170111.832500", "170112.292500", "170112.752500", "170113.212500", "170113.672500", "170114.132500", "170114.592500", "170115.052500", "170115.512500", "170115.972500", "170116.432500", "170116.892500", "170117.352500", "170117.812500", "170118.272500", "170118.732500", "170119.192500", "170119.652500", "170120.112500", "170120.572500", "170121.032500", "170121.492500", "170121.952500", "170122.412500", "170122.872500", "170123.332500", "170123.792500", "170124.252500", "170124.712500", "170125.172500", "170125.632500", "170126.092500", "170126.552500", "170127.012500", "170127.472500", "170127.932500", "170128.392500", "170128.852500", "170129.312500", "170129.772500", "170130.232500", "170130.692500", "170131.152500", "170131.612500", "170132.072500", "170132.532500", "170132.992500", "170133.452500", "170133.912500", "170134.372500", "170134.832500", "170135.292500", "170135.752500", "170136.212500", "170136.672500", "170137.132500", "170137.592500", "170138.052500", "170138.512500", "170138.972500", "170139.432500", "170139.892500", "170140.352500", "170140.812500", "170141.272500", "170141.732500", "170142.192500", "170142.652500", "170143.112500", "170143.572500", "170144.032500", "170144.492500", "170144.952500", "170145.412500", "170145.872500", "170146.332500", "170146.792500", "170147.252500", "170147.712500", "170148.172500", "170148.632500", "170149.092500", "170149.552500", "170150.012500", "170150.472500", "170150.932500", "170151.392500", "170151.852500", "170152.312500", "170152.772500", "170153.232500", "170153.692500", "170154.152500", "170154.612500", "170155.072500", "170155.532500", "170155.992500", "170156.452500", "170156.912500", "170157.372500", "170157.832500", "170158.292500", "170158.752500", "170159.212500", "170159.672500", "170200.132500", "170200.592500", "170201.052500", "170201.512500", "170201.972500", "170202.432500", "170202.892500", "170203.352500", "170203.812500", "170204.272500", "170204.732500", "170205.192500", "170205.652500", "170206.112500", "170206.572500", "170207.032500", "170207.492500", "170207.952500", "170208.412500", "170208.872500", "170209.332500", "170209.792500", "170210.252500", "170210.712500", "170211.172500", "170211.632500", "170212.092500", "170212.552500", "170213.012500", "170213.472500", "170213.932500", "170214.392500", "170214.852500", "170215.312500", "170215.772500", "170216.232500", "170216.692500", "170217.152500", "170217.612500", "170218.072500", "170218.532500", "170218.992500", "170219.452500", "170219.912500", "170220.372500", "170220.832500", "170221.292500", "170221.752500", "170222.212500", "170222.672500", "170223.132500", "170223.592500", "170224.052500", "170224.512500", "170224.972500", "170225.432500", "170225.892500", "170226.352500", "170226.812500", "170227.272500", "170227.732500", "170228.192500", "170228.652500", "170229.112500", "170229.572500", "170230.032500", "170230.492500", "170230.952500", "170231.412500", "170231.872500", "170232.332500", "170232.792500", "170233.252500", "170233.712500", "170234.172500", "170234.632500", "170235.092500", "170235.552500", "170236.012500", "170236.472500", "170236.932500", "170237.392500", "170237.852500", "170238.312500", "170238.772500", "170239.232500", "170239.692500", "170240.152500", "170240.612500", "170241.072500", "170241.532500", "170241.992500", "170242.452500", "170242.912500", "170243.372500", "170243.832500", "170244.292500", "170244.752500", "170245.212500", "170245.672500", "170246.132500", "170246.592500", "170247.052500", "170247.512500", "170247.972500", "170248.432500", "170248.892500", "170249.352500", "170249.812500", "170250.272500", "170250.732500", "170251.192500", "170251.652500", "170252.112500", "170252.572500", "170253.032500", "170253.492500", "170253.952500", "170254.412500", "170254.872500", "170255.332500", "170255.792500", "170256.252500", "170256.712500", "170257.172500", "170257.632500", "170258.092500", "170258.552500", "170259.012500", "170259.472500", "170259.932500", "170300.392500", "170300.852500", "170301.312500", "170301.772500", "170302.232500", "170302.692500", "170303.152500", "170303.612500", "170304.072500", "170304.532500", "170304.992500", "170305.452500", "170305.912500", "170306.372500", "170306.832500", "170307.292500", "170307.752500", "170308.212500", "170308.672500", "170309.132500", "170309.592500", "170310.052500", "170310.512500", "170310.972500", "170311.432500", "170311.892500", "170312.352500", "170312.812500", "170313.272500", "170313.732500", "170314.192500", "170314.652500", "170315.112500", "170315.572500", "170316.032500", "170316.492500", "170316.952500", "170317.412500", "170317.872500", "170318.332500", "170318.792500", "170319.252500", "170319.712500", "170320.172500", "170320.632500", "170321.092500", "170321.552500", "170322.012500", "170322.472500", "170322.932500", "170323.392500", "170323.852500", "170324.312500", "170324.772500", "170325.232500", "170325.692500", "170326.152500", "170326.612500", "170327.072500", "170327.532500", "170327.992500", "170328.452500", "170328.912500", "170329.372500", "170329.832500", "170330.292500", "170330.752500", "170331.212500", "170331.672500", "170332.132500", "170332.592500", "170333.052500", "170333.512500", "170333.972500", "170334.432500", "170334.892500", "170335.352500", "170335.812500", "170336.272500", "170336.732500", "170337.192500", "170337.652500", "170338.112500", "170338.572500", "170339.032500", "170339.492500", "170339.952500", "170340.412500", "170340.872500", "170341.332500", "170341.792500", "170342.252500", "170342.712500", "170343.172500", "170343.632500", "170344.092500", "170344.552500", "170345.012500", "170345.472500", "170345.932500", "170346.392500", "170346.852500", "170347.312500", "170347.772500", "170348.232500", "170348.692500", "170349.152500", "170349.612500", "170350.072500", "170350.532500", "170350.992500", "170351.452500", "170351.912500", "170352.372500", "170352.832500", "170353.292500", "170353.752500", "170354.212500", "170354.672500", "170355.132500", "170355.592500", "170356.052500", "170356.512500", "170356.972500", "170357.432500", "170357.892500", "170358.352500", "170358.812500", "170359.272500", "170359.732500", "170400.192500", "170400.652500", "170401.112500", "170401.572500", "170402.032500", "170402.492500", "170402.952500", "170403.412500", "170403.872500", "170404.332500", "170404.792500", "170405.252500", "170405.712500", "170406.172500", "170406.632500", "170407.092500", "170407.552500", "170408.012500", "170408.472500", "170408.932500", "170409.392500", "170409.852500", "170410.312500", "170410.772500", "170411.232500", "170411.692500", "170412.152500", "170412.612500", "170413.072500", "170413.532500", "170413.992500", "170414.452500", "170414.912500", "170415.372500", "170415.832500", "170416.292500", "170416.752500", "170417.212500", "170417.672500", "170418.132500", "170418.592500", "170419.052500", "170419.512500", "170419.972500", "170420.432500", "170420.892500", "170421.352500", "170421.812500", "170422.272500", "170422.732500", "170423.192500", "170423.652500", "170424.112500", "170424.572500", "170425.032500", "170425.492500", "170425.952500", "170426.412500", "170426.872500", "170427.332500", "170427.792500", "170428.252500", "170428.712500", "170429.172500", "170429.632500", "170430.092500", "170430.552500", "170431.012500", "170431.472500", "170431.932500", "170432.392500", "170432.852500", "170433.312500", "170433.772500", "170434.232500", "170434.692500", "170435.152500", "170435.612500", "170436.072500", "170436.532500", "170436.992500", "170437.452500", "170437.912500", "170438.372500", "170438.832500", "170439.292500", "170439.752500", "170440.212500", "170440.672500", "170441.132500", "170441.592500", "170442.052500", "170442.512500", "170442.972500", "170443.432500", "170443.892500", "170444.352500", "170444.812500", "170445.272500", "170445.732500", "170446.192500", "170446.652500", "170447.112500", "170447.572500", "170448.032500", "170448.492500", "170448.952500", "170449.412500", "170449.872500", "170450.332500", "170450.792500", "170451.252500", "170451.712500", "170452.172500", "170452.632500", "170453.092500", "170453.552500", "170454.012500", "170454.472500", "170454.932500", "170455.392500", "170455.852500", "170456.312500", "170456.772500", "170457.232500", "170457.692500", "170458.152500", "170458.612500", "170459.072500", "170459.532500", "170459.992500", "170500.452500", "170500.912500", "170501.372500", "170501.832500", "170502.292500", "170502.752500", "170503.212500", "170503.672500", "170504.132500", "170504.592500", "170505.052500", "170505.512500", "170505.972500", "170506.432500", "170506.892500", "170507.352500", "170507.812500", "170508.272500", "170508.732500", "170509.192500", "170509.652500", "170510.112500", "170510.572500", "170511.032500", "170511.492500", "170511.952500", "170512.412500", "170512.872500", "170513.332500", "170513.792500", "170514.252500", "170514.712500", "170515.172500", "170515.632500", "170516.092500", "170516.552500", "170517.012500", "170517.472500", "170517.932500", "170518.392500", "170518.852500", "170519.312500", "170519.772500", "170520.232500", "170520.692500", "170521.152500", "170521.612500", "170522.072500", "170522.532500", "170522.992500", "170523.452500", "170523.912500", "170524.372500", "170524.832500", "170525.292500", "170525.752500", "170526.212500", "170526.672500", "170527.132500", "170527.592500", "170528.052500", "170528.512500", "170528.972500", "170529.432500", "170529.892500", "170530.352500", "170530.812500", "170531.272500", "170531.732500", "170532.192500", "170532.652500", "170533.112500", "170533.572500", "170534.032500", "170534.492500", "170534.952500", "170535.412500", "170535.872500", "170536.332500", "170536.792500", "170537.252500", "170537.712500", "170538.172500", "170538.632500", "170539.092500", "170539.552500", "170540.012500", "170540.472500", "170540.932500", "170541.392500", "170541.852500", "170542.312500", "170542.772500", "170543.232500", "170543.692500", "170544.152500", "170544.612500", "170545.072500", "170545.532500", "170545.992500", "170546.452500", "170546.912500", "170547.372500", "170547.832500", "170548.292500", "170548.752500", "170549.212500", "170549.672500", "170550.132500", "170550.592500", "170551.052500", "170551.512500", "170551.972500", "170552.432500", "170552.892500", "170553.352500", "170553.812500", "170554.272500", "170554.732500", "170555.192500", "170555.652500", "170556.112500", "170556.572500", "170557.032500", "170557.492500", "170557.952500", "170558.412500", "170558.872500", "170559.332500", "170559.792500", "170600.252500", "170600.712500", "170601.172500", "170601.632500", "170602.092500", "170602.552500", "170603.012500", "170603.472500", "170603.932500", "170604.392500", "170604.852500", "170605.312500", "170605.772500", "170606.232500", "170606.692500", "170607.152500", "170607.612500", "170608.072500", "170608.532500", "170608.992500", "170609.452500", "170609.912500", "170610.372500", "170610.832500", "170611.292500", "170611.752500", "170612.212500", "170612.672500", "170613.132500", "170613.592500", "170614.052500", "170614.512500", "170614.972500", "170615.432500", "170615.892500", "170616.352500", "170616.812500", "170617.272500", "170617.732500", "170618.192500", "170618.652500", "170619.112500", "170619.572500", "170620.032500", "170620.492500", "170620.952500", "170621.412500", "170621.872500", "170622.332500", "170622.792500", "170623.252500", "170623.712500", "170624.172500", "170624.632500", "170625.092500", "170625.552500", "170626.012500", "170626.472500", "170626.932500", "170627.392500", "170627.852500", "170628.312500", "170628.772500", "170629.232500", "170629.692500", "170630.152500", "170630.612500", "170631.072500", "170631.532500", "170631.992500", "170632.452500", "170632.912500", "170633.372500", "170633.832500", "170634.292500", "170634.752500", "170635.212500", "170635.672500", "170636.132500", "170636.592500", "170637.052500", "170637.512500", "170637.972500", "170638.432500", "170638.892500", "170639.352500", "170639.812500", "170640.272500", "170640.732500", "170641.192500", "170641.652500", "170642.112500", "170642.572500", "170643.032500", "170643.492500", "170643.952500", "170644.412500", "170644.872500", "170645.332500", "170645.792500", "170646.252500", "170646.712500", "170647.172500", "170647.632500", "170648.092500", "170648.552500", "170649.012500", "170649.472500", "170649.932500", "170650.392500", "170650.852500", "170651.312500", "170651.772500", "170652.232500", "170652.692500", "170653.152500", "170653.612500", "170654.072500", "170654.532500", "170654.992500", "170655.452500", "170655.912500", "170656.372500", "170656.832500", "170657.292500", "170657.752500", "170658.212500", "170658.672500", "170659.132500", "170659.592500", "170700.052500", "170700.512500", "170700.972500", "170701.432500", "170701.892500", "170702.352500", "170702.812500", "170703.272500", "170703.732500", "170704.192500", "170704.652500", "170705.112500", "170705.572500", "170706.032500", "170706.492500", "170706.952500", "170707.412500", "170707.872500", "170708.332500", "170708.792500", "170709.252500", "170709.712500", "170710.172500", "170710.632500", "170711.092500", "170711.552500", "170712.012500", "170712.472500", "170712.932500", "170713.392500", "170713.852500", "170714.312500", "170714.772500", "170715.232500", "170715.692500", "170716.152500", "170716.612500", "170717.072500"],
