{
  "AcquisitionMatrixPE": 82,
  "AcquisitionNumber": 1,
  "AcquisitionTime": "17:53:0.590000",
  "BandwidthPerPixelPhaseEncode": 24.888,
  "BaseResolution": 82,
  "BodyPartExamined": "BRAIN",
  "ConsistencyInfo": "N4_VE11C_LATEST_20160120",
  "ConversionSoftware": "dcm2niix",
  "ConversionSoftwareVersion": "v1.0.20201102",
  "DerivedVendorReportedEchoSpacing": 0.00049,
  "DeviceSerialNumber": "66112",
  "DwellTime": 2e-06,
  "EchoTime": 0.0272,
  "EchoTrainLength": 82,
  "EffectiveEchoSpacing": 0.00049,
  "FlipAngle": 44,
  "ImageComments": "Unaliased MB8/PE3",
  "ImageOrientationPatientDICOM": [0.999495, -0.00530394, -0.0313332, 0.00401226, 0.999145, -0.0411437],
  "ImageType": [
    "ORIGINAL",
    "PRIMARY",
    "M",
    "MB",
    "ND",
    "NORM",
    "MOSAIC"
],
  "ImagingFrequency": 123.252,
  "InPlanePhaseEncodingDirectionDICOM": "COL",
  "InstitutionAddress": "Maynard 3,Hanover,NH,US,03755",
  "InstitutionName": "Dartmouth College - PBS",
  "InstitutionalDepartmentName": "Department",
  "MRAcquisitionType": "2D",
  "MagneticFieldStrength": 3,
  "Manufacturer": "Siemens",
  "ManufacturersModelName": "Prisma",
  "Modality": "MR",
  "MultibandAccelerationFactor": 8,
  "PartialFourier": 1,
  "PatientPosition": "HFS",
  "PercentPhaseFOV": 100,
  "PercentSampling": 100,
  "PhaseEncodingDirection": "j-",
  "PhaseEncodingSteps": 82,
  "PhaseResolution": 1,
  "PixelBandwidth": 3050,
  "ProcedureStepDescription": "Wager_Wager^1076_spacetop",
  "ProtocolName": "func_run-03_task-alignvideo_acq-ap-mb8",
  "PulseSequenceDetails": "%CustomerSeq%\\cmrr_mbep2d_bold",
  "ReceiveCoilActiveElements": "HEA;HEP",
  "ReceiveCoilName": "Head_32",
  "ReconMatrixPE": 82,
  "RepetitionTime": 0.46,
  "SAR": 0.0783541,
  "ScanOptions": "FS",
  "ScanningSequence": "EP",
  "SequenceName": "epfid2d1_82",
  "SequenceVariant": "SK\\SS",
  "SeriesDescription": "func_run-03_task-alignvideo_acq-ap-mb8",
  "SeriesNumber": 34,
  "ShimSetting": [4133, -7738, -7213, 637, -51, -47, 53, 78],
  "SliceThickness": 2.7,
  "SliceTiming": [0, 0.2525, 0.065, 0.315, 0.1275, 0.3775, 0.19, 0, 0.2525, 0.065, 0.315, 0.1275, 0.3775, 0.19, 0, 0.2525, 0.065, 0.315, 0.1275, 0.3775, 0.19, 0, 0.2525, 0.065, 0.315, 0.1275, 0.3775, 0.19, 0, 0.2525, 0.065, 0.315, 0.1275, 0.3775, 0.19, 0, 0.2525, 0.065, 0.315, 0.1275, 0.3775, 0.19, 0, 0.2525, 0.065, 0.315, 0.1275, 0.3775, 0.19, 0, 0.2525, 0.065, 0.315, 0.1275, 0.3775, 0.19],
  "SoftwareVersions": "syngo MR E11",
  "SpacingBetweenSlices": 2.7,
  "StationName": "AWP66112",
  "TaskName": "alignvideo",
  "TotalReadoutTime": 0.03969,
  "TxRefAmp": 241.162,
  "WipMemBlock": "6a5839e1-33ff-489f-a567-c92cbba0d0c6||Sequence: R016 ve11c/master r/e634e98; Dec 19 2017 11:00:25 by eja",
  "dcmmeta_affine": [
    [-2.6815717220306396, 0.010764609090983868, -0.08511663228273392, 116.17227935791016],
    [0.014230071566998959, 2.680633544921875, -0.11069238185882568, -94.14674377441406],
    [-0.0840647891163826, 0.1103854775428772, 2.6963868141174316, -47.3158073425293],
    [0.0, 0.0, 0.0, 1.0]
],
  "dcmmeta_reorient_transform": [
    [0.0, -1.0, 0.0, 81.0],
    [1.0, 0.0, 0.0, 0.0],
    [0.0, 0.0, 1.0, 0.0],
    [0.0, 0.0, 0.0, 1.0]
],
  "dcmmeta_shape": [82, 82, 56, 1016],
  "dcmmeta_slice_dim": 2,
  "dcmmeta_version": 0.6,
  "global": {
    "const": {
      "AccessionNumber": "A003804",
      "AcquisitionMatrix": [82, 0, 0, 82],
      "AngioFlag": "N",
      "BitsAllocated": 16,
      "BitsStored": 16,
      "BodyPartExamined": "BRAIN",
      "Columns": 656,
      "EchoNumbers": 1,
      "EchoTime": 27.2,
      "EchoTrainLength": 82,
      "FlipAngle": 44.0,
      "HighBit": 15,
      "ImageOrientationPatient": [0.99949492061277, -0.0053039355649, -0.031333240126, 0.00401226343816, 0.99914518438473, -0.0411436782861],
      "ImagePositionPatient": [-889.74476596616, -888.24234812571, 17.432643824808],
      "ImageType": [
        "ORIGINAL",
        "PRIMARY",
        "M",
        "MB",
        "ND",
        "NORM",
        "MOSAIC"
],
      "ImagedNucleus": "1H",
      "ImagingFrequency": 123.252199,
      "InPlanePhaseEncodingDirection": "COL",
      "MRAcquisitionType": "2D",
      "MagneticFieldStrength": 3.0,
      "Manufacturer": "SIEMENS",
      "ManufacturerModelName": "Prisma",
      "Modality": "MR",
      "NumberOfAverages": 1.0,
      "NumberOfPhaseEncodingSteps": 82,
      "PercentPhaseFieldOfView": 100.0,
      "PercentSampling": 100.0,
      "PerformedProcedureStepStartTime": "162057.384000",
      "PhotometricInterpretation": "MONOCHROME2",
      "PixelBandwidth": 3050.0,
      "PixelRepresentation": 0,
      "PixelSpacing": [2.6829268932343, 2.6829268932343],
      "ProtocolName": "func_run-03_task-alignvideo_acq-ap-mb8",
      "RepetitionTime": 460.0,
      "Rows": 656,
      "SAR": 0.07835408862568,
      "SamplesPerPixel": 1,
      "ScanOptions": "FS",
      "ScanningSequence": "EP",
      "SequenceName": "epfid2d1_82",
      "SequenceVariant": [
        "SK",
        "SS"
],
      "SeriesDescription": "func_run-03_task-alignvideo_acq-ap-mb8",
      "SeriesNumber": 34,
      "SeriesTime": "175315.230000",
      "SliceLocation": -47.055034380282,
      "SliceThickness": 2.7000000476837,
      "SmallestImagePixelValue": 0,
      "SoftwareVersions": "syngo MR E11",
      "SpacingBetweenSlices": 2.6999999501644,
      "SpecificCharacterSet": "ISO_IR 100",
      "StudyID": "1",
      "StudyTime": "162057.265000",
      "TransmitCoilName": "Body",
      "VariableFlipAngleFlag": "N",
      "WindowCenterWidthExplanation": "Algo1",
      "dBdt": 0.0},
    "slices": {}
  },
  "time": {
    "samples": {
      "AcquisitionNumber": [1, 2, 3, 4, 5, 6, 7, 8, 9, 10, 11, 12, 13, 14, 15, 16, 17, 18, 19, 20, 21, 22, 23, 24, 25, 26, 27, 28, 29, 30, 31, 32, 33, 34, 35, 36, 37, 38, 39, 40, 41, 42, 43, 44, 45, 46, 47, 48, 49, 50, 51, 52, 53, 54, 55, 56, 57, 58, 59, 60, 61, 62, 63, 64, 65, 66, 67, 68, 69, 70, 71, 72, 73, 74, 75, 76, 77, 78, 79, 80, 81, 82, 83, 84, 85, 86, 87, 88, 89, 90, 91, 92, 93, 94, 95, 96, 97, 98, 99, 100, 101, 102, 103, 104, 105, 106, 107, 108, 109, 110, 111, 112, 113, 114, 115, 116, 117, 118, 119, 120, 121, 122, 123, 124, 125, 126, 127, 128, 129, 130, 131, 132, 133, 134, 135, 136, 137, 138, 139, 140, 141, 142, 143, 144, 145, 146, 147, 148, 149, 150, 151, 152, 153, 154, 155, 156, 157, 158, 159, 160, 161, 162, 163, 164, 165, 166, 167, 168, 169, 170, 171, 172, 173, 174, 175, 176, 177, 178, 179, 180, 181, 182, 183, 184, 185, 186, 187, 188, 189, 190, 191, 192, 193, 194, 195, 196, 197, 198, 199, 200, 201, 202, 203, 204, 205, 206, 207, 208, 209, 210, 211, 212, 213, 214, 215, 216, 217, 218, 219, 220, 221, 222, 223, 224, 225, 226, 227, 228, 229, 230, 231, 232, 233, 234, 235, 236, 237, 238, 239, 240, 241, 242, 243, 244, 245, 246, 247, 248, 249, 250, 251, 252, 253, 254, 255, 256, 257, 258, 259, 260, 261, 262, 263, 264, 265, 266, 267, 268, 269, 270, 271, 272, 273, 274, 275, 276, 277, 278, 279, 280, 281, 282, 283, 284, 285, 286, 287, 288, 289, 290, 291, 292, 293, 294, 295, 296, 297, 298, 299, 300, 301, 302, 303, 304, 305, 306, 307, 308, 309, 310, 311, 312, 313, 314, 315, 316, 317, 318, 319, 320, 321, 322, 323, 324, 325, 326, 327, 328, 329, 330, 331, 332, 333, 334, 335, 336, 337, 338, 339, 340, 341, 342, 343, 344, 345, 346, 347, 348, 349, 350, 351, 352, 353, 354, 355, 356, 357, 358, 359, 360, 361, 362, 363, 364, 365, 366, 367, 368, 369, 370, 371, 372, 373, 374, 375, 376, 377, 378, 379, 380, 381, 382, 383, 384, 385, 386, 387, 388, 389, 390, 391, 392, 393, 394, 395, 396, 397, 398, 399, 400, 401, 402, 403, 404, 405, 406, 407, 408, 409, 410, 411, 412, 413, 414, 415, 416, 417, 418, 419, 420, 421, 422, 423, 424, 425, 426, 427, 428, 429, 430, 431, 432, 433, 434, 435, 436, 437, 438, 439, 440, 441, 442, 443, 444, 445, 446, 447, 448, 449, 450, 451, 452, 453, 454, 455, 456, 457, 458, 459, 460, 461, 462, 463, 464, 465, 466, 467, 468, 469, 470, 471, 472, 473, 474, 475, 476, 477, 478, 479, 480, 481, 482, 483, 484, 485, 486, 487, 488, 489, 490, 491, 492, 493, 494, 495, 496, 497, 498, 499, 500, 501, 502, 503, 504, 505, 506, 507, 508, 509, 510, 511, 512, 513, 514, 515, 516, 517, 518, 519, 520, 521, 522, 523, 524, 525, 526, 527, 528, 529, 530, 531, 532, 533, 534, 535, 536, 537, 538, 539, 540, 541, 542, 543, 544, 545, 546, 547, 548, 549, 550, 551, 552, 553, 554, 555, 556, 557, 558, 559, 560, 561, 562, 563, 564, 565, 566, 567, 568, 569, 570, 571, 572, 573, 574, 575, 576, 577, 578, 579, 580, 581, 582, 583, 584, 585, 586, 587, 588, 589, 590, 591, 592, 593, 594, 595, 596, 597, 598, 599, 600, 601, 602, 603, 604, 605, 606, 607, 608, 609, 610, 611, 612, 613, 614, 615, 616, 617, 618, 619, 620, 621, 622, 623, 624, 625, 626, 627, 628, 629, 630, 631, 632, 633, 634, 635, 636, 637, 638, 639, 640, 641, 642, 643, 644, 645, 646, 647, 648, 649, 650, 651, 652, 653, 654, 655, 656, 657, 658, 659, 660, 661, 662, 663, 664, 665, 666, 667, 668, 669, 670, 671, 672, 673, 674, 675, 676, 677, 678, 679, 680, 681, 682, 683, 684, 685, 686, 687, 688, 689, 690, 691, 692, 693, 694, 695, 696, 697, 698, 699, 700, 701, 702, 703, 704, 705, 706, 707, 708, 709, 710, 711, 712, 713, 714, 715, 716, 717, 718, 719, 720, 721, 722, 723, 724, 725, 726, 727, 728, 729, 730, 731, 732, 733, 734, 735, 736, 737, 738, 739, 740, 741, 742, 743, 744, 745, 746, 747, 748, 749, 750, 751, 752, 753, 754, 755, 756, 757, 758, 759, 760, 761, 762, 763, 764, 765, 766, 767, 768, 769, 770, 771, 772, 773, 774, 775, 776, 777, 778, 779, 780, 781, 782, 783, 784, 785, 786, 787, 788, 789, 790, 791, 792, 793, 794, 795, 796, 797, 798, 799, 800, 801, 802, 803, 804, 805, 806, 807, 808, 809, 810, 811, 812, 813, 814, 815, 816, 817, 818, 819, 820, 821, 822, 823, 824, 825, 826, 827, 828, 829, 830, 831, 832, 833, 834, 835, 836, 837, 838, 839, 840, 841, 842, 843, 844, 845, 846, 847, 848, 849, 850, 851, 852, 853, 854, 855, 856, 857, 858, 859, 860, 861, 862, 863, 864, 865, 866, 867, 868, 869, 870, 871, 872, 873, 874, 875, 876, 877, 878, 879, 880, 881, 882, 883, 884, 885, 886, 887, 888, 889, 890, 891, 892, 893, 894, 895, 896, 897, 898, 899, 900, 901, 902, 903, 904, 905, 906, 907, 908, 909, 910, 911, 912, 913, 914, 915, 916, 917, 918, 919, 920, 921, 922, 923, 924, 925, 926, 927, 928, 929, 930, 931, 932, 933, 934, 935, 936, 937, 938, 939, 940, 941, 942, 943, 944, 945, 946, 947, 948, 949, 950, 951, 952, 953, 954, 955, 956, 957, 958, 959, 960, 961, 962, 963, 964, 965, 966, 967, 968, 969, 970, 971, 972, 973, 974, 975, 976, 977, 978, 979, 980, 981, 982, 983, 984, 985, 986, 987, 988, 989, 990, 991, 992, 993, 994, 995, 996, 997, 998, 999, 1000, 1001, 1002, 1003, 1004, 1005, 1006, 1007, 1008, 1009, 1010, 1011, 1012, 1013, 1014, 1015, 1016],
      "AcquisitionTime": ["175300.590000", "175301.050000", "175301.510000", "175301.970000", "175302.430000", "175302.890000", "175303.350000", "175303.810000", "175304.270000", "175304.730000", "175305.190000", "175305.650000", "175306.110000", "175306.570000", "175307.030000", "175307.490000", "175307.950000", "175308.410000", "175308.870000", "175309.330000", "175309.790000", "175310.250000", "175310.710000", "175311.170000", "175311.630000", "175312.090000", "175312.550000", "175313.010000", "175313.470000", "175313.930000", "175314.390000", "175314.850000", "175315.310000", "175315.770000", "175316.230000", "175316.690000", "175317.150000", "175317.610000", "175318.070000", "175318.530000", "175318.990000", "175319.450000", "175319.910000", "175320.370000", "175320.830000", "175321.290000", "175321.750000", "175322.210000", "175322.670000", "175323.130000", "175323.590000", "175324.050000", "175324.510000", "175324.970000", "175325.430000", "175325.890000", "175326.350000", "175326.810000", "175327.270000", "175327.730000", "175328.190000", "175328.650000", "175329.110000", "175329.570000", "175330.030000", "175330.490000", "175330.950000", "175331.410000", "175331.870000", "175332.330000", "175332.790000", "175333.250000", "175333.710000", "175334.170000", "175334.630000", "175335.090000", "175335.550000", "175336.010000", "175336.470000", "175336.930000", "175337.390000", "175337.850000", "175338.310000", "175338.770000", "175339.230000", "175339.690000", "175340.150000", "175340.610000", "175341.070000", "175341.530000", "175341.990000", "175342.450000", "175342.910000", "175343.370000", "175343.830000", "175344.290000", "175344.750000", "175345.210000", "175345.670000", "175346.130000", "175346.590000", "175347.050000", "175347.510000", "175347.970000", "175348.430000", "175348.890000", "175349.350000", "175349.810000", "175350.270000", "175350.730000", "175351.190000", "175351.650000", "175352.110000", "175352.570000", "175353.030000", "175353.490000", "175353.950000", "175354.410000", "175354.870000", "175355.330000", "175355.790000", "175356.250000", "175356.710000", "175357.170000", "175357.630000", "175358.090000", "175358.550000", "175359.010000", "175359.470000", "175359.930000", "175400.390000", "175400.850000", "175401.310000", "175401.770000", "175402.230000", "175402.690000", "175403.150000", "175403.610000", "175404.070000", "175404.530000", "175404.990000", "175405.450000", "175405.910000", "175406.370000", "175406.830000", "175407.290000", "175407.750000", "175408.210000", "175408.670000", "175409.130000", "175409.590000", "175410.050000", "175410.510000", "175410.970000", "175411.430000", "175411.890000", "175412.350000", "175412.810000", "175413.270000", "175413.730000", "175414.190000", "175414.650000", "175415.110000", "175415.570000", "175416.030000", "175416.490000", "175416.950000", "175417.410000", "175417.870000", "175418.330000", "175418.790000", "175419.250000", "175419.710000", "175420.170000", "175420.630000", "175421.090000", "175421.550000", "175422.010000", "175422.470000", "175422.930000", "175423.390000", "175423.850000", "175424.310000", "175424.770000", "175425.230000", "175425.690000", "175426.150000", "175426.610000", "175427.070000", "175427.530000", "175427.990000", "175428.450000", "175428.910000", "175429.370000", "175429.830000", "175430.290000", "175430.750000", "175431.210000", "175431.670000", "175432.130000", "175432.590000", "175433.050000", "175433.510000", "175433.970000", "175434.430000", "175434.890000", "175435.350000", "175435.810000", "175436.270000", "175436.730000", "175437.190000", "175437.650000", "175438.110000", "175438.570000", "175439.030000", "175439.490000", "175439.950000", "175440.410000", "175440.870000", "175441.330000", "175441.790000", "175442.250000", "175442.710000", "175443.170000", "175443.630000", "175444.090000", "175444.550000", "175445.010000", "175445.470000", "175445.930000", "175446.390000", "175446.850000", "175447.310000", "175447.770000", "175448.230000", "175448.690000", "175449.150000", "175449.610000", "175450.070000", "175450.530000", "175450.990000", "175451.450000", "175451.910000", "175452.370000", "175452.830000", "175453.290000", "175453.750000", "175454.210000", "175454.670000", "175455.130000", "175455.590000", "175456.050000", "175456.510000", "175456.970000", "175457.430000", "175457.890000", "175458.350000", "175458.810000", "175459.270000", "175459.730000", "175500.190000", "175500.650000", "175501.110000", "175501.570000", "175502.030000", "175502.490000", "175502.950000", "175503.410000", "175503.870000", "175504.330000", "175504.790000", "175505.250000", "175505.710000", "175506.170000", "175506.630000", "175507.090000", "175507.550000", "175508.010000", "175508.470000", "175508.930000", "175509.390000", "175509.850000", "175510.310000", "175510.770000", "175511.230000", "175511.690000", "175512.150000", "175512.610000", "175513.070000", "175513.530000", "175513.990000", "175514.450000", "175514.910000", "175515.370000", "175515.830000", "175516.290000", "175516.750000", "175517.210000", "175517.670000", "175518.130000", "175518.590000", "175519.050000", "175519.510000", "175519.970000", "175520.430000", "175520.890000", "175521.350000", "175521.810000", "175522.270000", "175522.730000", "175523.190000", "175523.650000", "175524.110000", "175524.570000", "175525.030000", "175525.490000", "175525.950000", "175526.410000", "175526.870000", "175527.330000", "175527.790000", "175528.250000", "175528.710000", "175529.170000", "175529.630000", "175530.090000", "175530.550000", "175531.010000", "175531.470000", "175531.930000", "175532.390000", "175532.850000", "175533.310000", "175533.770000", "175534.230000", "175534.690000", "175535.150000", "175535.610000", "175536.070000", "175536.530000", "175536.990000", "175537.450000", "175537.910000", "175538.370000", "175538.830000", "175539.290000", "175539.750000", "175540.210000", "175540.670000", "175541.130000", "175541.590000", "175542.050000", "175542.510000", "175542.970000", "175543.430000", "175543.890000", "175544.350000", "175544.810000", "175545.270000", "175545.730000", "175546.190000", "175546.650000", "175547.110000", "175547.570000", "175548.030000", "175548.490000", "175548.950000", "175549.410000", "175549.870000", "175550.330000", "175550.790000", "175551.250000", "175551.710000", "175552.170000", "175552.630000", "175553.090000", "175553.550000", "175554.010000", "175554.470000", "175554.930000", "175555.390000", "175555.850000", "175556.310000", "175556.770000", "175557.230000", "175557.690000", "175558.150000", "175558.610000", "175559.070000", "175559.530000", "175559.990000", "175600.450000", "175600.910000", "175601.370000", "175601.830000", "175602.290000", "175602.750000", "175603.210000", "175603.670000", "175604.130000", "175604.590000", "175605.050000", "175605.510000", "175605.970000", "175606.430000", "175606.890000", "175607.350000", "175607.810000", "175608.270000", "175608.730000", "175609.190000", "175609.650000", "175610.110000", "175610.570000", "175611.030000", "175611.490000", "175611.950000", "175612.410000", "175612.870000", "175613.330000", "175613.790000", "175614.250000", "175614.710000", "175615.170000", "175615.630000", "175616.090000", "175616.550000", "175617.010000", "175617.470000", "175617.930000", "175618.390000", "175618.850000", "175619.310000", "175619.770000", "175620.230000", "175620.690000", "175621.150000", "175621.610000", "175622.070000", "175622.530000", "175622.990000", "175623.450000", "175623.910000", "175624.370000", "175624.830000", "175625.290000", "175625.750000", "175626.210000", "175626.670000", "175627.130000", "175627.590000", "175628.050000", "175628.510000", "175628.970000", "175629.430000", "175629.890000", "175630.350000", "175630.810000", "175631.270000", "175631.730000", "175632.190000", "175632.650000", "175633.110000", "175633.570000", "175634.030000", "175634.490000", "175634.950000", "175635.410000", "175635.870000", "175636.330000", "175636.790000", "175637.250000", "175637.710000", "175638.170000", "175638.630000", "175639.090000", "175639.550000", "175640.010000", "175640.470000", "175640.930000", "175641.390000", "175641.850000", "175642.310000", "175642.770000", "175643.230000", "175643.690000", "175644.150000", "175644.610000", "175645.070000", "175645.530000", "175645.990000", "175646.450000", "175646.910000", "175647.370000", "175647.830000", "175648.290000", "175648.750000", "175649.210000", "175649.670000", "175650.130000", "175650.590000", "175651.050000", "175651.510000", "175651.970000", "175652.430000", "175652.890000", "175653.350000", "175653.810000", "175654.270000", "175654.730000", "175655.190000", "175655.650000", "175656.110000", "175656.570000", "175657.030000", "175657.490000", "175657.950000", "175658.410000", "175658.870000", "175659.330000", "175659.790000", "175700.250000", "175700.710000", "175701.170000", "175701.630000", "175702.090000", "175702.550000", "175703.010000", "175703.470000", "175703.930000", "175704.390000", "175704.850000", "175705.310000", "175705.770000", "175706.230000", "175706.690000", "175707.150000", "175707.610000", "175708.070000", "175708.530000", "175708.990000", "175709.450000", "175709.910000", "175710.370000", "175710.830000", "175711.290000", "175711.750000", "175712.210000", "175712.670000", "175713.130000", "175713.590000", "175714.050000", "175714.510000", "175714.970000", "175715.430000", "175715.890000", "175716.350000", "175716.810000", "175717.270000", "175717.730000", "175718.190000", "175718.650000", "175719.110000", "175719.570000", "175720.030000", "175720.490000", "175720.950000", "175721.410000", "175721.870000", "175722.330000", "175722.790000", "175723.250000", "175723.710000", "175724.170000", "175724.630000", "175725.090000", "175725.550000", "175726.010000", "175726.470000", "175726.930000", "175727.390000", "175727.850000", "175728.310000", "175728.770000", "175729.230000", "175729.690000", "175730.150000", "175730.610000", "175731.070000", "175731.530000", "175731.990000", "175732.450000", "175732.910000", "175733.370000", "175733.830000", "175734.290000", "175734.750000", "175735.210000", "175735.670000", "175736.130000", "175736.590000", "175737.050000", "175737.510000", "175737.970000", "175738.430000", "175738.890000", "175739.350000", "175739.810000", "175740.270000", "175740.730000", "175741.190000", "175741.650000", "175742.110000", "175742.570000", "175743.030000", "175743.490000", "175743.950000", "175744.410000", "175744.870000", "175745.330000", "175745.790000", "175746.250000", "175746.710000", "175747.170000", "175747.630000", "175748.090000", "175748.550000", "175749.010000", "175749.470000", "175749.930000", "175750.390000", "175750.850000", "175751.310000", "175751.770000", "175752.230000", "175752.690000", "175753.150000", "175753.610000", "175754.070000", "175754.530000", "175754.990000", "175755.450000", "175755.910000", "175756.370000", "175756.830000", "175757.290000", "175757.750000", "175758.210000", "175758.670000", "175759.130000", "175759.590000", "175800.050000", "175800.510000", "175800.970000", "175801.430000", "175801.890000", "175802.350000", "175802.810000", "175803.270000", "175803.730000", "175804.190000", "175804.650000", "175805.110000", "175805.570000", "175806.030000", "175806.490000", "175806.950000", "175807.410000", "175807.870000", "175808.330000", "175808.790000", "175809.250000", "175809.710000", "175810.170000", "175810.630000", "175811.090000", "175811.550000", "175812.010000", "175812.470000", "175812.930000", "175813.390000", "175813.850000", "175814.310000", "175814.770000", "175815.230000", "175815.690000", "175816.150000", "175816.610000", "175817.070000", "175817.530000", "175817.990000", "175818.450000", "175818.910000", "175819.370000", "175819.830000", "175820.290000", "175820.750000", "175821.210000", "175821.670000", "175822.130000", "175822.590000", "175823.050000", "175823.510000", "175823.970000", "175824.430000", "175824.890000", "175825.350000", "175825.810000", "175826.270000", "175826.730000", "175827.190000", "175827.650000", "175828.110000", "175828.570000", "175829.030000", "175829.490000", "175829.950000", "175830.410000", "175830.870000", "175831.330000", "175831.790000", "175832.250000", "175832.710000", "175833.170000", "175833.630000", "175834.090000", "175834.550000", "175835.010000", "175835.470000", "175835.930000", "175836.390000", "175836.850000", "175837.310000", "175837.770000", "175838.230000", "175838.690000", "175839.150000", "175839.610000", "175840.070000", "175840.530000", "175840.990000", "175841.450000", "175841.910000", "175842.370000", "175842.830000", "175843.290000", "175843.750000", "175844.210000", "175844.670000", "175845.130000", "175845.590000", "175846.050000", "175846.510000", "175846.970000", "175847.430000", "175847.890000", "175848.350000", "175848.810000", "175849.270000", "175849.730000", "175850.190000", "175850.650000", "175851.110000", "175851.570000", "175852.030000", "175852.490000", "175852.950000", "175853.410000", "175853.870000", "175854.330000", "175854.790000", "175855.250000", "175855.710000", "175856.170000", "175856.630000", "175857.090000", "175857.550000", "175858.010000", "175858.470000", "175858.930000", "175859.390000", "175859.850000", "175900.310000", "175900.770000", "175901.230000", "175901.690000", "175902.150000", "175902.610000", "175903.070000", "175903.530000", "175903.990000", "175904.450000", "175904.910000", "175905.370000", "175905.830000", "175906.290000", "175906.750000", "175907.210000", "175907.670000", "175908.130000", "175908.590000", "175909.050000", "175909.510000", "175909.970000", "175910.430000", "175910.890000", "175911.350000", "175911.810000", "175912.270000", "175912.730000", "175913.190000", "175913.650000", "175914.110000", "175914.570000", "175915.030000", "175915.490000", "175915.950000", "175916.410000", "175916.870000", "175917.330000", "175917.790000", "175918.250000", "175918.710000", "175919.170000", "175919.630000", "175920.090000", "175920.550000", "175921.010000", "175921.470000", "175921.930000", "175922.390000", "175922.850000", "175923.310000", "175923.770000", "175924.230000", "175924.690000", "175925.150000", "175925.610000", "175926.070000", "175926.530000", "175926.990000", "175927.450000", "175927.910000", "175928.370000", "175928.830000", "175929.290000", "175929.750000", "175930.210000", "175930.670000", "175931.130000", "175931.590000", "175932.050000", "175932.510000", "175932.970000", "175933.430000", "175933.890000", "175934.350000", "175934.810000", "175935.270000", "175935.730000", "175936.190000", "175936.650000", "175937.110000", "175937.570000", "175938.030000", "175938.490000", "175938.950000", "175939.410000", "175939.870000", "175940.330000", "175940.790000", "175941.250000", "175941.710000", "175942.170000", "175942.630000", "175943.090000", "175943.550000", "175944.010000", "175944.470000", "175944.930000", "175945.390000", "175945.850000", "175946.310000", "175946.770000", "175947.230000", "175947.690000", "175948.150000", "175948.610000", "175949.070000", "175949.530000", "175949.990000", "175950.450000", "175950.910000", "175951.370000", "175951.830000", "175952.290000", "175952.750000", "175953.210000", "175953.670000", "175954.130000", "175954.590000", "175955.050000", "175955.510000", "175955.970000", "175956.430000", "175956.890000", "175957.350000", "175957.810000", "175958.270000", "175958.730000", "175959.190000", "175959.650000", "180000.110000", "180000.570000", "180001.030000", "180001.490000", "180001.950000", "180002.410000", "180002.870000", "180003.330000", "180003.790000", "180004.250000", "180004.710000", "180005.170000", "180005.630000", "180006.090000", "180006.550000", "180007.010000", "180007.470000", "180007.930000", "180008.390000", "180008.850000", "180009.310000", "180009.770000", "180010.230000", "180010.690000", "180011.150000", "180011.610000", "180012.070000", "180012.530000", "180012.990000", "180013.450000", "180013.910000", "180014.370000", "180014.830000", "180015.290000", "180015.750000", "180016.210000", "180016.670000", "180017.130000", "180017.590000", "180018.050000", "180018.510000", "180018.970000", "180019.430000", "180019.890000", "180020.350000", "180020.810000", "180021.270000", "180021.730000", "180022.190000", "180022.650000", "180023.110000", "180023.570000", "180024.030000", "180024.490000", "180024.950000", "180025.410000", "180025.870000", "180026.330000", "180026.790000", "180027.250000", "180027.710000", "180028.170000", "180028.630000", "180029.090000", "180029.550000", "180030.010000", "180030.470000", "180030.930000", "180031.390000", "180031.850000", "180032.310000", "180032.770000", "180033.230000", "180033.690000", "180034.150000", "180034.610000", "180035.070000", "180035.530000", "180035.990000", "180036.450000", "180036.910000", "180037.370000", "180037.830000", "180038.290000", "180038.750000", "180039.210000", "180039.670000", "180040.130000", "180040.590000", "180041.050000", "180041.510000", "180041.970000", "180042.430000", "180042.890000", "180043.350000", "180043.810000", "180044.270000", "180044.730000", "180045.190000", "180045.650000", "180046.110000", "180046.570000", "180047.030000", "180047.490000"],
