{
  "AcquisitionMatrixPE": 82,
  "AcquisitionNumber": 1,
  "AcquisitionTime": "17:16:31.305000",
  "BandwidthPerPixelPhaseEncode": 24.888,
  "BaseResolution": 82,
  "BodyPartExamined": "BRAIN",
  "ConsistencyInfo": "N4_VE11C_LATEST_20160120",
  "ConversionSoftware": "dcm2niix",
  "ConversionSoftwareVersion": "v1.0.20201102",
  "DerivedVendorReportedEchoSpacing": 0.00049,
  "DeviceSerialNumber": "66112",
  "DwellTime": 2e-06,
  "EchoTime": 0.0272,
  "EchoTrainLength": 82,
  "EffectiveEchoSpacing": 0.00049,
  "FlipAngle": 44,
  "ImageComments": "Unaliased MB8/PE3",
  "ImageOrientationPatientDICOM": [0.999497, -0.00364085, -0.0315144, 0.00680347, 0.99488, 0.100838],
  "ImageType": [
    "ORIGINAL",
    "PRIMARY",
    "M",
    "MB",
    "ND",
    "NORM",
    "MOSAIC"
],
  "ImagingFrequency": 123.252,
  "InPlanePhaseEncodingDirectionDICOM": "COL",
  "InstitutionAddress": "Maynard 3,Hanover,NH,US,03755",
  "InstitutionName": "Dartmouth College - PBS",
  "InstitutionalDepartmentName": "Department",
  "MRAcquisitionType": "2D",
  "MagneticFieldStrength": 3,
  "Manufacturer": "Siemens",
  "ManufacturersModelName": "Prisma",
  "Modality": "MR",
  "MultibandAccelerationFactor": 8,
  "PartialFourier": 1,
  "PatientPosition": "HFS",
  "PercentPhaseFOV": 100,
  "PercentSampling": 100,
  "PhaseEncodingDirection": "j-",
  "PhaseEncodingSteps": 82,
  "PhaseResolution": 1,
  "PixelBandwidth": 3050,
  "ProcedureStepDescription": "Wager_Wager^1076_spacetop",
  "ProtocolName": "func_run-05_task-social_acq-ap-mb8",
  "PulseSequenceDetails": "%CustomerSeq%\\cmrr_mbep2d_bold",
  "ReceiveCoilActiveElements": "HEA;HEP",
  "ReceiveCoilName": "Head_32",
  "ReconMatrixPE": 82,
  "RepetitionTime": 0.46,
  "SAR": 0.0782851,
  "ScanOptions": "FS",
  "ScanningSequence": "EP",
  "SequenceName": "epfid2d1_82",
  "SequenceVariant": "SK\\SS",
  "SeriesDescription": "func_run-05_task-social_acq-ap-mb8",
  "SeriesNumber": 20,
  "ShimSetting": [4136, -7741, -7224, 601, -32, -68, 42, 81],
  "SliceThickness": 2.7,
  "SliceTiming": [0, 0.25, 0.0625, 0.3125, 0.125, 0.375, 0.1875, 0, 0.25, 0.0625, 0.3125, 0.125, 0.375, 0.1875, 0, 0.25, 0.0625, 0.3125, 0.125, 0.375, 0.1875, 0, 0.25, 0.0625, 0.3125, 0.125, 0.375, 0.1875, 0, 0.25, 0.0625, 0.3125, 0.125, 0.375, 0.1875, 0, 0.25, 0.0625, 0.3125, 0.125, 0.375, 0.1875, 0, 0.25, 0.0625, 0.3125, 0.125, 0.375, 0.1875, 0, 0.25, 0.0625, 0.3125, 0.125, 0.375, 0.1875],
  "SoftwareVersions": "syngo MR E11",
  "SpacingBetweenSlices": 2.7,
  "StationName": "AWP66112",
  "TaskName": "social",
  "TotalReadoutTime": 0.03969,
  "TxRefAmp": 241.162,
  "WipMemBlock": "9a47024e-fec7-47bb-a245-0e58f008c156||Sequence: R016 ve11c/master r/e634e98; Dec 19 2017 11:00:25 by eja",
  "dcmmeta_affine": [
    [-2.6815764904022217, 0.018253199756145477, -0.08366191387176514, 115.93814849853516],
    [0.00976813118904829, 2.669189453125, 0.27270326018333435, -101.13042449951172],
    [-0.08455082029104233, -0.270539790391922, 2.684889793395996, -41.494606018066406],
    [0.0, 0.0, 0.0, 1.0]
],
  "dcmmeta_reorient_transform": [
    [0.0, -1.0, 0.0, 81.0],
    [1.0, 0.0, 0.0, 0.0],
    [0.0, 0.0, 1.0, 0.0],
    [0.0, 0.0, 0.0, 1.0]
],
  "dcmmeta_shape": [82, 82, 56, 872],
  "dcmmeta_slice_dim": 2,
  "dcmmeta_version": 0.6,
  "global": {
    "const": {
      "AccessionNumber": "A003804",
      "AcquisitionMatrix": [82, 0, 0, 82],
      "AngioFlag": "N",
      "BitsAllocated": 16,
      "BitsStored": 16,
      "BodyPartExamined": "BRAIN",
      "Columns": 656,
      "EchoNumbers": 1,
      "EchoTime": 27.2,
      "EchoTrainLength": 82,
      "FlipAngle": 44.0,
      "HighBit": 15,
      "ImageOrientationPatient": [0.99949666690374, -0.0036408487984, -0.0315143946212, 0.00680346519987, 0.99487964132708, 0.10083755319407],
      "ImagePositionPatient": [-892.26777589874, -878.32780213172, -116.78716069217],
      "ImageType": [
        "ORIGINAL",
        "PRIMARY",
        "M",
        "MB",
        "ND",
        "NORM",
        "MOSAIC"
],
      "ImagedNucleus": "1H",
      "ImagingFrequency": 123.252204,
      "InPlanePhaseEncodingDirection": "COL",
      "MRAcquisitionType": "2D",
      "MagneticFieldStrength": 3.0,
      "Manufacturer": "SIEMENS",
      "ManufacturerModelName": "Prisma",
      "Modality": "MR",
      "NumberOfAverages": 1.0,
      "NumberOfPhaseEncodingSteps": 82,
      "PercentPhaseFieldOfView": 100.0,
      "PercentSampling": 100.0,
      "PerformedProcedureStepStartTime": "162057.384000",
      "PhotometricInterpretation": "MONOCHROME2",
      "PixelBandwidth": 3050.0,
      "PixelRepresentation": 0,
      "PixelSpacing": [2.6829268932343, 2.6829268932343],
      "ProtocolName": "func_run-05_task-social_acq-ap-mb8",
      "RepetitionTime": 460.0,
      "Rows": 656,
      "SAR": 0.07828506361972,
      "SamplesPerPixel": 1,
      "ScanOptions": "FS",
      "ScanningSequence": "EP",
      "SequenceName": "epfid2d1_82",
      "SequenceVariant": [
        "SK",
        "SS"
],
      "SeriesDescription": "func_run-05_task-social_acq-ap-mb8",
      "SeriesNumber": 20,
      "SeriesTime": "171655.159000",
      "SliceLocation": -55.069128708864,
      "SliceThickness": 2.7000000476837,
      "SmallestImagePixelValue": 0,
      "SoftwareVersions": "syngo MR E11",
      "SpacingBetweenSlices": 2.6999999761152,
      "SpecificCharacterSet": "ISO_IR 100",
      "StudyID": "1",
      "StudyTime": "162057.265000",
      "TransmitCoilName": "Body",
      "VariableFlipAngleFlag": "N",
      "WindowCenterWidthExplanation": "Algo1",
      "dBdt": 0.0},
    "slices": {}
  },
  "time": {
    "samples": {
      "AcquisitionNumber": [1, 2, 3, 4, 5, 6, 7, 8, 9, 10, 11, 12, 13, 14, 15, 16, 17, 18, 19, 20, 21, 22, 23, 24, 25, 26, 27, 28, 29, 30, 31, 32, 33, 34, 35, 36, 37, 38, 39, 40, 41, 42, 43, 44, 45, 46, 47, 48, 49, 50, 51, 52, 53, 54, 55, 56, 57, 58, 59, 60, 61, 62, 63, 64, 65, 66, 67, 68, 69, 70, 71, 72, 73, 74, 75, 76, 77, 78, 79, 80, 81, 82, 83, 84, 85, 86, 87, 88, 89, 90, 91, 92, 93, 94, 95, 96, 97, 98, 99, 100, 101, 102, 103, 104, 105, 106, 107, 108, 109, 110, 111, 112, 113, 114, 115, 116, 117, 118, 119, 120, 121, 122, 123, 124, 125, 126, 127, 128, 129, 130, 131, 132, 133, 134, 135, 136, 137, 138, 139, 140, 141, 142, 143, 144, 145, 146, 147, 148, 149, 150, 151, 152, 153, 154, 155, 156, 157, 158, 159, 160, 161, 162, 163, 164, 165, 166, 167, 168, 169, 170, 171, 172, 173, 174, 175, 176, 177, 178, 179, 180, 181, 182, 183, 184, 185, 186, 187, 188, 189, 190, 191, 192, 193, 194, 195, 196, 197, 198, 199, 200, 201, 202, 203, 204, 205, 206, 207, 208, 209, 210, 211, 212, 213, 214, 215, 216, 217, 218, 219, 220, 221, 222, 223, 224, 225, 226, 227, 228, 229, 230, 231, 232, 233, 234, 235, 236, 237, 238, 239, 240, 241, 242, 243, 244, 245, 246, 247, 248, 249, 250, 251, 252, 253, 254, 255, 256, 257, 258, 259, 260, 261, 262, 263, 264, 265, 266, 267, 268, 269, 270, 271, 272, 273, 274, 275, 276, 277, 278, 279, 280, 281, 282, 283, 284, 285, 286, 287, 288, 289, 290, 291, 292, 293, 294, 295, 296, 297, 298, 299, 300, 301, 302, 303, 304, 305, 306, 307, 308, 309, 310, 311, 312, 313, 314, 315, 316, 317, 318, 319, 320, 321, 322, 323, 324, 325, 326, 327, 328, 329, 330, 331, 332, 333, 334, 335, 336, 337, 338, 339, 340, 341, 342, 343, 344, 345, 346, 347, 348, 349, 350, 351, 352, 353, 354, 355, 356, 357, 358, 359, 360, 361, 362, 363, 364, 365, 366, 367, 368, 369, 370, 371, 372, 373, 374, 375, 376, 377, 378, 379, 380, 381, 382, 383, 384, 385, 386, 387, 388, 389, 390, 391, 392, 393, 394, 395, 396, 397, 398, 399, 400, 401, 402, 403, 404, 405, 406, 407, 408, 409, 410, 411, 412, 413, 414, 415, 416, 417, 418, 419, 420, 421, 422, 423, 424, 425, 426, 427, 428, 429, 430, 431, 432, 433, 434, 435, 436, 437, 438, 439, 440, 441, 442, 443, 444, 445, 446, 447, 448, 449, 450, 451, 452, 453, 454, 455, 456, 457, 458, 459, 460, 461, 462, 463, 464, 465, 466, 467, 468, 469, 470, 471, 472, 473, 474, 475, 476, 477, 478, 479, 480, 481, 482, 483, 484, 485, 486, 487, 488, 489, 490, 491, 492, 493, 494, 495, 496, 497, 498, 499, 500, 501, 502, 503, 504, 505, 506, 507, 508, 509, 510, 511, 512, 513, 514, 515, 516, 517, 518, 519, 520, 521, 522, 523, 524, 525, 526, 527, 528, 529, 530, 531, 532, 533, 534, 535, 536, 537, 538, 539, 540, 541, 542, 543, 544, 545, 546, 547, 548, 549, 550, 551, 552, 553, 554, 555, 556, 557, 558, 559, 560, 561, 562, 563, 564, 565, 566, 567, 568, 569, 570, 571, 572, 573, 574, 575, 576, 577, 578, 579, 580, 581, 582, 583, 584, 585, 586, 587, 588, 589, 590, 591, 592, 593, 594, 595, 596, 597, 598, 599, 600, 601, 602, 603, 604, 605, 606, 607, 608, 609, 610, 611, 612, 613, 614, 615, 616, 617, 618, 619, 620, 621, 622, 623, 624, 625, 626, 627, 628, 629, 630, 631, 632, 633, 634, 635, 636, 637, 638, 639, 640, 641, 642, 643, 644, 645, 646, 647, 648, 649, 650, 651, 652, 653, 654, 655, 656, 657, 658, 659, 660, 661, 662, 663, 664, 665, 666, 667, 668, 669, 670, 671, 672, 673, 674, 675, 676, 677, 678, 679, 680, 681, 682, 683, 684, 685, 686, 687, 688, 689, 690, 691, 692, 693, 694, 695, 696, 697, 698, 699, 700, 701, 702, 703, 704, 705, 706, 707, 708, 709, 710, 711, 712, 713, 714, 715, 716, 717, 718, 719, 720, 721, 722, 723, 724, 725, 726, 727, 728, 729, 730, 731, 732, 733, 734, 735, 736, 737, 738, 739, 740, 741, 742, 743, 744, 745, 746, 747, 748, 749, 750, 751, 752, 753, 754, 755, 756, 757, 758, 759, 760, 761, 762, 763, 764, 765, 766, 767, 768, 769, 770, 771, 772, 773, 774, 775, 776, 777, 778, 779, 780, 781, 782, 783, 784, 785, 786, 787, 788, 789, 790, 791, 792, 793, 794, 795, 796, 797, 798, 799, 800, 801, 802, 803, 804, 805, 806, 807, 808, 809, 810, 811, 812, 813, 814, 815, 816, 817, 818, 819, 820, 821, 822, 823, 824, 825, 826, 827, 828, 829, 830, 831, 832, 833, 834, 835, 836, 837, 838, 839, 840, 841, 842, 843, 844, 845, 846, 847, 848, 849, 850, 851, 852, 853, 854, 855, 856, 857, 858, 859, 860, 861, 862, 863, 864, 865, 866, 867, 868, 869, 870, 871, 872],
      "AcquisitionTime": ["171631.305000", "171631.765000", "171632.225000", "171632.685000", "171633.145000", "171633.605000", "171634.065000", "171634.525000", "171634.985000", "171635.445000", "171635.905000", "171636.365000", "171636.825000", "171637.285000", "171637.745000", "171638.205000", "171638.665000", "171639.125000", "171639.585000", "171640.045000", "171640.505000", "171640.965000", "171641.425000", "171641.885000", "171642.345000", "171642.805000", "171643.265000", "171643.725000", "171644.185000", "171644.645000", "171645.105000", "171645.565000", "171646.025000", "171646.485000", "171646.945000", "171647.405000", "171647.865000", "171648.325000", "171648.785000", "171649.245000", "171649.705000", "171650.165000", "171650.625000", "171651.085000", "171651.545000", "171652.005000", "171652.465000", "171652.925000", "171653.385000", "171653.845000", "171654.305000", "171654.765000", "171655.225000", "171655.685000", "171656.145000", "171656.605000", "171657.065000", "171657.525000", "171657.985000", "171658.445000", "171658.905000", "171659.365000", "171659.825000", "171700.285000", "171700.745000", "171701.205000", "171701.665000", "171702.125000", "171702.585000", "171703.045000", "171703.505000", "171703.965000", "171704.425000", "171704.885000", "171705.345000", "171705.805000", "171706.265000", "171706.725000", "171707.185000", "171707.645000", "171708.105000", "171708.565000", "171709.025000", "171709.485000", "171709.945000", "171710.405000", "171710.865000", "171711.325000", "171711.785000", "171712.245000", "171712.705000", "171713.165000", "171713.625000", "171714.085000", "171714.545000", "171715.005000", "171715.465000", "171715.925000", "171716.385000", "171716.845000", "171717.305000", "171717.765000", "171718.225000", "171718.685000", "171719.145000", "171719.605000", "171720.065000", "171720.525000", "171720.985000", "171721.445000", "171721.905000", "171722.365000", "171722.825000", "171723.285000", "171723.745000", "171724.205000", "171724.665000", "171725.125000", "171725.585000", "171726.045000", "171726.505000", "171726.965000", "171727.425000", "171727.885000", "171728.345000", "171728.805000", "171729.265000", "171729.725000", "171730.185000", "171730.645000", "171731.105000", "171731.565000", "171732.025000", "171732.485000", "171732.945000", "171733.405000", "171733.865000", "171734.325000", "171734.785000", "171735.245000", "171735.705000", "171736.165000", "171736.625000", "171737.085000", "171737.545000", "171738.005000", "171738.465000", "171738.925000", "171739.385000", "171739.845000", "171740.305000", "171740.765000", "171741.225000", "171741.685000", "171742.145000", "171742.605000", "171743.065000", "171743.525000", "171743.985000", "171744.445000", "171744.905000", "171745.365000", "171745.825000", "171746.285000", "171746.745000", "171747.205000", "171747.665000", "171748.125000", "171748.585000", "171749.045000", "171749.505000", "171749.965000", "171750.425000", "171750.885000", "171751.345000", "171751.805000", "171752.265000", "171752.725000", "171753.185000", "171753.645000", "171754.105000", "171754.565000", "171755.025000", "171755.485000", "171755.945000", "171756.405000", "171756.865000", "171757.325000", "171757.785000", "171758.245000", "171758.705000", "171759.165000", "171759.625000", "171800.085000", "171800.545000", "171801.005000", "171801.465000", "171801.925000", "171802.385000", "171802.845000", "171803.305000", "171803.765000", "171804.225000", "171804.685000", "171805.145000", "171805.605000", "171806.065000", "171806.525000", "171806.985000", "171807.445000", "171807.905000", "171808.365000", "171808.825000", "171809.285000", "171809.745000", "171810.205000", "171810.665000", "171811.125000", "171811.585000", "171812.045000", "171812.505000", "171812.965000", "171813.425000", "171813.885000", "171814.345000", "171814.805000", "171815.265000", "171815.725000", "171816.185000", "171816.645000", "171817.105000", "171817.565000", "171818.025000", "171818.485000", "171818.945000", "171819.405000", "171819.865000", "171820.325000", "171820.785000", "171821.245000", "171821.705000", "171822.165000", "171822.625000", "171823.085000", "171823.545000", "171824.005000", "171824.465000", "171824.925000", "171825.385000", "171825.845000", "171826.305000", "171826.765000", "171827.225000", "171827.685000", "171828.145000", "171828.605000", "171829.065000", "171829.525000", "171829.985000", "171830.445000", "171830.905000", "171831.365000", "171831.825000", "171832.285000", "171832.745000", "171833.205000", "171833.665000", "171834.125000", "171834.585000", "171835.045000", "171835.505000", "171835.965000", "171836.425000", "171836.885000", "171837.345000", "171837.805000", "171838.265000", "171838.725000", "171839.185000", "171839.645000", "171840.105000", "171840.565000", "171841.025000", "171841.485000", "171841.945000", "171842.405000", "171842.865000", "171843.325000", "171843.785000", "171844.245000", "171844.705000", "171845.165000", "171845.625000", "171846.085000", "171846.545000", "171847.005000", "171847.465000", "171847.925000", "171848.385000", "171848.845000", "171849.305000", "171849.765000", "171850.225000", "171850.685000", "171851.145000", "171851.605000", "171852.065000", "171852.525000", "171852.985000", "171853.445000", "171853.905000", "171854.365000", "171854.825000", "171855.285000", "171855.745000", "171856.205000", "171856.665000", "171857.125000", "171857.585000", "171858.045000", "171858.505000", "171858.965000", "171859.425000", "171859.885000", "171900.345000", "171900.805000", "171901.265000", "171901.725000", "171902.185000", "171902.645000", "171903.105000", "171903.565000", "171904.025000", "171904.485000", "171904.945000", "171905.405000", "171905.865000", "171906.325000", "171906.785000", "171907.245000", "171907.705000", "171908.165000", "171908.625000", "171909.085000", "171909.545000", "171910.005000", "171910.465000", "171910.925000", "171911.385000", "171911.845000", "171912.305000", "171912.765000", "171913.225000", "171913.685000", "171914.145000", "171914.605000", "171915.065000", "171915.525000", "171915.985000", "171916.445000", "171916.905000", "171917.365000", "171917.825000", "171918.285000", "171918.745000", "171919.205000", "171919.665000", "171920.125000", "171920.585000", "171921.045000", "171921.505000", "171921.965000", "171922.425000", "171922.885000", "171923.345000", "171923.805000", "171924.265000", "171924.725000", "171925.185000", "171925.645000", "171926.105000", "171926.565000", "171927.025000", "171927.485000", "171927.945000", "171928.405000", "171928.865000", "171929.325000", "171929.785000", "171930.245000", "171930.705000", "171931.165000", "171931.625000", "171932.085000", "171932.545000", "171933.005000", "171933.465000", "171933.925000", "171934.385000", "171934.845000", "171935.305000", "171935.765000", "171936.225000", "171936.685000", "171937.145000", "171937.605000", "171938.065000", "171938.525000", "171938.985000", "171939.445000", "171939.905000", "171940.365000", "171940.825000", "171941.285000", "171941.745000", "171942.205000", "171942.665000", "171943.125000", "171943.585000", "171944.045000", "171944.505000", "171944.965000", "171945.425000", "171945.885000", "171946.345000", "171946.805000", "171947.265000", "171947.725000", "171948.185000", "171948.645000", "171949.105000", "171949.565000", "171950.025000", "171950.485000", "171950.945000", "171951.405000", "171951.865000", "171952.325000", "171952.785000", "171953.245000", "171953.705000", "171954.165000", "171954.625000", "171955.085000", "171955.545000", "171956.005000", "171956.465000", "171956.925000", "171957.385000", "171957.845000", "171958.305000", "171958.765000", "171959.225000", "171959.685000", "172000.145000", "172000.605000", "172001.065000", "172001.525000", "172001.985000", "172002.445000", "172002.905000", "172003.365000", "172003.825000", "172004.285000", "172004.745000", "172005.205000", "172005.665000", "172006.125000", "172006.585000", "172007.045000", "172007.505000", "172007.965000", "172008.425000", "172008.885000", "172009.345000", "172009.805000", "172010.265000", "172010.725000", "172011.185000", "172011.645000", "172012.105000", "172012.565000", "172013.025000", "172013.485000", "172013.945000", "172014.405000", "172014.865000", "172015.325000", "172015.785000", "172016.245000", "172016.705000", "172017.165000", "172017.625000", "172018.085000", "172018.545000", "172019.005000", "172019.465000", "172019.925000", "172020.385000", "172020.845000", "172021.305000", "172021.765000", "172022.225000", "172022.685000", "172023.145000", "172023.605000", "172024.065000", "172024.525000", "172024.985000", "172025.445000", "172025.905000", "172026.365000", "172026.825000", "172027.285000", "172027.745000", "172028.205000", "172028.665000", "172029.125000", "172029.585000", "172030.045000", "172030.505000", "172030.965000", "172031.425000", "172031.885000", "172032.345000", "172032.805000", "172033.265000", "172033.725000", "172034.185000", "172034.645000", "172035.105000", "172035.565000", "172036.025000", "172036.485000", "172036.945000", "172037.405000", "172037.865000", "172038.325000", "172038.785000", "172039.245000", "172039.705000", "172040.165000", "172040.625000", "172041.085000", "172041.545000", "172042.005000", "172042.465000", "172042.925000", "172043.385000", "172043.845000", "172044.305000", "172044.765000", "172045.225000", "172045.685000", "172046.145000", "172046.605000", "172047.065000", "172047.525000", "172047.985000", "172048.445000", "172048.905000", "172049.365000", "172049.825000", "172050.285000", "172050.745000", "172051.205000", "172051.665000", "172052.125000", "172052.585000", "172053.045000", "172053.505000", "172053.965000", "172054.425000", "172054.885000", "172055.345000", "172055.805000", "172056.265000", "172056.725000", "172057.185000", "172057.645000", "172058.105000", "172058.565000", "172059.025000", "172059.485000", "172059.945000", "172100.405000", "172100.865000", "172101.325000", "172101.785000", "172102.245000", "172102.705000", "172103.165000", "172103.625000", "172104.085000", "172104.545000", "172105.005000", "172105.465000", "172105.925000", "172106.385000", "172106.845000", "172107.305000", "172107.765000", "172108.225000", "172108.685000", "172109.145000", "172109.605000", "172110.065000", "172110.525000", "172110.985000", "172111.445000", "172111.905000", "172112.365000", "172112.825000", "172113.285000", "172113.745000", "172114.205000", "172114.665000", "172115.125000", "172115.585000", "172116.045000", "172116.505000", "172116.965000", "172117.425000", "172117.885000", "172118.345000", "172118.805000", "172119.265000", "172119.725000", "172120.185000", "172120.645000", "172121.105000", "172121.565000", "172122.025000", "172122.485000", "172122.945000", "172123.405000", "172123.865000", "172124.325000", "172124.785000", "172125.245000", "172125.705000", "172126.165000", "172126.625000", "172127.085000", "172127.545000", "172128.005000", "172128.465000", "172128.925000", "172129.385000", "172129.845000", "172130.305000", "172130.765000", "172131.225000", "172131.685000", "172132.145000", "172132.605000", "172133.065000", "172133.525000", "172133.985000", "172134.445000", "172134.905000", "172135.365000", "172135.825000", "172136.285000", "172136.745000", "172137.205000", "172137.665000", "172138.125000", "172138.585000", "172139.045000", "172139.505000", "172139.965000", "172140.425000", "172140.885000", "172141.345000", "172141.805000", "172142.265000", "172142.725000", "172143.185000", "172143.645000", "172144.105000", "172144.565000", "172145.025000", "172145.485000", "172145.945000", "172146.405000", "172146.865000", "172147.325000", "172147.785000", "172148.245000", "172148.705000", "172149.165000", "172149.625000", "172150.085000", "172150.545000", "172151.005000", "172151.465000", "172151.925000", "172152.385000", "172152.845000", "172153.305000", "172153.765000", "172154.225000", "172154.685000", "172155.145000", "172155.605000", "172156.065000", "172156.525000", "172156.985000", "172157.445000", "172157.905000", "172158.365000", "172158.825000", "172159.285000", "172159.745000", "172200.205000", "172200.665000", "172201.125000", "172201.585000", "172202.045000", "172202.505000", "172202.965000", "172203.425000", "172203.885000", "172204.345000", "172204.805000", "172205.265000", "172205.725000", "172206.185000", "172206.645000", "172207.105000", "172207.565000", "172208.025000", "172208.485000", "172208.945000", "172209.405000", "172209.865000", "172210.325000", "172210.785000", "172211.245000", "172211.705000", "172212.165000", "172212.625000", "172213.085000", "172213.545000", "172214.005000", "172214.465000", "172214.925000", "172215.385000", "172215.845000", "172216.305000", "172216.765000", "172217.225000", "172217.685000", "172218.145000", "172218.605000", "172219.065000", "172219.525000", "172219.985000", "172220.445000", "172220.905000", "172221.365000", "172221.825000", "172222.285000", "172222.745000", "172223.205000", "172223.665000", "172224.125000", "172224.585000", "172225.045000", "172225.505000", "172225.965000", "172226.425000", "172226.885000", "172227.345000", "172227.805000", "172228.265000", "172228.725000", "172229.185000", "172229.645000", "172230.105000", "172230.565000", "172231.025000", "172231.485000", "172231.945000", "172232.405000", "172232.865000", "172233.325000", "172233.785000", "172234.245000", "172234.705000", "172235.165000", "172235.625000", "172236.085000", "172236.545000", "172237.005000", "172237.465000", "172237.925000", "172238.385000", "172238.845000", "172239.305000", "172239.765000", "172240.225000", "172240.685000", "172241.145000", "172241.605000", "172242.065000", "172242.525000", "172242.985000", "172243.445000", "172243.905000", "172244.365000", "172244.825000", "172245.285000", "172245.745000", "172246.205000", "172246.665000", "172247.125000", "172247.585000", "172248.045000", "172248.505000", "172248.965000", "172249.425000", "172249.885000", "172250.345000", "172250.805000", "172251.265000", "172251.725000", "172252.185000", "172252.645000", "172253.105000", "172253.565000", "172254.025000", "172254.485000", "172254.945000", "172255.405000", "172255.865000", "172256.325000", "172256.785000", "172257.245000", "172257.705000", "172258.165000", "172258.625000", "172259.085000", "172259.545000", "172300.005000", "172300.465000", "172300.925000", "172301.385000", "172301.845000", "172302.305000", "172302.765000", "172303.225000", "172303.685000", "172304.145000", "172304.605000", "172305.065000", "172305.525000", "172305.985000", "172306.445000", "172306.905000", "172307.365000", "172307.825000", "172308.285000", "172308.745000", "172309.205000", "172309.665000", "172310.125000", "172310.585000", "172311.045000", "172311.505000", "172311.965000"],
