{
  "AcquisitionMatrixPE": 82,
  "AcquisitionNumber": 1,
  "AcquisitionTime": "20:46:49.570000",
  "BandwidthPerPixelPhaseEncode": 24.888,
  "BaseResolution": 82,
  "BodyPartExamined": "BRAIN",
  "ConsistencyInfo": "N4_VE11E_LATEST_20181129",
  "ConversionSoftware": "dcm2niix",
  "ConversionSoftwareVersion": "v1.0.20201102",
  "DerivedVendorReportedEchoSpacing": 0.00049,
  "DeviceSerialNumber": "66112",
  "DwellTime": 2e-06,
  "EchoTime": 0.0272,
  "EchoTrainLength": 82,
  "EffectiveEchoSpacing": 0.00049,
  "FlipAngle": 44,
  "ImageComments": "Unaliased MB8/PE3",
  "ImageOrientationPatientDICOM": [0.996967, -0.0450047, 0.0634883, 0.0367314, 0.991358, 0.125941],
  "ImageType": [
    "ORIGINAL",
    "PRIMARY",
    "M",
    "MB",
    "ND",
    "NORM",
    "MOSAIC"
],
  "ImagingFrequency": 123.252,
  "InPlanePhaseEncodingDirectionDICOM": "COL",
  "InstitutionAddress": "Maynard 3,Hanover,NH,US,03755",
  "InstitutionName": "Dartmouth College - PBS",
  "InstitutionalDepartmentName": "Department",
  "MRAcquisitionType": "2D",
  "MagneticFieldStrength": 3,
  "Manufacturer": "Siemens",
  "ManufacturersModelName": "Prisma",
  "Modality": "MR",
  "MultibandAccelerationFactor": 8,
  "PartialFourier": 1,
  "PatientPosition": "HFS",
  "PercentPhaseFOV": 100,
  "PercentSampling": 100,
  "PhaseEncodingDirection": "j-",
  "PhaseEncodingSteps": 82,
  "PhaseResolution": 1,
  "PixelBandwidth": 3050,
  "ProcedureStepDescription": "Wager_Wager^1076_spacetop",
  "ProtocolName": "func_run-02_task-social_acq-ap-mb8",
  "PulseSequenceDetails": "%CustomerSeq%\\cmrr_mbep2d_bold",
  "ReceiveCoilActiveElements": "HEA;HEP",
  "ReceiveCoilName": "Head_32",
  "ReconMatrixPE": 82,
  "RepetitionTime": 0.46,
  "SAR": 0.0979923,
  "ScanOptions": "FS",
  "ScanningSequence": "EP",
  "SequenceName": "epfid2d1_82",
  "SequenceVariant": "SK\\SS",
  "SeriesDescription": "func_run-02_task-social_acq-ap-mb8",
  "SeriesNumber": 14,
  "ShimSetting": [4157, -7772, -7220, 591, -120, -213, -10, 56],
  "SliceThickness": 2.7,
  "SliceTiming": [0, 0.2525, 0.0625, 0.315, 0.1275, 0.3775, 0.19, 0, 0.2525, 0.0625, 0.315, 0.1275, 0.3775, 0.19, 0, 0.2525, 0.0625, 0.315, 0.1275, 0.3775, 0.19, 0, 0.2525, 0.0625, 0.315, 0.1275, 0.3775, 0.19, 0, 0.2525, 0.0625, 0.315, 0.1275, 0.3775, 0.19, 0, 0.2525, 0.0625, 0.315, 0.1275, 0.3775, 0.19, 0, 0.2525, 0.0625, 0.315, 0.1275, 0.3775, 0.19, 0, 0.2525, 0.0625, 0.315, 0.1275, 0.3775, 0.19],
  "SoftwareVersions": "syngo MR E11",
  "SpacingBetweenSlices": 2.7,
  "StationName": "AWP66112",
  "TaskName": "social",
  "TotalReadoutTime": 0.03969,
  "TxRefAmp": 231.454,
  "WipMemBlock": "8e92d03e-26df-41e6-b3cf-2a6d86d8a610||Sequence: R016 ve11e/master r/434b28f1; Aug  7 2019 18:53:46 by eja",
  "dcmmeta_affine": [
    [-2.674790382385254, 0.09854762256145477, 0.18524044752120972, 101.73551940917969],
    [0.12074438482522964, 2.6597397327423096, 0.3327127993106842, -107.82709503173828],
    [0.1703345626592636, -0.33789026737213135, 2.673011064529419, -44.94767379760742],
    [0.0, 0.0, 0.0, 1.0]
],
  "dcmmeta_reorient_transform": [
    [0.0, -1.0, 0.0, 81.0],
    [1.0, 0.0, 0.0, 0.0],
    [0.0, 0.0, 1.0, 0.0],
    [0.0, 0.0, 0.0, 1.0]
],
  "dcmmeta_shape": [82, 82, 56, 872],
  "dcmmeta_slice_dim": 2,
  "dcmmeta_version": 0.6,
  "global": {
    "const": {
      "AccessionNumber": "A004079",
      "AcquisitionMatrix": [82, 0, 0, 82],
      "AngioFlag": "N",
      "BitsAllocated": 16,
      "BitsStored": 16,
      "BodyPartExamined": "BRAIN",
      "Columns": 656,
      "EchoNumbers": 1,
      "EchoTime": 27.2,
      "EchoTrainLength": 82,
      "FlipAngle": 44.0,
      "HighBit": 15,
      "ImageOrientationPatient": [0.99696730458446, -0.0450047228272, 0.06348833367516, 0.03673138579519, 0.99135749929589, 0.12594091427083],
      "ImagePositionPatient": [-905.66588678292, -836.30347913322, -218.1773106483],
      "ImageType": [
        "ORIGINAL",
        "PRIMARY",
        "M",
        "MB",
        "ND",
        "NORM",
        "MOSAIC"
],
      "ImagedNucleus": "1H",
      "ImagingFrequency": 123.252173,
      "InPlanePhaseEncodingDirection": "COL",
      "MRAcquisitionType": "2D",
      "MagneticFieldStrength": 3.0,
      "Manufacturer": "SIEMENS",
      "ManufacturerModelName": "Prisma",
      "Modality": "MR",
      "NumberOfAverages": 1.0,
      "NumberOfPhaseEncodingSteps": 82,
      "PercentPhaseFieldOfView": 100.0,
      "PercentSampling": 100.0,
      "PerformedProcedureStepStartTime": "200622.494000",
      "PhotometricInterpretation": "MONOCHROME2",
      "PixelBandwidth": 3050.0,
      "PixelRepresentation": 0,
      "PixelSpacing": [2.6829268932343, 2.6829268932343],
      "ProtocolName": "func_run-02_task-social_acq-ap-mb8",
      "RepetitionTime": 460.0,
      "Rows": 656,
      "SAR": 0.0979922624164,
      "SamplesPerPixel": 1,
      "ScanOptions": "FS",
      "ScanningSequence": "EP",
      "SequenceName": "epfid2d1_82",
      "SequenceVariant": [
        "SK",
        "SS"
],
      "SeriesDescription": "func_run-02_task-social_acq-ap-mb8",
      "SeriesNumber": 14,
      "SeriesTime": "204709.475000",
      "SliceLocation": -50.805759972426,
      "SliceThickness": 2.7000000476837,
      "SmallestImagePixelValue": 0,
      "SoftwareVersions": "syngo MR E11",
      "SpacingBetweenSlices": 2.7000000171896,
      "SpecificCharacterSet": "ISO_IR 100",
      "StudyID": "5",
      "StudyTime": "200622.388000",
      "TransmitCoilName": "Body",
      "VariableFlipAngleFlag": "N",
      "WindowCenterWidthExplanation": "Algo1"
    },
    "slices": {}
  },
  "time": {
    "samples": {
      "AcquisitionNumber": [1, 2, 3, 4, 5, 6, 7, 8, 9, 10, 11, 12, 13, 14, 15, 16, 17, 18, 19, 20, 21, 22, 23, 24, 25, 26, 27, 28, 29, 30, 31, 32, 33, 34, 35, 36, 37, 38, 39, 40, 41, 42, 43, 44, 45, 46, 47, 48, 49, 50, 51, 52, 53, 54, 55, 56, 57, 58, 59, 60, 61, 62, 63, 64, 65, 66, 67, 68, 69, 70, 71, 72, 73, 74, 75, 76, 77, 78, 79, 80, 81, 82, 83, 84, 85, 86, 87, 88, 89, 90, 91, 92, 93, 94, 95, 96, 97, 98, 99, 100, 101, 102, 103, 104, 105, 106, 107, 108, 109, 110, 111, 112, 113, 114, 115, 116, 117, 118, 119, 120, 121, 122, 123, 124, 125, 126, 127, 128, 129, 130, 131, 132, 133, 134, 135, 136, 137, 138, 139, 140, 141, 142, 143, 144, 145, 146, 147, 148, 149, 150, 151, 152, 153, 154, 155, 156, 157, 158, 159, 160, 161, 162, 163, 164, 165, 166, 167, 168, 169, 170, 171, 172, 173, 174, 175, 176, 177, 178, 179, 180, 181, 182, 183, 184, 185, 186, 187, 188, 189, 190, 191, 192, 193, 194, 195, 196, 197, 198, 199, 200, 201, 202, 203, 204, 205, 206, 207, 208, 209, 210, 211, 212, 213, 214, 215, 216, 217, 218, 219, 220, 221, 222, 223, 224, 225, 226, 227, 228, 229, 230, 231, 232, 233, 234, 235, 236, 237, 238, 239, 240, 241, 242, 243, 244, 245, 246, 247, 248, 249, 250, 251, 252, 253, 254, 255, 256, 257, 258, 259, 260, 261, 262, 263, 264, 265, 266, 267, 268, 269, 270, 271, 272, 273, 274, 275, 276, 277, 278, 279, 280, 281, 282, 283, 284, 285, 286, 287, 288, 289, 290, 291, 292, 293, 294, 295, 296, 297, 298, 299, 300, 301, 302, 303, 304, 305, 306, 307, 308, 309, 310, 311, 312, 313, 314, 315, 316, 317, 318, 319, 320, 321, 322, 323, 324, 325, 326, 327, 328, 329, 330, 331, 332, 333, 334, 335, 336, 337, 338, 339, 340, 341, 342, 343, 344, 345, 346, 347, 348, 349, 350, 351, 352, 353, 354, 355, 356, 357, 358, 359, 360, 361, 362, 363, 364, 365, 366, 367, 368, 369, 370, 371, 372, 373, 374, 375, 376, 377, 378, 379, 380, 381, 382, 383, 384, 385, 386, 387, 388, 389, 390, 391, 392, 393, 394, 395, 396, 397, 398, 399, 400, 401, 402, 403, 404, 405, 406, 407, 408, 409, 410, 411, 412, 413, 414, 415, 416, 417, 418, 419, 420, 421, 422, 423, 424, 425, 426, 427, 428, 429, 430, 431, 432, 433, 434, 435, 436, 437, 438, 439, 440, 441, 442, 443, 444, 445, 446, 447, 448, 449, 450, 451, 452, 453, 454, 455, 456, 457, 458, 459, 460, 461, 462, 463, 464, 465, 466, 467, 468, 469, 470, 471, 472, 473, 474, 475, 476, 477, 478, 479, 480, 481, 482, 483, 484, 485, 486, 487, 488, 489, 490, 491, 492, 493, 494, 495, 496, 497, 498, 499, 500, 501, 502, 503, 504, 505, 506, 507, 508, 509, 510, 511, 512, 513, 514, 515, 516, 517, 518, 519, 520, 521, 522, 523, 524, 525, 526, 527, 528, 529, 530, 531, 532, 533, 534, 535, 536, 537, 538, 539, 540, 541, 542, 543, 544, 545, 546, 547, 548, 549, 550, 551, 552, 553, 554, 555, 556, 557, 558, 559, 560, 561, 562, 563, 564, 565, 566, 567, 568, 569, 570, 571, 572, 573, 574, 575, 576, 577, 578, 579, 580, 581, 582, 583, 584, 585, 586, 587, 588, 589, 590, 591, 592, 593, 594, 595, 596, 597, 598, 599, 600, 601, 602, 603, 604, 605, 606, 607, 608, 609, 610, 611, 612, 613, 614, 615, 616, 617, 618, 619, 620, 621, 622, 623, 624, 625, 626, 627, 628, 629, 630, 631, 632, 633, 634, 635, 636, 637, 638, 639, 640, 641, 642, 643, 644, 645, 646, 647, 648, 649, 650, 651, 652, 653, 654, 655, 656, 657, 658, 659, 660, 661, 662, 663, 664, 665, 666, 667, 668, 669, 670, 671, 672, 673, 674, 675, 676, 677, 678, 679, 680, 681, 682, 683, 684, 685, 686, 687, 688, 689, 690, 691, 692, 693, 694, 695, 696, 697, 698, 699, 700, 701, 702, 703, 704, 705, 706, 707, 708, 709, 710, 711, 712, 713, 714, 715, 716, 717, 718, 719, 720, 721, 722, 723, 724, 725, 726, 727, 728, 729, 730, 731, 732, 733, 734, 735, 736, 737, 738, 739, 740, 741, 742, 743, 744, 745, 746, 747, 748, 749, 750, 751, 752, 753, 754, 755, 756, 757, 758, 759, 760, 761, 762, 763, 764, 765, 766, 767, 768, 769, 770, 771, 772, 773, 774, 775, 776, 777, 778, 779, 780, 781, 782, 783, 784, 785, 786, 787, 788, 789, 790, 791, 792, 793, 794, 795, 796, 797, 798, 799, 800, 801, 802, 803, 804, 805, 806, 807, 808, 809, 810, 811, 812, 813, 814, 815, 816, 817, 818, 819, 820, 821, 822, 823, 824, 825, 826, 827, 828, 829, 830, 831, 832, 833, 834, 835, 836, 837, 838, 839, 840, 841, 842, 843, 844, 845, 846, 847, 848, 849, 850, 851, 852, 853, 854, 855, 856, 857, 858, 859, 860, 861, 862, 863, 864, 865, 866, 867, 868, 869, 870, 871, 872],
      "AcquisitionTime": ["204649.570000", "204650.030000", "204650.490000", "204650.950000", "204651.410000", "204651.870000", "204652.330000", "204652.790000", "204653.250000", "204653.710000", "204654.170000", "204654.630000", "204655.090000", "204655.550000", "204656.010000", "204656.470000", "204656.930000", "204657.390000", "204657.850000", "204658.310000", "204658.770000", "204659.230000", "204659.690000", "204700.150000", "204700.610000", "204701.070000", "204701.530000", "204701.990000", "204702.450000", "204702.910000", "204703.370000", "204703.830000", "204704.290000", "204704.750000", "204705.210000", "204705.670000", "204706.130000", "204706.590000", "204707.050000", "204707.510000", "204707.970000", "204708.430000", "204708.890000", "204709.350000", "204709.810000", "204710.270000", "204710.730000", "204711.190000", "204711.650000", "204712.110000", "204712.570000", "204713.030000", "204713.490000", "204713.950000", "204714.410000", "204714.870000", "204715.330000", "204715.790000", "204716.250000", "204716.710000", "204717.170000", "204717.630000", "204718.090000", "204718.550000", "204719.010000", "204719.470000", "204719.930000", "204720.390000", "204720.850000", "204721.310000", "204721.770000", "204722.230000", "204722.690000", "204723.150000", "204723.610000", "204724.070000", "204724.530000", "204724.990000", "204725.450000", "204725.910000", "204726.370000", "204726.830000", "204727.290000", "204727.750000", "204728.210000", "204728.670000", "204729.130000", "204729.590000", "204730.050000", "204730.510000", "204730.970000", "204731.430000", "204731.890000", "204732.350000", "204732.810000", "204733.270000", "204733.730000", "204734.190000", "204734.650000", "204735.110000", "204735.570000", "204736.030000", "204736.490000", "204736.950000", "204737.410000", "204737.870000", "204738.330000", "204738.790000", "204739.250000", "204739.710000", "204740.170000", "204740.630000", "204741.090000", "204741.550000", "204742.010000", "204742.470000", "204742.930000", "204743.390000", "204743.850000", "204744.310000", "204744.770000", "204745.230000", "204745.690000", "204746.150000", "204746.610000", "204747.070000", "204747.530000", "204747.990000", "204748.450000", "204748.910000", "204749.370000", "204749.830000", "204750.290000", "204750.750000", "204751.210000", "204751.670000", "204752.130000", "204752.590000", "204753.050000", "204753.510000", "204753.970000", "204754.430000", "204754.890000", "204755.350000", "204755.810000", "204756.270000", "204756.730000", "204757.190000", "204757.650000", "204758.110000", "204758.570000", "204759.030000", "204759.490000", "204759.950000", "204800.410000", "204800.870000", "204801.330000", "204801.790000", "204802.250000", "204802.710000", "204803.170000", "204803.630000", "204804.090000", "204804.550000", "204805.010000", "204805.470000", "204805.930000", "204806.390000", "204806.850000", "204807.310000", "204807.770000", "204808.230000", "204808.690000", "204809.150000", "204809.610000", "204810.070000", "204810.530000", "204810.990000", "204811.450000", "204811.910000", "204812.370000", "204812.830000", "204813.290000", "204813.750000", "204814.210000", "204814.670000", "204815.130000", "204815.590000", "204816.050000", "204816.510000", "204816.970000", "204817.430000", "204817.890000", "204818.350000", "204818.810000", "204819.270000", "204819.730000", "204820.190000", "204820.650000", "204821.110000", "204821.570000", "204822.030000", "204822.490000", "204822.950000", "204823.410000", "204823.870000", "204824.330000", "204824.790000", "204825.250000", "204825.710000", "204826.170000", "204826.630000", "204827.090000", "204827.550000", "204828.010000", "204828.470000", "204828.930000", "204829.390000", "204829.850000", "204830.310000", "204830.770000", "204831.230000", "204831.690000", "204832.150000", "204832.610000", "204833.070000", "204833.530000", "204833.990000", "204834.450000", "204834.910000", "204835.370000", "204835.830000", "204836.290000", "204836.750000", "204837.210000", "204837.670000", "204838.130000", "204838.590000", "204839.050000", "204839.510000", "204839.970000", "204840.430000", "204840.890000", "204841.350000", "204841.810000", "204842.270000", "204842.730000", "204843.190000", "204843.650000", "204844.110000", "204844.570000", "204845.030000", "204845.490000", "204845.950000", "204846.410000", "204846.870000", "204847.330000", "204847.790000", "204848.250000", "204848.710000", "204849.170000", "204849.630000", "204850.090000", "204850.550000", "204851.010000", "204851.470000", "204851.930000", "204852.390000", "204852.850000", "204853.310000", "204853.770000", "204854.230000", "204854.690000", "204855.150000", "204855.610000", "204856.070000", "204856.530000", "204856.990000", "204857.450000", "204857.910000", "204858.370000", "204858.830000", "204859.290000", "204859.750000", "204900.210000", "204900.670000", "204901.130000", "204901.590000", "204902.050000", "204902.510000", "204902.970000", "204903.430000", "204903.890000", "204904.350000", "204904.810000", "204905.270000", "204905.730000", "204906.190000", "204906.650000", "204907.110000", "204907.570000", "204908.030000", "204908.490000", "204908.950000", "204909.410000", "204909.870000", "204910.330000", "204910.790000", "204911.250000", "204911.710000", "204912.170000", "204912.630000", "204913.090000", "204913.550000", "204914.010000", "204914.470000", "204914.930000", "204915.390000", "204915.850000", "204916.310000", "204916.770000", "204917.230000", "204917.690000", "204918.150000", "204918.610000", "204919.070000", "204919.530000", "204919.990000", "204920.450000", "204920.910000", "204921.370000", "204921.830000", "204922.290000", "204922.750000", "204923.210000", "204923.670000", "204924.130000", "204924.590000", "204925.050000", "204925.510000", "204925.970000", "204926.430000", "204926.890000", "204927.350000", "204927.810000", "204928.270000", "204928.730000", "204929.190000", "204929.650000", "204930.110000", "204930.570000", "204931.030000", "204931.490000", "204931.950000", "204932.410000", "204932.870000", "204933.330000", "204933.790000", "204934.250000", "204934.710000", "204935.170000", "204935.630000", "204936.090000", "204936.550000", "204937.010000", "204937.470000", "204937.930000", "204938.390000", "204938.850000", "204939.310000", "204939.770000", "204940.230000", "204940.690000", "204941.150000", "204941.610000", "204942.070000", "204942.530000", "204942.990000", "204943.450000", "204943.910000", "204944.370000", "204944.830000", "204945.290000", "204945.750000", "204946.210000", "204946.670000", "204947.130000", "204947.590000", "204948.050000", "204948.510000", "204948.970000", "204949.430000", "204949.890000", "204950.350000", "204950.810000", "204951.270000", "204951.730000", "204952.190000", "204952.650000", "204953.110000", "204953.570000", "204954.030000", "204954.490000", "204954.950000", "204955.410000", "204955.870000", "204956.330000", "204956.790000", "204957.250000", "204957.710000", "204958.170000", "204958.630000", "204959.090000", "204959.550000", "205000.010000", "205000.470000", "205000.930000", "205001.390000", "205001.850000", "205002.310000", "205002.770000", "205003.230000", "205003.690000", "205004.150000", "205004.610000", "205005.070000", "205005.530000", "205005.990000", "205006.450000", "205006.910000", "205007.370000", "205007.830000", "205008.290000", "205008.750000", "205009.210000", "205009.670000", "205010.130000", "205010.590000", "205011.050000", "205011.510000", "205011.970000", "205012.430000", "205012.890000", "205013.350000", "205013.810000", "205014.270000", "205014.730000", "205015.190000", "205015.650000", "205016.110000", "205016.570000", "205017.030000", "205017.490000", "205017.950000", "205018.410000", "205018.870000", "205019.330000", "205019.790000", "205020.250000", "205020.710000", "205021.170000", "205021.630000", "205022.090000", "205022.550000", "205023.010000", "205023.470000", "205023.930000", "205024.390000", "205024.850000", "205025.310000", "205025.770000", "205026.230000", "205026.690000", "205027.150000", "205027.610000", "205028.070000", "205028.530000", "205028.990000", "205029.450000", "205029.910000", "205030.370000", "205030.830000", "205031.290000", "205031.750000", "205032.210000", "205032.670000", "205033.130000", "205033.590000", "205034.050000", "205034.510000", "205034.970000", "205035.430000", "205035.890000", "205036.350000", "205036.810000", "205037.270000", "205037.730000", "205038.190000", "205038.650000", "205039.110000", "205039.570000", "205040.030000", "205040.490000", "205040.950000", "205041.410000", "205041.870000", "205042.330000", "205042.790000", "205043.250000", "205043.710000", "205044.170000", "205044.630000", "205045.090000", "205045.550000", "205046.010000", "205046.470000", "205046.930000", "205047.390000", "205047.850000", "205048.310000", "205048.770000", "205049.230000", "205049.690000", "205050.150000", "205050.610000", "205051.070000", "205051.530000", "205051.990000", "205052.450000", "205052.910000", "205053.370000", "205053.830000", "205054.290000", "205054.750000", "205055.210000", "205055.670000", "205056.130000", "205056.590000", "205057.050000", "205057.510000", "205057.970000", "205058.430000", "205058.890000", "205059.350000", "205059.810000", "205100.270000", "205100.730000", "205101.190000", "205101.650000", "205102.110000", "205102.570000", "205103.030000", "205103.490000", "205103.950000", "205104.410000", "205104.870000", "205105.330000", "205105.790000", "205106.250000", "205106.710000", "205107.170000", "205107.630000", "205108.090000", "205108.550000", "205109.010000", "205109.470000", "205109.930000", "205110.390000", "205110.850000", "205111.310000", "205111.770000", "205112.230000", "205112.690000", "205113.150000", "205113.610000", "205114.070000", "205114.530000", "205114.990000", "205115.450000", "205115.910000", "205116.370000", "205116.830000", "205117.290000", "205117.750000", "205118.210000", "205118.670000", "205119.130000", "205119.590000", "205120.050000", "205120.510000", "205120.970000", "205121.430000", "205121.890000", "205122.350000", "205122.810000", "205123.270000", "205123.730000", "205124.190000", "205124.650000", "205125.110000", "205125.570000", "205126.030000", "205126.490000", "205126.950000", "205127.410000", "205127.870000", "205128.330000", "205128.790000", "205129.250000", "205129.710000", "205130.170000", "205130.630000", "205131.090000", "205131.550000", "205132.010000", "205132.470000", "205132.930000", "205133.390000", "205133.850000", "205134.310000", "205134.770000", "205135.230000", "205135.690000", "205136.150000", "205136.610000", "205137.070000", "205137.530000", "205137.990000", "205138.450000", "205138.910000", "205139.370000", "205139.830000", "205140.290000", "205140.750000", "205141.210000", "205141.670000", "205142.130000", "205142.590000", "205143.050000", "205143.510000", "205143.970000", "205144.430000", "205144.890000", "205145.350000", "205145.810000", "205146.270000", "205146.730000", "205147.190000", "205147.650000", "205148.110000", "205148.570000", "205149.030000", "205149.490000", "205149.950000", "205150.410000", "205150.870000", "205151.330000", "205151.790000", "205152.250000", "205152.710000", "205153.170000", "205153.630000", "205154.090000", "205154.550000", "205155.010000", "205155.470000", "205155.930000", "205156.390000", "205156.850000", "205157.310000", "205157.770000", "205158.230000", "205158.690000", "205159.150000", "205159.610000", "205200.070000", "205200.530000", "205200.990000", "205201.450000", "205201.910000", "205202.370000", "205202.830000", "205203.290000", "205203.750000", "205204.210000", "205204.670000", "205205.130000", "205205.590000", "205206.050000", "205206.510000", "205206.970000", "205207.430000", "205207.890000", "205208.350000", "205208.810000", "205209.270000", "205209.730000", "205210.190000", "205210.650000", "205211.110000", "205211.570000", "205212.030000", "205212.490000", "205212.950000", "205213.410000", "205213.870000", "205214.330000", "205214.790000", "205215.250000", "205215.710000", "205216.170000", "205216.630000", "205217.090000", "205217.550000", "205218.010000", "205218.470000", "205218.930000", "205219.390000", "205219.850000", "205220.310000", "205220.770000", "205221.230000", "205221.690000", "205222.150000", "205222.610000", "205223.070000", "205223.530000", "205223.990000", "205224.450000", "205224.910000", "205225.370000", "205225.830000", "205226.290000", "205226.750000", "205227.210000", "205227.670000", "205228.130000", "205228.590000", "205229.050000", "205229.510000", "205229.970000", "205230.430000", "205230.890000", "205231.350000", "205231.810000", "205232.270000", "205232.730000", "205233.190000", "205233.650000", "205234.110000", "205234.570000", "205235.030000", "205235.490000", "205235.950000", "205236.410000", "205236.870000", "205237.330000", "205237.790000", "205238.250000", "205238.710000", "205239.170000", "205239.630000", "205240.090000", "205240.550000", "205241.010000", "205241.470000", "205241.930000", "205242.390000", "205242.850000", "205243.310000", "205243.770000", "205244.230000", "205244.690000", "205245.150000", "205245.610000", "205246.070000", "205246.530000", "205246.990000", "205247.450000", "205247.910000", "205248.370000", "205248.830000", "205249.290000", "205249.750000", "205250.210000", "205250.670000", "205251.130000", "205251.590000", "205252.050000", "205252.510000", "205252.970000", "205253.430000", "205253.890000", "205254.350000", "205254.810000", "205255.270000", "205255.730000", "205256.190000", "205256.650000", "205257.110000", "205257.570000", "205258.030000", "205258.490000", "205258.950000", "205259.410000", "205259.870000", "205300.330000", "205300.790000", "205301.250000", "205301.710000", "205302.170000", "205302.630000", "205303.090000", "205303.550000", "205304.010000", "205304.470000", "205304.930000", "205305.390000", "205305.850000", "205306.310000", "205306.770000", "205307.230000", "205307.690000", "205308.150000", "205308.610000", "205309.070000", "205309.530000", "205309.990000", "205310.450000", "205310.910000", "205311.370000", "205311.830000", "205312.290000", "205312.750000", "205313.210000", "205313.670000", "205314.130000", "205314.590000", "205315.050000", "205315.510000", "205315.970000", "205316.430000", "205316.890000", "205317.350000", "205317.810000", "205318.270000", "205318.730000", "205319.190000", "205319.650000", "205320.110000", "205320.570000", "205321.030000", "205321.490000", "205321.950000", "205322.410000", "205322.870000", "205323.330000", "205323.790000", "205324.250000", "205324.710000", "205325.170000", "205325.630000", "205326.090000", "205326.550000", "205327.010000", "205327.470000", "205327.930000", "205328.390000", "205328.850000", "205329.310000", "205329.770000", "205330.230000"],
