{
  "AcquisitionMatrixPE": 82,
  "AcquisitionNumber": 1,
  "AcquisitionTime": "20:54:24.832500",
  "BandwidthPerPixelPhaseEncode": 24.888,
  "BaseResolution": 82,
  "BodyPartExamined": "BRAIN",
  "ConsistencyInfo": "N4_VE11E_LATEST_20181129",
  "ConversionSoftware": "dcm2niix",
  "ConversionSoftwareVersion": "v1.0.20201102",
  "DerivedVendorReportedEchoSpacing": 0.00049,
  "DeviceSerialNumber": "66112",
  "DwellTime": 2e-06,
  "EchoTime": 0.0272,
  "EchoTrainLength": 82,
  "EffectiveEchoSpacing": 0.00049,
  "FlipAngle": 44,
  "ImageComments": "Unaliased MB8/PE3",
  "ImageOrientationPatientDICOM": [0.996967, -0.0450047, 0.0634883, 0.0367314, 0.991358, 0.125941],
  "ImageType": [
    "ORIGINAL",
    "PRIMARY",
    "M",
    "MB",
    "ND",
    "NORM",
    "MOSAIC"
],
  "ImagingFrequency": 123.252,
  "InPlanePhaseEncodingDirectionDICOM": "COL",
  "InstitutionAddress": "Maynard 3,Hanover,NH,US,03755",
  "InstitutionName": "Dartmouth College - PBS",
  "InstitutionalDepartmentName": "Department",
  "MRAcquisitionType": "2D",
  "MagneticFieldStrength": 3,
  "Manufacturer": "Siemens",
  "ManufacturersModelName": "Prisma",
  "Modality": "MR",
  "MultibandAccelerationFactor": 8,
  "PartialFourier": 1,
  "PatientPosition": "HFS",
  "PercentPhaseFOV": 100,
  "PercentSampling": 100,
  "PhaseEncodingDirection": "j-",
  "PhaseEncodingSteps": 82,
  "PhaseResolution": 1,
  "PixelBandwidth": 3050,
  "ProcedureStepDescription": "Wager_Wager^1076_spacetop",
  "ProtocolName": "func_run-03_task-social_acq-ap-mb8",
  "PulseSequenceDetails": "%CustomerSeq%\\cmrr_mbep2d_bold",
  "ReceiveCoilActiveElements": "HEA;HEP",
  "ReceiveCoilName": "Head_32",
  "ReconMatrixPE": 82,
  "RepetitionTime": 0.46,
  "SAR": 0.0979923,
  "ScanOptions": "FS",
  "ScanningSequence": "EP",
  "SequenceName": "epfid2d1_82",
  "SequenceVariant": "SK\\SS",
  "SeriesDescription": "func_run-03_task-social_acq-ap-mb8",
  "SeriesNumber": 16,
  "ShimSetting": [4157, -7772, -7220, 591, -120, -213, -10, 56],
  "SliceThickness": 2.7,
  "SliceTiming": [0, 0.2525, 0.0625, 0.315, 0.1275, 0.3775, 0.19, 0, 0.2525, 0.0625, 0.315, 0.1275, 0.3775, 0.19, 0, 0.2525, 0.0625, 0.315, 0.1275, 0.3775, 0.19, 0, 0.2525, 0.0625, 0.315, 0.1275, 0.3775, 0.19, 0, 0.2525, 0.0625, 0.315, 0.1275, 0.3775, 0.19, 0, 0.2525, 0.0625, 0.315, 0.1275, 0.3775, 0.19, 0, 0.2525, 0.0625, 0.315, 0.1275, 0.3775, 0.19, 0, 0.2525, 0.0625, 0.315, 0.1275, 0.3775, 0.19],
  "SoftwareVersions": "syngo MR E11",
  "SpacingBetweenSlices": 2.7,
  "StationName": "AWP66112",
  "TaskName": "social",
  "TotalReadoutTime": 0.03969,
  "TxRefAmp": 231.454,
  "WipMemBlock": "35a83588-7a8a-4218-87dd-4a30b5b072ae||Sequence: R016 ve11e/master r/434b28f1; Aug  7 2019 18:53:46 by eja",
  "dcmmeta_affine": [
    [-2.674790382385254, 0.09854762256145477, 0.18524044752120972, 101.73551940917969],
    [0.12074438482522964, 2.6597397327423096, 0.3327127993106842, -107.82709503173828],
    [0.1703345626592636, -0.33789026737213135, 2.673011064529419, -44.94767379760742],
    [0.0, 0.0, 0.0, 1.0]
],
  "dcmmeta_reorient_transform": [
    [0.0, -1.0, 0.0, 81.0],
    [1.0, 0.0, 0.0, 0.0],
    [0.0, 0.0, 1.0, 0.0],
    [0.0, 0.0, 0.0, 1.0]
],
  "dcmmeta_shape": [82, 82, 56, 872],
  "dcmmeta_slice_dim": 2,
  "dcmmeta_version": 0.6,
  "global": {
    "const": {
      "AccessionNumber": "A004079",
      "AcquisitionMatrix": [82, 0, 0, 82],
      "AngioFlag": "N",
      "BitsAllocated": 16,
      "BitsStored": 16,
      "BodyPartExamined": "BRAIN",
      "Columns": 656,
      "EchoNumbers": 1,
      "EchoTime": 27.2,
      "EchoTrainLength": 82,
      "FlipAngle": 44.0,
      "HighBit": 15,
      "ImageOrientationPatient": [0.99696730458446, -0.0450047228272, 0.06348833367516, 0.03673138579519, 0.99135749929589, 0.12594091427083],
      "ImagePositionPatient": [-905.66588678292, -836.30347913322, -218.1773106483],
      "ImageType": [
        "ORIGINAL",
        "PRIMARY",
        "M",
        "MB",
        "ND",
        "NORM",
        "MOSAIC"
],
      "ImagedNucleus": "1H",
      "ImagingFrequency": 123.252176,
      "InPlanePhaseEncodingDirection": "COL",
      "MRAcquisitionType": "2D",
      "MagneticFieldStrength": 3.0,
      "Manufacturer": "SIEMENS",
      "ManufacturerModelName": "Prisma",
      "Modality": "MR",
      "NumberOfAverages": 1.0,
      "NumberOfPhaseEncodingSteps": 82,
      "PercentPhaseFieldOfView": 100.0,
      "PercentSampling": 100.0,
      "PerformedProcedureStepStartTime": "200622.494000",
      "PhotometricInterpretation": "MONOCHROME2",
      "PixelBandwidth": 3050.0,
      "PixelRepresentation": 0,
      "PixelSpacing": [2.6829268932343, 2.6829268932343],
      "ProtocolName": "func_run-03_task-social_acq-ap-mb8",
      "RepetitionTime": 460.0,
      "Rows": 656,
      "SAR": 0.0979922624164,
      "SamplesPerPixel": 1,
      "ScanOptions": "FS",
      "ScanningSequence": "EP",
      "SequenceName": "epfid2d1_82",
      "SequenceVariant": [
        "SK",
        "SS"
],
      "SeriesDescription": "func_run-03_task-social_acq-ap-mb8",
      "SeriesNumber": 16,
      "SeriesTime": "205449.554000",
      "SliceLocation": -50.805759972426,
      "SliceThickness": 2.7000000476837,
      "SmallestImagePixelValue": 0,
      "SoftwareVersions": "syngo MR E11",
      "SpacingBetweenSlices": 2.7000000171896,
      "SpecificCharacterSet": "ISO_IR 100",
      "StudyID": "5",
      "StudyTime": "200622.388000",
      "TransmitCoilName": "Body",
      "VariableFlipAngleFlag": "N",
      "WindowCenterWidthExplanation": "Algo1"
    },
    "slices": {}
  },
  "time": {
    "samples": {
      "AcquisitionNumber": [1, 2, 3, 4, 5, 6, 7, 8, 9, 10, 11, 12, 13, 14, 15, 16, 17, 18, 19, 20, 21, 22, 23, 24, 25, 26, 27, 28, 29, 30, 31, 32, 33, 34, 35, 36, 37, 38, 39, 40, 41, 42, 43, 44, 45, 46, 47, 48, 49, 50, 51, 52, 53, 54, 55, 56, 57, 58, 59, 60, 61, 62, 63, 64, 65, 66, 67, 68, 69, 70, 71, 72, 73, 74, 75, 76, 77, 78, 79, 80, 81, 82, 83, 84, 85, 86, 87, 88, 89, 90, 91, 92, 93, 94, 95, 96, 97, 98, 99, 100, 101, 102, 103, 104, 105, 106, 107, 108, 109, 110, 111, 112, 113, 114, 115, 116, 117, 118, 119, 120, 121, 122, 123, 124, 125, 126, 127, 128, 129, 130, 131, 132, 133, 134, 135, 136, 137, 138, 139, 140, 141, 142, 143, 144, 145, 146, 147, 148, 149, 150, 151, 152, 153, 154, 155, 156, 157, 158, 159, 160, 161, 162, 163, 164, 165, 166, 167, 168, 169, 170, 171, 172, 173, 174, 175, 176, 177, 178, 179, 180, 181, 182, 183, 184, 185, 186, 187, 188, 189, 190, 191, 192, 193, 194, 195, 196, 197, 198, 199, 200, 201, 202, 203, 204, 205, 206, 207, 208, 209, 210, 211, 212, 213, 214, 215, 216, 217, 218, 219, 220, 221, 222, 223, 224, 225, 226, 227, 228, 229, 230, 231, 232, 233, 234, 235, 236, 237, 238, 239, 240, 241, 242, 243, 244, 245, 246, 247, 248, 249, 250, 251, 252, 253, 254, 255, 256, 257, 258, 259, 260, 261, 262, 263, 264, 265, 266, 267, 268, 269, 270, 271, 272, 273, 274, 275, 276, 277, 278, 279, 280, 281, 282, 283, 284, 285, 286, 287, 288, 289, 290, 291, 292, 293, 294, 295, 296, 297, 298, 299, 300, 301, 302, 303, 304, 305, 306, 307, 308, 309, 310, 311, 312, 313, 314, 315, 316, 317, 318, 319, 320, 321, 322, 323, 324, 325, 326, 327, 328, 329, 330, 331, 332, 333, 334, 335, 336, 337, 338, 339, 340, 341, 342, 343, 344, 345, 346, 347, 348, 349, 350, 351, 352, 353, 354, 355, 356, 357, 358, 359, 360, 361, 362, 363, 364, 365, 366, 367, 368, 369, 370, 371, 372, 373, 374, 375, 376, 377, 378, 379, 380, 381, 382, 383, 384, 385, 386, 387, 388, 389, 390, 391, 392, 393, 394, 395, 396, 397, 398, 399, 400, 401, 402, 403, 404, 405, 406, 407, 408, 409, 410, 411, 412, 413, 414, 415, 416, 417, 418, 419, 420, 421, 422, 423, 424, 425, 426, 427, 428, 429, 430, 431, 432, 433, 434, 435, 436, 437, 438, 439, 440, 441, 442, 443, 444, 445, 446, 447, 448, 449, 450, 451, 452, 453, 454, 455, 456, 457, 458, 459, 460, 461, 462, 463, 464, 465, 466, 467, 468, 469, 470, 471, 472, 473, 474, 475, 476, 477, 478, 479, 480, 481, 482, 483, 484, 485, 486, 487, 488, 489, 490, 491, 492, 493, 494, 495, 496, 497, 498, 499, 500, 501, 502, 503, 504, 505, 506, 507, 508, 509, 510, 511, 512, 513, 514, 515, 516, 517, 518, 519, 520, 521, 522, 523, 524, 525, 526, 527, 528, 529, 530, 531, 532, 533, 534, 535, 536, 537, 538, 539, 540, 541, 542, 543, 544, 545, 546, 547, 548, 549, 550, 551, 552, 553, 554, 555, 556, 557, 558, 559, 560, 561, 562, 563, 564, 565, 566, 567, 568, 569, 570, 571, 572, 573, 574, 575, 576, 577, 578, 579, 580, 581, 582, 583, 584, 585, 586, 587, 588, 589, 590, 591, 592, 593, 594, 595, 596, 597, 598, 599, 600, 601, 602, 603, 604, 605, 606, 607, 608, 609, 610, 611, 612, 613, 614, 615, 616, 617, 618, 619, 620, 621, 622, 623, 624, 625, 626, 627, 628, 629, 630, 631, 632, 633, 634, 635, 636, 637, 638, 639, 640, 641, 642, 643, 644, 645, 646, 647, 648, 649, 650, 651, 652, 653, 654, 655, 656, 657, 658, 659, 660, 661, 662, 663, 664, 665, 666, 667, 668, 669, 670, 671, 672, 673, 674, 675, 676, 677, 678, 679, 680, 681, 682, 683, 684, 685, 686, 687, 688, 689, 690, 691, 692, 693, 694, 695, 696, 697, 698, 699, 700, 701, 702, 703, 704, 705, 706, 707, 708, 709, 710, 711, 712, 713, 714, 715, 716, 717, 718, 719, 720, 721, 722, 723, 724, 725, 726, 727, 728, 729, 730, 731, 732, 733, 734, 735, 736, 737, 738, 739, 740, 741, 742, 743, 744, 745, 746, 747, 748, 749, 750, 751, 752, 753, 754, 755, 756, 757, 758, 759, 760, 761, 762, 763, 764, 765, 766, 767, 768, 769, 770, 771, 772, 773, 774, 775, 776, 777, 778, 779, 780, 781, 782, 783, 784, 785, 786, 787, 788, 789, 790, 791, 792, 793, 794, 795, 796, 797, 798, 799, 800, 801, 802, 803, 804, 805, 806, 807, 808, 809, 810, 811, 812, 813, 814, 815, 816, 817, 818, 819, 820, 821, 822, 823, 824, 825, 826, 827, 828, 829, 830, 831, 832, 833, 834, 835, 836, 837, 838, 839, 840, 841, 842, 843, 844, 845, 846, 847, 848, 849, 850, 851, 852, 853, 854, 855, 856, 857, 858, 859, 860, 861, 862, 863, 864, 865, 866, 867, 868, 869, 870, 871, 872],
      "AcquisitionTime": ["205424.832500", "205425.292500", "205425.752500", "205426.212500", "205426.672500", "205427.132500", "205427.592500", "205428.052500", "205428.512500", "205428.972500", "205429.432500", "205429.892500", "205430.352500", "205430.812500", "205431.272500", "205431.732500", "205432.192500", "205432.652500", "205433.112500", "205433.572500", "205434.032500", "205434.492500", "205434.952500", "205435.412500", "205435.872500", "205436.332500", "205436.792500", "205437.252500", "205437.712500", "205438.172500", "205438.632500", "205439.092500", "205439.552500", "205440.012500", "205440.472500", "205440.932500", "205441.392500", "205441.852500", "205442.312500", "205442.772500", "205443.232500", "205443.692500", "205444.152500", "205444.612500", "205445.072500", "205445.532500", "205445.992500", "205446.452500", "205446.912500", "205447.372500", "205447.832500", "205448.292500", "205448.752500", "205449.212500", "205449.672500", "205450.132500", "205450.592500", "205451.052500", "205451.512500", "205451.972500", "205452.432500", "205452.892500", "205453.352500", "205453.812500", "205454.272500", "205454.732500", "205455.192500", "205455.652500", "205456.112500", "205456.572500", "205457.032500", "205457.492500", "205457.952500", "205458.412500", "205458.872500", "205459.332500", "205459.792500", "205500.252500", "205500.712500", "205501.172500", "205501.632500", "205502.092500", "205502.552500", "205503.012500", "205503.472500", "205503.932500", "205504.392500", "205504.852500", "205505.312500", "205505.772500", "205506.232500", "205506.692500", "205507.152500", "205507.612500", "205508.072500", "205508.532500", "205508.992500", "205509.452500", "205509.912500", "205510.372500", "205510.832500", "205511.292500", "205511.752500", "205512.212500", "205512.672500", "205513.132500", "205513.592500", "205514.052500", "205514.512500", "205514.972500", "205515.432500", "205515.892500", "205516.352500", "205516.812500", "205517.272500", "205517.732500", "205518.192500", "205518.652500", "205519.112500", "205519.572500", "205520.032500", "205520.492500", "205520.952500", "205521.412500", "205521.872500", "205522.332500", "205522.792500", "205523.252500", "205523.712500", "205524.172500", "205524.632500", "205525.092500", "205525.552500", "205526.012500", "205526.472500", "205526.932500", "205527.392500", "205527.852500", "205528.312500", "205528.772500", "205529.232500", "205529.692500", "205530.152500", "205530.612500", "205531.072500", "205531.532500", "205531.992500", "205532.452500", "205532.912500", "205533.372500", "205533.832500", "205534.292500", "205534.752500", "205535.212500", "205535.672500", "205536.132500", "205536.592500", "205537.052500", "205537.512500", "205537.972500", "205538.432500", "205538.892500", "205539.352500", "205539.812500", "205540.272500", "205540.732500", "205541.192500", "205541.652500", "205542.112500", "205542.572500", "205543.032500", "205543.492500", "205543.952500", "205544.412500", "205544.872500", "205545.332500", "205545.792500", "205546.252500", "205546.712500", "205547.172500", "205547.632500", "205548.092500", "205548.552500", "205549.012500", "205549.472500", "205549.932500", "205550.392500", "205550.852500", "205551.312500", "205551.772500", "205552.232500", "205552.692500", "205553.152500", "205553.612500", "205554.072500", "205554.532500", "205554.992500", "205555.452500", "205555.912500", "205556.372500", "205556.832500", "205557.292500", "205557.752500", "205558.212500", "205558.672500", "205559.132500", "205559.592500", "205600.052500", "205600.512500", "205600.972500", "205601.432500", "205601.892500", "205602.352500", "205602.812500", "205603.272500", "205603.732500", "205604.192500", "205604.652500", "205605.112500", "205605.572500", "205606.032500", "205606.492500", "205606.952500", "205607.412500", "205607.872500", "205608.332500", "205608.792500", "205609.252500", "205609.712500", "205610.172500", "205610.632500", "205611.092500", "205611.552500", "205612.012500", "205612.472500", "205612.932500", "205613.392500", "205613.852500", "205614.312500", "205614.772500", "205615.232500", "205615.692500", "205616.152500", "205616.612500", "205617.072500", "205617.532500", "205617.992500", "205618.452500", "205618.912500", "205619.372500", "205619.832500", "205620.292500", "205620.752500", "205621.212500", "205621.672500", "205622.132500", "205622.592500", "205623.052500", "205623.512500", "205623.972500", "205624.432500", "205624.892500", "205625.352500", "205625.812500", "205626.272500", "205626.732500", "205627.192500", "205627.652500", "205628.112500", "205628.572500", "205629.032500", "205629.492500", "205629.952500", "205630.412500", "205630.872500", "205631.332500", "205631.792500", "205632.252500", "205632.712500", "205633.172500", "205633.632500", "205634.092500", "205634.552500", "205635.012500", "205635.472500", "205635.932500", "205636.392500", "205636.852500", "205637.312500", "205637.772500", "205638.232500", "205638.692500", "205639.152500", "205639.612500", "205640.072500", "205640.532500", "205640.992500", "205641.452500", "205641.912500", "205642.372500", "205642.832500", "205643.292500", "205643.752500", "205644.212500", "205644.672500", "205645.132500", "205645.592500", "205646.052500", "205646.512500", "205646.972500", "205647.432500", "205647.892500", "205648.352500", "205648.812500", "205649.272500", "205649.732500", "205650.192500", "205650.652500", "205651.112500", "205651.572500", "205652.032500", "205652.492500", "205652.952500", "205653.412500", "205653.872500", "205654.332500", "205654.792500", "205655.252500", "205655.712500", "205656.172500", "205656.632500", "205657.092500", "205657.552500", "205658.012500", "205658.472500", "205658.932500", "205659.392500", "205659.852500", "205700.312500", "205700.772500", "205701.232500", "205701.692500", "205702.152500", "205702.612500", "205703.072500", "205703.532500", "205703.992500", "205704.452500", "205704.912500", "205705.372500", "205705.832500", "205706.292500", "205706.752500", "205707.212500", "205707.672500", "205708.132500", "205708.592500", "205709.052500", "205709.512500", "205709.972500", "205710.432500", "205710.892500", "205711.352500", "205711.812500", "205712.272500", "205712.732500", "205713.192500", "205713.652500", "205714.112500", "205714.572500", "205715.032500", "205715.492500", "205715.952500", "205716.412500", "205716.872500", "205717.332500", "205717.792500", "205718.252500", "205718.712500", "205719.172500", "205719.632500", "205720.092500", "205720.552500", "205721.012500", "205721.472500", "205721.932500", "205722.392500", "205722.852500", "205723.312500", "205723.772500", "205724.232500", "205724.692500", "205725.152500", "205725.612500", "205726.072500", "205726.532500", "205726.992500", "205727.452500", "205727.912500", "205728.372500", "205728.832500", "205729.292500", "205729.752500", "205730.212500", "205730.672500", "205731.132500", "205731.592500", "205732.052500", "205732.512500", "205732.972500", "205733.432500", "205733.892500", "205734.352500", "205734.812500", "205735.272500", "205735.732500", "205736.192500", "205736.652500", "205737.112500", "205737.572500", "205738.032500", "205738.492500", "205738.952500", "205739.412500", "205739.872500", "205740.332500", "205740.792500", "205741.252500", "205741.712500", "205742.172500", "205742.632500", "205743.092500", "205743.552500", "205744.012500", "205744.472500", "205744.932500", "205745.392500", "205745.852500", "205746.312500", "205746.772500", "205747.232500", "205747.692500", "205748.152500", "205748.612500", "205749.072500", "205749.532500", "205749.992500", "205750.452500", "205750.912500", "205751.372500", "205751.832500", "205752.292500", "205752.752500", "205753.212500", "205753.672500", "205754.132500", "205754.592500", "205755.052500", "205755.512500", "205755.972500", "205756.432500", "205756.892500", "205757.352500", "205757.812500", "205758.272500", "205758.732500", "205759.192500", "205759.652500", "205800.112500", "205800.572500", "205801.032500", "205801.492500", "205801.952500", "205802.412500", "205802.872500", "205803.332500", "205803.792500", "205804.252500", "205804.712500", "205805.172500", "205805.632500", "205806.092500", "205806.552500", "205807.012500", "205807.472500", "205807.932500", "205808.392500", "205808.852500", "205809.312500", "205809.772500", "205810.232500", "205810.692500", "205811.152500", "205811.612500", "205812.072500", "205812.532500", "205812.992500", "205813.452500", "205813.912500", "205814.372500", "205814.832500", "205815.292500", "205815.752500", "205816.212500", "205816.672500", "205817.132500", "205817.592500", "205818.052500", "205818.512500", "205818.972500", "205819.432500", "205819.892500", "205820.352500", "205820.812500", "205821.272500", "205821.732500", "205822.192500", "205822.652500", "205823.112500", "205823.572500", "205824.032500", "205824.492500", "205824.952500", "205825.412500", "205825.872500", "205826.332500", "205826.792500", "205827.252500", "205827.712500", "205828.172500", "205828.632500", "205829.092500", "205829.552500", "205830.012500", "205830.472500", "205830.932500", "205831.392500", "205831.852500", "205832.312500", "205832.772500", "205833.232500", "205833.692500", "205834.152500", "205834.612500", "205835.072500", "205835.532500", "205835.992500", "205836.452500", "205836.912500", "205837.372500", "205837.832500", "205838.292500", "205838.752500", "205839.212500", "205839.672500", "205840.132500", "205840.592500", "205841.052500", "205841.512500", "205841.972500", "205842.432500", "205842.892500", "205843.352500", "205843.812500", "205844.272500", "205844.732500", "205845.192500", "205845.652500", "205846.112500", "205846.572500", "205847.032500", "205847.492500", "205847.952500", "205848.412500", "205848.872500", "205849.332500", "205849.792500", "205850.252500", "205850.712500", "205851.172500", "205851.632500", "205852.092500", "205852.552500", "205853.012500", "205853.472500", "205853.932500", "205854.392500", "205854.852500", "205855.312500", "205855.772500", "205856.232500", "205856.692500", "205857.152500", "205857.612500", "205858.072500", "205858.532500", "205858.992500", "205859.452500", "205859.912500", "205900.372500", "205900.832500", "205901.292500", "205901.752500", "205902.212500", "205902.672500", "205903.132500", "205903.592500", "205904.052500", "205904.512500", "205904.972500", "205905.432500", "205905.892500", "205906.352500", "205906.812500", "205907.272500", "205907.732500", "205908.192500", "205908.652500", "205909.112500", "205909.572500", "205910.032500", "205910.492500", "205910.952500", "205911.412500", "205911.872500", "205912.332500", "205912.792500", "205913.252500", "205913.712500", "205914.172500", "205914.632500", "205915.092500", "205915.552500", "205916.012500", "205916.472500", "205916.932500", "205917.392500", "205917.852500", "205918.312500", "205918.772500", "205919.232500", "205919.692500", "205920.152500", "205920.612500", "205921.072500", "205921.532500", "205921.992500", "205922.452500", "205922.912500", "205923.372500", "205923.832500", "205924.292500", "205924.752500", "205925.212500", "205925.672500", "205926.132500", "205926.592500", "205927.052500", "205927.512500", "205927.972500", "205928.432500", "205928.892500", "205929.352500", "205929.812500", "205930.272500", "205930.732500", "205931.192500", "205931.652500", "205932.112500", "205932.572500", "205933.032500", "205933.492500", "205933.952500", "205934.412500", "205934.872500", "205935.332500", "205935.792500", "205936.252500", "205936.712500", "205937.172500", "205937.632500", "205938.092500", "205938.552500", "205939.012500", "205939.472500", "205939.932500", "205940.392500", "205940.852500", "205941.312500", "205941.772500", "205942.232500", "205942.692500", "205943.152500", "205943.612500", "205944.072500", "205944.532500", "205944.992500", "205945.452500", "205945.912500", "205946.372500", "205946.832500", "205947.292500", "205947.752500", "205948.212500", "205948.672500", "205949.132500", "205949.592500", "205950.052500", "205950.512500", "205950.972500", "205951.432500", "205951.892500", "205952.352500", "205952.812500", "205953.272500", "205953.732500", "205954.192500", "205954.652500", "205955.112500", "205955.572500", "205956.032500", "205956.492500", "205956.952500", "205957.412500", "205957.872500", "205958.332500", "205958.792500", "205959.252500", "205959.712500", "210000.172500", "210000.632500", "210001.092500", "210001.552500", "210002.012500", "210002.472500", "210002.932500", "210003.392500", "210003.852500", "210004.312500", "210004.772500", "210005.232500", "210005.692500", "210006.152500", "210006.612500", "210007.072500", "210007.532500", "210007.992500", "210008.452500", "210008.912500", "210009.372500", "210009.832500", "210010.292500", "210010.752500", "210011.212500", "210011.672500", "210012.132500", "210012.592500", "210013.052500", "210013.512500", "210013.972500", "210014.432500", "210014.892500", "210015.352500", "210015.812500", "210016.272500", "210016.732500", "210017.192500", "210017.652500", "210018.112500", "210018.572500", "210019.032500", "210019.492500", "210019.952500", "210020.412500", "210020.872500", "210021.332500", "210021.792500", "210022.252500", "210022.712500", "210023.172500", "210023.632500", "210024.092500", "210024.552500", "210025.012500", "210025.472500", "210025.932500", "210026.392500", "210026.852500", "210027.312500", "210027.772500", "210028.232500", "210028.692500", "210029.152500", "210029.612500", "210030.072500", "210030.532500", "210030.992500", "210031.452500", "210031.912500", "210032.372500", "210032.832500", "210033.292500", "210033.752500", "210034.212500", "210034.672500", "210035.132500", "210035.592500", "210036.052500", "210036.512500", "210036.972500", "210037.432500", "210037.892500", "210038.352500", "210038.812500", "210039.272500", "210039.732500", "210040.192500", "210040.652500", "210041.112500", "210041.572500", "210042.032500", "210042.492500", "210042.952500", "210043.412500", "210043.872500", "210044.332500", "210044.792500", "210045.252500", "210045.712500", "210046.172500", "210046.632500", "210047.092500", "210047.552500", "210048.012500", "210048.472500", "210048.932500", "210049.392500", "210049.852500", "210050.312500", "210050.772500", "210051.232500", "210051.692500", "210052.152500", "210052.612500", "210053.072500", "210053.532500", "210053.992500", "210054.452500", "210054.912500", "210055.372500", "210055.832500", "210056.292500", "210056.752500", "210057.212500", "210057.672500", "210058.132500", "210058.592500", "210059.052500", "210059.512500", "210059.972500", "210100.432500", "210100.892500", "210101.352500", "210101.812500", "210102.272500", "210102.732500", "210103.192500", "210103.652500", "210104.112500", "210104.572500", "210105.032500", "210105.492500"],
