{
  "AcquisitionMatrixPE": 82,
  "AcquisitionNumber": 1,
  "AcquisitionTime": "21:03:12.940000",
  "BandwidthPerPixelPhaseEncode": 24.888,
  "BaseResolution": 82,
  "BodyPartExamined": "BRAIN",
  "ConsistencyInfo": "N4_VE11E_LATEST_20181129",
  "ConversionSoftware": "dcm2niix",
  "ConversionSoftwareVersion": "v1.0.20201102",
  "DerivedVendorReportedEchoSpacing": 0.00049,
  "DeviceSerialNumber": "66112",
  "DwellTime": 2e-06,
  "EchoTime": 0.0272,
  "EchoTrainLength": 82,
  "EffectiveEchoSpacing": 0.00049,
  "FlipAngle": 44,
  "ImageComments": "Unaliased MB8/PE3",
  "ImageOrientationPatientDICOM": [0.996967, -0.0450047, 0.0634883, 0.0367314, 0.991358, 0.125941],
  "ImageType": [
    "ORIGINAL",
    "PRIMARY",
    "M",
    "MB",
    "ND",
    "NORM",
    "MOSAIC"
],
  "ImagingFrequency": 123.252,
  "InPlanePhaseEncodingDirectionDICOM": "COL",
  "InstitutionAddress": "Maynard 3,Hanover,NH,US,03755",
  "InstitutionName": "Dartmouth College - PBS",
  "InstitutionalDepartmentName": "Department",
  "MRAcquisitionType": "2D",
  "MagneticFieldStrength": 3,
  "Manufacturer": "Siemens",
  "ManufacturersModelName": "Prisma",
  "Modality": "MR",
  "MultibandAccelerationFactor": 8,
  "PartialFourier": 1,
  "PatientPosition": "HFS",
  "PercentPhaseFOV": 100,
  "PercentSampling": 100,
  "PhaseEncodingDirection": "j-",
  "PhaseEncodingSteps": 82,
  "PhaseResolution": 1,
  "PixelBandwidth": 3050,
  "ProcedureStepDescription": "Wager_Wager^1076_spacetop",
  "ProtocolName": "func_run-04_task-social_acq-ap-mb8",
  "PulseSequenceDetails": "%CustomerSeq%\\cmrr_mbep2d_bold",
  "ReceiveCoilActiveElements": "HEA;HEP",
  "ReceiveCoilName": "Head_32",
  "ReconMatrixPE": 82,
  "RepetitionTime": 0.46,
  "SAR": 0.0979923,
  "ScanOptions": "FS",
  "ScanningSequence": "EP",
  "SequenceName": "epfid2d1_82",
  "SequenceVariant": "SK\\SS",
  "SeriesDescription": "func_run-04_task-social_acq-ap-mb8",
  "SeriesNumber": 18,
  "ShimSetting": [4157, -7772, -7220, 591, -120, -213, -10, 56],
  "SliceThickness": 2.7,
  "SliceTiming": [0, 0.2525, 0.065, 0.315, 0.1275, 0.3775, 0.19, 0, 0.2525, 0.065, 0.315, 0.1275, 0.3775, 0.19, 0, 0.2525, 0.065, 0.315, 0.1275, 0.3775, 0.19, 0, 0.2525, 0.065, 0.315, 0.1275, 0.3775, 0.19, 0, 0.2525, 0.065, 0.315, 0.1275, 0.3775, 0.19, 0, 0.2525, 0.065, 0.315, 0.1275, 0.3775, 0.19, 0, 0.2525, 0.065, 0.315, 0.1275, 0.3775, 0.19, 0, 0.2525, 0.065, 0.315, 0.1275, 0.3775, 0.19],
  "SoftwareVersions": "syngo MR E11",
  "SpacingBetweenSlices": 2.7,
  "StationName": "AWP66112",
  "TaskName": "social",
  "TotalReadoutTime": 0.03969,
  "TxRefAmp": 231.454,
  "WipMemBlock": "46706c2f-fc33-4dce-960a-4d848916b248||Sequence: R016 ve11e/master r/434b28f1; Aug  7 2019 18:53:46 by eja",
  "dcmmeta_affine": [
    [-2.674790382385254, 0.09854762256145477, 0.18524044752120972, 101.73551940917969],
    [0.12074438482522964, 2.6597397327423096, 0.3327127993106842, -107.82709503173828],
    [0.1703345626592636, -0.33789026737213135, 2.673011064529419, -44.94767379760742],
    [0.0, 0.0, 0.0, 1.0]
],
  "dcmmeta_reorient_transform": [
    [0.0, -1.0, 0.0, 81.0],
    [1.0, 0.0, 0.0, 0.0],
    [0.0, 0.0, 1.0, 0.0],
    [0.0, 0.0, 0.0, 1.0]
],
  "dcmmeta_shape": [82, 82, 56, 872],
  "dcmmeta_slice_dim": 2,
  "dcmmeta_version": 0.6,
  "global": {
    "const": {
      "AccessionNumber": "A004079",
      "AcquisitionMatrix": [82, 0, 0, 82],
      "AngioFlag": "N",
      "BitsAllocated": 16,
      "BitsStored": 16,
      "BodyPartExamined": "BRAIN",
      "Columns": 656,
      "EchoNumbers": 1,
      "EchoTime": 27.2,
      "EchoTrainLength": 82,
      "FlipAngle": 44.0,
      "HighBit": 15,
      "ImageOrientationPatient": [0.99696730458446, -0.0450047228272, 0.06348833367516, 0.03673138579519, 0.99135749929589, 0.12594091427083],
      "ImagePositionPatient": [-905.66588678292, -836.30347913322, -218.1773106483],
      "ImageType": [
        "ORIGINAL",
        "PRIMARY",
        "M",
        "MB",
        "ND",
        "NORM",
        "MOSAIC"
],
      "ImagedNucleus": "1H",
      "ImagingFrequency": 123.252179,
      "InPlanePhaseEncodingDirection": "COL",
      "MRAcquisitionType": "2D",
      "MagneticFieldStrength": 3.0,
      "Manufacturer": "SIEMENS",
      "ManufacturerModelName": "Prisma",
      "Modality": "MR",
      "NumberOfAverages": 1.0,
      "NumberOfPhaseEncodingSteps": 82,
      "PercentPhaseFieldOfView": 100.0,
      "PercentSampling": 100.0,
      "PerformedProcedureStepStartTime": "200622.494000",
      "PhotometricInterpretation": "MONOCHROME2",
      "PixelBandwidth": 3050.0,
      "PixelRepresentation": 0,
      "PixelSpacing": [2.6829268932343, 2.6829268932343],
      "ProtocolName": "func_run-04_task-social_acq-ap-mb8",
      "RepetitionTime": 460.0,
      "Rows": 656,
      "SAR": 0.0979922624164,
      "SamplesPerPixel": 1,
      "ScanOptions": "FS",
      "ScanningSequence": "EP",
      "SequenceName": "epfid2d1_82",
      "SequenceVariant": [
        "SK",
        "SS"
],
      "SeriesDescription": "func_run-04_task-social_acq-ap-mb8",
      "SeriesNumber": 18,
      "SeriesTime": "210329.402000",
      "SliceLocation": -50.805759972426,
      "SliceThickness": 2.7000000476837,
      "SmallestImagePixelValue": 0,
      "SoftwareVersions": "syngo MR E11",
      "SpacingBetweenSlices": 2.7000000171896,
      "SpecificCharacterSet": "ISO_IR 100",
      "StudyID": "5",
      "StudyTime": "200622.388000",
      "TransmitCoilName": "Body",
      "VariableFlipAngleFlag": "N",
      "WindowCenterWidthExplanation": "Algo1"
    },
    "slices": {}
  },
  "time": {
    "samples": {
      "AcquisitionNumber": [1, 2, 3, 4, 5, 6, 7, 8, 9, 10, 11, 12, 13, 14, 15, 16, 17, 18, 19, 20, 21, 22, 23, 24, 25, 26, 27, 28, 29, 30, 31, 32, 33, 34, 35, 36, 37, 38, 39, 40, 41, 42, 43, 44, 45, 46, 47, 48, 49, 50, 51, 52, 53, 54, 55, 56, 57, 58, 59, 60, 61, 62, 63, 64, 65, 66, 67, 68, 69, 70, 71, 72, 73, 74, 75, 76, 77, 78, 79, 80, 81, 82, 83, 84, 85, 86, 87, 88, 89, 90, 91, 92, 93, 94, 95, 96, 97, 98, 99, 100, 101, 102, 103, 104, 105, 106, 107, 108, 109, 110, 111, 112, 113, 114, 115, 116, 117, 118, 119, 120, 121, 122, 123, 124, 125, 126, 127, 128, 129, 130, 131, 132, 133, 134, 135, 136, 137, 138, 139, 140, 141, 142, 143, 144, 145, 146, 147, 148, 149, 150, 151, 152, 153, 154, 155, 156, 157, 158, 159, 160, 161, 162, 163, 164, 165, 166, 167, 168, 169, 170, 171, 172, 173, 174, 175, 176, 177, 178, 179, 180, 181, 182, 183, 184, 185, 186, 187, 188, 189, 190, 191, 192, 193, 194, 195, 196, 197, 198, 199, 200, 201, 202, 203, 204, 205, 206, 207, 208, 209, 210, 211, 212, 213, 214, 215, 216, 217, 218, 219, 220, 221, 222, 223, 224, 225, 226, 227, 228, 229, 230, 231, 232, 233, 234, 235, 236, 237, 238, 239, 240, 241, 242, 243, 244, 245, 246, 247, 248, 249, 250, 251, 252, 253, 254, 255, 256, 257, 258, 259, 260, 261, 262, 263, 264, 265, 266, 267, 268, 269, 270, 271, 272, 273, 274, 275, 276, 277, 278, 279, 280, 281, 282, 283, 284, 285, 286, 287, 288, 289, 290, 291, 292, 293, 294, 295, 296, 297, 298, 299, 300, 301, 302, 303, 304, 305, 306, 307, 308, 309, 310, 311, 312, 313, 314, 315, 316, 317, 318, 319, 320, 321, 322, 323, 324, 325, 326, 327, 328, 329, 330, 331, 332, 333, 334, 335, 336, 337, 338, 339, 340, 341, 342, 343, 344, 345, 346, 347, 348, 349, 350, 351, 352, 353, 354, 355, 356, 357, 358, 359, 360, 361, 362, 363, 364, 365, 366, 367, 368, 369, 370, 371, 372, 373, 374, 375, 376, 377, 378, 379, 380, 381, 382, 383, 384, 385, 386, 387, 388, 389, 390, 391, 392, 393, 394, 395, 396, 397, 398, 399, 400, 401, 402, 403, 404, 405, 406, 407, 408, 409, 410, 411, 412, 413, 414, 415, 416, 417, 418, 419, 420, 421, 422, 423, 424, 425, 426, 427, 428, 429, 430, 431, 432, 433, 434, 435, 436, 437, 438, 439, 440, 441, 442, 443, 444, 445, 446, 447, 448, 449, 450, 451, 452, 453, 454, 455, 456, 457, 458, 459, 460, 461, 462, 463, 464, 465, 466, 467, 468, 469, 470, 471, 472, 473, 474, 475, 476, 477, 478, 479, 480, 481, 482, 483, 484, 485, 486, 487, 488, 489, 490, 491, 492, 493, 494, 495, 496, 497, 498, 499, 500, 501, 502, 503, 504, 505, 506, 507, 508, 509, 510, 511, 512, 513, 514, 515, 516, 517, 518, 519, 520, 521, 522, 523, 524, 525, 526, 527, 528, 529, 530, 531, 532, 533, 534, 535, 536, 537, 538, 539, 540, 541, 542, 543, 544, 545, 546, 547, 548, 549, 550, 551, 552, 553, 554, 555, 556, 557, 558, 559, 560, 561, 562, 563, 564, 565, 566, 567, 568, 569, 570, 571, 572, 573, 574, 575, 576, 577, 578, 579, 580, 581, 582, 583, 584, 585, 586, 587, 588, 589, 590, 591, 592, 593, 594, 595, 596, 597, 598, 599, 600, 601, 602, 603, 604, 605, 606, 607, 608, 609, 610, 611, 612, 613, 614, 615, 616, 617, 618, 619, 620, 621, 622, 623, 624, 625, 626, 627, 628, 629, 630, 631, 632, 633, 634, 635, 636, 637, 638, 639, 640, 641, 642, 643, 644, 645, 646, 647, 648, 649, 650, 651, 652, 653, 654, 655, 656, 657, 658, 659, 660, 661, 662, 663, 664, 665, 666, 667, 668, 669, 670, 671, 672, 673, 674, 675, 676, 677, 678, 679, 680, 681, 682, 683, 684, 685, 686, 687, 688, 689, 690, 691, 692, 693, 694, 695, 696, 697, 698, 699, 700, 701, 702, 703, 704, 705, 706, 707, 708, 709, 710, 711, 712, 713, 714, 715, 716, 717, 718, 719, 720, 721, 722, 723, 724, 725, 726, 727, 728, 729, 730, 731, 732, 733, 734, 735, 736, 737, 738, 739, 740, 741, 742, 743, 744, 745, 746, 747, 748, 749, 750, 751, 752, 753, 754, 755, 756, 757, 758, 759, 760, 761, 762, 763, 764, 765, 766, 767, 768, 769, 770, 771, 772, 773, 774, 775, 776, 777, 778, 779, 780, 781, 782, 783, 784, 785, 786, 787, 788, 789, 790, 791, 792, 793, 794, 795, 796, 797, 798, 799, 800, 801, 802, 803, 804, 805, 806, 807, 808, 809, 810, 811, 812, 813, 814, 815, 816, 817, 818, 819, 820, 821, 822, 823, 824, 825, 826, 827, 828, 829, 830, 831, 832, 833, 834, 835, 836, 837, 838, 839, 840, 841, 842, 843, 844, 845, 846, 847, 848, 849, 850, 851, 852, 853, 854, 855, 856, 857, 858, 859, 860, 861, 862, 863, 864, 865, 866, 867, 868, 869, 870, 871, 872],
      "AcquisitionTime": ["210312.940000", "210313.400000", "210313.860000", "210314.320000", "210314.780000", "210315.240000", "210315.700000", "210316.160000", "210316.620000", "210317.080000", "210317.540000", "210318.000000", "210318.460000", "210318.920000", "210319.380000", "210319.840000", "210320.300000", "210320.760000", "210321.220000", "210321.680000", "210322.140000", "210322.600000", "210323.060000", "210323.520000", "210323.980000", "210324.440000", "210324.900000", "210325.360000", "210325.820000", "210326.280000", "210326.740000", "210327.200000", "210327.660000", "210328.120000", "210328.580000", "210329.040000", "210329.500000", "210329.960000", "210330.420000", "210330.880000", "210331.340000", "210331.800000", "210332.260000", "210332.720000", "210333.180000", "210333.640000", "210334.100000", "210334.560000", "210335.020000", "210335.480000", "210335.940000", "210336.400000", "210336.860000", "210337.320000", "210337.780000", "210338.240000", "210338.700000", "210339.160000", "210339.620000", "210340.080000", "210340.540000", "210341.000000", "210341.460000", "210341.920000", "210342.380000", "210342.840000", "210343.300000", "210343.760000", "210344.220000", "210344.680000", "210345.140000", "210345.600000", "210346.060000", "210346.520000", "210346.980000", "210347.440000", "210347.900000", "210348.360000", "210348.820000", "210349.280000", "210349.740000", "210350.200000", "210350.660000", "210351.120000", "210351.580000", "210352.040000", "210352.500000", "210352.960000", "210353.420000", "210353.880000", "210354.340000", "210354.800000", "210355.260000", "210355.720000", "210356.180000", "210356.640000", "210357.100000", "210357.560000", "210358.020000", "210358.480000", "210358.940000", "210359.400000", "210359.860000", "210400.320000", "210400.780000", "210401.240000", "210401.700000", "210402.160000", "210402.620000", "210403.080000", "210403.540000", "210404.000000", "210404.460000", "210404.920000", "210405.380000", "210405.840000", "210406.300000", "210406.760000", "210407.220000", "210407.680000", "210408.140000", "210408.600000", "210409.060000", "210409.520000", "210409.980000", "210410.440000", "210410.900000", "210411.360000", "210411.820000", "210412.280000", "210412.740000", "210413.200000", "210413.660000", "210414.120000", "210414.580000", "210415.040000", "210415.500000", "210415.960000", "210416.420000", "210416.880000", "210417.340000", "210417.800000", "210418.260000", "210418.720000", "210419.180000", "210419.640000", "210420.100000", "210420.560000", "210421.020000", "210421.480000", "210421.940000", "210422.400000", "210422.860000", "210423.320000", "210423.780000", "210424.240000", "210424.700000", "210425.160000", "210425.620000", "210426.080000", "210426.540000", "210427.000000", "210427.460000", "210427.920000", "210428.380000", "210428.840000", "210429.300000", "210429.760000", "210430.220000", "210430.680000", "210431.140000", "210431.600000", "210432.060000", "210432.520000", "210432.980000", "210433.440000", "210433.900000", "210434.360000", "210434.820000", "210435.280000", "210435.740000", "210436.200000", "210436.660000", "210437.120000", "210437.580000", "210438.040000", "210438.500000", "210438.960000", "210439.420000", "210439.880000", "210440.340000", "210440.800000", "210441.260000", "210441.720000", "210442.180000", "210442.640000", "210443.100000", "210443.560000", "210444.020000", "210444.480000", "210444.940000", "210445.400000", "210445.860000", "210446.320000", "210446.780000", "210447.240000", "210447.700000", "210448.160000", "210448.620000", "210449.080000", "210449.540000", "210450.000000", "210450.460000", "210450.920000", "210451.380000", "210451.840000", "210452.300000", "210452.760000", "210453.220000", "210453.680000", "210454.140000", "210454.600000", "210455.060000", "210455.520000", "210455.980000", "210456.440000", "210456.900000", "210457.360000", "210457.820000", "210458.280000", "210458.740000", "210459.200000", "210459.660000", "210500.120000", "210500.580000", "210501.040000", "210501.500000", "210501.960000", "210502.420000", "210502.880000", "210503.340000", "210503.800000", "210504.260000", "210504.720000", "210505.180000", "210505.640000", "210506.100000", "210506.560000", "210507.020000", "210507.480000", "210507.940000", "210508.400000", "210508.860000", "210509.320000", "210509.780000", "210510.240000", "210510.700000", "210511.160000", "210511.620000", "210512.080000", "210512.540000", "210513.000000", "210513.460000", "210513.920000", "210514.380000", "210514.840000", "210515.300000", "210515.760000", "210516.220000", "210516.680000", "210517.140000", "210517.600000", "210518.060000", "210518.520000", "210518.980000", "210519.440000", "210519.900000", "210520.360000", "210520.820000", "210521.280000", "210521.740000", "210522.200000", "210522.660000", "210523.120000", "210523.580000", "210524.040000", "210524.500000", "210524.960000", "210525.420000", "210525.880000", "210526.340000", "210526.800000", "210527.260000", "210527.720000", "210528.180000", "210528.640000", "210529.100000", "210529.560000", "210530.020000", "210530.480000", "210530.940000", "210531.400000", "210531.860000", "210532.320000", "210532.780000", "210533.240000", "210533.700000", "210534.160000", "210534.620000", "210535.080000", "210535.540000", "210536.000000", "210536.460000", "210536.920000", "210537.380000", "210537.840000", "210538.300000", "210538.760000", "210539.220000", "210539.680000", "210540.140000", "210540.600000", "210541.060000", "210541.520000", "210541.980000", "210542.440000", "210542.900000", "210543.360000", "210543.820000", "210544.280000", "210544.740000", "210545.200000", "210545.660000", "210546.120000", "210546.580000", "210547.040000", "210547.500000", "210547.960000", "210548.420000", "210548.880000", "210549.340000", "210549.800000", "210550.260000", "210550.720000", "210551.180000", "210551.640000", "210552.100000", "210552.560000", "210553.020000", "210553.480000", "210553.940000", "210554.400000", "210554.860000", "210555.320000", "210555.780000", "210556.240000", "210556.700000", "210557.160000", "210557.620000", "210558.080000", "210558.540000", "210559.000000", "210559.460000", "210559.920000", "210600.380000", "210600.840000", "210601.300000", "210601.760000", "210602.220000", "210602.680000", "210603.140000", "210603.600000", "210604.060000", "210604.520000", "210604.980000", "210605.440000", "210605.900000", "210606.360000", "210606.820000", "210607.280000", "210607.740000", "210608.200000", "210608.660000", "210609.120000", "210609.580000", "210610.040000", "210610.500000", "210610.960000", "210611.420000", "210611.880000", "210612.340000", "210612.800000", "210613.260000", "210613.720000", "210614.180000", "210614.640000", "210615.100000", "210615.560000", "210616.020000", "210616.480000", "210616.940000", "210617.400000", "210617.860000", "210618.320000", "210618.780000", "210619.240000", "210619.700000", "210620.160000", "210620.620000", "210621.080000", "210621.540000", "210622.000000", "210622.460000", "210622.920000", "210623.380000", "210623.840000", "210624.300000", "210624.760000", "210625.220000", "210625.680000", "210626.140000", "210626.600000", "210627.060000", "210627.520000", "210627.980000", "210628.440000", "210628.900000", "210629.360000", "210629.820000", "210630.280000", "210630.740000", "210631.200000", "210631.660000", "210632.120000", "210632.580000", "210633.040000", "210633.500000", "210633.960000", "210634.420000", "210634.880000", "210635.340000", "210635.800000", "210636.260000", "210636.720000", "210637.180000", "210637.640000", "210638.100000", "210638.560000", "210639.020000", "210639.480000", "210639.940000", "210640.400000", "210640.860000", "210641.320000", "210641.780000", "210642.240000", "210642.700000", "210643.160000", "210643.620000", "210644.080000", "210644.540000", "210645.000000", "210645.460000", "210645.920000", "210646.380000", "210646.840000", "210647.300000", "210647.760000", "210648.220000", "210648.680000", "210649.140000", "210649.600000", "210650.060000", "210650.520000", "210650.980000", "210651.440000", "210651.900000", "210652.360000", "210652.820000", "210653.280000", "210653.740000", "210654.200000", "210654.660000", "210655.120000", "210655.580000", "210656.040000", "210656.500000", "210656.960000", "210657.420000", "210657.880000", "210658.340000", "210658.800000", "210659.260000", "210659.720000", "210700.180000", "210700.640000", "210701.100000", "210701.560000", "210702.020000", "210702.480000", "210702.940000", "210703.400000", "210703.860000", "210704.320000", "210704.780000", "210705.240000", "210705.700000", "210706.160000", "210706.620000", "210707.080000", "210707.540000", "210708.000000", "210708.460000", "210708.920000", "210709.380000", "210709.840000", "210710.300000", "210710.760000", "210711.220000", "210711.680000", "210712.140000", "210712.600000", "210713.060000", "210713.520000", "210713.980000", "210714.440000", "210714.900000", "210715.360000", "210715.820000", "210716.280000", "210716.740000", "210717.200000", "210717.660000", "210718.120000", "210718.580000", "210719.040000", "210719.500000", "210719.960000", "210720.420000", "210720.880000", "210721.340000", "210721.800000", "210722.260000", "210722.720000", "210723.180000", "210723.640000", "210724.100000", "210724.560000", "210725.020000", "210725.480000", "210725.940000", "210726.400000", "210726.860000", "210727.320000", "210727.780000", "210728.240000", "210728.700000", "210729.160000", "210729.620000", "210730.080000", "210730.540000", "210731.000000", "210731.460000", "210731.920000", "210732.380000", "210732.840000", "210733.300000", "210733.760000", "210734.220000", "210734.680000", "210735.140000", "210735.600000", "210736.060000", "210736.520000", "210736.980000", "210737.440000", "210737.900000", "210738.360000", "210738.820000", "210739.280000", "210739.740000", "210740.200000", "210740.660000", "210741.120000", "210741.580000", "210742.040000", "210742.500000", "210742.960000", "210743.420000", "210743.880000", "210744.340000", "210744.800000", "210745.260000", "210745.720000", "210746.180000", "210746.640000", "210747.100000", "210747.560000", "210748.020000", "210748.480000", "210748.940000", "210749.400000", "210749.860000", "210750.320000", "210750.780000", "210751.240000", "210751.700000", "210752.160000", "210752.620000", "210753.080000", "210753.540000", "210754.000000", "210754.460000", "210754.920000", "210755.380000", "210755.840000", "210756.300000", "210756.760000", "210757.220000", "210757.680000", "210758.140000", "210758.600000", "210759.060000", "210759.520000", "210759.980000", "210800.440000", "210800.900000", "210801.360000", "210801.820000", "210802.280000", "210802.740000", "210803.200000", "210803.660000", "210804.120000", "210804.580000", "210805.040000", "210805.500000", "210805.960000", "210806.420000", "210806.880000", "210807.340000", "210807.800000", "210808.260000", "210808.720000", "210809.180000", "210809.640000", "210810.100000", "210810.560000", "210811.020000", "210811.480000", "210811.940000", "210812.400000", "210812.860000", "210813.320000", "210813.780000", "210814.240000", "210814.700000", "210815.160000", "210815.620000", "210816.080000", "210816.540000", "210817.000000", "210817.460000", "210817.920000", "210818.380000", "210818.840000", "210819.300000", "210819.760000", "210820.220000", "210820.680000", "210821.140000", "210821.600000", "210822.060000", "210822.520000", "210822.980000", "210823.440000", "210823.900000", "210824.360000", "210824.820000", "210825.280000", "210825.740000", "210826.200000", "210826.660000", "210827.120000", "210827.580000", "210828.040000", "210828.500000", "210828.960000", "210829.420000", "210829.880000", "210830.340000", "210830.800000", "210831.260000", "210831.720000", "210832.180000", "210832.640000", "210833.100000", "210833.560000", "210834.020000", "210834.480000", "210834.940000", "210835.400000", "210835.860000", "210836.320000", "210836.780000", "210837.240000", "210837.700000", "210838.160000", "210838.620000", "210839.080000", "210839.540000", "210840.000000", "210840.460000", "210840.920000", "210841.380000", "210841.840000", "210842.300000", "210842.760000", "210843.220000", "210843.680000", "210844.140000", "210844.600000", "210845.060000", "210845.520000", "210845.980000", "210846.440000", "210846.900000", "210847.360000", "210847.820000", "210848.280000", "210848.740000", "210849.200000", "210849.660000", "210850.120000", "210850.580000", "210851.040000", "210851.500000", "210851.960000", "210852.420000", "210852.880000", "210853.340000", "210853.800000", "210854.260000", "210854.720000", "210855.180000", "210855.640000", "210856.100000", "210856.560000", "210857.020000", "210857.480000", "210857.940000", "210858.400000", "210858.860000", "210859.320000", "210859.780000", "210900.240000", "210900.700000", "210901.160000", "210901.620000", "210902.080000", "210902.540000", "210903.000000", "210903.460000", "210903.920000", "210904.380000", "210904.840000", "210905.300000", "210905.760000", "210906.220000", "210906.680000", "210907.140000", "210907.600000", "210908.060000", "210908.520000", "210908.980000", "210909.440000", "210909.900000", "210910.360000", "210910.820000", "210911.280000", "210911.740000", "210912.200000", "210912.660000", "210913.120000", "210913.580000", "210914.040000", "210914.500000", "210914.960000", "210915.420000", "210915.880000", "210916.340000", "210916.800000", "210917.260000", "210917.720000", "210918.180000", "210918.640000", "210919.100000", "210919.560000", "210920.020000", "210920.480000", "210920.940000", "210921.400000", "210921.860000", "210922.320000", "210922.780000", "210923.240000", "210923.700000", "210924.160000", "210924.620000", "210925.080000", "210925.540000", "210926.000000", "210926.460000", "210926.920000", "210927.380000", "210927.840000", "210928.300000", "210928.760000", "210929.220000", "210929.680000", "210930.140000", "210930.600000", "210931.060000", "210931.520000", "210931.980000", "210932.440000", "210932.900000", "210933.360000", "210933.820000", "210934.280000", "210934.740000", "210935.200000", "210935.660000", "210936.120000", "210936.580000", "210937.040000", "210937.500000", "210937.960000", "210938.420000", "210938.880000", "210939.340000", "210939.800000", "210940.260000", "210940.720000", "210941.180000", "210941.640000", "210942.100000", "210942.560000", "210943.020000", "210943.480000", "210943.940000", "210944.400000", "210944.860000", "210945.320000", "210945.780000", "210946.240000", "210946.700000", "210947.160000", "210947.620000", "210948.080000", "210948.540000", "210949.000000", "210949.460000", "210949.920000", "210950.380000", "210950.840000", "210951.300000", "210951.760000", "210952.220000", "210952.680000", "210953.140000", "210953.600000"],
