{
  "AcquisitionMatrixPE": 82,
  "AcquisitionNumber": 1,
  "AcquisitionTime": "15:11:11.505000",
  "BandwidthPerPixelPhaseEncode": 24.888,
  "BaseResolution": 82,
  "BodyPartExamined": "BRAIN",
  "ConsistencyInfo": "N4_VE11E_LATEST_20181129",
  "ConversionSoftware": "dcm2niix",
  "ConversionSoftwareVersion": "v1.0.20201102",
  "DerivedVendorReportedEchoSpacing": 0.00049,
  "DeviceSerialNumber": "66112",
  "DwellTime": 2e-06,
  "EchoTime": 0.0272,
  "EchoTrainLength": 82,
  "EffectiveEchoSpacing": 0.00049,
  "FlipAngle": 44,
  "ImageComments": "Unaliased MB8/PE3",
  "ImageOrientationPatientDICOM": [0.995876, -0.0832133, -0.0361561, 0.0888795, 0.974814, 0.204544],
  "ImageType": [
    "ORIGINAL",
    "PRIMARY",
    "M",
    "MB",
    "ND",
    "NORM",
    "MOSAIC"
],
  "ImagingFrequency": 123.259,
  "InPlanePhaseEncodingDirectionDICOM": "COL",
  "InstitutionAddress": "Maynard 3,Hanover,NH,US,03755",
  "InstitutionName": "Dartmouth College - PBS",
  "InstitutionalDepartmentName": "Department",
  "MRAcquisitionType": "2D",
  "MagneticFieldStrength": 3,
  "Manufacturer": "Siemens",
  "ManufacturersModelName": "Prisma",
  "Modality": "MR",
  "MultibandAccelerationFactor": 8,
  "PartialFourier": 1,
  "PatientPosition": "HFS",
  "PercentPhaseFOV": 100,
  "PercentSampling": 100,
  "PhaseEncodingDirection": "j-",
  "PhaseEncodingSteps": 82,
  "PhaseResolution": 1,
  "PixelBandwidth": 3050,
  "ProcedureStepDescription": "Wager_Wager^1076_spacetop",
  "ProtocolName": "func_run-03_task-alignvideo_acq-ap-mb8",
  "PulseSequenceDetails": "%CustomerSeq%\\cmrr_mbep2d_bold",
  "ReceiveCoilActiveElements": "HEA;HEP",
  "ReceiveCoilName": "Head_32",
  "ReconMatrixPE": 82,
  "RepetitionTime": 0.46,
  "SAR": 0.0897717,
  "ScanOptions": "FS",
  "ScanningSequence": "EP",
  "SequenceName": "epfid2d1_82",
  "SequenceVariant": "SK\\SS",
  "SeriesDescription": "func_run-03_task-alignvideo_acq-ap-mb8",
  "SeriesNumber": 36,
  "ShimSetting": [4216, -7815, -7158, 234, -135, 68, -50, 94],
  "SliceThickness": 2.7,
  "SliceTiming": [0, 0.2525, 0.0625, 0.315, 0.125, 0.3775, 0.19, 0, 0.2525, 0.0625, 0.315, 0.125, 0.3775, 0.19, 0, 0.2525, 0.0625, 0.315, 0.125, 0.3775, 0.19, 0, 0.2525, 0.0625, 0.315, 0.125, 0.3775, 0.19, 0, 0.2525, 0.0625, 0.315, 0.125, 0.3775, 0.19, 0, 0.2525, 0.0625, 0.315, 0.125, 0.3775, 0.19, 0, 0.2525, 0.0625, 0.315, 0.125, 0.3775, 0.19, 0, 0.2525, 0.0625, 0.315, 0.125, 0.3775, 0.19],
  "SoftwareVersions": "syngo MR E11",
  "SpacingBetweenSlices": 2.7,
  "StationName": "AWP66112",
  "TaskName": "alignvideo",
  "TotalReadoutTime": 0.03969,
  "TxRefAmp": 246.026,
  "WipMemBlock": "e33cfe33-ffb1-4518-80f4-cf56fec2790d||Sequence: R016 ve11e/master r/434b28f1; Aug  7 2019 18:53:46 by eja",
  "dcmmeta_affine": [
    [-2.6718616485595703, 0.23845729231834412, -0.04920675978064537, 105.46257019042969],
    [0.22325512766838074, 2.6153547763824463, 0.5586665868759155, -110.32652282714844],
    [-0.09700416028499603, -0.5487755537033081, 2.6411116123199463, -26.136022567749023],
    [0.0, 0.0, 0.0, 1.0]
],
  "dcmmeta_reorient_transform": [
    [0.0, -1.0, 0.0, 81.0],
    [1.0, 0.0, 0.0, 0.0],
    [0.0, 0.0, 1.0, 0.0],
    [0.0, 0.0, 0.0, 1.0]
],
  "dcmmeta_shape": [82, 82, 56, 1016],
  "dcmmeta_slice_dim": 2,
  "dcmmeta_version": 0.6,
  "global": {
    "const": {
      "AccessionNumber": "A004290",
      "AcquisitionMatrix": [82, 0, 0, 82],
      "AngioFlag": "N",
      "BitsAllocated": 16,
      "BitsStored": 16,
      "BodyPartExamined": "BRAIN",
      "Columns": 656,
      "EchoNumbers": 1,
      "EchoTime": 27.2,
      "EchoTrainLength": 82,
      "FlipAngle": 44.0,
      "HighBit": 15,
      "ImageOrientationPatient": [0.99587563881807, -0.0832132724127, -0.0361560963473, 0.088879533054, 0.97481400159921, 0.20454361610728],
      "ImagePositionPatient": [-960.03910996764, -788.04978816775, -200.24523753544],
      "ImageType": [
        "ORIGINAL",
        "PRIMARY",
        "M",
        "MB",
        "ND",
        "NORM",
        "MOSAIC"
],
      "ImagedNucleus": "1H",
      "ImagingFrequency": 123.259128,
      "InPlanePhaseEncodingDirection": "COL",
      "MRAcquisitionType": "2D",
      "MagneticFieldStrength": 3.0,
      "Manufacturer": "SIEMENS",
      "ManufacturerModelName": "Prisma",
      "Modality": "MR",
      "NumberOfAverages": 1.0,
      "NumberOfPhaseEncodingSteps": 82,
      "PercentPhaseFieldOfView": 100.0,
      "PercentSampling": 100.0,
      "PerformedProcedureStepStartTime": "124713.907000",
      "PhotometricInterpretation": "MONOCHROME2",
      "PixelBandwidth": 3050.0,
      "PixelRepresentation": 0,
      "PixelSpacing": [2.6829268932343, 2.6829268932343],
      "ProtocolName": "func_run-03_task-alignvideo_acq-ap-mb8",
      "RepetitionTime": 460.0,
      "Rows": 656,
      "SAR": 0.08977168011121,
      "SamplesPerPixel": 1,
      "ScanOptions": "FS",
      "ScanningSequence": "EP",
      "SequenceName": "epfid2d1_82",
      "SequenceVariant": [
        "SK",
        "SS"
],
      "SeriesDescription": "func_run-03_task-alignvideo_acq-ap-mb8",
      "SeriesNumber": 36,
      "SeriesTime": "151125.603000",
      "SliceLocation": -50.316060115835,
      "SliceThickness": 2.7000000476837,
      "SmallestImagePixelValue": 0,
      "SoftwareVersions": "syngo MR E11",
      "SpacingBetweenSlices": 2.7000000262341,
      "SpecificCharacterSet": "ISO_IR 100",
      "StudyID": "1",
      "StudyTime": "124713.831000",
      "TransmitCoilName": "Body",
      "VariableFlipAngleFlag": "N",
      "WindowCenterWidthExplanation": "Algo1"
    },
    "slices": {}
  },
  "time": {
    "samples": {
      "AcquisitionNumber": [1, 2, 3, 4, 5, 6, 7, 8, 9, 10, 11, 12, 13, 14, 15, 16, 17, 18, 19, 20, 21, 22, 23, 24, 25, 26, 27, 28, 29, 30, 31, 32, 33, 34, 35, 36, 37, 38, 39, 40, 41, 42, 43, 44, 45, 46, 47, 48, 49, 50, 51, 52, 53, 54, 55, 56, 57, 58, 59, 60, 61, 62, 63, 64, 65, 66, 67, 68, 69, 70, 71, 72, 73, 74, 75, 76, 77, 78, 79, 80, 81, 82, 83, 84, 85, 86, 87, 88, 89, 90, 91, 92, 93, 94, 95, 96, 97, 98, 99, 100, 101, 102, 103, 104, 105, 106, 107, 108, 109, 110, 111, 112, 113, 114, 115, 116, 117, 118, 119, 120, 121, 122, 123, 124, 125, 126, 127, 128, 129, 130, 131, 132, 133, 134, 135, 136, 137, 138, 139, 140, 141, 142, 143, 144, 145, 146, 147, 148, 149, 150, 151, 152, 153, 154, 155, 156, 157, 158, 159, 160, 161, 162, 163, 164, 165, 166, 167, 168, 169, 170, 171, 172, 173, 174, 175, 176, 177, 178, 179, 180, 181, 182, 183, 184, 185, 186, 187, 188, 189, 190, 191, 192, 193, 194, 195, 196, 197, 198, 199, 200, 201, 202, 203, 204, 205, 206, 207, 208, 209, 210, 211, 212, 213, 214, 215, 216, 217, 218, 219, 220, 221, 222, 223, 224, 225, 226, 227, 228, 229, 230, 231, 232, 233, 234, 235, 236, 237, 238, 239, 240, 241, 242, 243, 244, 245, 246, 247, 248, 249, 250, 251, 252, 253, 254, 255, 256, 257, 258, 259, 260, 261, 262, 263, 264, 265, 266, 267, 268, 269, 270, 271, 272, 273, 274, 275, 276, 277, 278, 279, 280, 281, 282, 283, 284, 285, 286, 287, 288, 289, 290, 291, 292, 293, 294, 295, 296, 297, 298, 299, 300, 301, 302, 303, 304, 305, 306, 307, 308, 309, 310, 311, 312, 313, 314, 315, 316, 317, 318, 319, 320, 321, 322, 323, 324, 325, 326, 327, 328, 329, 330, 331, 332, 333, 334, 335, 336, 337, 338, 339, 340, 341, 342, 343, 344, 345, 346, 347, 348, 349, 350, 351, 352, 353, 354, 355, 356, 357, 358, 359, 360, 361, 362, 363, 364, 365, 366, 367, 368, 369, 370, 371, 372, 373, 374, 375, 376, 377, 378, 379, 380, 381, 382, 383, 384, 385, 386, 387, 388, 389, 390, 391, 392, 393, 394, 395, 396, 397, 398, 399, 400, 401, 402, 403, 404, 405, 406, 407, 408, 409, 410, 411, 412, 413, 414, 415, 416, 417, 418, 419, 420, 421, 422, 423, 424, 425, 426, 427, 428, 429, 430, 431, 432, 433, 434, 435, 436, 437, 438, 439, 440, 441, 442, 443, 444, 445, 446, 447, 448, 449, 450, 451, 452, 453, 454, 455, 456, 457, 458, 459, 460, 461, 462, 463, 464, 465, 466, 467, 468, 469, 470, 471, 472, 473, 474, 475, 476, 477, 478, 479, 480, 481, 482, 483, 484, 485, 486, 487, 488, 489, 490, 491, 492, 493, 494, 495, 496, 497, 498, 499, 500, 501, 502, 503, 504, 505, 506, 507, 508, 509, 510, 511, 512, 513, 514, 515, 516, 517, 518, 519, 520, 521, 522, 523, 524, 525, 526, 527, 528, 529, 530, 531, 532, 533, 534, 535, 536, 537, 538, 539, 540, 541, 542, 543, 544, 545, 546, 547, 548, 549, 550, 551, 552, 553, 554, 555, 556, 557, 558, 559, 560, 561, 562, 563, 564, 565, 566, 567, 568, 569, 570, 571, 572, 573, 574, 575, 576, 577, 578, 579, 580, 581, 582, 583, 584, 585, 586, 587, 588, 589, 590, 591, 592, 593, 594, 595, 596, 597, 598, 599, 600, 601, 602, 603, 604, 605, 606, 607, 608, 609, 610, 611, 612, 613, 614, 615, 616, 617, 618, 619, 620, 621, 622, 623, 624, 625, 626, 627, 628, 629, 630, 631, 632, 633, 634, 635, 636, 637, 638, 639, 640, 641, 642, 643, 644, 645, 646, 647, 648, 649, 650, 651, 652, 653, 654, 655, 656, 657, 658, 659, 660, 661, 662, 663, 664, 665, 666, 667, 668, 669, 670, 671, 672, 673, 674, 675, 676, 677, 678, 679, 680, 681, 682, 683, 684, 685, 686, 687, 688, 689, 690, 691, 692, 693, 694, 695, 696, 697, 698, 699, 700, 701, 702, 703, 704, 705, 706, 707, 708, 709, 710, 711, 712, 713, 714, 715, 716, 717, 718, 719, 720, 721, 722, 723, 724, 725, 726, 727, 728, 729, 730, 731, 732, 733, 734, 735, 736, 737, 738, 739, 740, 741, 742, 743, 744, 745, 746, 747, 748, 749, 750, 751, 752, 753, 754, 755, 756, 757, 758, 759, 760, 761, 762, 763, 764, 765, 766, 767, 768, 769, 770, 771, 772, 773, 774, 775, 776, 777, 778, 779, 780, 781, 782, 783, 784, 785, 786, 787, 788, 789, 790, 791, 792, 793, 794, 795, 796, 797, 798, 799, 800, 801, 802, 803, 804, 805, 806, 807, 808, 809, 810, 811, 812, 813, 814, 815, 816, 817, 818, 819, 820, 821, 822, 823, 824, 825, 826, 827, 828, 829, 830, 831, 832, 833, 834, 835, 836, 837, 838, 839, 840, 841, 842, 843, 844, 845, 846, 847, 848, 849, 850, 851, 852, 853, 854, 855, 856, 857, 858, 859, 860, 861, 862, 863, 864, 865, 866, 867, 868, 869, 870, 871, 872, 873, 874, 875, 876, 877, 878, 879, 880, 881, 882, 883, 884, 885, 886, 887, 888, 889, 890, 891, 892, 893, 894, 895, 896, 897, 898, 899, 900, 901, 902, 903, 904, 905, 906, 907, 908, 909, 910, 911, 912, 913, 914, 915, 916, 917, 918, 919, 920, 921, 922, 923, 924, 925, 926, 927, 928, 929, 930, 931, 932, 933, 934, 935, 936, 937, 938, 939, 940, 941, 942, 943, 944, 945, 946, 947, 948, 949, 950, 951, 952, 953, 954, 955, 956, 957, 958, 959, 960, 961, 962, 963, 964, 965, 966, 967, 968, 969, 970, 971, 972, 973, 974, 975, 976, 977, 978, 979, 980, 981, 982, 983, 984, 985, 986, 987, 988, 989, 990, 991, 992, 993, 994, 995, 996, 997, 998, 999, 1000, 1001, 1002, 1003, 1004, 1005, 1006, 1007, 1008, 1009, 1010, 1011, 1012, 1013, 1014, 1015, 1016],
      "AcquisitionTime": ["151111.505000", "151111.965000", "151112.425000", "151112.885000", "151113.345000", "151113.805000", "151114.265000", "151114.725000", "151115.185000", "151115.645000", "151116.105000", "151116.565000", "151117.025000", "151117.485000", "151117.945000", "151118.405000", "151118.865000", "151119.325000", "151119.785000", "151120.245000", "151120.705000", "151121.165000", "151121.625000", "151122.085000", "151122.545000", "151123.005000", "151123.465000", "151123.925000", "151124.385000", "151124.845000", "151125.305000", "151125.765000", "151126.225000", "151126.685000", "151127.145000", "151127.605000", "151128.065000", "151128.525000", "151128.985000", "151129.445000", "151129.905000", "151130.365000", "151130.825000", "151131.285000", "151131.745000", "151132.205000", "151132.665000", "151133.125000", "151133.585000", "151134.045000", "151134.505000", "151134.965000", "151135.425000", "151135.885000", "151136.345000", "151136.805000", "151137.265000", "151137.725000", "151138.185000", "151138.645000", "151139.105000", "151139.565000", "151140.025000", "151140.485000", "151140.945000", "151141.405000", "151141.865000", "151142.325000", "151142.785000", "151143.245000", "151143.705000", "151144.165000", "151144.625000", "151145.085000", "151145.545000", "151146.005000", "151146.465000", "151146.925000", "151147.385000", "151147.845000", "151148.305000", "151148.765000", "151149.225000", "151149.685000", "151150.145000", "151150.605000", "151151.065000", "151151.525000", "151151.985000", "151152.445000", "151152.905000", "151153.365000", "151153.825000", "151154.285000", "151154.745000", "151155.205000", "151155.665000", "151156.125000", "151156.585000", "151157.045000", "151157.505000", "151157.965000", "151158.425000", "151158.885000", "151159.345000", "151159.805000", "151200.265000", "151200.725000", "151201.185000", "151201.645000", "151202.105000", "151202.565000", "151203.025000", "151203.485000", "151203.945000", "151204.405000", "151204.865000", "151205.325000", "151205.785000", "151206.245000", "151206.705000", "151207.165000", "151207.625000", "151208.085000", "151208.545000", "151209.005000", "151209.465000", "151209.925000", "151210.385000", "151210.845000", "151211.305000", "151211.765000", "151212.225000", "151212.685000", "151213.145000", "151213.605000", "151214.065000", "151214.525000", "151214.985000", "151215.445000", "151215.905000", "151216.365000", "151216.825000", "151217.285000", "151217.745000", "151218.205000", "151218.665000", "151219.125000", "151219.585000", "151220.045000", "151220.505000", "151220.965000", "151221.425000", "151221.885000", "151222.345000", "151222.805000", "151223.265000", "151223.725000", "151224.185000", "151224.645000", "151225.105000", "151225.565000", "151226.025000", "151226.485000", "151226.945000", "151227.405000", "151227.865000", "151228.325000", "151228.785000", "151229.245000", "151229.705000", "151230.165000", "151230.625000", "151231.085000", "151231.545000", "151232.005000", "151232.465000", "151232.925000", "151233.385000", "151233.845000", "151234.305000", "151234.765000", "151235.225000", "151235.685000", "151236.145000", "151236.605000", "151237.065000", "151237.525000", "151237.985000", "151238.445000", "151238.905000", "151239.365000", "151239.825000", "151240.285000", "151240.745000", "151241.205000", "151241.665000", "151242.125000", "151242.585000", "151243.045000", "151243.505000", "151243.965000", "151244.425000", "151244.885000", "151245.345000", "151245.805000", "151246.265000", "151246.725000", "151247.185000", "151247.645000", "151248.105000", "151248.565000", "151249.025000", "151249.485000", "151249.945000", "151250.405000", "151250.865000", "151251.325000", "151251.785000", "151252.245000", "151252.705000", "151253.165000", "151253.625000", "151254.085000", "151254.545000", "151255.005000", "151255.465000", "151255.925000", "151256.385000", "151256.845000", "151257.305000", "151257.765000", "151258.225000", "151258.685000", "151259.145000", "151259.605000", "151300.065000", "151300.525000", "151300.985000", "151301.445000", "151301.905000", "151302.365000", "151302.825000", "151303.285000", "151303.745000", "151304.205000", "151304.665000", "151305.125000", "151305.585000", "151306.045000", "151306.505000", "151306.965000", "151307.425000", "151307.885000", "151308.345000", "151308.805000", "151309.265000", "151309.725000", "151310.185000", "151310.645000", "151311.105000", "151311.565000", "151312.025000", "151312.485000", "151312.945000", "151313.405000", "151313.865000", "151314.325000", "151314.785000", "151315.245000", "151315.705000", "151316.165000", "151316.625000", "151317.085000", "151317.545000", "151318.005000", "151318.465000", "151318.925000", "151319.385000", "151319.845000", "151320.305000", "151320.765000", "151321.225000", "151321.685000", "151322.145000", "151322.605000", "151323.065000", "151323.525000", "151323.985000", "151324.445000", "151324.905000", "151325.365000", "151325.825000", "151326.285000", "151326.745000", "151327.205000", "151327.665000", "151328.125000", "151328.585000", "151329.045000", "151329.505000", "151329.965000", "151330.425000", "151330.885000", "151331.345000", "151331.805000", "151332.265000", "151332.725000", "151333.185000", "151333.645000", "151334.105000", "151334.565000", "151335.025000", "151335.485000", "151335.945000", "151336.405000", "151336.865000", "151337.325000", "151337.785000", "151338.245000", "151338.705000", "151339.165000", "151339.625000", "151340.085000", "151340.545000", "151341.005000", "151341.465000", "151341.925000", "151342.385000", "151342.845000", "151343.305000", "151343.765000", "151344.225000", "151344.685000", "151345.145000", "151345.605000", "151346.065000", "151346.525000", "151346.985000", "151347.445000", "151347.905000", "151348.365000", "151348.825000", "151349.285000", "151349.745000", "151350.205000", "151350.665000", "151351.125000", "151351.585000", "151352.045000", "151352.505000", "151352.965000", "151353.425000", "151353.885000", "151354.345000", "151354.805000", "151355.265000", "151355.725000", "151356.185000", "151356.645000", "151357.105000", "151357.565000", "151358.025000", "151358.485000", "151358.945000", "151359.405000", "151359.865000", "151400.325000", "151400.785000", "151401.245000", "151401.705000", "151402.165000", "151402.625000", "151403.085000", "151403.545000", "151404.005000", "151404.465000", "151404.925000", "151405.385000", "151405.845000", "151406.305000", "151406.765000", "151407.225000", "151407.685000", "151408.145000", "151408.605000", "151409.065000", "151409.525000", "151409.985000", "151410.445000", "151410.905000", "151411.365000", "151411.825000", "151412.285000", "151412.745000", "151413.205000", "151413.665000", "151414.125000", "151414.585000", "151415.045000", "151415.505000", "151415.965000", "151416.425000", "151416.885000", "151417.345000", "151417.805000", "151418.265000", "151418.725000", "151419.185000", "151419.645000", "151420.105000", "151420.565000", "151421.025000", "151421.485000", "151421.945000", "151422.405000", "151422.865000", "151423.325000", "151423.785000", "151424.245000", "151424.705000", "151425.165000", "151425.625000", "151426.085000", "151426.545000", "151427.005000", "151427.465000", "151427.925000", "151428.385000", "151428.845000", "151429.305000", "151429.765000", "151430.225000", "151430.685000", "151431.145000", "151431.605000", "151432.065000", "151432.525000", "151432.985000", "151433.445000", "151433.905000", "151434.365000", "151434.825000", "151435.285000", "151435.745000", "151436.205000", "151436.665000", "151437.125000", "151437.585000", "151438.045000", "151438.505000", "151438.965000", "151439.425000", "151439.885000", "151440.345000", "151440.805000", "151441.265000", "151441.725000", "151442.185000", "151442.645000", "151443.105000", "151443.565000", "151444.025000", "151444.485000", "151444.945000", "151445.405000", "151445.865000", "151446.325000", "151446.785000", "151447.245000", "151447.705000", "151448.165000", "151448.625000", "151449.085000", "151449.545000", "151450.005000", "151450.465000", "151450.925000", "151451.385000", "151451.845000", "151452.305000", "151452.765000", "151453.225000", "151453.685000", "151454.145000", "151454.605000", "151455.065000", "151455.525000", "151455.985000", "151456.445000", "151456.905000", "151457.365000", "151457.825000", "151458.285000", "151458.745000", "151459.205000", "151459.665000", "151500.125000", "151500.585000", "151501.045000", "151501.505000", "151501.965000", "151502.425000", "151502.885000", "151503.345000", "151503.805000", "151504.265000", "151504.725000", "151505.185000", "151505.645000", "151506.105000", "151506.565000", "151507.025000", "151507.485000", "151507.945000", "151508.405000", "151508.865000", "151509.325000", "151509.785000", "151510.245000", "151510.705000", "151511.165000", "151511.625000", "151512.085000", "151512.545000", "151513.005000", "151513.465000", "151513.925000", "151514.385000", "151514.845000", "151515.305000", "151515.765000", "151516.225000", "151516.685000", "151517.145000", "151517.605000", "151518.065000", "151518.525000", "151518.985000", "151519.445000", "151519.905000", "151520.365000", "151520.825000", "151521.285000", "151521.745000", "151522.205000", "151522.665000", "151523.125000", "151523.585000", "151524.045000", "151524.505000", "151524.965000", "151525.425000", "151525.885000", "151526.345000", "151526.805000", "151527.265000", "151527.725000", "151528.185000", "151528.645000", "151529.105000", "151529.565000", "151530.025000", "151530.485000", "151530.945000", "151531.405000", "151531.865000", "151532.325000", "151532.785000", "151533.245000", "151533.705000", "151534.165000", "151534.625000", "151535.085000", "151535.545000", "151536.005000", "151536.465000", "151536.925000", "151537.385000", "151537.845000", "151538.305000", "151538.765000", "151539.225000", "151539.685000", "151540.145000", "151540.605000", "151541.065000", "151541.525000", "151541.985000", "151542.445000", "151542.905000", "151543.365000", "151543.825000", "151544.285000", "151544.745000", "151545.205000", "151545.665000", "151546.125000", "151546.585000", "151547.045000", "151547.505000", "151547.965000", "151548.425000", "151548.885000", "151549.345000", "151549.805000", "151550.265000", "151550.725000", "151551.185000", "151551.645000", "151552.105000", "151552.565000", "151553.025000", "151553.485000", "151553.945000", "151554.405000", "151554.865000", "151555.325000", "151555.785000", "151556.245000", "151556.705000", "151557.165000", "151557.625000", "151558.085000", "151558.545000", "151559.005000", "151559.465000", "151559.925000", "151600.385000", "151600.845000", "151601.305000", "151601.765000", "151602.225000", "151602.685000", "151603.145000", "151603.605000", "151604.065000", "151604.525000", "151604.985000", "151605.445000", "151605.905000", "151606.365000", "151606.825000", "151607.285000", "151607.745000", "151608.205000", "151608.665000", "151609.125000", "151609.585000", "151610.045000", "151610.505000", "151610.965000", "151611.425000", "151611.885000", "151612.345000", "151612.805000", "151613.265000", "151613.725000", "151614.185000", "151614.645000", "151615.105000", "151615.565000", "151616.025000", "151616.485000", "151616.945000", "151617.405000", "151617.865000", "151618.325000", "151618.785000", "151619.245000", "151619.705000", "151620.165000", "151620.625000", "151621.085000", "151621.545000", "151622.005000", "151622.465000", "151622.925000", "151623.385000", "151623.845000", "151624.305000", "151624.765000", "151625.225000", "151625.685000", "151626.145000", "151626.605000", "151627.065000", "151627.525000", "151627.985000", "151628.445000", "151628.905000", "151629.365000", "151629.825000", "151630.285000", "151630.745000", "151631.205000", "151631.665000", "151632.125000", "151632.585000", "151633.045000", "151633.505000", "151633.965000", "151634.425000", "151634.885000", "151635.345000", "151635.805000", "151636.265000", "151636.725000", "151637.185000", "151637.645000", "151638.105000", "151638.565000", "151639.025000", "151639.485000", "151639.945000", "151640.405000", "151640.865000", "151641.325000", "151641.785000", "151642.245000", "151642.705000", "151643.165000", "151643.625000", "151644.085000", "151644.545000", "151645.005000", "151645.465000", "151645.925000", "151646.385000", "151646.845000", "151647.305000", "151647.765000", "151648.225000", "151648.685000", "151649.145000", "151649.605000", "151650.065000", "151650.525000", "151650.985000", "151651.445000", "151651.905000", "151652.365000", "151652.825000", "151653.285000", "151653.745000", "151654.205000", "151654.665000", "151655.125000", "151655.585000", "151656.045000", "151656.505000", "151656.965000", "151657.425000", "151657.885000", "151658.345000", "151658.805000", "151659.265000", "151659.725000", "151700.185000", "151700.645000", "151701.105000", "151701.565000", "151702.025000", "151702.485000", "151702.945000", "151703.405000", "151703.865000", "151704.325000", "151704.785000", "151705.245000", "151705.705000", "151706.165000", "151706.625000", "151707.085000", "151707.545000", "151708.005000", "151708.465000", "151708.925000", "151709.385000", "151709.845000", "151710.305000", "151710.765000", "151711.225000", "151711.685000", "151712.145000", "151712.605000", "151713.065000", "151713.525000", "151713.985000", "151714.445000", "151714.905000", "151715.365000", "151715.825000", "151716.285000", "151716.745000", "151717.205000", "151717.665000", "151718.125000", "151718.585000", "151719.045000", "151719.505000", "151719.965000", "151720.425000", "151720.885000", "151721.345000", "151721.805000", "151722.265000", "151722.725000", "151723.185000", "151723.645000", "151724.105000", "151724.565000", "151725.025000", "151725.485000", "151725.945000", "151726.405000", "151726.865000", "151727.325000", "151727.785000", "151728.245000", "151728.705000", "151729.165000", "151729.625000", "151730.085000", "151730.545000", "151731.005000", "151731.465000", "151731.925000", "151732.385000", "151732.845000", "151733.305000", "151733.765000", "151734.225000", "151734.685000", "151735.145000", "151735.605000", "151736.065000", "151736.525000", "151736.985000", "151737.445000", "151737.905000", "151738.365000", "151738.825000", "151739.285000", "151739.745000", "151740.205000", "151740.665000", "151741.125000", "151741.585000", "151742.045000", "151742.505000", "151742.965000", "151743.425000", "151743.885000", "151744.345000", "151744.805000", "151745.265000", "151745.725000", "151746.185000", "151746.645000", "151747.105000", "151747.565000", "151748.025000", "151748.485000", "151748.945000", "151749.405000", "151749.865000", "151750.325000", "151750.785000", "151751.245000", "151751.705000", "151752.165000", "151752.625000", "151753.085000", "151753.545000", "151754.005000", "151754.465000", "151754.925000", "151755.385000", "151755.845000", "151756.305000", "151756.765000", "151757.225000", "151757.685000", "151758.145000", "151758.605000", "151759.065000", "151759.525000", "151759.985000", "151800.445000", "151800.905000", "151801.365000", "151801.825000", "151802.285000", "151802.745000", "151803.205000", "151803.665000", "151804.125000", "151804.585000", "151805.045000", "151805.505000", "151805.965000", "151806.425000", "151806.885000", "151807.345000", "151807.805000", "151808.265000", "151808.725000", "151809.185000", "151809.645000", "151810.105000", "151810.565000", "151811.025000", "151811.485000", "151811.945000", "151812.405000", "151812.865000", "151813.325000", "151813.785000", "151814.245000", "151814.705000", "151815.165000", "151815.625000", "151816.085000", "151816.545000", "151817.005000", "151817.465000", "151817.925000", "151818.385000", "151818.845000", "151819.305000", "151819.765000", "151820.225000", "151820.685000", "151821.145000", "151821.605000", "151822.065000", "151822.525000", "151822.985000", "151823.445000", "151823.905000", "151824.365000", "151824.825000", "151825.285000", "151825.745000", "151826.205000", "151826.665000", "151827.125000", "151827.585000", "151828.045000", "151828.505000", "151828.965000", "151829.425000", "151829.885000", "151830.345000", "151830.805000", "151831.265000", "151831.725000", "151832.185000", "151832.645000", "151833.105000", "151833.565000", "151834.025000", "151834.485000", "151834.945000", "151835.405000", "151835.865000", "151836.325000", "151836.785000", "151837.245000", "151837.705000", "151838.165000", "151838.625000", "151839.085000", "151839.545000", "151840.005000", "151840.465000", "151840.925000", "151841.385000", "151841.845000", "151842.305000", "151842.765000", "151843.225000", "151843.685000", "151844.145000", "151844.605000", "151845.065000", "151845.525000", "151845.985000", "151846.445000", "151846.905000", "151847.365000", "151847.825000", "151848.285000", "151848.745000", "151849.205000", "151849.665000", "151850.125000", "151850.585000", "151851.045000", "151851.505000", "151851.965000", "151852.425000", "151852.885000", "151853.345000", "151853.805000", "151854.265000", "151854.725000", "151855.185000", "151855.645000", "151856.105000", "151856.565000", "151857.025000", "151857.485000", "151857.945000", "151858.405000"],
