{
  "AcquisitionMatrixPE": 82,
  "AcquisitionNumber": 1,
  "AcquisitionTime": "14:09:45.902500",
  "BandwidthPerPixelPhaseEncode": 24.888,
  "BaseResolution": 82,
  "BodyPartExamined": "BRAIN",
  "ConsistencyInfo": "N4_VE11E_LATEST_20181129",
  "ConversionSoftware": "dcm2niix",
  "ConversionSoftwareVersion": "v1.0.20201102",
  "DerivedVendorReportedEchoSpacing": 0.00049,
  "DeviceSerialNumber": "66112",
  "DwellTime": 2e-06,
  "EchoTime": 0.0272,
  "EchoTrainLength": 82,
  "EffectiveEchoSpacing": 0.00049,
  "FlipAngle": 44,
  "ImageComments": "Unaliased MB8/PE3",
  "ImageOrientationPatientDICOM": [0.994573, -0.104038, 0.000427383, 0.101376, 0.970028, 0.220835],
  "ImageType": [
    "ORIGINAL",
    "PRIMARY",
    "M",
    "MB",
    "ND",
    "NORM",
    "MOSAIC"
],
  "ImagingFrequency": 123.259,
  "InPlanePhaseEncodingDirectionDICOM": "COL",
  "InstitutionAddress": "Maynard 3,Hanover,NH,US,03755",
  "InstitutionName": "Dartmouth College - PBS",
  "InstitutionalDepartmentName": "Department",
  "MRAcquisitionType": "2D",
  "MagneticFieldStrength": 3,
  "Manufacturer": "Siemens",
  "ManufacturersModelName": "Prisma",
  "Modality": "MR",
  "MultibandAccelerationFactor": 8,
  "PartialFourier": 1,
  "PatientPosition": "HFS",
  "PercentPhaseFOV": 100,
  "PercentSampling": 100,
  "PhaseEncodingDirection": "j-",
  "PhaseEncodingSteps": 82,
  "PhaseResolution": 1,
  "PixelBandwidth": 3050,
  "ProcedureStepDescription": "Wager_Wager^1076_spacetop",
  "ProtocolName": "func_run-02_task-social_acq-ap-mb8",
  "PulseSequenceDetails": "%CustomerSeq%\\cmrr_mbep2d_bold",
  "ReceiveCoilActiveElements": "HEA;HEP",
  "ReceiveCoilName": "Head_32",
  "ReconMatrixPE": 82,
  "RepetitionTime": 0.46,
  "SAR": 0.0896926,
  "ScanOptions": "FS",
  "ScanningSequence": "EP",
  "SequenceName": "epfid2d1_82",
  "SequenceVariant": "SK\\SS",
  "SeriesDescription": "func_run-02_task-social_acq-ap-mb8",
  "SeriesNumber": 16,
  "ShimSetting": [4214, -7806, -7152, 270, -139, 104, -50, 90],
  "SliceThickness": 2.7,
  "SliceTiming": [0, 0.25, 0.0625, 0.315, 0.125, 0.3775, 0.1875, 0, 0.25, 0.0625, 0.315, 0.125, 0.3775, 0.1875, 0, 0.25, 0.0625, 0.315, 0.125, 0.3775, 0.1875, 0, 0.25, 0.0625, 0.315, 0.125, 0.3775, 0.1875, 0, 0.25, 0.0625, 0.315, 0.125, 0.3775, 0.1875, 0, 0.25, 0.0625, 0.315, 0.125, 0.3775, 0.1875, 0, 0.25, 0.0625, 0.315, 0.125, 0.3775, 0.1875, 0, 0.25, 0.0625, 0.315, 0.125, 0.3775, 0.1875],
  "SoftwareVersions": "syngo MR E11",
  "SpacingBetweenSlices": 2.7,
  "StationName": "AWP66112",
  "TaskName": "social",
  "TotalReadoutTime": 0.03969,
  "TxRefAmp": 246.026,
  "WipMemBlock": "d59cbab8-5463-45b1-abbf-f724042cc0f0||Sequence: R016 ve11e/master r/434b28f1; Aug  7 2019 18:53:46 by eja",
  "dcmmeta_affine": [
    [-2.6683671474456787, 0.2719839811325073, 0.06315259635448456, 101.84870910644531],
    [0.2791271209716797, 2.6025149822235107, 0.5929012894630432, -114.95855712890625],
    [0.0011466372525319457, -0.5924836993217468, 2.6333401203155518, -18.487125396728516],
    [0.0, 0.0, 0.0, 1.0]
],
  "dcmmeta_reorient_transform": [
    [0.0, -1.0, 0.0, 81.0],
    [1.0, 0.0, 0.0, 0.0],
    [0.0, 0.0, 1.0, 0.0],
    [0.0, 0.0, 0.0, 1.0]
],
  "dcmmeta_shape": [82, 82, 56, 872],
  "dcmmeta_slice_dim": 2,
  "dcmmeta_version": 0.6,
  "global": {
    "const": {
      "AccessionNumber": "A004290",
      "AcquisitionMatrix": [82, 0, 0, 82],
      "AngioFlag": "N",
      "BitsAllocated": 16,
      "BitsStored": 16,
      "BodyPartExamined": "BRAIN",
      "Columns": 656,
      "EchoNumbers": 1,
      "EchoTime": 27.2,
      "EchoTrainLength": 82,
      "FlipAngle": 44.0,
      "HighBit": 15,
      "ImageOrientationPatient": [0.9945732013486, -0.1040382838334, 0.00042738296495, 0.10137584560418, 0.97002830714857, 0.22083482800164],
      "ImagePositionPatient": [-967.7601965194, -762.65749441577, -236.8502118102],
      "ImageType": [
        "ORIGINAL",
        "PRIMARY",
        "M",
        "MB",
        "ND",
        "NORM",
        "MOSAIC"
],
      "ImagedNucleus": "1H",
      "ImagingFrequency": 123.259092,
      "InPlanePhaseEncodingDirection": "COL",
      "MRAcquisitionType": "2D",
      "MagneticFieldStrength": 3.0,
      "Manufacturer": "SIEMENS",
      "ManufacturerModelName": "Prisma",
      "Modality": "MR",
      "NumberOfAverages": 1.0,
      "NumberOfPhaseEncodingSteps": 82,
      "PercentPhaseFieldOfView": 100.0,
      "PercentSampling": 100.0,
      "PerformedProcedureStepStartTime": "124713.907000",
      "PhotometricInterpretation": "MONOCHROME2",
      "PixelBandwidth": 3050.0,
      "PixelRepresentation": 0,
      "PixelSpacing": [2.6829268932343, 2.6829268932343],
      "ProtocolName": "func_run-02_task-social_acq-ap-mb8",
      "RepetitionTime": 460.0,
      "Rows": 656,
      "SAR": 0.08969259786656,
      "SamplesPerPixel": 1,
      "ScanOptions": "FS",
      "ScanningSequence": "EP",
      "SequenceName": "epfid2d1_82",
      "SequenceVariant": [
        "SK",
        "SS"
],
      "SeriesDescription": "func_run-02_task-social_acq-ap-mb8",
      "SeriesNumber": 16,
      "SeriesTime": "141005.432000",
      "SliceLocation": -40.892576503271,
      "SliceThickness": 2.7000000476837,
      "SmallestImagePixelValue": 0,
      "SoftwareVersions": "syngo MR E11",
      "SpacingBetweenSlices": 2.7000000606515,
      "SpecificCharacterSet": "ISO_IR 100",
      "StudyID": "1",
      "StudyTime": "124713.831000",
      "TransmitCoilName": "Body",
      "VariableFlipAngleFlag": "N",
      "WindowCenterWidthExplanation": "Algo1"
    },
    "slices": {}
  },
  "time": {
    "samples": {
      "AcquisitionNumber": [1, 2, 3, 4, 5, 6, 7, 8, 9, 10, 11, 12, 13, 14, 15, 16, 17, 18, 19, 20, 21, 22, 23, 24, 25, 26, 27, 28, 29, 30, 31, 32, 33, 34, 35, 36, 37, 38, 39, 40, 41, 42, 43, 44, 45, 46, 47, 48, 49, 50, 51, 52, 53, 54, 55, 56, 57, 58, 59, 60, 61, 62, 63, 64, 65, 66, 67, 68, 69, 70, 71, 72, 73, 74, 75, 76, 77, 78, 79, 80, 81, 82, 83, 84, 85, 86, 87, 88, 89, 90, 91, 92, 93, 94, 95, 96, 97, 98, 99, 100, 101, 102, 103, 104, 105, 106, 107, 108, 109, 110, 111, 112, 113, 114, 115, 116, 117, 118, 119, 120, 121, 122, 123, 124, 125, 126, 127, 128, 129, 130, 131, 132, 133, 134, 135, 136, 137, 138, 139, 140, 141, 142, 143, 144, 145, 146, 147, 148, 149, 150, 151, 152, 153, 154, 155, 156, 157, 158, 159, 160, 161, 162, 163, 164, 165, 166, 167, 168, 169, 170, 171, 172, 173, 174, 175, 176, 177, 178, 179, 180, 181, 182, 183, 184, 185, 186, 187, 188, 189, 190, 191, 192, 193, 194, 195, 196, 197, 198, 199, 200, 201, 202, 203, 204, 205, 206, 207, 208, 209, 210, 211, 212, 213, 214, 215, 216, 217, 218, 219, 220, 221, 222, 223, 224, 225, 226, 227, 228, 229, 230, 231, 232, 233, 234, 235, 236, 237, 238, 239, 240, 241, 242, 243, 244, 245, 246, 247, 248, 249, 250, 251, 252, 253, 254, 255, 256, 257, 258, 259, 260, 261, 262, 263, 264, 265, 266, 267, 268, 269, 270, 271, 272, 273, 274, 275, 276, 277, 278, 279, 280, 281, 282, 283, 284, 285, 286, 287, 288, 289, 290, 291, 292, 293, 294, 295, 296, 297, 298, 299, 300, 301, 302, 303, 304, 305, 306, 307, 308, 309, 310, 311, 312, 313, 314, 315, 316, 317, 318, 319, 320, 321, 322, 323, 324, 325, 326, 327, 328, 329, 330, 331, 332, 333, 334, 335, 336, 337, 338, 339, 340, 341, 342, 343, 344, 345, 346, 347, 348, 349, 350, 351, 352, 353, 354, 355, 356, 357, 358, 359, 360, 361, 362, 363, 364, 365, 366, 367, 368, 369, 370, 371, 372, 373, 374, 375, 376, 377, 378, 379, 380, 381, 382, 383, 384, 385, 386, 387, 388, 389, 390, 391, 392, 393, 394, 395, 396, 397, 398, 399, 400, 401, 402, 403, 404, 405, 406, 407, 408, 409, 410, 411, 412, 413, 414, 415, 416, 417, 418, 419, 420, 421, 422, 423, 424, 425, 426, 427, 428, 429, 430, 431, 432, 433, 434, 435, 436, 437, 438, 439, 440, 441, 442, 443, 444, 445, 446, 447, 448, 449, 450, 451, 452, 453, 454, 455, 456, 457, 458, 459, 460, 461, 462, 463, 464, 465, 466, 467, 468, 469, 470, 471, 472, 473, 474, 475, 476, 477, 478, 479, 480, 481, 482, 483, 484, 485, 486, 487, 488, 489, 490, 491, 492, 493, 494, 495, 496, 497, 498, 499, 500, 501, 502, 503, 504, 505, 506, 507, 508, 509, 510, 511, 512, 513, 514, 515, 516, 517, 518, 519, 520, 521, 522, 523, 524, 525, 526, 527, 528, 529, 530, 531, 532, 533, 534, 535, 536, 537, 538, 539, 540, 541, 542, 543, 544, 545, 546, 547, 548, 549, 550, 551, 552, 553, 554, 555, 556, 557, 558, 559, 560, 561, 562, 563, 564, 565, 566, 567, 568, 569, 570, 571, 572, 573, 574, 575, 576, 577, 578, 579, 580, 581, 582, 583, 584, 585, 586, 587, 588, 589, 590, 591, 592, 593, 594, 595, 596, 597, 598, 599, 600, 601, 602, 603, 604, 605, 606, 607, 608, 609, 610, 611, 612, 613, 614, 615, 616, 617, 618, 619, 620, 621, 622, 623, 624, 625, 626, 627, 628, 629, 630, 631, 632, 633, 634, 635, 636, 637, 638, 639, 640, 641, 642, 643, 644, 645, 646, 647, 648, 649, 650, 651, 652, 653, 654, 655, 656, 657, 658, 659, 660, 661, 662, 663, 664, 665, 666, 667, 668, 669, 670, 671, 672, 673, 674, 675, 676, 677, 678, 679, 680, 681, 682, 683, 684, 685, 686, 687, 688, 689, 690, 691, 692, 693, 694, 695, 696, 697, 698, 699, 700, 701, 702, 703, 704, 705, 706, 707, 708, 709, 710, 711, 712, 713, 714, 715, 716, 717, 718, 719, 720, 721, 722, 723, 724, 725, 726, 727, 728, 729, 730, 731, 732, 733, 734, 735, 736, 737, 738, 739, 740, 741, 742, 743, 744, 745, 746, 747, 748, 749, 750, 751, 752, 753, 754, 755, 756, 757, 758, 759, 760, 761, 762, 763, 764, 765, 766, 767, 768, 769, 770, 771, 772, 773, 774, 775, 776, 777, 778, 779, 780, 781, 782, 783, 784, 785, 786, 787, 788, 789, 790, 791, 792, 793, 794, 795, 796, 797, 798, 799, 800, 801, 802, 803, 804, 805, 806, 807, 808, 809, 810, 811, 812, 813, 814, 815, 816, 817, 818, 819, 820, 821, 822, 823, 824, 825, 826, 827, 828, 829, 830, 831, 832, 833, 834, 835, 836, 837, 838, 839, 840, 841, 842, 843, 844, 845, 846, 847, 848, 849, 850, 851, 852, 853, 854, 855, 856, 857, 858, 859, 860, 861, 862, 863, 864, 865, 866, 867, 868, 869, 870, 871, 872],
      "AcquisitionTime": ["140945.902500", "140946.362500", "140946.822500", "140947.282500", "140947.742500", "140948.202500", "140948.662500", "140949.122500", "140949.582500", "140950.042500", "140950.502500", "140950.962500", "140951.422500", "140951.882500", "140952.342500", "140952.802500", "140953.262500", "140953.722500", "140954.182500", "140954.642500", "140955.102500", "140955.562500", "140956.022500", "140956.482500", "140956.942500", "140957.402500", "140957.862500", "140958.322500", "140958.782500", "140959.242500", "140959.702500", "141000.162500", "141000.622500", "141001.082500", "141001.542500", "141002.002500", "141002.462500", "141002.922500", "141003.382500", "141003.842500", "141004.302500", "141004.762500", "141005.222500", "141005.682500", "141006.142500", "141006.602500", "141007.062500", "141007.522500", "141007.982500", "141008.442500", "141008.902500", "141009.362500", "141009.822500", "141010.282500", "141010.742500", "141011.202500", "141011.662500", "141012.122500", "141012.582500", "141013.042500", "141013.502500", "141013.962500", "141014.422500", "141014.882500", "141015.342500", "141015.802500", "141016.262500", "141016.722500", "141017.182500", "141017.642500", "141018.102500", "141018.562500", "141019.022500", "141019.482500", "141019.942500", "141020.402500", "141020.862500", "141021.322500", "141021.782500", "141022.242500", "141022.702500", "141023.162500", "141023.622500", "141024.082500", "141024.542500", "141025.002500", "141025.462500", "141025.922500", "141026.382500", "141026.842500", "141027.302500", "141027.762500", "141028.222500", "141028.682500", "141029.142500", "141029.602500", "141030.062500", "141030.522500", "141030.982500", "141031.442500", "141031.902500", "141032.362500", "141032.822500", "141033.282500", "141033.742500", "141034.202500", "141034.662500", "141035.122500", "141035.582500", "141036.042500", "141036.502500", "141036.962500", "141037.422500", "141037.882500", "141038.342500", "141038.802500", "141039.262500", "141039.722500", "141040.182500", "141040.642500", "141041.102500", "141041.562500", "141042.022500", "141042.482500", "141042.942500", "141043.402500", "141043.862500", "141044.322500", "141044.782500", "141045.242500", "141045.702500", "141046.162500", "141046.622500", "141047.082500", "141047.542500", "141048.002500", "141048.462500", "141048.922500", "141049.382500", "141049.842500", "141050.302500", "141050.762500", "141051.222500", "141051.682500", "141052.142500", "141052.602500", "141053.062500", "141053.522500", "141053.982500", "141054.442500", "141054.902500", "141055.362500", "141055.822500", "141056.282500", "141056.742500", "141057.202500", "141057.662500", "141058.122500", "141058.582500", "141059.042500", "141059.502500", "141059.962500", "141100.422500", "141100.882500", "141101.342500", "141101.802500", "141102.262500", "141102.722500", "141103.182500", "141103.642500", "141104.102500", "141104.562500", "141105.022500", "141105.482500", "141105.942500", "141106.402500", "141106.862500", "141107.322500", "141107.782500", "141108.242500", "141108.702500", "141109.162500", "141109.622500", "141110.082500", "141110.542500", "141111.002500", "141111.462500", "141111.922500", "141112.382500", "141112.842500", "141113.302500", "141113.762500", "141114.222500", "141114.682500", "141115.142500", "141115.602500", "141116.062500", "141116.522500", "141116.982500", "141117.442500", "141117.902500", "141118.362500", "141118.822500", "141119.282500", "141119.742500", "141120.202500", "141120.662500", "141121.122500", "141121.582500", "141122.042500", "141122.502500", "141122.962500", "141123.422500", "141123.882500", "141124.342500", "141124.802500", "141125.262500", "141125.722500", "141126.182500", "141126.642500", "141127.102500", "141127.562500", "141128.022500", "141128.482500", "141128.942500", "141129.402500", "141129.862500", "141130.322500", "141130.782500", "141131.242500", "141131.702500", "141132.162500", "141132.622500", "141133.082500", "141133.542500", "141134.002500", "141134.462500", "141134.922500", "141135.382500", "141135.842500", "141136.302500", "141136.762500", "141137.222500", "141137.682500", "141138.142500", "141138.602500", "141139.062500", "141139.522500", "141139.982500", "141140.442500", "141140.902500", "141141.362500", "141141.822500", "141142.282500", "141142.742500", "141143.202500", "141143.662500", "141144.122500", "141144.582500", "141145.042500", "141145.502500", "141145.962500", "141146.422500", "141146.882500", "141147.342500", "141147.802500", "141148.262500", "141148.722500", "141149.182500", "141149.642500", "141150.102500", "141150.562500", "141151.022500", "141151.482500", "141151.942500", "141152.402500", "141152.862500", "141153.322500", "141153.782500", "141154.242500", "141154.702500", "141155.162500", "141155.622500", "141156.082500", "141156.542500", "141157.002500", "141157.462500", "141157.922500", "141158.382500", "141158.842500", "141159.302500", "141159.762500", "141200.222500", "141200.682500", "141201.142500", "141201.602500", "141202.062500", "141202.522500", "141202.982500", "141203.442500", "141203.902500", "141204.362500", "141204.822500", "141205.282500", "141205.742500", "141206.202500", "141206.662500", "141207.122500", "141207.582500", "141208.042500", "141208.502500", "141208.962500", "141209.422500", "141209.882500", "141210.342500", "141210.802500", "141211.262500", "141211.722500", "141212.182500", "141212.642500", "141213.102500", "141213.562500", "141214.022500", "141214.482500", "141214.942500", "141215.402500", "141215.862500", "141216.322500", "141216.782500", "141217.242500", "141217.702500", "141218.162500", "141218.622500", "141219.082500", "141219.542500", "141220.002500", "141220.462500", "141220.922500", "141221.382500", "141221.842500", "141222.302500", "141222.762500", "141223.222500", "141223.682500", "141224.142500", "141224.602500", "141225.062500", "141225.522500", "141225.982500", "141226.442500", "141226.902500", "141227.362500", "141227.822500", "141228.282500", "141228.742500", "141229.202500", "141229.662500", "141230.122500", "141230.582500", "141231.042500", "141231.502500", "141231.962500", "141232.422500", "141232.882500", "141233.342500", "141233.802500", "141234.262500", "141234.722500", "141235.182500", "141235.642500", "141236.102500", "141236.562500", "141237.022500", "141237.482500", "141237.942500", "141238.402500", "141238.862500", "141239.322500", "141239.782500", "141240.242500", "141240.702500", "141241.162500", "141241.622500", "141242.082500", "141242.542500", "141243.002500", "141243.462500", "141243.922500", "141244.382500", "141244.842500", "141245.302500", "141245.762500", "141246.222500", "141246.682500", "141247.142500", "141247.602500", "141248.062500", "141248.522500", "141248.982500", "141249.442500", "141249.902500", "141250.362500", "141250.822500", "141251.282500", "141251.742500", "141252.202500", "141252.662500", "141253.122500", "141253.582500", "141254.042500", "141254.502500", "141254.962500", "141255.422500", "141255.882500", "141256.342500", "141256.802500", "141257.262500", "141257.722500", "141258.182500", "141258.642500", "141259.102500", "141259.562500", "141300.022500", "141300.482500", "141300.942500", "141301.402500", "141301.862500", "141302.322500", "141302.782500", "141303.242500", "141303.702500", "141304.162500", "141304.622500", "141305.082500", "141305.542500", "141306.002500", "141306.462500", "141306.922500", "141307.382500", "141307.842500", "141308.302500", "141308.762500", "141309.222500", "141309.682500", "141310.142500", "141310.602500", "141311.062500", "141311.522500", "141311.982500", "141312.442500", "141312.902500", "141313.362500", "141313.822500", "141314.282500", "141314.742500", "141315.202500", "141315.662500", "141316.122500", "141316.582500", "141317.042500", "141317.502500", "141317.962500", "141318.422500", "141318.882500", "141319.342500", "141319.802500", "141320.262500", "141320.722500", "141321.182500", "141321.642500", "141322.102500", "141322.562500", "141323.022500", "141323.482500", "141323.942500", "141324.402500", "141324.862500", "141325.322500", "141325.782500", "141326.242500", "141326.702500", "141327.162500", "141327.622500", "141328.082500", "141328.542500", "141329.002500", "141329.462500", "141329.922500", "141330.382500", "141330.842500", "141331.302500", "141331.762500", "141332.222500", "141332.682500", "141333.142500", "141333.602500", "141334.062500", "141334.522500", "141334.982500", "141335.442500", "141335.902500", "141336.362500", "141336.822500", "141337.282500", "141337.742500", "141338.202500", "141338.662500", "141339.122500", "141339.582500", "141340.042500", "141340.502500", "141340.962500", "141341.422500", "141341.882500", "141342.342500", "141342.802500", "141343.262500", "141343.722500", "141344.182500", "141344.642500", "141345.102500", "141345.562500", "141346.022500", "141346.482500", "141346.942500", "141347.402500", "141347.862500", "141348.322500", "141348.782500", "141349.242500", "141349.702500", "141350.162500", "141350.622500", "141351.082500", "141351.542500", "141352.002500", "141352.462500", "141352.922500", "141353.382500", "141353.842500", "141354.302500", "141354.762500", "141355.222500", "141355.682500", "141356.142500", "141356.602500", "141357.062500", "141357.522500", "141357.982500", "141358.442500", "141358.902500", "141359.362500", "141359.822500", "141400.282500", "141400.742500", "141401.202500", "141401.662500", "141402.122500", "141402.582500", "141403.042500", "141403.502500", "141403.962500", "141404.422500", "141404.882500", "141405.342500", "141405.802500", "141406.262500", "141406.722500", "141407.182500", "141407.642500", "141408.102500", "141408.562500", "141409.022500", "141409.482500", "141409.942500", "141410.402500", "141410.862500", "141411.322500", "141411.782500", "141412.242500", "141412.702500", "141413.162500", "141413.622500", "141414.082500", "141414.542500", "141415.002500", "141415.462500", "141415.922500", "141416.382500", "141416.842500", "141417.302500", "141417.762500", "141418.222500", "141418.682500", "141419.142500", "141419.602500", "141420.062500", "141420.522500", "141420.982500", "141421.442500", "141421.902500", "141422.362500", "141422.822500", "141423.282500", "141423.742500", "141424.202500", "141424.662500", "141425.122500", "141425.582500", "141426.042500", "141426.502500", "141426.962500", "141427.422500", "141427.882500", "141428.342500", "141428.802500", "141429.262500", "141429.722500", "141430.182500", "141430.642500", "141431.102500", "141431.562500", "141432.022500", "141432.482500", "141432.942500", "141433.402500", "141433.862500", "141434.322500", "141434.782500", "141435.242500", "141435.702500", "141436.162500", "141436.622500", "141437.082500", "141437.542500", "141438.002500", "141438.462500", "141438.922500", "141439.382500", "141439.842500", "141440.302500", "141440.762500", "141441.222500", "141441.682500", "141442.142500", "141442.602500", "141443.062500", "141443.522500", "141443.982500", "141444.442500", "141444.902500", "141445.362500", "141445.822500", "141446.282500", "141446.742500", "141447.202500", "141447.662500", "141448.122500", "141448.582500", "141449.042500", "141449.502500", "141449.962500", "141450.422500", "141450.882500", "141451.342500", "141451.802500", "141452.262500", "141452.722500", "141453.182500", "141453.642500", "141454.102500", "141454.562500", "141455.022500", "141455.482500", "141455.942500", "141456.402500", "141456.862500", "141457.322500", "141457.782500", "141458.242500", "141458.702500", "141459.162500", "141459.622500", "141500.082500", "141500.542500", "141501.002500", "141501.462500", "141501.922500", "141502.382500", "141502.842500", "141503.302500", "141503.762500", "141504.222500", "141504.682500", "141505.142500", "141505.602500", "141506.062500", "141506.522500", "141506.982500", "141507.442500", "141507.902500", "141508.362500", "141508.822500", "141509.282500", "141509.742500", "141510.202500", "141510.662500", "141511.122500", "141511.582500", "141512.042500", "141512.502500", "141512.962500", "141513.422500", "141513.882500", "141514.342500", "141514.802500", "141515.262500", "141515.722500", "141516.182500", "141516.642500", "141517.102500", "141517.562500", "141518.022500", "141518.482500", "141518.942500", "141519.402500", "141519.862500", "141520.322500", "141520.782500", "141521.242500", "141521.702500", "141522.162500", "141522.622500", "141523.082500", "141523.542500", "141524.002500", "141524.462500", "141524.922500", "141525.382500", "141525.842500", "141526.302500", "141526.762500", "141527.222500", "141527.682500", "141528.142500", "141528.602500", "141529.062500", "141529.522500", "141529.982500", "141530.442500", "141530.902500", "141531.362500", "141531.822500", "141532.282500", "141532.742500", "141533.202500", "141533.662500", "141534.122500", "141534.582500", "141535.042500", "141535.502500", "141535.962500", "141536.422500", "141536.882500", "141537.342500", "141537.802500", "141538.262500", "141538.722500", "141539.182500", "141539.642500", "141540.102500", "141540.562500", "141541.022500", "141541.482500", "141541.942500", "141542.402500", "141542.862500", "141543.322500", "141543.782500", "141544.242500", "141544.702500", "141545.162500", "141545.622500", "141546.082500", "141546.542500", "141547.002500", "141547.462500", "141547.922500", "141548.382500", "141548.842500", "141549.302500", "141549.762500", "141550.222500", "141550.682500", "141551.142500", "141551.602500", "141552.062500", "141552.522500", "141552.982500", "141553.442500", "141553.902500", "141554.362500", "141554.822500", "141555.282500", "141555.742500", "141556.202500", "141556.662500", "141557.122500", "141557.582500", "141558.042500", "141558.502500", "141558.962500", "141559.422500", "141559.882500", "141600.342500", "141600.802500", "141601.262500", "141601.722500", "141602.182500", "141602.642500", "141603.102500", "141603.562500", "141604.022500", "141604.482500", "141604.942500", "141605.402500", "141605.862500", "141606.322500", "141606.782500", "141607.242500", "141607.702500", "141608.162500", "141608.622500", "141609.082500", "141609.542500", "141610.002500", "141610.462500", "141610.922500", "141611.382500", "141611.842500", "141612.302500", "141612.762500", "141613.222500", "141613.682500", "141614.142500", "141614.602500", "141615.062500", "141615.522500", "141615.982500", "141616.442500", "141616.902500", "141617.362500", "141617.822500", "141618.282500", "141618.742500", "141619.202500", "141619.662500", "141620.122500", "141620.582500", "141621.042500", "141621.502500", "141621.962500", "141622.422500", "141622.882500", "141623.342500", "141623.802500", "141624.262500", "141624.722500", "141625.182500", "141625.642500", "141626.102500", "141626.562500"],
