{
  "AcquisitionMatrixPE": 82,
  "AcquisitionNumber": 1,
  "AcquisitionTime": "14:23:52.050000",
  "BandwidthPerPixelPhaseEncode": 24.888,
  "BaseResolution": 82,
  "BodyPartExamined": "BRAIN",
  "ConsistencyInfo": "N4_VE11E_LATEST_20181129",
  "ConversionSoftware": "dcm2niix",
  "ConversionSoftwareVersion": "v1.0.20201102",
  "DerivedVendorReportedEchoSpacing": 0.00049,
  "DeviceSerialNumber": "66112",
  "DwellTime": 2e-06,
  "EchoTime": 0.0272,
  "EchoTrainLength": 82,
  "EffectiveEchoSpacing": 0.00049,
  "FlipAngle": 44,
  "ImageComments": "Unaliased MB8/PE3",
  "ImageOrientationPatientDICOM": [0.994573, -0.104038, 0.000427383, 0.101376, 0.970028, 0.220835],
  "ImageType": [
    "ORIGINAL",
    "PRIMARY",
    "M",
    "MB",
    "ND",
    "NORM",
    "MOSAIC"
],
  "ImagingFrequency": 123.259,
  "InPlanePhaseEncodingDirectionDICOM": "COL",
  "InstitutionAddress": "Maynard 3,Hanover,NH,US,03755",
  "InstitutionName": "Dartmouth College - PBS",
  "InstitutionalDepartmentName": "Department",
  "MRAcquisitionType": "2D",
  "MagneticFieldStrength": 3,
  "Manufacturer": "Siemens",
  "ManufacturersModelName": "Prisma",
  "Modality": "MR",
  "MultibandAccelerationFactor": 8,
  "PartialFourier": 1,
  "PatientPosition": "HFS",
  "PercentPhaseFOV": 100,
  "PercentSampling": 100,
  "PhaseEncodingDirection": "j-",
  "PhaseEncodingSteps": 82,
  "PhaseResolution": 1,
  "PixelBandwidth": 3050,
  "ProcedureStepDescription": "Wager_Wager^1076_spacetop",
  "ProtocolName": "func_run-04_task-social_acq-ap-mb8",
  "PulseSequenceDetails": "%CustomerSeq%\\cmrr_mbep2d_bold",
  "ReceiveCoilActiveElements": "HEA;HEP",
  "ReceiveCoilName": "Head_32",
  "ReconMatrixPE": 82,
  "RepetitionTime": 0.46,
  "SAR": 0.0896926,
  "ScanOptions": "FS",
  "ScanningSequence": "EP",
  "SequenceName": "epfid2d1_82",
  "SequenceVariant": "SK\\SS",
  "SeriesDescription": "func_run-04_task-social_acq-ap-mb8",
  "SeriesNumber": 20,
  "ShimSetting": [4214, -7806, -7152, 270, -139, 104, -50, 90],
  "SliceThickness": 2.7,
  "SliceTiming": [0, 0.2525, 0.065, 0.315, 0.1275, 0.3775, 0.19, 0, 0.2525, 0.065, 0.315, 0.1275, 0.3775, 0.19, 0, 0.2525, 0.065, 0.315, 0.1275, 0.3775, 0.19, 0, 0.2525, 0.065, 0.315, 0.1275, 0.3775, 0.19, 0, 0.2525, 0.065, 0.315, 0.1275, 0.3775, 0.19, 0, 0.2525, 0.065, 0.315, 0.1275, 0.3775, 0.19, 0, 0.2525, 0.065, 0.315, 0.1275, 0.3775, 0.19, 0, 0.2525, 0.065, 0.315, 0.1275, 0.3775, 0.19],
  "SoftwareVersions": "syngo MR E11",
  "SpacingBetweenSlices": 2.7,
  "StationName": "AWP66112",
  "TaskName": "social",
  "TotalReadoutTime": 0.03969,
  "TxRefAmp": 246.026,
  "WipMemBlock": "0b79517f-ec2a-495f-ac24-aeec09fee60d||Sequence: R016 ve11e/master r/434b28f1; Aug  7 2019 18:53:46 by eja",
  "dcmmeta_affine": [
    [-2.6683671474456787, 0.2719839811325073, 0.06315259635448456, 101.84870910644531],
    [0.2791271209716797, 2.6025149822235107, 0.5929012894630432, -114.95855712890625],
    [0.0011466372525319457, -0.5924836993217468, 2.6333401203155518, -18.487125396728516],
    [0.0, 0.0, 0.0, 1.0]
],
  "dcmmeta_reorient_transform": [
    [0.0, -1.0, 0.0, 81.0],
    [1.0, 0.0, 0.0, 0.0],
    [0.0, 0.0, 1.0, 0.0],
    [0.0, 0.0, 0.0, 1.0]
],
  "dcmmeta_shape": [82, 82, 56, 872],
  "dcmmeta_slice_dim": 2,
  "dcmmeta_version": 0.6,
  "global": {
    "const": {
      "AccessionNumber": "A004290",
      "AcquisitionMatrix": [82, 0, 0, 82],
      "AngioFlag": "N",
      "BitsAllocated": 16,
      "BitsStored": 16,
      "BodyPartExamined": "BRAIN",
      "Columns": 656,
      "EchoNumbers": 1,
      "EchoTime": 27.2,
      "EchoTrainLength": 82,
      "FlipAngle": 44.0,
      "HighBit": 15,
      "ImageOrientationPatient": [0.9945732013486, -0.1040382838334, 0.00042738296495, 0.10137584560418, 0.97002830714857, 0.22083482800164],
      "ImagePositionPatient": [-967.7601965194, -762.65749441577, -236.8502118102],
      "ImageType": [
        "ORIGINAL",
        "PRIMARY",
        "M",
        "MB",
        "ND",
        "NORM",
        "MOSAIC"
],
      "ImagedNucleus": "1H",
      "ImagingFrequency": 123.2591,
      "InPlanePhaseEncodingDirection": "COL",
      "MRAcquisitionType": "2D",
      "MagneticFieldStrength": 3.0,
      "Manufacturer": "SIEMENS",
      "ManufacturerModelName": "Prisma",
      "Modality": "MR",
      "NumberOfAverages": 1.0,
      "NumberOfPhaseEncodingSteps": 82,
      "PercentPhaseFieldOfView": 100.0,
      "PercentSampling": 100.0,
      "PerformedProcedureStepStartTime": "124713.907000",
      "PhotometricInterpretation": "MONOCHROME2",
      "PixelBandwidth": 3050.0,
      "PixelRepresentation": 0,
      "PixelSpacing": [2.6829268932343, 2.6829268932343],
      "ProtocolName": "func_run-04_task-social_acq-ap-mb8",
      "RepetitionTime": 460.0,
      "Rows": 656,
      "SAR": 0.08969259786656,
      "SamplesPerPixel": 1,
      "ScanOptions": "FS",
      "ScanningSequence": "EP",
      "SequenceName": "epfid2d1_82",
      "SequenceVariant": [
        "SK",
        "SS"
],
      "SeriesDescription": "func_run-04_task-social_acq-ap-mb8",
      "SeriesNumber": 20,
      "SeriesTime": "142405.607000",
      "SliceLocation": -40.892576503271,
      "SliceThickness": 2.7000000476837,
      "SmallestImagePixelValue": 0,
      "SoftwareVersions": "syngo MR E11",
      "SpacingBetweenSlices": 2.7000000606515,
      "SpecificCharacterSet": "ISO_IR 100",
      "StudyID": "1",
      "StudyTime": "124713.831000",
      "TransmitCoilName": "Body",
      "VariableFlipAngleFlag": "N",
      "WindowCenterWidthExplanation": "Algo1"
    },
    "slices": {}
  },
  "time": {
    "samples": {
      "AcquisitionNumber": [1, 2, 3, 4, 5, 6, 7, 8, 9, 10, 11, 12, 13, 14, 15, 16, 17, 18, 19, 20, 21, 22, 23, 24, 25, 26, 27, 28, 29, 30, 31, 32, 33, 34, 35, 36, 37, 38, 39, 40, 41, 42, 43, 44, 45, 46, 47, 48, 49, 50, 51, 52, 53, 54, 55, 56, 57, 58, 59, 60, 61, 62, 63, 64, 65, 66, 67, 68, 69, 70, 71, 72, 73, 74, 75, 76, 77, 78, 79, 80, 81, 82, 83, 84, 85, 86, 87, 88, 89, 90, 91, 92, 93, 94, 95, 96, 97, 98, 99, 100, 101, 102, 103, 104, 105, 106, 107, 108, 109, 110, 111, 112, 113, 114, 115, 116, 117, 118, 119, 120, 121, 122, 123, 124, 125, 126, 127, 128, 129, 130, 131, 132, 133, 134, 135, 136, 137, 138, 139, 140, 141, 142, 143, 144, 145, 146, 147, 148, 149, 150, 151, 152, 153, 154, 155, 156, 157, 158, 159, 160, 161, 162, 163, 164, 165, 166, 167, 168, 169, 170, 171, 172, 173, 174, 175, 176, 177, 178, 179, 180, 181, 182, 183, 184, 185, 186, 187, 188, 189, 190, 191, 192, 193, 194, 195, 196, 197, 198, 199, 200, 201, 202, 203, 204, 205, 206, 207, 208, 209, 210, 211, 212, 213, 214, 215, 216, 217, 218, 219, 220, 221, 222, 223, 224, 225, 226, 227, 228, 229, 230, 231, 232, 233, 234, 235, 236, 237, 238, 239, 240, 241, 242, 243, 244, 245, 246, 247, 248, 249, 250, 251, 252, 253, 254, 255, 256, 257, 258, 259, 260, 261, 262, 263, 264, 265, 266, 267, 268, 269, 270, 271, 272, 273, 274, 275, 276, 277, 278, 279, 280, 281, 282, 283, 284, 285, 286, 287, 288, 289, 290, 291, 292, 293, 294, 295, 296, 297, 298, 299, 300, 301, 302, 303, 304, 305, 306, 307, 308, 309, 310, 311, 312, 313, 314, 315, 316, 317, 318, 319, 320, 321, 322, 323, 324, 325, 326, 327, 328, 329, 330, 331, 332, 333, 334, 335, 336, 337, 338, 339, 340, 341, 342, 343, 344, 345, 346, 347, 348, 349, 350, 351, 352, 353, 354, 355, 356, 357, 358, 359, 360, 361, 362, 363, 364, 365, 366, 367, 368, 369, 370, 371, 372, 373, 374, 375, 376, 377, 378, 379, 380, 381, 382, 383, 384, 385, 386, 387, 388, 389, 390, 391, 392, 393, 394, 395, 396, 397, 398, 399, 400, 401, 402, 403, 404, 405, 406, 407, 408, 409, 410, 411, 412, 413, 414, 415, 416, 417, 418, 419, 420, 421, 422, 423, 424, 425, 426, 427, 428, 429, 430, 431, 432, 433, 434, 435, 436, 437, 438, 439, 440, 441, 442, 443, 444, 445, 446, 447, 448, 449, 450, 451, 452, 453, 454, 455, 456, 457, 458, 459, 460, 461, 462, 463, 464, 465, 466, 467, 468, 469, 470, 471, 472, 473, 474, 475, 476, 477, 478, 479, 480, 481, 482, 483, 484, 485, 486, 487, 488, 489, 490, 491, 492, 493, 494, 495, 496, 497, 498, 499, 500, 501, 502, 503, 504, 505, 506, 507, 508, 509, 510, 511, 512, 513, 514, 515, 516, 517, 518, 519, 520, 521, 522, 523, 524, 525, 526, 527, 528, 529, 530, 531, 532, 533, 534, 535, 536, 537, 538, 539, 540, 541, 542, 543, 544, 545, 546, 547, 548, 549, 550, 551, 552, 553, 554, 555, 556, 557, 558, 559, 560, 561, 562, 563, 564, 565, 566, 567, 568, 569, 570, 571, 572, 573, 574, 575, 576, 577, 578, 579, 580, 581, 582, 583, 584, 585, 586, 587, 588, 589, 590, 591, 592, 593, 594, 595, 596, 597, 598, 599, 600, 601, 602, 603, 604, 605, 606, 607, 608, 609, 610, 611, 612, 613, 614, 615, 616, 617, 618, 619, 620, 621, 622, 623, 624, 625, 626, 627, 628, 629, 630, 631, 632, 633, 634, 635, 636, 637, 638, 639, 640, 641, 642, 643, 644, 645, 646, 647, 648, 649, 650, 651, 652, 653, 654, 655, 656, 657, 658, 659, 660, 661, 662, 663, 664, 665, 666, 667, 668, 669, 670, 671, 672, 673, 674, 675, 676, 677, 678, 679, 680, 681, 682, 683, 684, 685, 686, 687, 688, 689, 690, 691, 692, 693, 694, 695, 696, 697, 698, 699, 700, 701, 702, 703, 704, 705, 706, 707, 708, 709, 710, 711, 712, 713, 714, 715, 716, 717, 718, 719, 720, 721, 722, 723, 724, 725, 726, 727, 728, 729, 730, 731, 732, 733, 734, 735, 736, 737, 738, 739, 740, 741, 742, 743, 744, 745, 746, 747, 748, 749, 750, 751, 752, 753, 754, 755, 756, 757, 758, 759, 760, 761, 762, 763, 764, 765, 766, 767, 768, 769, 770, 771, 772, 773, 774, 775, 776, 777, 778, 779, 780, 781, 782, 783, 784, 785, 786, 787, 788, 789, 790, 791, 792, 793, 794, 795, 796, 797, 798, 799, 800, 801, 802, 803, 804, 805, 806, 807, 808, 809, 810, 811, 812, 813, 814, 815, 816, 817, 818, 819, 820, 821, 822, 823, 824, 825, 826, 827, 828, 829, 830, 831, 832, 833, 834, 835, 836, 837, 838, 839, 840, 841, 842, 843, 844, 845, 846, 847, 848, 849, 850, 851, 852, 853, 854, 855, 856, 857, 858, 859, 860, 861, 862, 863, 864, 865, 866, 867, 868, 869, 870, 871, 872],
      "AcquisitionTime": ["142352.050000", "142352.510000", "142352.970000", "142353.430000", "142353.890000", "142354.350000", "142354.810000", "142355.270000", "142355.730000", "142356.190000", "142356.650000", "142357.110000", "142357.570000", "142358.030000", "142358.490000", "142358.950000", "142359.410000", "142359.870000", "142400.330000", "142400.790000", "142401.250000", "142401.710000", "142402.170000", "142402.630000", "142403.090000", "142403.550000", "142404.010000", "142404.470000", "142404.930000", "142405.390000", "142405.850000", "142406.310000", "142406.770000", "142407.230000", "142407.690000", "142408.150000", "142408.610000", "142409.070000", "142409.530000", "142409.990000", "142410.450000", "142410.910000", "142411.370000", "142411.830000", "142412.290000", "142412.750000", "142413.210000", "142413.670000", "142414.130000", "142414.590000", "142415.050000", "142415.510000", "142415.970000", "142416.430000", "142416.890000", "142417.350000", "142417.810000", "142418.270000", "142418.730000", "142419.190000", "142419.650000", "142420.110000", "142420.570000", "142421.030000", "142421.490000", "142421.950000", "142422.410000", "142422.870000", "142423.330000", "142423.790000", "142424.250000", "142424.710000", "142425.170000", "142425.630000", "142426.090000", "142426.550000", "142427.010000", "142427.470000", "142427.930000", "142428.390000", "142428.850000", "142429.310000", "142429.770000", "142430.230000", "142430.690000", "142431.150000", "142431.610000", "142432.070000", "142432.530000", "142432.990000", "142433.450000", "142433.910000", "142434.370000", "142434.830000", "142435.290000", "142435.750000", "142436.210000", "142436.670000", "142437.130000", "142437.590000", "142438.050000", "142438.510000", "142438.970000", "142439.430000", "142439.890000", "142440.350000", "142440.810000", "142441.270000", "142441.730000", "142442.190000", "142442.650000", "142443.110000", "142443.570000", "142444.030000", "142444.490000", "142444.950000", "142445.410000", "142445.870000", "142446.330000", "142446.790000", "142447.250000", "142447.710000", "142448.170000", "142448.630000", "142449.090000", "142449.550000", "142450.010000", "142450.470000", "142450.930000", "142451.390000", "142451.850000", "142452.310000", "142452.770000", "142453.230000", "142453.690000", "142454.150000", "142454.610000", "142455.070000", "142455.530000", "142455.990000", "142456.450000", "142456.910000", "142457.370000", "142457.830000", "142458.290000", "142458.750000", "142459.210000", "142459.670000", "142500.130000", "142500.590000", "142501.050000", "142501.510000", "142501.970000", "142502.430000", "142502.890000", "142503.350000", "142503.810000", "142504.270000", "142504.730000", "142505.190000", "142505.650000", "142506.110000", "142506.570000", "142507.030000", "142507.490000", "142507.950000", "142508.410000", "142508.870000", "142509.330000", "142509.790000", "142510.250000", "142510.710000", "142511.170000", "142511.630000", "142512.090000", "142512.550000", "142513.010000", "142513.470000", "142513.930000", "142514.390000", "142514.850000", "142515.310000", "142515.770000", "142516.230000", "142516.690000", "142517.150000", "142517.610000", "142518.070000", "142518.530000", "142518.990000", "142519.450000", "142519.910000", "142520.370000", "142520.830000", "142521.290000", "142521.750000", "142522.210000", "142522.670000", "142523.130000", "142523.590000", "142524.050000", "142524.510000", "142524.970000", "142525.430000", "142525.890000", "142526.350000", "142526.810000", "142527.270000", "142527.730000", "142528.190000", "142528.650000", "142529.110000", "142529.570000", "142530.030000", "142530.490000", "142530.950000", "142531.410000", "142531.870000", "142532.330000", "142532.790000", "142533.250000", "142533.710000", "142534.170000", "142534.630000", "142535.090000", "142535.550000", "142536.010000", "142536.470000", "142536.930000", "142537.390000", "142537.850000", "142538.310000", "142538.770000", "142539.230000", "142539.690000", "142540.150000", "142540.610000", "142541.070000", "142541.530000", "142541.990000", "142542.450000", "142542.910000", "142543.370000", "142543.830000", "142544.290000", "142544.750000", "142545.210000", "142545.670000", "142546.130000", "142546.590000", "142547.050000", "142547.510000", "142547.970000", "142548.430000", "142548.890000", "142549.350000", "142549.810000", "142550.270000", "142550.730000", "142551.190000", "142551.650000", "142552.110000", "142552.570000", "142553.030000", "142553.490000", "142553.950000", "142554.410000", "142554.870000", "142555.330000", "142555.790000", "142556.250000", "142556.710000", "142557.170000", "142557.630000", "142558.090000", "142558.550000", "142559.010000", "142559.470000", "142559.930000", "142600.390000", "142600.850000", "142601.310000", "142601.770000", "142602.230000", "142602.690000", "142603.150000", "142603.610000", "142604.070000", "142604.530000", "142604.990000", "142605.450000", "142605.910000", "142606.370000", "142606.830000", "142607.290000", "142607.750000", "142608.210000", "142608.670000", "142609.130000", "142609.590000", "142610.050000", "142610.510000", "142610.970000", "142611.430000", "142611.890000", "142612.350000", "142612.810000", "142613.270000", "142613.730000", "142614.190000", "142614.650000", "142615.110000", "142615.570000", "142616.030000", "142616.490000", "142616.950000", "142617.410000", "142617.870000", "142618.330000", "142618.790000", "142619.250000", "142619.710000", "142620.170000", "142620.630000", "142621.090000", "142621.550000", "142622.010000", "142622.470000", "142622.930000", "142623.390000", "142623.850000", "142624.310000", "142624.770000", "142625.230000", "142625.690000", "142626.150000", "142626.610000", "142627.070000", "142627.530000", "142627.990000", "142628.450000", "142628.910000", "142629.370000", "142629.830000", "142630.290000", "142630.750000", "142631.210000", "142631.670000", "142632.130000", "142632.590000", "142633.050000", "142633.510000", "142633.970000", "142634.430000", "142634.890000", "142635.350000", "142635.810000", "142636.270000", "142636.730000", "142637.190000", "142637.650000", "142638.110000", "142638.570000", "142639.030000", "142639.490000", "142639.950000", "142640.410000", "142640.870000", "142641.330000", "142641.790000", "142642.250000", "142642.710000", "142643.170000", "142643.630000", "142644.090000", "142644.550000", "142645.010000", "142645.470000", "142645.930000", "142646.390000", "142646.850000", "142647.310000", "142647.770000", "142648.230000", "142648.690000", "142649.150000", "142649.610000", "142650.070000", "142650.530000", "142650.990000", "142651.450000", "142651.910000", "142652.370000", "142652.830000", "142653.290000", "142653.750000", "142654.210000", "142654.670000", "142655.130000", "142655.590000", "142656.050000", "142656.510000", "142656.970000", "142657.430000", "142657.890000", "142658.350000", "142658.810000", "142659.270000", "142659.730000", "142700.190000", "142700.650000", "142701.110000", "142701.570000", "142702.030000", "142702.490000", "142702.950000", "142703.410000", "142703.870000", "142704.330000", "142704.790000", "142705.250000", "142705.710000", "142706.170000", "142706.630000", "142707.090000", "142707.550000", "142708.010000", "142708.470000", "142708.930000", "142709.390000", "142709.850000", "142710.310000", "142710.770000", "142711.230000", "142711.690000", "142712.150000", "142712.610000", "142713.070000", "142713.530000", "142713.990000", "142714.450000", "142714.910000", "142715.370000", "142715.830000", "142716.290000", "142716.750000", "142717.210000", "142717.670000", "142718.130000", "142718.590000", "142719.050000", "142719.510000", "142719.970000", "142720.430000", "142720.890000", "142721.350000", "142721.810000", "142722.270000", "142722.730000", "142723.190000", "142723.650000", "142724.110000", "142724.570000", "142725.030000", "142725.490000", "142725.950000", "142726.410000", "142726.870000", "142727.330000", "142727.790000", "142728.250000", "142728.710000", "142729.170000", "142729.630000", "142730.090000", "142730.550000", "142731.010000", "142731.470000", "142731.930000", "142732.390000", "142732.850000", "142733.310000", "142733.770000", "142734.230000", "142734.690000", "142735.150000", "142735.610000", "142736.070000", "142736.530000", "142736.990000", "142737.450000", "142737.910000", "142738.370000", "142738.830000", "142739.290000", "142739.750000", "142740.210000", "142740.670000", "142741.130000", "142741.590000", "142742.050000", "142742.510000", "142742.970000", "142743.430000", "142743.890000", "142744.350000", "142744.810000", "142745.270000", "142745.730000", "142746.190000", "142746.650000", "142747.110000", "142747.570000", "142748.030000", "142748.490000", "142748.950000", "142749.410000", "142749.870000", "142750.330000", "142750.790000", "142751.250000", "142751.710000", "142752.170000", "142752.630000", "142753.090000", "142753.550000", "142754.010000", "142754.470000", "142754.930000", "142755.390000", "142755.850000", "142756.310000", "142756.770000", "142757.230000", "142757.690000", "142758.150000", "142758.610000", "142759.070000", "142759.530000", "142759.990000", "142800.450000", "142800.910000", "142801.370000", "142801.830000", "142802.290000", "142802.750000", "142803.210000", "142803.670000", "142804.130000", "142804.590000", "142805.050000", "142805.510000", "142805.970000", "142806.430000", "142806.890000", "142807.350000", "142807.810000", "142808.270000", "142808.730000", "142809.190000", "142809.650000", "142810.110000", "142810.570000", "142811.030000", "142811.490000", "142811.950000", "142812.410000", "142812.870000", "142813.330000", "142813.790000", "142814.250000", "142814.710000", "142815.170000", "142815.630000", "142816.090000", "142816.550000", "142817.010000", "142817.470000", "142817.930000", "142818.390000", "142818.850000", "142819.310000", "142819.770000", "142820.230000", "142820.690000", "142821.150000", "142821.610000", "142822.070000", "142822.530000", "142822.990000", "142823.450000", "142823.910000", "142824.370000", "142824.830000", "142825.290000", "142825.750000", "142826.210000", "142826.670000", "142827.130000", "142827.590000", "142828.050000", "142828.510000", "142828.970000", "142829.430000", "142829.890000", "142830.350000", "142830.810000", "142831.270000", "142831.730000", "142832.190000", "142832.650000", "142833.110000", "142833.570000", "142834.030000", "142834.490000", "142834.950000", "142835.410000", "142835.870000", "142836.330000", "142836.790000", "142837.250000", "142837.710000", "142838.170000", "142838.630000", "142839.090000", "142839.550000", "142840.010000", "142840.470000", "142840.930000", "142841.390000", "142841.850000", "142842.310000", "142842.770000", "142843.230000", "142843.690000", "142844.150000", "142844.610000", "142845.070000", "142845.530000", "142845.990000", "142846.450000", "142846.910000", "142847.370000", "142847.830000", "142848.290000", "142848.750000", "142849.210000", "142849.670000", "142850.130000", "142850.590000", "142851.050000", "142851.510000", "142851.970000", "142852.430000", "142852.890000", "142853.350000", "142853.810000", "142854.270000", "142854.730000", "142855.190000", "142855.650000", "142856.110000", "142856.570000", "142857.030000", "142857.490000", "142857.950000", "142858.410000", "142858.870000", "142859.330000", "142859.790000", "142900.250000", "142900.710000", "142901.170000", "142901.630000", "142902.090000", "142902.550000", "142903.010000", "142903.470000", "142903.930000", "142904.390000", "142904.850000", "142905.310000", "142905.770000", "142906.230000", "142906.690000", "142907.150000", "142907.610000", "142908.070000", "142908.530000", "142908.990000", "142909.450000", "142909.910000", "142910.370000", "142910.830000", "142911.290000", "142911.750000", "142912.210000", "142912.670000", "142913.130000", "142913.590000", "142914.050000", "142914.510000", "142914.970000", "142915.430000", "142915.890000", "142916.350000", "142916.810000", "142917.270000", "142917.730000", "142918.190000", "142918.650000", "142919.110000", "142919.570000", "142920.030000", "142920.490000", "142920.950000", "142921.410000", "142921.870000", "142922.330000", "142922.790000", "142923.250000", "142923.710000", "142924.170000", "142924.630000", "142925.090000", "142925.550000", "142926.010000", "142926.470000", "142926.930000", "142927.390000", "142927.850000", "142928.310000", "142928.770000", "142929.230000", "142929.690000", "142930.150000", "142930.610000", "142931.070000", "142931.530000", "142931.990000", "142932.450000", "142932.910000", "142933.370000", "142933.830000", "142934.290000", "142934.750000", "142935.210000", "142935.670000", "142936.130000", "142936.590000", "142937.050000", "142937.510000", "142937.970000", "142938.430000", "142938.890000", "142939.350000", "142939.810000", "142940.270000", "142940.730000", "142941.190000", "142941.650000", "142942.110000", "142942.570000", "142943.030000", "142943.490000", "142943.950000", "142944.410000", "142944.870000", "142945.330000", "142945.790000", "142946.250000", "142946.710000", "142947.170000", "142947.630000", "142948.090000", "142948.550000", "142949.010000", "142949.470000", "142949.930000", "142950.390000", "142950.850000", "142951.310000", "142951.770000", "142952.230000", "142952.690000", "142953.150000", "142953.610000", "142954.070000", "142954.530000", "142954.990000", "142955.450000", "142955.910000", "142956.370000", "142956.830000", "142957.290000", "142957.750000", "142958.210000", "142958.670000", "142959.130000", "142959.590000", "143000.050000", "143000.510000", "143000.970000", "143001.430000", "143001.890000", "143002.350000", "143002.810000", "143003.270000", "143003.730000", "143004.190000", "143004.650000", "143005.110000", "143005.570000", "143006.030000", "143006.490000", "143006.950000", "143007.410000", "143007.870000", "143008.330000", "143008.790000", "143009.250000", "143009.710000", "143010.170000", "143010.630000", "143011.090000", "143011.550000", "143012.010000", "143012.470000", "143012.930000", "143013.390000", "143013.850000", "143014.310000", "143014.770000", "143015.230000", "143015.690000", "143016.150000", "143016.610000", "143017.070000", "143017.530000", "143017.990000", "143018.450000", "143018.910000", "143019.370000", "143019.830000", "143020.290000", "143020.750000", "143021.210000", "143021.670000", "143022.130000", "143022.590000", "143023.050000", "143023.510000", "143023.970000", "143024.430000", "143024.890000", "143025.350000", "143025.810000", "143026.270000", "143026.730000", "143027.190000", "143027.650000", "143028.110000", "143028.570000", "143029.030000", "143029.490000", "143029.950000", "143030.410000", "143030.870000", "143031.330000", "143031.790000", "143032.250000", "143032.710000"],
