{
  "AcquisitionMatrixPE": 82,
  "AcquisitionNumber": 1,
  "AcquisitionTime": "14:39:14.700000",
  "BandwidthPerPixelPhaseEncode": 24.888,
  "BaseResolution": 82,
  "BodyPartExamined": "BRAIN",
  "ConsistencyInfo": "N4_VE11E_LATEST_20181129",
  "ConversionSoftware": "dcm2niix",
  "ConversionSoftwareVersion": "v1.0.20201102",
  "DerivedVendorReportedEchoSpacing": 0.00049,
  "DeviceSerialNumber": "66112",
  "DwellTime": 2e-06,
  "EchoTime": 0.0272,
  "EchoTrainLength": 82,
  "EffectiveEchoSpacing": 0.00049,
  "FlipAngle": 44,
  "ImageComments": "Unaliased MB8/PE3",
  "ImageOrientationPatientDICOM": [0.994573, -0.104038, 0.000427383, 0.101376, 0.970028, 0.220835],
  "ImageType": [
    "ORIGINAL",
    "PRIMARY",
    "M",
    "MB",
    "ND",
    "NORM",
    "MOSAIC"
],
  "ImagingFrequency": 123.259,
  "InPlanePhaseEncodingDirectionDICOM": "COL",
  "InstitutionAddress": "Maynard 3,Hanover,NH,US,03755",
  "InstitutionName": "Dartmouth College - PBS",
  "InstitutionalDepartmentName": "Department",
  "MRAcquisitionType": "2D",
  "MagneticFieldStrength": 3,
  "Manufacturer": "Siemens",
  "ManufacturersModelName": "Prisma",
  "Modality": "MR",
  "MultibandAccelerationFactor": 8,
  "PartialFourier": 1,
  "PatientPosition": "HFS",
  "PercentPhaseFOV": 100,
  "PercentSampling": 100,
  "PhaseEncodingDirection": "j-",
  "PhaseEncodingSteps": 82,
  "PhaseResolution": 1,
  "PixelBandwidth": 3050,
  "ProcedureStepDescription": "Wager_Wager^1076_spacetop",
  "ProtocolName": "func_run-06_task-social_acq-ap-mb8",
  "PulseSequenceDetails": "%CustomerSeq%\\cmrr_mbep2d_bold",
  "ReceiveCoilActiveElements": "HEA;HEP",
  "ReceiveCoilName": "Head_32",
  "ReconMatrixPE": 82,
  "RepetitionTime": 0.46,
  "SAR": 0.0896926,
  "ScanOptions": "FS",
  "ScanningSequence": "EP",
  "SequenceName": "epfid2d1_82",
  "SequenceVariant": "SK\\SS",
  "SeriesDescription": "func_run-06_task-social_acq-ap-mb8",
  "SeriesNumber": 24,
  "ShimSetting": [4214, -7806, -7152, 270, -139, 104, -50, 90],
  "SliceThickness": 2.7,
  "SliceTiming": [0, 0.2525, 0.065, 0.315, 0.1275, 0.3775, 0.19, 0, 0.2525, 0.065, 0.315, 0.1275, 0.3775, 0.19, 0, 0.2525, 0.065, 0.315, 0.1275, 0.3775, 0.19, 0, 0.2525, 0.065, 0.315, 0.1275, 0.3775, 0.19, 0, 0.2525, 0.065, 0.315, 0.1275, 0.3775, 0.19, 0, 0.2525, 0.065, 0.315, 0.1275, 0.3775, 0.19, 0, 0.2525, 0.065, 0.315, 0.1275, 0.3775, 0.19, 0, 0.2525, 0.065, 0.315, 0.1275, 0.3775, 0.19],
  "SoftwareVersions": "syngo MR E11",
  "SpacingBetweenSlices": 2.7,
  "StationName": "AWP66112",
  "TaskName": "social",
  "TotalReadoutTime": 0.03969,
  "TxRefAmp": 246.026,
  "WipMemBlock": "f1cbfa25-4396-475e-8f6d-290bbdfbc930||Sequence: R016 ve11e/master r/434b28f1; Aug  7 2019 18:53:46 by eja",
  "dcmmeta_affine": [
    [-2.6683671474456787, 0.2719839811325073, 0.06315259635448456, 101.84870910644531],
    [0.2791271209716797, 2.6025149822235107, 0.5929012894630432, -114.95855712890625],
    [0.0011466372525319457, -0.5924836993217468, 2.6333401203155518, -18.487125396728516],
    [0.0, 0.0, 0.0, 1.0]
],
  "dcmmeta_reorient_transform": [
    [0.0, -1.0, 0.0, 81.0],
    [1.0, 0.0, 0.0, 0.0],
    [0.0, 0.0, 1.0, 0.0],
    [0.0, 0.0, 0.0, 1.0]
],
  "dcmmeta_shape": [82, 82, 56, 872],
  "dcmmeta_slice_dim": 2,
  "dcmmeta_version": 0.6,
  "global": {
    "const": {
      "AccessionNumber": "A004290",
      "AcquisitionMatrix": [82, 0, 0, 82],
      "AngioFlag": "N",
      "BitsAllocated": 16,
      "BitsStored": 16,
      "BodyPartExamined": "BRAIN",
      "Columns": 656,
      "EchoNumbers": 1,
      "EchoTime": 27.2,
      "EchoTrainLength": 82,
      "FlipAngle": 44.0,
      "HighBit": 15,
      "ImageOrientationPatient": [0.9945732013486, -0.1040382838334, 0.00042738296495, 0.10137584560418, 0.97002830714857, 0.22083482800164],
      "ImagePositionPatient": [-967.7601965194, -762.65749441577, -236.8502118102],
      "ImageType": [
        "ORIGINAL",
        "PRIMARY",
        "M",
        "MB",
        "ND",
        "NORM",
        "MOSAIC"
],
      "ImagedNucleus": "1H",
      "ImagingFrequency": 123.259107,
      "InPlanePhaseEncodingDirection": "COL",
      "MRAcquisitionType": "2D",
      "MagneticFieldStrength": 3.0,
      "Manufacturer": "SIEMENS",
      "ManufacturerModelName": "Prisma",
      "Modality": "MR",
      "NumberOfAverages": 1.0,
      "NumberOfPhaseEncodingSteps": 82,
      "PercentPhaseFieldOfView": 100.0,
      "PercentSampling": 100.0,
      "PerformedProcedureStepStartTime": "124713.907000",
      "PhotometricInterpretation": "MONOCHROME2",
      "PixelBandwidth": 3050.0,
      "PixelRepresentation": 0,
      "PixelSpacing": [2.6829268932343, 2.6829268932343],
      "ProtocolName": "func_run-06_task-social_acq-ap-mb8",
      "RepetitionTime": 460.0,
      "Rows": 656,
      "SAR": 0.08969259786656,
      "SamplesPerPixel": 1,
      "ScanOptions": "FS",
      "ScanningSequence": "EP",
      "SequenceName": "epfid2d1_82",
      "SequenceVariant": [
        "SK",
        "SS"
],
      "SeriesDescription": "func_run-06_task-social_acq-ap-mb8",
      "SeriesNumber": 24,
      "SeriesTime": "143925.501000",
      "SliceLocation": -40.892576503271,
      "SliceThickness": 2.7000000476837,
      "SmallestImagePixelValue": 0,
      "SoftwareVersions": "syngo MR E11",
      "SpacingBetweenSlices": 2.7000000606515,
      "SpecificCharacterSet": "ISO_IR 100",
      "StudyID": "1",
      "StudyTime": "124713.831000",
      "TransmitCoilName": "Body",
      "VariableFlipAngleFlag": "N",
      "WindowCenterWidthExplanation": "Algo1"
    },
    "slices": {}
  },
  "time": {
    "samples": {
      "AcquisitionNumber": [1, 2, 3, 4, 5, 6, 7, 8, 9, 10, 11, 12, 13, 14, 15, 16, 17, 18, 19, 20, 21, 22, 23, 24, 25, 26, 27, 28, 29, 30, 31, 32, 33, 34, 35, 36, 37, 38, 39, 40, 41, 42, 43, 44, 45, 46, 47, 48, 49, 50, 51, 52, 53, 54, 55, 56, 57, 58, 59, 60, 61, 62, 63, 64, 65, 66, 67, 68, 69, 70, 71, 72, 73, 74, 75, 76, 77, 78, 79, 80, 81, 82, 83, 84, 85, 86, 87, 88, 89, 90, 91, 92, 93, 94, 95, 96, 97, 98, 99, 100, 101, 102, 103, 104, 105, 106, 107, 108, 109, 110, 111, 112, 113, 114, 115, 116, 117, 118, 119, 120, 121, 122, 123, 124, 125, 126, 127, 128, 129, 130, 131, 132, 133, 134, 135, 136, 137, 138, 139, 140, 141, 142, 143, 144, 145, 146, 147, 148, 149, 150, 151, 152, 153, 154, 155, 156, 157, 158, 159, 160, 161, 162, 163, 164, 165, 166, 167, 168, 169, 170, 171, 172, 173, 174, 175, 176, 177, 178, 179, 180, 181, 182, 183, 184, 185, 186, 187, 188, 189, 190, 191, 192, 193, 194, 195, 196, 197, 198, 199, 200, 201, 202, 203, 204, 205, 206, 207, 208, 209, 210, 211, 212, 213, 214, 215, 216, 217, 218, 219, 220, 221, 222, 223, 224, 225, 226, 227, 228, 229, 230, 231, 232, 233, 234, 235, 236, 237, 238, 239, 240, 241, 242, 243, 244, 245, 246, 247, 248, 249, 250, 251, 252, 253, 254, 255, 256, 257, 258, 259, 260, 261, 262, 263, 264, 265, 266, 267, 268, 269, 270, 271, 272, 273, 274, 275, 276, 277, 278, 279, 280, 281, 282, 283, 284, 285, 286, 287, 288, 289, 290, 291, 292, 293, 294, 295, 296, 297, 298, 299, 300, 301, 302, 303, 304, 305, 306, 307, 308, 309, 310, 311, 312, 313, 314, 315, 316, 317, 318, 319, 320, 321, 322, 323, 324, 325, 326, 327, 328, 329, 330, 331, 332, 333, 334, 335, 336, 337, 338, 339, 340, 341, 342, 343, 344, 345, 346, 347, 348, 349, 350, 351, 352, 353, 354, 355, 356, 357, 358, 359, 360, 361, 362, 363, 364, 365, 366, 367, 368, 369, 370, 371, 372, 373, 374, 375, 376, 377, 378, 379, 380, 381, 382, 383, 384, 385, 386, 387, 388, 389, 390, 391, 392, 393, 394, 395, 396, 397, 398, 399, 400, 401, 402, 403, 404, 405, 406, 407, 408, 409, 410, 411, 412, 413, 414, 415, 416, 417, 418, 419, 420, 421, 422, 423, 424, 425, 426, 427, 428, 429, 430, 431, 432, 433, 434, 435, 436, 437, 438, 439, 440, 441, 442, 443, 444, 445, 446, 447, 448, 449, 450, 451, 452, 453, 454, 455, 456, 457, 458, 459, 460, 461, 462, 463, 464, 465, 466, 467, 468, 469, 470, 471, 472, 473, 474, 475, 476, 477, 478, 479, 480, 481, 482, 483, 484, 485, 486, 487, 488, 489, 490, 491, 492, 493, 494, 495, 496, 497, 498, 499, 500, 501, 502, 503, 504, 505, 506, 507, 508, 509, 510, 511, 512, 513, 514, 515, 516, 517, 518, 519, 520, 521, 522, 523, 524, 525, 526, 527, 528, 529, 530, 531, 532, 533, 534, 535, 536, 537, 538, 539, 540, 541, 542, 543, 544, 545, 546, 547, 548, 549, 550, 551, 552, 553, 554, 555, 556, 557, 558, 559, 560, 561, 562, 563, 564, 565, 566, 567, 568, 569, 570, 571, 572, 573, 574, 575, 576, 577, 578, 579, 580, 581, 582, 583, 584, 585, 586, 587, 588, 589, 590, 591, 592, 593, 594, 595, 596, 597, 598, 599, 600, 601, 602, 603, 604, 605, 606, 607, 608, 609, 610, 611, 612, 613, 614, 615, 616, 617, 618, 619, 620, 621, 622, 623, 624, 625, 626, 627, 628, 629, 630, 631, 632, 633, 634, 635, 636, 637, 638, 639, 640, 641, 642, 643, 644, 645, 646, 647, 648, 649, 650, 651, 652, 653, 654, 655, 656, 657, 658, 659, 660, 661, 662, 663, 664, 665, 666, 667, 668, 669, 670, 671, 672, 673, 674, 675, 676, 677, 678, 679, 680, 681, 682, 683, 684, 685, 686, 687, 688, 689, 690, 691, 692, 693, 694, 695, 696, 697, 698, 699, 700, 701, 702, 703, 704, 705, 706, 707, 708, 709, 710, 711, 712, 713, 714, 715, 716, 717, 718, 719, 720, 721, 722, 723, 724, 725, 726, 727, 728, 729, 730, 731, 732, 733, 734, 735, 736, 737, 738, 739, 740, 741, 742, 743, 744, 745, 746, 747, 748, 749, 750, 751, 752, 753, 754, 755, 756, 757, 758, 759, 760, 761, 762, 763, 764, 765, 766, 767, 768, 769, 770, 771, 772, 773, 774, 775, 776, 777, 778, 779, 780, 781, 782, 783, 784, 785, 786, 787, 788, 789, 790, 791, 792, 793, 794, 795, 796, 797, 798, 799, 800, 801, 802, 803, 804, 805, 806, 807, 808, 809, 810, 811, 812, 813, 814, 815, 816, 817, 818, 819, 820, 821, 822, 823, 824, 825, 826, 827, 828, 829, 830, 831, 832, 833, 834, 835, 836, 837, 838, 839, 840, 841, 842, 843, 844, 845, 846, 847, 848, 849, 850, 851, 852, 853, 854, 855, 856, 857, 858, 859, 860, 861, 862, 863, 864, 865, 866, 867, 868, 869, 870, 871, 872],
      "AcquisitionTime": ["143914.700000", "143915.160000", "143915.620000", "143916.080000", "143916.540000", "143917.000000", "143917.460000", "143917.920000", "143918.380000", "143918.840000", "143919.300000", "143919.760000", "143920.220000", "143920.680000", "143921.140000", "143921.600000", "143922.060000", "143922.520000", "143922.980000", "143923.440000", "143923.900000", "143924.360000", "143924.820000", "143925.280000", "143925.740000", "143926.200000", "143926.660000", "143927.120000", "143927.580000", "143928.040000", "143928.500000", "143928.960000", "143929.420000", "143929.880000", "143930.340000", "143930.800000", "143931.260000", "143931.720000", "143932.180000", "143932.640000", "143933.100000", "143933.560000", "143934.020000", "143934.480000", "143934.940000", "143935.400000", "143935.860000", "143936.320000", "143936.780000", "143937.240000", "143937.700000", "143938.160000", "143938.620000", "143939.080000", "143939.540000", "143940.000000", "143940.460000", "143940.920000", "143941.380000", "143941.840000", "143942.300000", "143942.760000", "143943.220000", "143943.680000", "143944.140000", "143944.600000", "143945.060000", "143945.520000", "143945.980000", "143946.440000", "143946.900000", "143947.360000", "143947.820000", "143948.280000", "143948.740000", "143949.200000", "143949.660000", "143950.120000", "143950.580000", "143951.040000", "143951.500000", "143951.960000", "143952.420000", "143952.880000", "143953.340000", "143953.800000", "143954.260000", "143954.720000", "143955.180000", "143955.640000", "143956.100000", "143956.560000", "143957.020000", "143957.480000", "143957.940000", "143958.400000", "143958.860000", "143959.320000", "143959.780000", "144000.240000", "144000.700000", "144001.160000", "144001.620000", "144002.080000", "144002.540000", "144003.000000", "144003.460000", "144003.920000", "144004.380000", "144004.840000", "144005.300000", "144005.760000", "144006.220000", "144006.680000", "144007.140000", "144007.600000", "144008.060000", "144008.520000", "144008.980000", "144009.440000", "144009.900000", "144010.360000", "144010.820000", "144011.280000", "144011.740000", "144012.200000", "144012.660000", "144013.120000", "144013.580000", "144014.040000", "144014.500000", "144014.960000", "144015.420000", "144015.880000", "144016.340000", "144016.800000", "144017.260000", "144017.720000", "144018.180000", "144018.640000", "144019.100000", "144019.560000", "144020.020000", "144020.480000", "144020.940000", "144021.400000", "144021.860000", "144022.320000", "144022.780000", "144023.240000", "144023.700000", "144024.160000", "144024.620000", "144025.080000", "144025.540000", "144026.000000", "144026.460000", "144026.920000", "144027.380000", "144027.840000", "144028.300000", "144028.760000", "144029.220000", "144029.680000", "144030.140000", "144030.600000", "144031.060000", "144031.520000", "144031.980000", "144032.440000", "144032.900000", "144033.360000", "144033.820000", "144034.280000", "144034.740000", "144035.200000", "144035.660000", "144036.120000", "144036.580000", "144037.040000", "144037.500000", "144037.960000", "144038.420000", "144038.880000", "144039.340000", "144039.800000", "144040.260000", "144040.720000", "144041.180000", "144041.640000", "144042.100000", "144042.560000", "144043.020000", "144043.480000", "144043.940000", "144044.400000", "144044.860000", "144045.320000", "144045.780000", "144046.240000", "144046.700000", "144047.160000", "144047.620000", "144048.080000", "144048.540000", "144049.000000", "144049.460000", "144049.920000", "144050.380000", "144050.840000", "144051.300000", "144051.760000", "144052.220000", "144052.680000", "144053.140000", "144053.600000", "144054.060000", "144054.520000", "144054.980000", "144055.440000", "144055.900000", "144056.360000", "144056.820000", "144057.280000", "144057.740000", "144058.200000", "144058.660000", "144059.120000", "144059.580000", "144100.040000", "144100.500000", "144100.960000", "144101.420000", "144101.880000", "144102.340000", "144102.800000", "144103.260000", "144103.720000", "144104.180000", "144104.640000", "144105.100000", "144105.560000", "144106.020000", "144106.480000", "144106.940000", "144107.400000", "144107.860000", "144108.320000", "144108.780000", "144109.240000", "144109.700000", "144110.160000", "144110.620000", "144111.080000", "144111.540000", "144112.000000", "144112.460000", "144112.920000", "144113.380000", "144113.840000", "144114.300000", "144114.760000", "144115.220000", "144115.680000", "144116.140000", "144116.600000", "144117.060000", "144117.520000", "144117.980000", "144118.440000", "144118.900000", "144119.360000", "144119.820000", "144120.280000", "144120.740000", "144121.200000", "144121.660000", "144122.120000", "144122.580000", "144123.040000", "144123.500000", "144123.960000", "144124.420000", "144124.880000", "144125.340000", "144125.800000", "144126.260000", "144126.720000", "144127.180000", "144127.640000", "144128.100000", "144128.560000", "144129.020000", "144129.480000", "144129.940000", "144130.400000", "144130.860000", "144131.320000", "144131.780000", "144132.240000", "144132.700000", "144133.160000", "144133.620000", "144134.080000", "144134.540000", "144135.000000", "144135.460000", "144135.920000", "144136.380000", "144136.840000", "144137.300000", "144137.760000", "144138.220000", "144138.680000", "144139.140000", "144139.600000", "144140.060000", "144140.520000", "144140.980000", "144141.440000", "144141.900000", "144142.360000", "144142.820000", "144143.280000", "144143.740000", "144144.200000", "144144.660000", "144145.120000", "144145.580000", "144146.040000", "144146.500000", "144146.960000", "144147.420000", "144147.880000", "144148.340000", "144148.800000", "144149.260000", "144149.720000", "144150.180000", "144150.640000", "144151.100000", "144151.560000", "144152.020000", "144152.480000", "144152.940000", "144153.400000", "144153.860000", "144154.320000", "144154.780000", "144155.240000", "144155.700000", "144156.160000", "144156.620000", "144157.080000", "144157.540000", "144158.000000", "144158.460000", "144158.920000", "144159.380000", "144159.840000", "144200.300000", "144200.760000", "144201.220000", "144201.680000", "144202.140000", "144202.600000", "144203.060000", "144203.520000", "144203.980000", "144204.440000", "144204.900000", "144205.360000", "144205.820000", "144206.280000", "144206.740000", "144207.200000", "144207.660000", "144208.120000", "144208.580000", "144209.040000", "144209.500000", "144209.960000", "144210.420000", "144210.880000", "144211.340000", "144211.800000", "144212.260000", "144212.720000", "144213.180000", "144213.640000", "144214.100000", "144214.560000", "144215.020000", "144215.480000", "144215.940000", "144216.400000", "144216.860000", "144217.320000", "144217.780000", "144218.240000", "144218.700000", "144219.160000", "144219.620000", "144220.080000", "144220.540000", "144221.000000", "144221.460000", "144221.920000", "144222.380000", "144222.840000", "144223.300000", "144223.760000", "144224.220000", "144224.680000", "144225.140000", "144225.600000", "144226.060000", "144226.520000", "144226.980000", "144227.440000", "144227.900000", "144228.360000", "144228.820000", "144229.280000", "144229.740000", "144230.200000", "144230.660000", "144231.120000", "144231.580000", "144232.040000", "144232.500000", "144232.960000", "144233.420000", "144233.880000", "144234.340000", "144234.800000", "144235.260000", "144235.720000", "144236.180000", "144236.640000", "144237.100000", "144237.560000", "144238.020000", "144238.480000", "144238.940000", "144239.400000", "144239.860000", "144240.320000", "144240.780000", "144241.240000", "144241.700000", "144242.160000", "144242.620000", "144243.080000", "144243.540000", "144244.000000", "144244.460000", "144244.920000", "144245.380000", "144245.840000", "144246.300000", "144246.760000", "144247.220000", "144247.680000", "144248.140000", "144248.600000", "144249.060000", "144249.520000", "144249.980000", "144250.440000", "144250.900000", "144251.360000", "144251.820000", "144252.280000", "144252.740000", "144253.200000", "144253.660000", "144254.120000", "144254.580000", "144255.040000", "144255.500000", "144255.960000", "144256.420000", "144256.880000", "144257.340000", "144257.800000", "144258.260000", "144258.720000", "144259.180000", "144259.640000", "144300.100000", "144300.560000", "144301.020000", "144301.480000", "144301.940000", "144302.400000", "144302.860000", "144303.320000", "144303.780000", "144304.240000", "144304.700000", "144305.160000", "144305.620000", "144306.080000", "144306.540000", "144307.000000", "144307.460000", "144307.920000", "144308.380000", "144308.840000", "144309.300000", "144309.760000", "144310.220000", "144310.680000", "144311.140000", "144311.600000", "144312.060000", "144312.520000", "144312.980000", "144313.440000", "144313.900000", "144314.360000", "144314.820000", "144315.280000", "144315.740000", "144316.200000", "144316.660000", "144317.120000", "144317.580000", "144318.040000", "144318.500000", "144318.960000", "144319.420000", "144319.880000", "144320.340000", "144320.800000", "144321.260000", "144321.720000", "144322.180000", "144322.640000", "144323.100000", "144323.560000", "144324.020000", "144324.480000", "144324.940000", "144325.400000", "144325.860000", "144326.320000", "144326.780000", "144327.240000", "144327.700000", "144328.160000", "144328.620000", "144329.080000", "144329.540000", "144330.000000", "144330.460000", "144330.920000", "144331.380000", "144331.840000", "144332.300000", "144332.760000", "144333.220000", "144333.680000", "144334.140000", "144334.600000", "144335.060000", "144335.520000", "144335.980000", "144336.440000", "144336.900000", "144337.360000", "144337.820000", "144338.280000", "144338.740000", "144339.200000", "144339.660000", "144340.120000", "144340.580000", "144341.040000", "144341.500000", "144341.960000", "144342.420000", "144342.880000", "144343.340000", "144343.800000", "144344.260000", "144344.720000", "144345.180000", "144345.640000", "144346.100000", "144346.560000", "144347.020000", "144347.480000", "144347.940000", "144348.400000", "144348.860000", "144349.320000", "144349.780000", "144350.240000", "144350.700000", "144351.160000", "144351.620000", "144352.080000", "144352.540000", "144353.000000", "144353.460000", "144353.920000", "144354.380000", "144354.840000", "144355.300000", "144355.760000", "144356.220000", "144356.680000", "144357.140000", "144357.600000", "144358.060000", "144358.520000", "144358.980000", "144359.440000", "144359.900000", "144400.360000", "144400.820000", "144401.280000", "144401.740000", "144402.200000", "144402.660000", "144403.120000", "144403.580000", "144404.040000", "144404.500000", "144404.960000", "144405.420000", "144405.880000", "144406.340000", "144406.800000", "144407.260000", "144407.720000", "144408.180000", "144408.640000", "144409.100000", "144409.560000", "144410.020000", "144410.480000", "144410.940000", "144411.400000", "144411.860000", "144412.320000", "144412.780000", "144413.240000", "144413.700000", "144414.160000", "144414.620000", "144415.080000", "144415.540000", "144416.000000", "144416.460000", "144416.920000", "144417.380000", "144417.840000", "144418.300000", "144418.760000", "144419.220000", "144419.680000", "144420.140000", "144420.600000", "144421.060000", "144421.520000", "144421.980000", "144422.440000", "144422.900000", "144423.360000", "144423.820000", "144424.280000", "144424.740000", "144425.200000", "144425.660000", "144426.120000", "144426.580000", "144427.040000", "144427.500000", "144427.960000", "144428.420000", "144428.880000", "144429.340000", "144429.800000", "144430.260000", "144430.720000", "144431.180000", "144431.640000", "144432.100000", "144432.560000", "144433.020000", "144433.480000", "144433.940000", "144434.400000", "144434.860000", "144435.320000", "144435.780000", "144436.240000", "144436.700000", "144437.160000", "144437.620000", "144438.080000", "144438.540000", "144439.000000", "144439.460000", "144439.920000", "144440.380000", "144440.840000", "144441.300000", "144441.760000", "144442.220000", "144442.680000", "144443.140000", "144443.600000", "144444.060000", "144444.520000", "144444.980000", "144445.440000", "144445.900000", "144446.360000", "144446.820000", "144447.280000", "144447.740000", "144448.200000", "144448.660000", "144449.120000", "144449.580000", "144450.040000", "144450.500000", "144450.960000", "144451.420000", "144451.880000", "144452.340000", "144452.800000", "144453.260000", "144453.720000", "144454.180000", "144454.640000", "144455.100000", "144455.560000", "144456.020000", "144456.480000", "144456.940000", "144457.400000", "144457.860000", "144458.320000", "144458.780000", "144459.240000", "144459.700000", "144500.160000", "144500.620000", "144501.080000", "144501.540000", "144502.000000", "144502.460000", "144502.920000", "144503.380000", "144503.840000", "144504.300000", "144504.760000", "144505.220000", "144505.680000", "144506.140000", "144506.600000", "144507.060000", "144507.520000", "144507.980000", "144508.440000", "144508.900000", "144509.360000", "144509.820000", "144510.280000", "144510.740000", "144511.200000", "144511.660000", "144512.120000", "144512.580000", "144513.040000", "144513.500000", "144513.960000", "144514.420000", "144514.880000", "144515.340000", "144515.800000", "144516.260000", "144516.720000", "144517.180000", "144517.640000", "144518.100000", "144518.560000", "144519.020000", "144519.480000", "144519.940000", "144520.400000", "144520.860000", "144521.320000", "144521.780000", "144522.240000", "144522.700000", "144523.160000", "144523.620000", "144524.080000", "144524.540000", "144525.000000", "144525.460000", "144525.920000", "144526.380000", "144526.840000", "144527.300000", "144527.760000", "144528.220000", "144528.680000", "144529.140000", "144529.600000", "144530.060000", "144530.520000", "144530.980000", "144531.440000", "144531.900000", "144532.360000", "144532.820000", "144533.280000", "144533.740000", "144534.200000", "144534.660000", "144535.120000", "144535.580000", "144536.040000", "144536.500000", "144536.960000", "144537.420000", "144537.880000", "144538.340000", "144538.800000", "144539.260000", "144539.720000", "144540.180000", "144540.640000", "144541.100000", "144541.560000", "144542.020000", "144542.480000", "144542.940000", "144543.400000", "144543.860000", "144544.320000", "144544.780000", "144545.240000", "144545.700000", "144546.160000", "144546.620000", "144547.080000", "144547.540000", "144548.000000", "144548.460000", "144548.920000", "144549.380000", "144549.840000", "144550.300000", "144550.760000", "144551.220000", "144551.680000", "144552.140000", "144552.600000", "144553.060000", "144553.520000", "144553.980000", "144554.440000", "144554.900000", "144555.360000"],
