{
  "AcquisitionMatrixPE": 82,
  "AcquisitionNumber": 1,
  "AcquisitionTime": "14:32:7.215000",
  "BandwidthPerPixelPhaseEncode": 24.888,
  "BaseResolution": 82,
  "BodyPartExamined": "BRAIN",
  "ConsistencyInfo": "N4_VE11E_LATEST_20181129",
  "ConversionSoftware": "dcm2niix",
  "ConversionSoftwareVersion": "v1.0.20201102",
  "DerivedVendorReportedEchoSpacing": 0.00049,
  "DeviceSerialNumber": "66112",
  "DwellTime": 2e-06,
  "EchoTime": 0.0272,
  "EchoTrainLength": 82,
  "EffectiveEchoSpacing": 0.00049,
  "FlipAngle": 44,
  "ImageComments": "Unaliased MB8/PE3",
  "ImageOrientationPatientDICOM": [0.994573, -0.104038, 0.000427383, 0.101376, 0.970028, 0.220835],
  "ImageType": [
    "ORIGINAL",
    "PRIMARY",
    "M",
    "MB",
    "ND",
    "NORM",
    "MOSAIC"
],
  "ImagingFrequency": 123.259,
  "InPlanePhaseEncodingDirectionDICOM": "COL",
  "InstitutionAddress": "Maynard 3,Hanover,NH,US,03755",
  "InstitutionName": "Dartmouth College - PBS",
  "InstitutionalDepartmentName": "Department",
  "MRAcquisitionType": "2D",
  "MagneticFieldStrength": 3,
  "Manufacturer": "Siemens",
  "ManufacturersModelName": "Prisma",
  "Modality": "MR",
  "MultibandAccelerationFactor": 8,
  "PartialFourier": 1,
  "PatientPosition": "HFS",
  "PercentPhaseFOV": 100,
  "PercentSampling": 100,
  "PhaseEncodingDirection": "j-",
  "PhaseEncodingSteps": 82,
  "PhaseResolution": 1,
  "PixelBandwidth": 3050,
  "ProcedureStepDescription": "Wager_Wager^1076_spacetop",
  "ProtocolName": "func_run-05_task-social_acq-ap-mb8",
  "PulseSequenceDetails": "%CustomerSeq%\\cmrr_mbep2d_bold",
  "ReceiveCoilActiveElements": "HEA;HEP",
  "ReceiveCoilName": "Head_32",
  "ReconMatrixPE": 82,
  "RepetitionTime": 0.46,
  "SAR": 0.0896926,
  "ScanOptions": "FS",
  "ScanningSequence": "EP",
  "SequenceName": "epfid2d1_82",
  "SequenceVariant": "SK\\SS",
  "SeriesDescription": "func_run-05_task-social_acq-ap-mb8",
  "SeriesNumber": 22,
  "ShimSetting": [4214, -7806, -7152, 270, -139, 104, -50, 90],
  "SliceThickness": 2.7,
  "SliceTiming": [0, 0.2525, 0.065, 0.315, 0.1275, 0.3775, 0.19, 0, 0.2525, 0.065, 0.315, 0.1275, 0.3775, 0.19, 0, 0.2525, 0.065, 0.315, 0.1275, 0.3775, 0.19, 0, 0.2525, 0.065, 0.315, 0.1275, 0.3775, 0.19, 0, 0.2525, 0.065, 0.315, 0.1275, 0.3775, 0.19, 0, 0.2525, 0.065, 0.315, 0.1275, 0.3775, 0.19, 0, 0.2525, 0.065, 0.315, 0.1275, 0.3775, 0.19, 0, 0.2525, 0.065, 0.315, 0.1275, 0.3775, 0.19],
  "SoftwareVersions": "syngo MR E11",
  "SpacingBetweenSlices": 2.7,
  "StationName": "AWP66112",
  "TaskName": "social",
  "TotalReadoutTime": 0.03969,
  "TxRefAmp": 246.026,
  "WipMemBlock": "3af750b4-c482-4ece-887b-babcb277cde4||Sequence: R016 ve11e/master r/434b28f1; Aug  7 2019 18:53:46 by eja",
  "dcmmeta_affine": [
    [-2.6683671474456787, 0.2719839811325073, 0.06315259635448456, 101.84870910644531],
    [0.2791271209716797, 2.6025149822235107, 0.5929012894630432, -114.95855712890625],
    [0.0011466372525319457, -0.5924836993217468, 2.6333401203155518, -18.487125396728516],
    [0.0, 0.0, 0.0, 1.0]
],
  "dcmmeta_reorient_transform": [
    [0.0, -1.0, 0.0, 81.0],
    [1.0, 0.0, 0.0, 0.0],
    [0.0, 0.0, 1.0, 0.0],
    [0.0, 0.0, 0.0, 1.0]
],
  "dcmmeta_shape": [82, 82, 56, 872],
  "dcmmeta_slice_dim": 2,
  "dcmmeta_version": 0.6,
  "global": {
    "const": {
      "AccessionNumber": "A004290",
      "AcquisitionMatrix": [82, 0, 0, 82],
      "AngioFlag": "N",
      "BitsAllocated": 16,
      "BitsStored": 16,
      "BodyPartExamined": "BRAIN",
      "Columns": 656,
      "EchoNumbers": 1,
      "EchoTime": 27.2,
      "EchoTrainLength": 82,
      "FlipAngle": 44.0,
      "HighBit": 15,
      "ImageOrientationPatient": [0.9945732013486, -0.1040382838334, 0.00042738296495, 0.10137584560418, 0.97002830714857, 0.22083482800164],
      "ImagePositionPatient": [-967.7601965194, -762.65749441577, -236.8502118102],
      "ImageType": [
        "ORIGINAL",
        "PRIMARY",
        "M",
        "MB",
        "ND",
        "NORM",
        "MOSAIC"
],
      "ImagedNucleus": "1H",
      "ImagingFrequency": 123.259105,
      "InPlanePhaseEncodingDirection": "COL",
      "MRAcquisitionType": "2D",
      "MagneticFieldStrength": 3.0,
      "Manufacturer": "SIEMENS",
      "ManufacturerModelName": "Prisma",
      "Modality": "MR",
      "NumberOfAverages": 1.0,
      "NumberOfPhaseEncodingSteps": 82,
      "PercentPhaseFieldOfView": 100.0,
      "PercentSampling": 100.0,
      "PerformedProcedureStepStartTime": "124713.907000",
      "PhotometricInterpretation": "MONOCHROME2",
      "PixelBandwidth": 3050.0,
      "PixelRepresentation": 0,
      "PixelSpacing": [2.6829268932343, 2.6829268932343],
      "ProtocolName": "func_run-05_task-social_acq-ap-mb8",
      "RepetitionTime": 460.0,
      "Rows": 656,
      "SAR": 0.08969259786656,
      "SamplesPerPixel": 1,
      "ScanOptions": "FS",
      "ScanningSequence": "EP",
      "SequenceName": "epfid2d1_82",
      "SequenceVariant": [
        "SK",
        "SS"
],
      "SeriesDescription": "func_run-05_task-social_acq-ap-mb8",
      "SeriesNumber": 22,
      "SeriesTime": "143225.423000",
      "SliceLocation": -40.892576503271,
      "SliceThickness": 2.7000000476837,
      "SmallestImagePixelValue": 0,
      "SoftwareVersions": "syngo MR E11",
      "SpacingBetweenSlices": 2.7000000606515,
      "SpecificCharacterSet": "ISO_IR 100",
      "StudyID": "1",
      "StudyTime": "124713.831000",
      "TransmitCoilName": "Body",
      "VariableFlipAngleFlag": "N",
      "WindowCenterWidthExplanation": "Algo1"
    },
    "slices": {}
  },
  "time": {
    "samples": {
      "AcquisitionNumber": [1, 2, 3, 4, 5, 6, 7, 8, 9, 10, 11, 12, 13, 14, 15, 16, 17, 18, 19, 20, 21, 22, 23, 24, 25, 26, 27, 28, 29, 30, 31, 32, 33, 34, 35, 36, 37, 38, 39, 40, 41, 42, 43, 44, 45, 46, 47, 48, 49, 50, 51, 52, 53, 54, 55, 56, 57, 58, 59, 60, 61, 62, 63, 64, 65, 66, 67, 68, 69, 70, 71, 72, 73, 74, 75, 76, 77, 78, 79, 80, 81, 82, 83, 84, 85, 86, 87, 88, 89, 90, 91, 92, 93, 94, 95, 96, 97, 98, 99, 100, 101, 102, 103, 104, 105, 106, 107, 108, 109, 110, 111, 112, 113, 114, 115, 116, 117, 118, 119, 120, 121, 122, 123, 124, 125, 126, 127, 128, 129, 130, 131, 132, 133, 134, 135, 136, 137, 138, 139, 140, 141, 142, 143, 144, 145, 146, 147, 148, 149, 150, 151, 152, 153, 154, 155, 156, 157, 158, 159, 160, 161, 162, 163, 164, 165, 166, 167, 168, 169, 170, 171, 172, 173, 174, 175, 176, 177, 178, 179, 180, 181, 182, 183, 184, 185, 186, 187, 188, 189, 190, 191, 192, 193, 194, 195, 196, 197, 198, 199, 200, 201, 202, 203, 204, 205, 206, 207, 208, 209, 210, 211, 212, 213, 214, 215, 216, 217, 218, 219, 220, 221, 222, 223, 224, 225, 226, 227, 228, 229, 230, 231, 232, 233, 234, 235, 236, 237, 238, 239, 240, 241, 242, 243, 244, 245, 246, 247, 248, 249, 250, 251, 252, 253, 254, 255, 256, 257, 258, 259, 260, 261, 262, 263, 264, 265, 266, 267, 268, 269, 270, 271, 272, 273, 274, 275, 276, 277, 278, 279, 280, 281, 282, 283, 284, 285, 286, 287, 288, 289, 290, 291, 292, 293, 294, 295, 296, 297, 298, 299, 300, 301, 302, 303, 304, 305, 306, 307, 308, 309, 310, 311, 312, 313, 314, 315, 316, 317, 318, 319, 320, 321, 322, 323, 324, 325, 326, 327, 328, 329, 330, 331, 332, 333, 334, 335, 336, 337, 338, 339, 340, 341, 342, 343, 344, 345, 346, 347, 348, 349, 350, 351, 352, 353, 354, 355, 356, 357, 358, 359, 360, 361, 362, 363, 364, 365, 366, 367, 368, 369, 370, 371, 372, 373, 374, 375, 376, 377, 378, 379, 380, 381, 382, 383, 384, 385, 386, 387, 388, 389, 390, 391, 392, 393, 394, 395, 396, 397, 398, 399, 400, 401, 402, 403, 404, 405, 406, 407, 408, 409, 410, 411, 412, 413, 414, 415, 416, 417, 418, 419, 420, 421, 422, 423, 424, 425, 426, 427, 428, 429, 430, 431, 432, 433, 434, 435, 436, 437, 438, 439, 440, 441, 442, 443, 444, 445, 446, 447, 448, 449, 450, 451, 452, 453, 454, 455, 456, 457, 458, 459, 460, 461, 462, 463, 464, 465, 466, 467, 468, 469, 470, 471, 472, 473, 474, 475, 476, 477, 478, 479, 480, 481, 482, 483, 484, 485, 486, 487, 488, 489, 490, 491, 492, 493, 494, 495, 496, 497, 498, 499, 500, 501, 502, 503, 504, 505, 506, 507, 508, 509, 510, 511, 512, 513, 514, 515, 516, 517, 518, 519, 520, 521, 522, 523, 524, 525, 526, 527, 528, 529, 530, 531, 532, 533, 534, 535, 536, 537, 538, 539, 540, 541, 542, 543, 544, 545, 546, 547, 548, 549, 550, 551, 552, 553, 554, 555, 556, 557, 558, 559, 560, 561, 562, 563, 564, 565, 566, 567, 568, 569, 570, 571, 572, 573, 574, 575, 576, 577, 578, 579, 580, 581, 582, 583, 584, 585, 586, 587, 588, 589, 590, 591, 592, 593, 594, 595, 596, 597, 598, 599, 600, 601, 602, 603, 604, 605, 606, 607, 608, 609, 610, 611, 612, 613, 614, 615, 616, 617, 618, 619, 620, 621, 622, 623, 624, 625, 626, 627, 628, 629, 630, 631, 632, 633, 634, 635, 636, 637, 638, 639, 640, 641, 642, 643, 644, 645, 646, 647, 648, 649, 650, 651, 652, 653, 654, 655, 656, 657, 658, 659, 660, 661, 662, 663, 664, 665, 666, 667, 668, 669, 670, 671, 672, 673, 674, 675, 676, 677, 678, 679, 680, 681, 682, 683, 684, 685, 686, 687, 688, 689, 690, 691, 692, 693, 694, 695, 696, 697, 698, 699, 700, 701, 702, 703, 704, 705, 706, 707, 708, 709, 710, 711, 712, 713, 714, 715, 716, 717, 718, 719, 720, 721, 722, 723, 724, 725, 726, 727, 728, 729, 730, 731, 732, 733, 734, 735, 736, 737, 738, 739, 740, 741, 742, 743, 744, 745, 746, 747, 748, 749, 750, 751, 752, 753, 754, 755, 756, 757, 758, 759, 760, 761, 762, 763, 764, 765, 766, 767, 768, 769, 770, 771, 772, 773, 774, 775, 776, 777, 778, 779, 780, 781, 782, 783, 784, 785, 786, 787, 788, 789, 790, 791, 792, 793, 794, 795, 796, 797, 798, 799, 800, 801, 802, 803, 804, 805, 806, 807, 808, 809, 810, 811, 812, 813, 814, 815, 816, 817, 818, 819, 820, 821, 822, 823, 824, 825, 826, 827, 828, 829, 830, 831, 832, 833, 834, 835, 836, 837, 838, 839, 840, 841, 842, 843, 844, 845, 846, 847, 848, 849, 850, 851, 852, 853, 854, 855, 856, 857, 858, 859, 860, 861, 862, 863, 864, 865, 866, 867, 868, 869, 870, 871, 872],
      "AcquisitionTime": ["143207.215000", "143207.675000", "143208.135000", "143208.595000", "143209.055000", "143209.515000", "143209.975000", "143210.435000", "143210.895000", "143211.355000", "143211.815000", "143212.275000", "143212.735000", "143213.195000", "143213.655000", "143214.115000", "143214.575000", "143215.035000", "143215.495000", "143215.955000", "143216.415000", "143216.875000", "143217.335000", "143217.795000", "143218.255000", "143218.715000", "143219.175000", "143219.635000", "143220.095000", "143220.555000", "143221.015000", "143221.475000", "143221.935000", "143222.395000", "143222.855000", "143223.315000", "143223.775000", "143224.235000", "143224.695000", "143225.155000", "143225.615000", "143226.075000", "143226.535000", "143226.995000", "143227.455000", "143227.915000", "143228.375000", "143228.835000", "143229.295000", "143229.755000", "143230.215000", "143230.675000", "143231.135000", "143231.595000", "143232.055000", "143232.515000", "143232.975000", "143233.435000", "143233.895000", "143234.355000", "143234.815000", "143235.275000", "143235.735000", "143236.195000", "143236.655000", "143237.115000", "143237.575000", "143238.035000", "143238.495000", "143238.955000", "143239.415000", "143239.875000", "143240.335000", "143240.795000", "143241.255000", "143241.715000", "143242.175000", "143242.635000", "143243.095000", "143243.555000", "143244.015000", "143244.475000", "143244.935000", "143245.395000", "143245.855000", "143246.315000", "143246.775000", "143247.235000", "143247.695000", "143248.155000", "143248.615000", "143249.075000", "143249.535000", "143249.995000", "143250.455000", "143250.915000", "143251.375000", "143251.835000", "143252.295000", "143252.755000", "143253.215000", "143253.675000", "143254.135000", "143254.595000", "143255.055000", "143255.515000", "143255.975000", "143256.435000", "143256.895000", "143257.355000", "143257.815000", "143258.275000", "143258.735000", "143259.195000", "143259.655000", "143300.115000", "143300.575000", "143301.035000", "143301.495000", "143301.955000", "143302.415000", "143302.875000", "143303.335000", "143303.795000", "143304.255000", "143304.715000", "143305.175000", "143305.635000", "143306.095000", "143306.555000", "143307.015000", "143307.475000", "143307.935000", "143308.395000", "143308.855000", "143309.315000", "143309.775000", "143310.235000", "143310.695000", "143311.155000", "143311.615000", "143312.075000", "143312.535000", "143312.995000", "143313.455000", "143313.915000", "143314.375000", "143314.835000", "143315.295000", "143315.755000", "143316.215000", "143316.675000", "143317.135000", "143317.595000", "143318.055000", "143318.515000", "143318.975000", "143319.435000", "143319.895000", "143320.355000", "143320.815000", "143321.275000", "143321.735000", "143322.195000", "143322.655000", "143323.115000", "143323.575000", "143324.035000", "143324.495000", "143324.955000", "143325.415000", "143325.875000", "143326.335000", "143326.795000", "143327.255000", "143327.715000", "143328.175000", "143328.635000", "143329.095000", "143329.555000", "143330.015000", "143330.475000", "143330.935000", "143331.395000", "143331.855000", "143332.315000", "143332.775000", "143333.235000", "143333.695000", "143334.155000", "143334.615000", "143335.075000", "143335.535000", "143335.995000", "143336.455000", "143336.915000", "143337.375000", "143337.835000", "143338.295000", "143338.755000", "143339.215000", "143339.675000", "143340.135000", "143340.595000", "143341.055000", "143341.515000", "143341.975000", "143342.435000", "143342.895000", "143343.355000", "143343.815000", "143344.275000", "143344.735000", "143345.195000", "143345.655000", "143346.115000", "143346.575000", "143347.035000", "143347.495000", "143347.955000", "143348.415000", "143348.875000", "143349.335000", "143349.795000", "143350.255000", "143350.715000", "143351.175000", "143351.635000", "143352.095000", "143352.555000", "143353.015000", "143353.475000", "143353.935000", "143354.395000", "143354.855000", "143355.315000", "143355.775000", "143356.235000", "143356.695000", "143357.155000", "143357.615000", "143358.075000", "143358.535000", "143358.995000", "143359.455000", "143359.915000", "143400.375000", "143400.835000", "143401.295000", "143401.755000", "143402.215000", "143402.675000", "143403.135000", "143403.595000", "143404.055000", "143404.515000", "143404.975000", "143405.435000", "143405.895000", "143406.355000", "143406.815000", "143407.275000", "143407.735000", "143408.195000", "143408.655000", "143409.115000", "143409.575000", "143410.035000", "143410.495000", "143410.955000", "143411.415000", "143411.875000", "143412.335000", "143412.795000", "143413.255000", "143413.715000", "143414.175000", "143414.635000", "143415.095000", "143415.555000", "143416.015000", "143416.475000", "143416.935000", "143417.395000", "143417.855000", "143418.315000", "143418.775000", "143419.235000", "143419.695000", "143420.155000", "143420.615000", "143421.075000", "143421.535000", "143421.995000", "143422.455000", "143422.915000", "143423.375000", "143423.835000", "143424.295000", "143424.755000", "143425.215000", "143425.675000", "143426.135000", "143426.595000", "143427.055000", "143427.515000", "143427.975000", "143428.435000", "143428.895000", "143429.355000", "143429.815000", "143430.275000", "143430.735000", "143431.195000", "143431.655000", "143432.115000", "143432.575000", "143433.035000", "143433.495000", "143433.955000", "143434.415000", "143434.875000", "143435.335000", "143435.795000", "143436.255000", "143436.715000", "143437.175000", "143437.635000", "143438.095000", "143438.555000", "143439.015000", "143439.475000", "143439.935000", "143440.395000", "143440.855000", "143441.315000", "143441.775000", "143442.235000", "143442.695000", "143443.155000", "143443.615000", "143444.075000", "143444.535000", "143444.995000", "143445.455000", "143445.915000", "143446.375000", "143446.835000", "143447.295000", "143447.755000", "143448.215000", "143448.675000", "143449.135000", "143449.595000", "143450.055000", "143450.515000", "143450.975000", "143451.435000", "143451.895000", "143452.355000", "143452.815000", "143453.275000", "143453.735000", "143454.195000", "143454.655000", "143455.115000", "143455.575000", "143456.035000", "143456.495000", "143456.955000", "143457.415000", "143457.875000", "143458.335000", "143458.795000", "143459.255000", "143459.715000", "143500.175000", "143500.635000", "143501.095000", "143501.555000", "143502.015000", "143502.475000", "143502.935000", "143503.395000", "143503.855000", "143504.315000", "143504.775000", "143505.235000", "143505.695000", "143506.155000", "143506.615000", "143507.075000", "143507.535000", "143507.995000", "143508.455000", "143508.915000", "143509.375000", "143509.835000", "143510.295000", "143510.755000", "143511.215000", "143511.675000", "143512.135000", "143512.595000", "143513.055000", "143513.515000", "143513.975000", "143514.435000", "143514.895000", "143515.355000", "143515.815000", "143516.275000", "143516.735000", "143517.195000", "143517.655000", "143518.115000", "143518.575000", "143519.035000", "143519.495000", "143519.955000", "143520.415000", "143520.875000", "143521.335000", "143521.795000", "143522.255000", "143522.715000", "143523.175000", "143523.635000", "143524.095000", "143524.555000", "143525.015000", "143525.475000", "143525.935000", "143526.395000", "143526.855000", "143527.315000", "143527.775000", "143528.235000", "143528.695000", "143529.155000", "143529.615000", "143530.075000", "143530.535000", "143530.995000", "143531.455000", "143531.915000", "143532.375000", "143532.835000", "143533.295000", "143533.755000", "143534.215000", "143534.675000", "143535.135000", "143535.595000", "143536.055000", "143536.515000", "143536.975000", "143537.435000", "143537.895000", "143538.355000", "143538.815000", "143539.275000", "143539.735000", "143540.195000", "143540.655000", "143541.115000", "143541.575000", "143542.035000", "143542.495000", "143542.955000", "143543.415000", "143543.875000", "143544.335000", "143544.795000", "143545.255000", "143545.715000", "143546.175000", "143546.635000", "143547.095000", "143547.555000", "143548.015000", "143548.475000", "143548.935000", "143549.395000", "143549.855000", "143550.315000", "143550.775000", "143551.235000", "143551.695000", "143552.155000", "143552.615000", "143553.075000", "143553.535000", "143553.995000", "143554.455000", "143554.915000", "143555.375000", "143555.835000", "143556.295000", "143556.755000", "143557.215000", "143557.675000", "143558.135000", "143558.595000", "143559.055000", "143559.515000", "143559.975000", "143600.435000", "143600.895000", "143601.355000", "143601.815000", "143602.275000", "143602.735000", "143603.195000", "143603.655000", "143604.115000", "143604.575000", "143605.035000", "143605.495000", "143605.955000", "143606.415000", "143606.875000", "143607.335000", "143607.795000", "143608.255000", "143608.715000", "143609.175000", "143609.635000", "143610.095000", "143610.555000", "143611.015000", "143611.475000", "143611.935000", "143612.395000", "143612.855000", "143613.315000", "143613.775000", "143614.235000", "143614.695000", "143615.155000", "143615.615000", "143616.075000", "143616.535000", "143616.995000", "143617.455000", "143617.915000", "143618.375000", "143618.835000", "143619.295000", "143619.755000", "143620.215000", "143620.675000", "143621.135000", "143621.595000", "143622.055000", "143622.515000", "143622.975000", "143623.435000", "143623.895000", "143624.355000", "143624.815000", "143625.275000", "143625.735000", "143626.195000", "143626.655000", "143627.115000", "143627.575000", "143628.035000", "143628.495000", "143628.955000", "143629.415000", "143629.875000", "143630.335000", "143630.795000", "143631.255000", "143631.715000", "143632.175000", "143632.635000", "143633.095000", "143633.555000", "143634.015000", "143634.475000", "143634.935000", "143635.395000", "143635.855000", "143636.315000", "143636.775000", "143637.235000", "143637.695000", "143638.155000", "143638.615000", "143639.075000", "143639.535000", "143639.995000", "143640.455000", "143640.915000", "143641.375000", "143641.835000", "143642.295000", "143642.755000", "143643.215000", "143643.675000", "143644.135000", "143644.595000", "143645.055000", "143645.515000", "143645.975000", "143646.435000", "143646.895000", "143647.355000", "143647.815000", "143648.275000", "143648.735000", "143649.195000", "143649.655000", "143650.115000", "143650.575000", "143651.035000", "143651.495000", "143651.955000", "143652.415000", "143652.875000", "143653.335000", "143653.795000", "143654.255000", "143654.715000", "143655.175000", "143655.635000", "143656.095000", "143656.555000", "143657.015000", "143657.475000", "143657.935000", "143658.395000", "143658.855000", "143659.315000", "143659.775000", "143700.235000", "143700.695000", "143701.155000", "143701.615000", "143702.075000", "143702.535000", "143702.995000", "143703.455000", "143703.915000", "143704.375000", "143704.835000", "143705.295000", "143705.755000", "143706.215000", "143706.675000", "143707.135000", "143707.595000", "143708.055000", "143708.515000", "143708.975000", "143709.435000", "143709.895000", "143710.355000", "143710.815000", "143711.275000", "143711.735000", "143712.195000", "143712.655000", "143713.115000", "143713.575000", "143714.035000", "143714.495000", "143714.955000", "143715.415000", "143715.875000", "143716.335000", "143716.795000", "143717.255000", "143717.715000", "143718.175000", "143718.635000", "143719.095000", "143719.555000", "143720.015000", "143720.475000", "143720.935000", "143721.395000", "143721.855000", "143722.315000", "143722.775000", "143723.235000", "143723.695000", "143724.155000", "143724.615000", "143725.075000", "143725.535000", "143725.995000", "143726.455000", "143726.915000", "143727.375000", "143727.835000", "143728.295000", "143728.755000", "143729.215000", "143729.675000", "143730.135000", "143730.595000", "143731.055000", "143731.515000", "143731.975000", "143732.435000", "143732.895000", "143733.355000", "143733.815000", "143734.275000", "143734.735000", "143735.195000", "143735.655000", "143736.115000", "143736.575000", "143737.035000", "143737.495000", "143737.955000", "143738.415000", "143738.875000", "143739.335000", "143739.795000", "143740.255000", "143740.715000", "143741.175000", "143741.635000", "143742.095000", "143742.555000", "143743.015000", "143743.475000", "143743.935000", "143744.395000", "143744.855000", "143745.315000", "143745.775000", "143746.235000", "143746.695000", "143747.155000", "143747.615000", "143748.075000", "143748.535000", "143748.995000", "143749.455000", "143749.915000", "143750.375000", "143750.835000", "143751.295000", "143751.755000", "143752.215000", "143752.675000", "143753.135000", "143753.595000", "143754.055000", "143754.515000", "143754.975000", "143755.435000", "143755.895000", "143756.355000", "143756.815000", "143757.275000", "143757.735000", "143758.195000", "143758.655000", "143759.115000", "143759.575000", "143800.035000", "143800.495000", "143800.955000", "143801.415000", "143801.875000", "143802.335000", "143802.795000", "143803.255000", "143803.715000", "143804.175000", "143804.635000", "143805.095000", "143805.555000", "143806.015000", "143806.475000", "143806.935000", "143807.395000", "143807.855000", "143808.315000", "143808.775000", "143809.235000", "143809.695000", "143810.155000", "143810.615000", "143811.075000", "143811.535000", "143811.995000", "143812.455000", "143812.915000", "143813.375000", "143813.835000", "143814.295000", "143814.755000", "143815.215000", "143815.675000", "143816.135000", "143816.595000", "143817.055000", "143817.515000", "143817.975000", "143818.435000", "143818.895000", "143819.355000", "143819.815000", "143820.275000", "143820.735000", "143821.195000", "143821.655000", "143822.115000", "143822.575000", "143823.035000", "143823.495000", "143823.955000", "143824.415000", "143824.875000", "143825.335000", "143825.795000", "143826.255000", "143826.715000", "143827.175000", "143827.635000", "143828.095000", "143828.555000", "143829.015000", "143829.475000", "143829.935000", "143830.395000", "143830.855000", "143831.315000", "143831.775000", "143832.235000", "143832.695000", "143833.155000", "143833.615000", "143834.075000", "143834.535000", "143834.995000", "143835.455000", "143835.915000", "143836.375000", "143836.835000", "143837.295000", "143837.755000", "143838.215000", "143838.675000", "143839.135000", "143839.595000", "143840.055000", "143840.515000", "143840.975000", "143841.435000", "143841.895000", "143842.355000", "143842.815000", "143843.275000", "143843.735000", "143844.195000", "143844.655000", "143845.115000", "143845.575000", "143846.035000", "143846.495000", "143846.955000", "143847.415000", "143847.875000"],
