{
  "AcquisitionMatrixPE": 82,
  "AcquisitionNumber": 1,
  "AcquisitionTime": "16:18:4.452500",
  "BandwidthPerPixelPhaseEncode": 24.888,
  "BaseResolution": 82,
  "BodyPartExamined": "BRAIN",
  "ConsistencyInfo": "N4_VE11C_LATEST_20160120",
  "ConversionSoftware": "dcm2niix",
  "ConversionSoftwareVersion": "v1.0.20201102",
  "DerivedVendorReportedEchoSpacing": 0.00049,
  "DeviceSerialNumber": "66112",
  "DwellTime": 2e-06,
  "EchoTime": 0.0272,
  "EchoTrainLength": 82,
  "EffectiveEchoSpacing": 0.00049,
  "FlipAngle": 44,
  "ImageComments": "Unaliased MB8/PE3",
  "ImageOrientationPatientDICOM": [0.998848, 0.0277578, 0.0391475, -0.03139, 0.994939, 0.0954474],
  "ImageType": [
    "ORIGINAL",
    "PRIMARY",
    "M",
    "MB",
    "ND",
    "NORM",
    "MOSAIC"
],
  "ImagingFrequency": 123.252,
  "InPlanePhaseEncodingDirectionDICOM": "COL",
  "InstitutionAddress": "Maynard 3,Hanover,NH,US,03755",
  "InstitutionName": "Dartmouth College - PBS",
  "InstitutionalDepartmentName": "Department",
  "MRAcquisitionType": "2D",
  "MagneticFieldStrength": 3,
  "Manufacturer": "Siemens",
  "ManufacturersModelName": "Prisma",
  "Modality": "MR",
  "MultibandAccelerationFactor": 8,
  "PartialFourier": 1,
  "PatientPosition": "HFS",
  "PercentPhaseFOV": 100,
  "PercentSampling": 100,
  "PhaseEncodingDirection": "j-",
  "PhaseEncodingSteps": 82,
  "PhaseResolution": 1,
  "PixelBandwidth": 3050,
  "ProcedureStepDescription": "Wager_Wager^1076_spacetop",
  "ProtocolName": "func_run-02_task-faces_acq-ap-mb8",
  "PulseSequenceDetails": "%CustomerSeq%\\cmrr_mbep2d_bold",
  "ReceiveCoilActiveElements": "HEA;HEP",
  "ReceiveCoilName": "Head_32",
  "ReconMatrixPE": 82,
  "RepetitionTime": 0.46,
  "SAR": 0.0777757,
  "ScanOptions": "FS",
  "ScanningSequence": "EP",
  "SequenceName": "epfid2d1_82",
  "SequenceVariant": "SK\\SS",
  "SeriesDescription": "func_run-02_task-faces_acq-ap-mb8",
  "SeriesNumber": 20,
  "ShimSetting": [4148, -7732, -7316, 525, -56, -227, -31, 66],
  "SliceThickness": 2.7,
  "SliceTiming": [0, 0.25, 0.0625, 0.315, 0.125, 0.3775, 0.1875, 0, 0.25, 0.0625, 0.315, 0.125, 0.3775, 0.1875, 0, 0.25, 0.0625, 0.315, 0.125, 0.3775, 0.1875, 0, 0.25, 0.0625, 0.315, 0.125, 0.3775, 0.1875, 0, 0.25, 0.0625, 0.315, 0.125, 0.3775, 0.1875, 0, 0.25, 0.0625, 0.315, 0.125, 0.3775, 0.1875, 0, 0.25, 0.0625, 0.315, 0.125, 0.3775, 0.1875, 0, 0.25, 0.0625, 0.315, 0.125, 0.3775, 0.1875],
  "SoftwareVersions": "syngo MR E11",
  "SpacingBetweenSlices": 2.7,
  "StationName": "AWP66112",
  "TaskName": "faces",
  "TotalReadoutTime": 0.03969,
  "TxRefAmp": 221.713,
  "WipMemBlock": "d8df5b5f-cad5-4203-8b05-e28fe4ccb8cb||Sequence: R016 ve11c/master r/e634e98; Dec 19 2017 11:00:25 by eja",
  "dcmmeta_affine": [
    [-2.679835796356201, -0.08421707898378372, 0.09800982475280762, 112.18988037109375],
    [-0.0744720995426178, 2.6693496704101562, 0.26072898507118225, -105.0618896484375],
    [0.10502975434064865, -0.25607845187187195, 2.685593843460083, -80.7967529296875],
    [0.0, 0.0, 0.0, 1.0]
],
  "dcmmeta_reorient_transform": [
    [0.0, -1.0, 0.0, 81.0],
    [1.0, 0.0, 0.0, 0.0],
    [0.0, 0.0, 1.0, 0.0],
    [0.0, 0.0, 0.0, 1.0]
],
  "dcmmeta_shape": [82, 82, 56, 914],
  "dcmmeta_slice_dim": 2,
  "dcmmeta_version": 0.6,
  "global": {
    "const": {
      "AccessionNumber": "A003508",
      "AcquisitionMatrix": [82, 0, 0, 82],
      "AngioFlag": "N",
      "BitsAllocated": 16,
      "BitsStored": 16,
      "BodyPartExamined": "BRAIN",
      "Columns": 656,
      "EchoNumbers": 1,
      "EchoTime": 27.2,
      "EchoTrainLength": 82,
      "FlipAngle": 44.0,
      "HighBit": 15,
      "ImageOrientationPatient": [0.99884782752646, 0.02775778137465, 0.03914745226491, -0.031390001158, 0.99493942387572, 0.09544742346006],
      "ImagePositionPatient": [-850.31083759994, -898.63230569728, -205.17716655759],
      "ImageType": [
        "ORIGINAL",
        "PRIMARY",
        "M",
        "MB",
        "ND",
        "NORM",
        "MOSAIC"
],
      "ImagedNucleus": "1H",
      "ImagingFrequency": 123.252191,
      "InPlanePhaseEncodingDirection": "COL",
      "MRAcquisitionType": "2D",
      "MagneticFieldStrength": 3.0,
      "Manufacturer": "SIEMENS",
      "ManufacturerModelName": "Prisma",
      "Modality": "MR",
      "NumberOfAverages": 1.0,
      "NumberOfPhaseEncodingSteps": 82,
      "PercentPhaseFieldOfView": 100.0,
      "PercentSampling": 100.0,
      "PerformedProcedureStepStartTime": "143345.696000",
      "PhotometricInterpretation": "MONOCHROME2",
      "PixelBandwidth": 3050.0,
      "PixelRepresentation": 0,
      "PixelSpacing": [2.6829268932343, 2.6829268932343],
      "ProtocolName": "func_run-02_task-faces_acq-ap-mb8",
      "RepetitionTime": 460.0,
      "Rows": 656,
      "SAR": 0.07777566730014,
      "SamplesPerPixel": 1,
      "ScanOptions": "FS",
      "ScanningSequence": "EP",
      "SequenceName": "epfid2d1_82",
      "SequenceVariant": [
        "SK",
        "SS"
],
      "SeriesDescription": "func_run-02_task-faces_acq-ap-mb8",
      "SeriesNumber": 20,
      "SeriesTime": "161822.613000",
      "SliceLocation": -86.438607031337,
      "SliceThickness": 2.7000000476837,
      "SmallestImagePixelValue": 0,
      "SoftwareVersions": "syngo MR E11",
      "SpacingBetweenSlices": 2.6999999527921,
      "SpecificCharacterSet": "ISO_IR 100",
      "StudyID": "2",
      "StudyTime": "143345.618000",
      "TransmitCoilName": "Body",
      "VariableFlipAngleFlag": "N",
      "WindowCenterWidthExplanation": "Algo1",
      "dBdt": 0.0},
    "slices": {}
  },
  "time": {
    "samples": {
      "AcquisitionNumber": [1, 2, 3, 4, 5, 6, 7, 8, 9, 10, 11, 12, 13, 14, 15, 16, 17, 18, 19, 20, 21, 22, 23, 24, 25, 26, 27, 28, 29, 30, 31, 32, 33, 34, 35, 36, 37, 38, 39, 40, 41, 42, 43, 44, 45, 46, 47, 48, 49, 50, 51, 52, 53, 54, 55, 56, 57, 58, 59, 60, 61, 62, 63, 64, 65, 66, 67, 68, 69, 70, 71, 72, 73, 74, 75, 76, 77, 78, 79, 80, 81, 82, 83, 84, 85, 86, 87, 88, 89, 90, 91, 92, 93, 94, 95, 96, 97, 98, 99, 100, 101, 102, 103, 104, 105, 106, 107, 108, 109, 110, 111, 112, 113, 114, 115, 116, 117, 118, 119, 120, 121, 122, 123, 124, 125, 126, 127, 128, 129, 130, 131, 132, 133, 134, 135, 136, 137, 138, 139, 140, 141, 142, 143, 144, 145, 146, 147, 148, 149, 150, 151, 152, 153, 154, 155, 156, 157, 158, 159, 160, 161, 162, 163, 164, 165, 166, 167, 168, 169, 170, 171, 172, 173, 174, 175, 176, 177, 178, 179, 180, 181, 182, 183, 184, 185, 186, 187, 188, 189, 190, 191, 192, 193, 194, 195, 196, 197, 198, 199, 200, 201, 202, 203, 204, 205, 206, 207, 208, 209, 210, 211, 212, 213, 214, 215, 216, 217, 218, 219, 220, 221, 222, 223, 224, 225, 226, 227, 228, 229, 230, 231, 232, 233, 234, 235, 236, 237, 238, 239, 240, 241, 242, 243, 244, 245, 246, 247, 248, 249, 250, 251, 252, 253, 254, 255, 256, 257, 258, 259, 260, 261, 262, 263, 264, 265, 266, 267, 268, 269, 270, 271, 272, 273, 274, 275, 276, 277, 278, 279, 280, 281, 282, 283, 284, 285, 286, 287, 288, 289, 290, 291, 292, 293, 294, 295, 296, 297, 298, 299, 300, 301, 302, 303, 304, 305, 306, 307, 308, 309, 310, 311, 312, 313, 314, 315, 316, 317, 318, 319, 320, 321, 322, 323, 324, 325, 326, 327, 328, 329, 330, 331, 332, 333, 334, 335, 336, 337, 338, 339, 340, 341, 342, 343, 344, 345, 346, 347, 348, 349, 350, 351, 352, 353, 354, 355, 356, 357, 358, 359, 360, 361, 362, 363, 364, 365, 366, 367, 368, 369, 370, 371, 372, 373, 374, 375, 376, 377, 378, 379, 380, 381, 382, 383, 384, 385, 386, 387, 388, 389, 390, 391, 392, 393, 394, 395, 396, 397, 398, 399, 400, 401, 402, 403, 404, 405, 406, 407, 408, 409, 410, 411, 412, 413, 414, 415, 416, 417, 418, 419, 420, 421, 422, 423, 424, 425, 426, 427, 428, 429, 430, 431, 432, 433, 434, 435, 436, 437, 438, 439, 440, 441, 442, 443, 444, 445, 446, 447, 448, 449, 450, 451, 452, 453, 454, 455, 456, 457, 458, 459, 460, 461, 462, 463, 464, 465, 466, 467, 468, 469, 470, 471, 472, 473, 474, 475, 476, 477, 478, 479, 480, 481, 482, 483, 484, 485, 486, 487, 488, 489, 490, 491, 492, 493, 494, 495, 496, 497, 498, 499, 500, 501, 502, 503, 504, 505, 506, 507, 508, 509, 510, 511, 512, 513, 514, 515, 516, 517, 518, 519, 520, 521, 522, 523, 524, 525, 526, 527, 528, 529, 530, 531, 532, 533, 534, 535, 536, 537, 538, 539, 540, 541, 542, 543, 544, 545, 546, 547, 548, 549, 550, 551, 552, 553, 554, 555, 556, 557, 558, 559, 560, 561, 562, 563, 564, 565, 566, 567, 568, 569, 570, 571, 572, 573, 574, 575, 576, 577, 578, 579, 580, 581, 582, 583, 584, 585, 586, 587, 588, 589, 590, 591, 592, 593, 594, 595, 596, 597, 598, 599, 600, 601, 602, 603, 604, 605, 606, 607, 608, 609, 610, 611, 612, 613, 614, 615, 616, 617, 618, 619, 620, 621, 622, 623, 624, 625, 626, 627, 628, 629, 630, 631, 632, 633, 634, 635, 636, 637, 638, 639, 640, 641, 642, 643, 644, 645, 646, 647, 648, 649, 650, 651, 652, 653, 654, 655, 656, 657, 658, 659, 660, 661, 662, 663, 664, 665, 666, 667, 668, 669, 670, 671, 672, 673, 674, 675, 676, 677, 678, 679, 680, 681, 682, 683, 684, 685, 686, 687, 688, 689, 690, 691, 692, 693, 694, 695, 696, 697, 698, 699, 700, 701, 702, 703, 704, 705, 706, 707, 708, 709, 710, 711, 712, 713, 714, 715, 716, 717, 718, 719, 720, 721, 722, 723, 724, 725, 726, 727, 728, 729, 730, 731, 732, 733, 734, 735, 736, 737, 738, 739, 740, 741, 742, 743, 744, 745, 746, 747, 748, 749, 750, 751, 752, 753, 754, 755, 756, 757, 758, 759, 760, 761, 762, 763, 764, 765, 766, 767, 768, 769, 770, 771, 772, 773, 774, 775, 776, 777, 778, 779, 780, 781, 782, 783, 784, 785, 786, 787, 788, 789, 790, 791, 792, 793, 794, 795, 796, 797, 798, 799, 800, 801, 802, 803, 804, 805, 806, 807, 808, 809, 810, 811, 812, 813, 814, 815, 816, 817, 818, 819, 820, 821, 822, 823, 824, 825, 826, 827, 828, 829, 830, 831, 832, 833, 834, 835, 836, 837, 838, 839, 840, 841, 842, 843, 844, 845, 846, 847, 848, 849, 850, 851, 852, 853, 854, 855, 856, 857, 858, 859, 860, 861, 862, 863, 864, 865, 866, 867, 868, 869, 870, 871, 872, 873, 874, 875, 876, 877, 878, 879, 880, 881, 882, 883, 884, 885, 886, 887, 888, 889, 890, 891, 892, 893, 894, 895, 896, 897, 898, 899, 900, 901, 902, 903, 904, 905, 906, 907, 908, 909, 910, 911, 912, 913, 914],
      "AcquisitionTime": ["161804.452500", "161804.912500", "161805.372500", "161805.832500", "161806.292500", "161806.752500", "161807.212500", "161807.672500", "161808.132500", "161808.592500", "161809.052500", "161809.512500", "161809.972500", "161810.432500", "161810.892500", "161811.352500", "161811.812500", "161812.272500", "161812.732500", "161813.192500", "161813.652500", "161814.112500", "161814.572500", "161815.032500", "161815.492500", "161815.952500", "161816.412500", "161816.872500", "161817.332500", "161817.792500", "161818.252500", "161818.712500", "161819.172500", "161819.632500", "161820.092500", "161820.552500", "161821.012500", "161821.472500", "161821.932500", "161822.392500", "161822.852500", "161823.312500", "161823.772500", "161824.232500", "161824.692500", "161825.152500", "161825.612500", "161826.072500", "161826.532500", "161826.992500", "161827.452500", "161827.912500", "161828.372500", "161828.832500", "161829.292500", "161829.752500", "161830.212500", "161830.672500", "161831.132500", "161831.592500", "161832.052500", "161832.512500", "161832.972500", "161833.432500", "161833.892500", "161834.352500", "161834.812500", "161835.272500", "161835.732500", "161836.192500", "161836.652500", "161837.112500", "161837.572500", "161838.032500", "161838.492500", "161838.952500", "161839.412500", "161839.872500", "161840.332500", "161840.792500", "161841.252500", "161841.712500", "161842.172500", "161842.632500", "161843.092500", "161843.552500", "161844.012500", "161844.472500", "161844.932500", "161845.392500", "161845.852500", "161846.312500", "161846.772500", "161847.232500", "161847.692500", "161848.152500", "161848.612500", "161849.072500", "161849.532500", "161849.992500", "161850.452500", "161850.912500", "161851.372500", "161851.832500", "161852.292500", "161852.752500", "161853.212500", "161853.672500", "161854.132500", "161854.592500", "161855.052500", "161855.512500", "161855.972500", "161856.432500", "161856.892500", "161857.352500", "161857.812500", "161858.272500", "161858.732500", "161859.192500", "161859.652500", "161900.112500", "161900.572500", "161901.032500", "161901.492500", "161901.952500", "161902.412500", "161902.872500", "161903.332500", "161903.792500", "161904.252500", "161904.712500", "161905.172500", "161905.632500", "161906.092500", "161906.552500", "161907.012500", "161907.472500", "161907.932500", "161908.392500", "161908.852500", "161909.312500", "161909.772500", "161910.232500", "161910.692500", "161911.152500", "161911.612500", "161912.072500", "161912.532500", "161912.992500", "161913.452500", "161913.912500", "161914.372500", "161914.832500", "161915.292500", "161915.752500", "161916.212500", "161916.672500", "161917.132500", "161917.592500", "161918.052500", "161918.512500", "161918.972500", "161919.432500", "161919.892500", "161920.352500", "161920.812500", "161921.272500", "161921.732500", "161922.192500", "161922.652500", "161923.112500", "161923.572500", "161924.032500", "161924.492500", "161924.952500", "161925.412500", "161925.872500", "161926.332500", "161926.792500", "161927.252500", "161927.712500", "161928.172500", "161928.632500", "161929.092500", "161929.552500", "161930.012500", "161930.472500", "161930.932500", "161931.392500", "161931.852500", "161932.312500", "161932.772500", "161933.232500", "161933.692500", "161934.152500", "161934.612500", "161935.072500", "161935.532500", "161935.992500", "161936.452500", "161936.912500", "161937.372500", "161937.832500", "161938.292500", "161938.752500", "161939.212500", "161939.672500", "161940.132500", "161940.592500", "161941.052500", "161941.512500", "161941.972500", "161942.432500", "161942.892500", "161943.352500", "161943.812500", "161944.272500", "161944.732500", "161945.192500", "161945.652500", "161946.112500", "161946.572500", "161947.032500", "161947.492500", "161947.952500", "161948.412500", "161948.872500", "161949.332500", "161949.792500", "161950.252500", "161950.712500", "161951.172500", "161951.632500", "161952.092500", "161952.552500", "161953.012500", "161953.472500", "161953.932500", "161954.392500", "161954.852500", "161955.312500", "161955.772500", "161956.232500", "161956.692500", "161957.152500", "161957.612500", "161958.072500", "161958.532500", "161958.992500", "161959.452500", "161959.912500", "162000.372500", "162000.832500", "162001.292500", "162001.752500", "162002.212500", "162002.672500", "162003.132500", "162003.592500", "162004.052500", "162004.512500", "162004.972500", "162005.432500", "162005.892500", "162006.352500", "162006.812500", "162007.272500", "162007.732500", "162008.192500", "162008.652500", "162009.112500", "162009.572500", "162010.032500", "162010.492500", "162010.952500", "162011.412500", "162011.872500", "162012.332500", "162012.792500", "162013.252500", "162013.712500", "162014.172500", "162014.632500", "162015.092500", "162015.552500", "162016.012500", "162016.472500", "162016.932500", "162017.392500", "162017.852500", "162018.312500", "162018.772500", "162019.232500", "162019.692500", "162020.152500", "162020.612500", "162021.072500", "162021.532500", "162021.992500", "162022.452500", "162022.912500", "162023.372500", "162023.832500", "162024.292500", "162024.752500", "162025.212500", "162025.672500", "162026.132500", "162026.592500", "162027.052500", "162027.512500", "162027.972500", "162028.432500", "162028.892500", "162029.352500", "162029.812500", "162030.272500", "162030.732500", "162031.192500", "162031.652500", "162032.112500", "162032.572500", "162033.032500", "162033.492500", "162033.952500", "162034.412500", "162034.872500", "162035.332500", "162035.792500", "162036.252500", "162036.712500", "162037.172500", "162037.632500", "162038.092500", "162038.552500", "162039.012500", "162039.472500", "162039.932500", "162040.392500", "162040.852500", "162041.312500", "162041.772500", "162042.232500", "162042.692500", "162043.152500", "162043.612500", "162044.072500", "162044.532500", "162044.992500", "162045.452500", "162045.912500", "162046.372500", "162046.832500", "162047.292500", "162047.752500", "162048.212500", "162048.672500", "162049.132500", "162049.592500", "162050.052500", "162050.512500", "162050.972500", "162051.432500", "162051.892500", "162052.352500", "162052.812500", "162053.272500", "162053.732500", "162054.192500", "162054.652500", "162055.112500", "162055.572500", "162056.032500", "162056.492500", "162056.952500", "162057.412500", "162057.872500", "162058.332500", "162058.792500", "162059.252500", "162059.712500", "162100.172500", "162100.632500", "162101.092500", "162101.552500", "162102.012500", "162102.472500", "162102.932500", "162103.392500", "162103.852500", "162104.312500", "162104.772500", "162105.232500", "162105.692500", "162106.152500", "162106.612500", "162107.072500", "162107.532500", "162107.992500", "162108.452500", "162108.912500", "162109.372500", "162109.832500", "162110.292500", "162110.752500", "162111.212500", "162111.672500", "162112.132500", "162112.592500", "162113.052500", "162113.512500", "162113.972500", "162114.432500", "162114.892500", "162115.352500", "162115.812500", "162116.272500", "162116.732500", "162117.192500", "162117.652500", "162118.112500", "162118.572500", "162119.032500", "162119.492500", "162119.952500", "162120.412500", "162120.872500", "162121.332500", "162121.792500", "162122.252500", "162122.712500", "162123.172500", "162123.632500", "162124.092500", "162124.552500", "162125.012500", "162125.472500", "162125.932500", "162126.392500", "162126.852500", "162127.312500", "162127.772500", "162128.232500", "162128.692500", "162129.152500", "162129.612500", "162130.072500", "162130.532500", "162130.992500", "162131.452500", "162131.912500", "162132.372500", "162132.832500", "162133.292500", "162133.752500", "162134.212500", "162134.672500", "162135.132500", "162135.592500", "162136.052500", "162136.512500", "162136.972500", "162137.432500", "162137.892500", "162138.352500", "162138.812500", "162139.272500", "162139.732500", "162140.192500", "162140.652500", "162141.112500", "162141.572500", "162142.032500", "162142.492500", "162142.952500", "162143.412500", "162143.872500", "162144.332500", "162144.792500", "162145.252500", "162145.712500", "162146.172500", "162146.632500", "162147.092500", "162147.552500", "162148.012500", "162148.472500", "162148.932500", "162149.392500", "162149.852500", "162150.312500", "162150.772500", "162151.232500", "162151.692500", "162152.152500", "162152.612500", "162153.072500", "162153.532500", "162153.992500", "162154.452500", "162154.912500", "162155.372500", "162155.832500", "162156.292500", "162156.752500", "162157.212500", "162157.672500", "162158.132500", "162158.592500", "162159.052500", "162159.512500", "162159.972500", "162200.432500", "162200.892500", "162201.352500", "162201.812500", "162202.272500", "162202.732500", "162203.192500", "162203.652500", "162204.112500", "162204.572500", "162205.032500", "162205.492500", "162205.952500", "162206.412500", "162206.872500", "162207.332500", "162207.792500", "162208.252500", "162208.712500", "162209.172500", "162209.632500", "162210.092500", "162210.552500", "162211.012500", "162211.472500", "162211.932500", "162212.392500", "162212.852500", "162213.312500", "162213.772500", "162214.232500", "162214.692500", "162215.152500", "162215.612500", "162216.072500", "162216.532500", "162216.992500", "162217.452500", "162217.912500", "162218.372500", "162218.832500", "162219.292500", "162219.752500", "162220.212500", "162220.672500", "162221.132500", "162221.592500", "162222.052500", "162222.512500", "162222.972500", "162223.432500", "162223.892500", "162224.352500", "162224.812500", "162225.272500", "162225.732500", "162226.192500", "162226.652500", "162227.112500", "162227.572500", "162228.032500", "162228.492500", "162228.952500", "162229.412500", "162229.872500", "162230.332500", "162230.792500", "162231.252500", "162231.712500", "162232.172500", "162232.632500", "162233.092500", "162233.552500", "162234.012500", "162234.472500", "162234.932500", "162235.392500", "162235.852500", "162236.312500", "162236.772500", "162237.232500", "162237.692500", "162238.152500", "162238.612500", "162239.072500", "162239.532500", "162239.992500", "162240.452500", "162240.912500", "162241.372500", "162241.832500", "162242.292500", "162242.752500", "162243.212500", "162243.672500", "162244.132500", "162244.592500", "162245.052500", "162245.512500", "162245.972500", "162246.432500", "162246.892500", "162247.352500", "162247.812500", "162248.272500", "162248.732500", "162249.192500", "162249.652500", "162250.112500", "162250.572500", "162251.032500", "162251.492500", "162251.952500", "162252.412500", "162252.872500", "162253.332500", "162253.792500", "162254.252500", "162254.712500", "162255.172500", "162255.632500", "162256.092500", "162256.552500", "162257.012500", "162257.472500", "162257.932500", "162258.392500", "162258.852500", "162259.312500", "162259.772500", "162300.232500", "162300.692500", "162301.152500", "162301.612500", "162302.072500", "162302.532500", "162302.992500", "162303.452500", "162303.912500", "162304.372500", "162304.832500", "162305.292500", "162305.752500", "162306.212500", "162306.672500", "162307.132500", "162307.592500", "162308.052500", "162308.512500", "162308.972500", "162309.432500", "162309.892500", "162310.352500", "162310.812500", "162311.272500", "162311.732500", "162312.192500", "162312.652500", "162313.112500", "162313.572500", "162314.032500", "162314.492500", "162314.952500", "162315.412500", "162315.872500", "162316.332500", "162316.792500", "162317.252500", "162317.712500", "162318.172500", "162318.632500", "162319.092500", "162319.552500", "162320.012500", "162320.472500", "162320.932500", "162321.392500", "162321.852500", "162322.312500", "162322.772500", "162323.232500", "162323.692500", "162324.152500", "162324.612500", "162325.072500", "162325.532500", "162325.992500", "162326.452500", "162326.912500", "162327.372500", "162327.832500", "162328.292500", "162328.752500", "162329.212500", "162329.672500", "162330.132500", "162330.592500", "162331.052500", "162331.512500", "162331.972500", "162332.432500", "162332.892500", "162333.352500", "162333.812500", "162334.272500", "162334.732500", "162335.192500", "162335.652500", "162336.112500", "162336.572500", "162337.032500", "162337.492500", "162337.952500", "162338.412500", "162338.872500", "162339.332500", "162339.792500", "162340.252500", "162340.712500", "162341.172500", "162341.632500", "162342.092500", "162342.552500", "162343.012500", "162343.472500", "162343.932500", "162344.392500", "162344.852500", "162345.312500", "162345.772500", "162346.232500", "162346.692500", "162347.152500", "162347.612500", "162348.072500", "162348.532500", "162348.992500", "162349.452500", "162349.912500", "162350.372500", "162350.832500", "162351.292500", "162351.752500", "162352.212500", "162352.672500", "162353.132500", "162353.592500", "162354.052500", "162354.512500", "162354.972500", "162355.432500", "162355.892500", "162356.352500", "162356.812500", "162357.272500", "162357.732500", "162358.192500", "162358.652500", "162359.112500", "162359.572500", "162400.032500", "162400.492500", "162400.952500", "162401.412500", "162401.872500", "162402.332500", "162402.792500", "162403.252500", "162403.712500", "162404.172500", "162404.632500", "162405.092500", "162405.552500", "162406.012500", "162406.472500", "162406.932500", "162407.392500", "162407.852500", "162408.312500", "162408.772500", "162409.232500", "162409.692500", "162410.152500", "162410.612500", "162411.072500", "162411.532500", "162411.992500", "162412.452500", "162412.912500", "162413.372500", "162413.832500", "162414.292500", "162414.752500", "162415.212500", "162415.672500", "162416.132500", "162416.592500", "162417.052500", "162417.512500", "162417.972500", "162418.432500", "162418.892500", "162419.352500", "162419.812500", "162420.272500", "162420.732500", "162421.192500", "162421.652500", "162422.112500", "162422.572500", "162423.032500", "162423.492500", "162423.952500", "162424.412500", "162424.872500", "162425.332500", "162425.792500", "162426.252500", "162426.712500", "162427.172500", "162427.632500", "162428.092500", "162428.552500", "162429.012500", "162429.472500", "162429.932500", "162430.392500", "162430.852500", "162431.312500", "162431.772500", "162432.232500", "162432.692500", "162433.152500", "162433.612500", "162434.072500", "162434.532500", "162434.992500", "162435.452500", "162435.912500", "162436.372500", "162436.832500", "162437.292500", "162437.752500", "162438.212500", "162438.672500", "162439.132500", "162439.592500", "162440.052500", "162440.512500", "162440.972500", "162441.432500", "162441.892500", "162442.352500", "162442.812500", "162443.272500", "162443.732500", "162444.192500", "162444.652500", "162445.112500", "162445.572500", "162446.032500", "162446.492500", "162446.952500", "162447.412500", "162447.872500", "162448.332500", "162448.792500", "162449.252500", "162449.712500", "162450.172500", "162450.632500", "162451.092500", "162451.552500", "162452.012500", "162452.472500", "162452.932500", "162453.392500", "162453.852500", "162454.312500", "162454.772500", "162455.232500", "162455.692500", "162456.152500", "162456.612500", "162457.072500", "162457.532500", "162457.992500", "162458.452500", "162458.912500", "162459.372500", "162459.832500", "162500.292500", "162500.752500", "162501.212500", "162501.672500", "162502.132500", "162502.592500", "162503.052500", "162503.512500", "162503.972500", "162504.432500"],
