{
  "AcquisitionMatrixPE": 82,
  "AcquisitionNumber": 1,
  "AcquisitionTime": "16:07:58.990000",
  "BandwidthPerPixelPhaseEncode": 24.888,
  "BaseResolution": 82,
  "BodyPartExamined": "BRAIN",
  "ConsistencyInfo": "N4_VE11C_LATEST_20160120",
  "ConversionSoftware": "dcm2niix",
  "ConversionSoftwareVersion": "v1.0.20201102",
  "DerivedVendorReportedEchoSpacing": 0.00049,
  "DeviceSerialNumber": "66112",
  "DwellTime": 2e-06,
  "EchoTime": 0.0272,
  "EchoTrainLength": 82,
  "EffectiveEchoSpacing": 0.00049,
  "FlipAngle": 44,
  "ImageComments": "Unaliased MB8/PE3",
  "ImageOrientationPatientDICOM": [0.998848, 0.0277578, 0.0391475, -0.03139, 0.994939, 0.0954474],
  "ImageType": [
    "ORIGINAL",
    "PRIMARY",
    "M",
    "MB",
    "ND",
    "NORM",
    "MOSAIC"
],
  "ImagingFrequency": 123.252,
  "InPlanePhaseEncodingDirectionDICOM": "COL",
  "InstitutionAddress": "Maynard 3,Hanover,NH,US,03755",
  "InstitutionName": "Dartmouth College - PBS",
  "InstitutionalDepartmentName": "Department",
  "MRAcquisitionType": "2D",
  "MagneticFieldStrength": 3,
  "Manufacturer": "Siemens",
  "ManufacturersModelName": "Prisma",
  "Modality": "MR",
  "MultibandAccelerationFactor": 8,
  "PartialFourier": 1,
  "PatientPosition": "HFS",
  "PercentPhaseFOV": 100,
  "PercentSampling": 100,
  "PhaseEncodingDirection": "j-",
  "PhaseEncodingSteps": 82,
  "PhaseResolution": 1,
  "PixelBandwidth": 3050,
  "ProcedureStepDescription": "Wager_Wager^1076_spacetop",
  "ProtocolName": "func_run-01_task-faces_acq-ap-mb8",
  "PulseSequenceDetails": "%CustomerSeq%\\cmrr_mbep2d_bold",
  "ReceiveCoilActiveElements": "HEA;HEP",
  "ReceiveCoilName": "Head_32",
  "ReconMatrixPE": 82,
  "RepetitionTime": 0.46,
  "SAR": 0.0777757,
  "ScanOptions": "FS",
  "ScanningSequence": "EP",
  "SequenceName": "epfid2d1_82",
  "SequenceVariant": "SK\\SS",
  "SeriesDescription": "func_run-01_task-faces_acq-ap-mb8",
  "SeriesNumber": 18,
  "ShimSetting": [4148, -7732, -7316, 525, -56, -227, -31, 66],
  "SliceThickness": 2.7,
  "SliceTiming": [0, 0.2525, 0.0625, 0.315, 0.125, 0.3775, 0.1875, 0, 0.2525, 0.0625, 0.315, 0.125, 0.3775, 0.1875, 0, 0.2525, 0.0625, 0.315, 0.125, 0.3775, 0.1875, 0, 0.2525, 0.0625, 0.315, 0.125, 0.3775, 0.1875, 0, 0.2525, 0.0625, 0.315, 0.125, 0.3775, 0.1875, 0, 0.2525, 0.0625, 0.315, 0.125, 0.3775, 0.1875, 0, 0.2525, 0.0625, 0.315, 0.125, 0.3775, 0.1875, 0, 0.2525, 0.0625, 0.315, 0.125, 0.3775, 0.1875],
  "SoftwareVersions": "syngo MR E11",
  "SpacingBetweenSlices": 2.7,
  "StationName": "AWP66112",
  "TaskName": "faces",
  "TotalReadoutTime": 0.03969,
  "TxRefAmp": 221.713,
  "WipMemBlock": "e2eb470e-4e82-4083-bc69-88c4ece67392||Sequence: R016 ve11c/master r/e634e98; Dec 19 2017 11:00:25 by eja",
  "dcmmeta_affine": [
    [-2.679835796356201, -0.08421707898378372, 0.09800982475280762, 112.18988037109375],
    [-0.0744720995426178, 2.6693496704101562, 0.26072898507118225, -105.0618896484375],
    [0.10502975434064865, -0.25607845187187195, 2.685593843460083, -80.7967529296875],
    [0.0, 0.0, 0.0, 1.0]
],
  "dcmmeta_reorient_transform": [
    [0.0, -1.0, 0.0, 81.0],
    [1.0, 0.0, 0.0, 0.0],
    [0.0, 0.0, 1.0, 0.0],
    [0.0, 0.0, 0.0, 1.0]
],
  "dcmmeta_shape": [82, 82, 56, 914],
  "dcmmeta_slice_dim": 2,
  "dcmmeta_version": 0.6,
  "global": {
    "const": {
      "AccessionNumber": "A003508",
      "AcquisitionMatrix": [82, 0, 0, 82],
      "AngioFlag": "N",
      "BitsAllocated": 16,
      "BitsStored": 16,
      "BodyPartExamined": "BRAIN",
      "Columns": 656,
      "EchoNumbers": 1,
      "EchoTime": 27.2,
      "EchoTrainLength": 82,
      "FlipAngle": 44.0,
      "HighBit": 15,
      "ImageOrientationPatient": [0.99884782752646, 0.02775778137465, 0.03914745226491, -0.031390001158, 0.99493942387572, 0.09544742346006],
      "ImagePositionPatient": [-850.31083759994, -898.63230569728, -205.17716655759],
      "ImageType": [
        "ORIGINAL",
        "PRIMARY",
        "M",
        "MB",
        "ND",
        "NORM",
        "MOSAIC"
],
      "ImagedNucleus": "1H",
      "ImagingFrequency": 123.252184,
      "InPlanePhaseEncodingDirection": "COL",
      "MRAcquisitionType": "2D",
      "MagneticFieldStrength": 3.0,
      "Manufacturer": "SIEMENS",
      "ManufacturerModelName": "Prisma",
      "Modality": "MR",
      "NumberOfAverages": 1.0,
      "NumberOfPhaseEncodingSteps": 82,
      "PercentPhaseFieldOfView": 100.0,
      "PercentSampling": 100.0,
      "PerformedProcedureStepStartTime": "143345.696000",
      "PhotometricInterpretation": "MONOCHROME2",
      "PixelBandwidth": 3050.0,
      "PixelRepresentation": 0,
      "PixelSpacing": [2.6829268932343, 2.6829268932343],
      "ProtocolName": "func_run-01_task-faces_acq-ap-mb8",
      "RepetitionTime": 460.0,
      "Rows": 656,
      "SAR": 0.07777566730014,
      "SamplesPerPixel": 1,
      "ScanOptions": "FS",
      "ScanningSequence": "EP",
      "SequenceName": "epfid2d1_82",
      "SequenceVariant": [
        "SK",
        "SS"
],
      "SeriesDescription": "func_run-01_task-faces_acq-ap-mb8",
      "SeriesNumber": 18,
      "SeriesTime": "160822.541000",
      "SliceLocation": -86.438607031337,
      "SliceThickness": 2.7000000476837,
      "SmallestImagePixelValue": 0,
      "SoftwareVersions": "syngo MR E11",
      "SpacingBetweenSlices": 2.6999999527921,
      "SpecificCharacterSet": "ISO_IR 100",
      "StudyID": "2",
      "StudyTime": "143345.618000",
      "TransmitCoilName": "Body",
      "VariableFlipAngleFlag": "N",
      "WindowCenterWidthExplanation": "Algo1",
      "dBdt": 0.0},
    "slices": {}
  },
  "time": {
    "samples": {
      "AcquisitionNumber": [1, 2, 3, 4, 5, 6, 7, 8, 9, 10, 11, 12, 13, 14, 15, 16, 17, 18, 19, 20, 21, 22, 23, 24, 25, 26, 27, 28, 29, 30, 31, 32, 33, 34, 35, 36, 37, 38, 39, 40, 41, 42, 43, 44, 45, 46, 47, 48, 49, 50, 51, 52, 53, 54, 55, 56, 57, 58, 59, 60, 61, 62, 63, 64, 65, 66, 67, 68, 69, 70, 71, 72, 73, 74, 75, 76, 77, 78, 79, 80, 81, 82, 83, 84, 85, 86, 87, 88, 89, 90, 91, 92, 93, 94, 95, 96, 97, 98, 99, 100, 101, 102, 103, 104, 105, 106, 107, 108, 109, 110, 111, 112, 113, 114, 115, 116, 117, 118, 119, 120, 121, 122, 123, 124, 125, 126, 127, 128, 129, 130, 131, 132, 133, 134, 135, 136, 137, 138, 139, 140, 141, 142, 143, 144, 145, 146, 147, 148, 149, 150, 151, 152, 153, 154, 155, 156, 157, 158, 159, 160, 161, 162, 163, 164, 165, 166, 167, 168, 169, 170, 171, 172, 173, 174, 175, 176, 177, 178, 179, 180, 181, 182, 183, 184, 185, 186, 187, 188, 189, 190, 191, 192, 193, 194, 195, 196, 197, 198, 199, 200, 201, 202, 203, 204, 205, 206, 207, 208, 209, 210, 211, 212, 213, 214, 215, 216, 217, 218, 219, 220, 221, 222, 223, 224, 225, 226, 227, 228, 229, 230, 231, 232, 233, 234, 235, 236, 237, 238, 239, 240, 241, 242, 243, 244, 245, 246, 247, 248, 249, 250, 251, 252, 253, 254, 255, 256, 257, 258, 259, 260, 261, 262, 263, 264, 265, 266, 267, 268, 269, 270, 271, 272, 273, 274, 275, 276, 277, 278, 279, 280, 281, 282, 283, 284, 285, 286, 287, 288, 289, 290, 291, 292, 293, 294, 295, 296, 297, 298, 299, 300, 301, 302, 303, 304, 305, 306, 307, 308, 309, 310, 311, 312, 313, 314, 315, 316, 317, 318, 319, 320, 321, 322, 323, 324, 325, 326, 327, 328, 329, 330, 331, 332, 333, 334, 335, 336, 337, 338, 339, 340, 341, 342, 343, 344, 345, 346, 347, 348, 349, 350, 351, 352, 353, 354, 355, 356, 357, 358, 359, 360, 361, 362, 363, 364, 365, 366, 367, 368, 369, 370, 371, 372, 373, 374, 375, 376, 377, 378, 379, 380, 381, 382, 383, 384, 385, 386, 387, 388, 389, 390, 391, 392, 393, 394, 395, 396, 397, 398, 399, 400, 401, 402, 403, 404, 405, 406, 407, 408, 409, 410, 411, 412, 413, 414, 415, 416, 417, 418, 419, 420, 421, 422, 423, 424, 425, 426, 427, 428, 429, 430, 431, 432, 433, 434, 435, 436, 437, 438, 439, 440, 441, 442, 443, 444, 445, 446, 447, 448, 449, 450, 451, 452, 453, 454, 455, 456, 457, 458, 459, 460, 461, 462, 463, 464, 465, 466, 467, 468, 469, 470, 471, 472, 473, 474, 475, 476, 477, 478, 479, 480, 481, 482, 483, 484, 485, 486, 487, 488, 489, 490, 491, 492, 493, 494, 495, 496, 497, 498, 499, 500, 501, 502, 503, 504, 505, 506, 507, 508, 509, 510, 511, 512, 513, 514, 515, 516, 517, 518, 519, 520, 521, 522, 523, 524, 525, 526, 527, 528, 529, 530, 531, 532, 533, 534, 535, 536, 537, 538, 539, 540, 541, 542, 543, 544, 545, 546, 547, 548, 549, 550, 551, 552, 553, 554, 555, 556, 557, 558, 559, 560, 561, 562, 563, 564, 565, 566, 567, 568, 569, 570, 571, 572, 573, 574, 575, 576, 577, 578, 579, 580, 581, 582, 583, 584, 585, 586, 587, 588, 589, 590, 591, 592, 593, 594, 595, 596, 597, 598, 599, 600, 601, 602, 603, 604, 605, 606, 607, 608, 609, 610, 611, 612, 613, 614, 615, 616, 617, 618, 619, 620, 621, 622, 623, 624, 625, 626, 627, 628, 629, 630, 631, 632, 633, 634, 635, 636, 637, 638, 639, 640, 641, 642, 643, 644, 645, 646, 647, 648, 649, 650, 651, 652, 653, 654, 655, 656, 657, 658, 659, 660, 661, 662, 663, 664, 665, 666, 667, 668, 669, 670, 671, 672, 673, 674, 675, 676, 677, 678, 679, 680, 681, 682, 683, 684, 685, 686, 687, 688, 689, 690, 691, 692, 693, 694, 695, 696, 697, 698, 699, 700, 701, 702, 703, 704, 705, 706, 707, 708, 709, 710, 711, 712, 713, 714, 715, 716, 717, 718, 719, 720, 721, 722, 723, 724, 725, 726, 727, 728, 729, 730, 731, 732, 733, 734, 735, 736, 737, 738, 739, 740, 741, 742, 743, 744, 745, 746, 747, 748, 749, 750, 751, 752, 753, 754, 755, 756, 757, 758, 759, 760, 761, 762, 763, 764, 765, 766, 767, 768, 769, 770, 771, 772, 773, 774, 775, 776, 777, 778, 779, 780, 781, 782, 783, 784, 785, 786, 787, 788, 789, 790, 791, 792, 793, 794, 795, 796, 797, 798, 799, 800, 801, 802, 803, 804, 805, 806, 807, 808, 809, 810, 811, 812, 813, 814, 815, 816, 817, 818, 819, 820, 821, 822, 823, 824, 825, 826, 827, 828, 829, 830, 831, 832, 833, 834, 835, 836, 837, 838, 839, 840, 841, 842, 843, 844, 845, 846, 847, 848, 849, 850, 851, 852, 853, 854, 855, 856, 857, 858, 859, 860, 861, 862, 863, 864, 865, 866, 867, 868, 869, 870, 871, 872, 873, 874, 875, 876, 877, 878, 879, 880, 881, 882, 883, 884, 885, 886, 887, 888, 889, 890, 891, 892, 893, 894, 895, 896, 897, 898, 899, 900, 901, 902, 903, 904, 905, 906, 907, 908, 909, 910, 911, 912, 913, 914],
      "AcquisitionTime": ["160758.990000", "160759.450000", "160759.910000", "160800.370000", "160800.830000", "160801.290000", "160801.750000", "160802.210000", "160802.670000", "160803.130000", "160803.590000", "160804.050000", "160804.510000", "160804.970000", "160805.430000", "160805.890000", "160806.350000", "160806.810000", "160807.270000", "160807.730000", "160808.190000", "160808.650000", "160809.110000", "160809.570000", "160810.030000", "160810.490000", "160810.950000", "160811.410000", "160811.870000", "160812.330000", "160812.790000", "160813.250000", "160813.710000", "160814.170000", "160814.630000", "160815.090000", "160815.550000", "160816.010000", "160816.470000", "160816.930000", "160817.390000", "160817.850000", "160818.310000", "160818.770000", "160819.230000", "160819.690000", "160820.150000", "160820.610000", "160821.070000", "160821.530000", "160821.990000", "160822.450000", "160822.910000", "160823.370000", "160823.830000", "160824.290000", "160824.750000", "160825.210000", "160825.670000", "160826.130000", "160826.590000", "160827.050000", "160827.510000", "160827.970000", "160828.430000", "160828.890000", "160829.350000", "160829.810000", "160830.270000", "160830.730000", "160831.190000", "160831.650000", "160832.110000", "160832.570000", "160833.030000", "160833.490000", "160833.950000", "160834.410000", "160834.870000", "160835.330000", "160835.790000", "160836.250000", "160836.710000", "160837.170000", "160837.630000", "160838.090000", "160838.550000", "160839.010000", "160839.470000", "160839.930000", "160840.390000", "160840.850000", "160841.310000", "160841.770000", "160842.230000", "160842.690000", "160843.150000", "160843.610000", "160844.070000", "160844.530000", "160844.990000", "160845.450000", "160845.910000", "160846.370000", "160846.830000", "160847.290000", "160847.750000", "160848.210000", "160848.670000", "160849.130000", "160849.590000", "160850.050000", "160850.510000", "160850.970000", "160851.430000", "160851.890000", "160852.350000", "160852.810000", "160853.270000", "160853.730000", "160854.190000", "160854.650000", "160855.110000", "160855.570000", "160856.030000", "160856.490000", "160856.950000", "160857.410000", "160857.870000", "160858.330000", "160858.790000", "160859.250000", "160859.710000", "160900.170000", "160900.630000", "160901.090000", "160901.550000", "160902.010000", "160902.470000", "160902.930000", "160903.390000", "160903.850000", "160904.310000", "160904.770000", "160905.230000", "160905.690000", "160906.150000", "160906.610000", "160907.070000", "160907.530000", "160907.990000", "160908.450000", "160908.910000", "160909.370000", "160909.830000", "160910.290000", "160910.750000", "160911.210000", "160911.670000", "160912.130000", "160912.590000", "160913.050000", "160913.510000", "160913.970000", "160914.430000", "160914.890000", "160915.350000", "160915.810000", "160916.270000", "160916.730000", "160917.190000", "160917.650000", "160918.110000", "160918.570000", "160919.030000", "160919.490000", "160919.950000", "160920.410000", "160920.870000", "160921.330000", "160921.790000", "160922.250000", "160922.710000", "160923.170000", "160923.630000", "160924.090000", "160924.550000", "160925.010000", "160925.470000", "160925.930000", "160926.390000", "160926.850000", "160927.310000", "160927.770000", "160928.230000", "160928.690000", "160929.150000", "160929.610000", "160930.070000", "160930.530000", "160930.990000", "160931.450000", "160931.910000", "160932.370000", "160932.830000", "160933.290000", "160933.750000", "160934.210000", "160934.670000", "160935.130000", "160935.590000", "160936.050000", "160936.510000", "160936.970000", "160937.430000", "160937.890000", "160938.350000", "160938.810000", "160939.270000", "160939.730000", "160940.190000", "160940.650000", "160941.110000", "160941.570000", "160942.030000", "160942.490000", "160942.950000", "160943.410000", "160943.870000", "160944.330000", "160944.790000", "160945.250000", "160945.710000", "160946.170000", "160946.630000", "160947.090000", "160947.550000", "160948.010000", "160948.470000", "160948.930000", "160949.390000", "160949.850000", "160950.310000", "160950.770000", "160951.230000", "160951.690000", "160952.150000", "160952.610000", "160953.070000", "160953.530000", "160953.990000", "160954.450000", "160954.910000", "160955.370000", "160955.830000", "160956.290000", "160956.750000", "160957.210000", "160957.670000", "160958.130000", "160958.590000", "160959.050000", "160959.510000", "160959.970000", "161000.430000", "161000.890000", "161001.350000", "161001.810000", "161002.270000", "161002.730000", "161003.190000", "161003.650000", "161004.110000", "161004.570000", "161005.030000", "161005.490000", "161005.950000", "161006.410000", "161006.870000", "161007.330000", "161007.790000", "161008.250000", "161008.710000", "161009.170000", "161009.630000", "161010.090000", "161010.550000", "161011.010000", "161011.470000", "161011.930000", "161012.390000", "161012.850000", "161013.310000", "161013.770000", "161014.230000", "161014.690000", "161015.150000", "161015.610000", "161016.070000", "161016.530000", "161016.990000", "161017.450000", "161017.910000", "161018.370000", "161018.830000", "161019.290000", "161019.750000", "161020.210000", "161020.670000", "161021.130000", "161021.590000", "161022.050000", "161022.510000", "161022.970000", "161023.430000", "161023.890000", "161024.350000", "161024.810000", "161025.270000", "161025.730000", "161026.190000", "161026.650000", "161027.110000", "161027.570000", "161028.030000", "161028.490000", "161028.950000", "161029.410000", "161029.870000", "161030.330000", "161030.790000", "161031.250000", "161031.710000", "161032.170000", "161032.630000", "161033.090000", "161033.550000", "161034.010000", "161034.470000", "161034.930000", "161035.390000", "161035.850000", "161036.310000", "161036.770000", "161037.230000", "161037.690000", "161038.150000", "161038.610000", "161039.070000", "161039.530000", "161039.990000", "161040.450000", "161040.910000", "161041.370000", "161041.830000", "161042.290000", "161042.750000", "161043.210000", "161043.670000", "161044.130000", "161044.590000", "161045.050000", "161045.510000", "161045.970000", "161046.430000", "161046.890000", "161047.350000", "161047.810000", "161048.270000", "161048.730000", "161049.190000", "161049.650000", "161050.110000", "161050.570000", "161051.030000", "161051.490000", "161051.950000", "161052.410000", "161052.870000", "161053.330000", "161053.790000", "161054.250000", "161054.710000", "161055.170000", "161055.630000", "161056.090000", "161056.550000", "161057.010000", "161057.470000", "161057.930000", "161058.390000", "161058.850000", "161059.310000", "161059.770000", "161100.230000", "161100.690000", "161101.150000", "161101.610000", "161102.070000", "161102.530000", "161102.990000", "161103.450000", "161103.910000", "161104.370000", "161104.830000", "161105.290000", "161105.750000", "161106.210000", "161106.670000", "161107.130000", "161107.590000", "161108.050000", "161108.510000", "161108.970000", "161109.430000", "161109.890000", "161110.350000", "161110.810000", "161111.270000", "161111.730000", "161112.190000", "161112.650000", "161113.110000", "161113.570000", "161114.030000", "161114.490000", "161114.950000", "161115.410000", "161115.870000", "161116.330000", "161116.790000", "161117.250000", "161117.710000", "161118.170000", "161118.630000", "161119.090000", "161119.550000", "161120.010000", "161120.470000", "161120.930000", "161121.390000", "161121.850000", "161122.310000", "161122.770000", "161123.230000", "161123.690000", "161124.150000", "161124.610000", "161125.070000", "161125.530000", "161125.990000", "161126.450000", "161126.910000", "161127.370000", "161127.830000", "161128.290000", "161128.750000", "161129.210000", "161129.670000", "161130.130000", "161130.590000", "161131.050000", "161131.510000", "161131.970000", "161132.430000", "161132.890000", "161133.350000", "161133.810000", "161134.270000", "161134.730000", "161135.190000", "161135.650000", "161136.110000", "161136.570000", "161137.030000", "161137.490000", "161137.950000", "161138.410000", "161138.870000", "161139.330000", "161139.790000", "161140.250000", "161140.710000", "161141.170000", "161141.630000", "161142.090000", "161142.550000", "161143.010000", "161143.470000", "161143.930000", "161144.390000", "161144.850000", "161145.310000", "161145.770000", "161146.230000", "161146.690000", "161147.150000", "161147.610000", "161148.070000", "161148.530000", "161148.990000", "161149.450000", "161149.910000", "161150.370000", "161150.830000", "161151.290000", "161151.750000", "161152.210000", "161152.670000", "161153.130000", "161153.590000", "161154.050000", "161154.510000", "161154.970000", "161155.430000", "161155.890000", "161156.350000", "161156.810000", "161157.270000", "161157.730000", "161158.190000", "161158.650000", "161159.110000", "161159.570000", "161200.030000", "161200.490000", "161200.950000", "161201.410000", "161201.870000", "161202.330000", "161202.790000", "161203.250000", "161203.710000", "161204.170000", "161204.630000", "161205.090000", "161205.550000", "161206.010000", "161206.470000", "161206.930000", "161207.390000", "161207.850000", "161208.310000", "161208.770000", "161209.230000", "161209.690000", "161210.150000", "161210.610000", "161211.070000", "161211.530000", "161211.990000", "161212.450000", "161212.910000", "161213.370000", "161213.830000", "161214.290000", "161214.750000", "161215.210000", "161215.670000", "161216.130000", "161216.590000", "161217.050000", "161217.510000", "161217.970000", "161218.430000", "161218.890000", "161219.350000", "161219.810000", "161220.270000", "161220.730000", "161221.190000", "161221.650000", "161222.110000", "161222.570000", "161223.030000", "161223.490000", "161223.950000", "161224.410000", "161224.870000", "161225.330000", "161225.790000", "161226.250000", "161226.710000", "161227.170000", "161227.630000", "161228.090000", "161228.550000", "161229.010000", "161229.470000", "161229.930000", "161230.390000", "161230.850000", "161231.310000", "161231.770000", "161232.230000", "161232.690000", "161233.150000", "161233.610000", "161234.070000", "161234.530000", "161234.990000", "161235.450000", "161235.910000", "161236.370000", "161236.830000", "161237.290000", "161237.750000", "161238.210000", "161238.670000", "161239.130000", "161239.590000", "161240.050000", "161240.510000", "161240.970000", "161241.430000", "161241.890000", "161242.350000", "161242.810000", "161243.270000", "161243.730000", "161244.190000", "161244.650000", "161245.110000", "161245.570000", "161246.030000", "161246.490000", "161246.950000", "161247.410000", "161247.870000", "161248.330000", "161248.790000", "161249.250000", "161249.710000", "161250.170000", "161250.630000", "161251.090000", "161251.550000", "161252.010000", "161252.470000", "161252.930000", "161253.390000", "161253.850000", "161254.310000", "161254.770000", "161255.230000", "161255.690000", "161256.150000", "161256.610000", "161257.070000", "161257.530000", "161257.990000", "161258.450000", "161258.910000", "161259.370000", "161259.830000", "161300.290000", "161300.750000", "161301.210000", "161301.670000", "161302.130000", "161302.590000", "161303.050000", "161303.510000", "161303.970000", "161304.430000", "161304.890000", "161305.350000", "161305.810000", "161306.270000", "161306.730000", "161307.190000", "161307.650000", "161308.110000", "161308.570000", "161309.030000", "161309.490000", "161309.950000", "161310.410000", "161310.870000", "161311.330000", "161311.790000", "161312.250000", "161312.710000", "161313.170000", "161313.630000", "161314.090000", "161314.550000", "161315.010000", "161315.470000", "161315.930000", "161316.390000", "161316.850000", "161317.310000", "161317.770000", "161318.230000", "161318.690000", "161319.150000", "161319.610000", "161320.070000", "161320.530000", "161320.990000", "161321.450000", "161321.910000", "161322.370000", "161322.830000", "161323.290000", "161323.750000", "161324.210000", "161324.670000", "161325.130000", "161325.590000", "161326.050000", "161326.510000", "161326.970000", "161327.430000", "161327.890000", "161328.350000", "161328.810000", "161329.270000", "161329.730000", "161330.190000", "161330.650000", "161331.110000", "161331.570000", "161332.030000", "161332.490000", "161332.950000", "161333.410000", "161333.870000", "161334.330000", "161334.790000", "161335.250000", "161335.710000", "161336.170000", "161336.630000", "161337.090000", "161337.550000", "161338.010000", "161338.470000", "161338.930000", "161339.390000", "161339.850000", "161340.310000", "161340.770000", "161341.230000", "161341.690000", "161342.150000", "161342.610000", "161343.070000", "161343.530000", "161343.990000", "161344.450000", "161344.910000", "161345.370000", "161345.830000", "161346.290000", "161346.750000", "161347.210000", "161347.670000", "161348.130000", "161348.590000", "161349.050000", "161349.510000", "161349.970000", "161350.430000", "161350.890000", "161351.350000", "161351.810000", "161352.270000", "161352.730000", "161353.190000", "161353.650000", "161354.110000", "161354.570000", "161355.030000", "161355.490000", "161355.950000", "161356.410000", "161356.870000", "161357.330000", "161357.790000", "161358.250000", "161358.710000", "161359.170000", "161359.630000", "161400.090000", "161400.550000", "161401.010000", "161401.470000", "161401.930000", "161402.390000", "161402.850000", "161403.310000", "161403.770000", "161404.230000", "161404.690000", "161405.150000", "161405.610000", "161406.070000", "161406.530000", "161406.990000", "161407.450000", "161407.910000", "161408.370000", "161408.830000", "161409.290000", "161409.750000", "161410.210000", "161410.670000", "161411.130000", "161411.590000", "161412.050000", "161412.510000", "161412.970000", "161413.430000", "161413.890000", "161414.350000", "161414.810000", "161415.270000", "161415.730000", "161416.190000", "161416.650000", "161417.110000", "161417.570000", "161418.030000", "161418.490000", "161418.950000", "161419.410000", "161419.870000", "161420.330000", "161420.790000", "161421.250000", "161421.710000", "161422.170000", "161422.630000", "161423.090000", "161423.550000", "161424.010000", "161424.470000", "161424.930000", "161425.390000", "161425.850000", "161426.310000", "161426.770000", "161427.230000", "161427.690000", "161428.150000", "161428.610000", "161429.070000", "161429.530000", "161429.990000", "161430.450000", "161430.910000", "161431.370000", "161431.830000", "161432.290000", "161432.750000", "161433.210000", "161433.670000", "161434.130000", "161434.590000", "161435.050000", "161435.510000", "161435.970000", "161436.430000", "161436.890000", "161437.350000", "161437.810000", "161438.270000", "161438.730000", "161439.190000", "161439.650000", "161440.110000", "161440.570000", "161441.030000", "161441.490000", "161441.950000", "161442.410000", "161442.870000", "161443.330000", "161443.790000", "161444.250000", "161444.710000", "161445.170000", "161445.630000", "161446.090000", "161446.550000", "161447.010000", "161447.470000", "161447.930000", "161448.390000", "161448.850000", "161449.310000", "161449.770000", "161450.230000", "161450.690000", "161451.150000", "161451.610000", "161452.070000", "161452.530000", "161452.990000", "161453.450000", "161453.910000", "161454.370000", "161454.830000", "161455.290000", "161455.750000", "161456.210000", "161456.670000", "161457.130000", "161457.590000", "161458.050000", "161458.510000", "161458.970000"],
