{
  "AcquisitionMatrixPE": 82,
  "AcquisitionNumber": 1,
  "AcquisitionTime": "16:27:16.192500",
  "BandwidthPerPixelPhaseEncode": 24.888,
  "BaseResolution": 82,
  "BodyPartExamined": "BRAIN",
  "ConsistencyInfo": "N4_VE11C_LATEST_20160120",
  "ConversionSoftware": "dcm2niix",
  "ConversionSoftwareVersion": "v1.0.20201102",
  "DerivedVendorReportedEchoSpacing": 0.00049,
  "DeviceSerialNumber": "66112",
  "DwellTime": 2e-06,
  "EchoTime": 0.0272,
  "EchoTrainLength": 82,
  "EffectiveEchoSpacing": 0.00049,
  "FlipAngle": 44,
  "ImageComments": "Unaliased MB8/PE3",
  "ImageOrientationPatientDICOM": [0.998848, 0.0277578, 0.0391475, -0.03139, 0.994939, 0.0954474],
  "ImageType": [
    "ORIGINAL",
    "PRIMARY",
    "M",
    "MB",
    "ND",
    "NORM",
    "MOSAIC"
],
  "ImagingFrequency": 123.252,
  "InPlanePhaseEncodingDirectionDICOM": "COL",
  "InstitutionAddress": "Maynard 3,Hanover,NH,US,03755",
  "InstitutionName": "Dartmouth College - PBS",
  "InstitutionalDepartmentName": "Department",
  "MRAcquisitionType": "2D",
  "MagneticFieldStrength": 3,
  "Manufacturer": "Siemens",
  "ManufacturersModelName": "Prisma",
  "Modality": "MR",
  "MultibandAccelerationFactor": 8,
  "PartialFourier": 1,
  "PatientPosition": "HFS",
  "PercentPhaseFOV": 100,
  "PercentSampling": 100,
  "PhaseEncodingDirection": "j-",
  "PhaseEncodingSteps": 82,
  "PhaseResolution": 1,
  "PixelBandwidth": 3050,
  "ProcedureStepDescription": "Wager_Wager^1076_spacetop",
  "ProtocolName": "func_run-03_task-faces_acq-ap-mb8",
  "PulseSequenceDetails": "%CustomerSeq%\\cmrr_mbep2d_bold",
  "ReceiveCoilActiveElements": "HEA;HEP",
  "ReceiveCoilName": "Head_32",
  "ReconMatrixPE": 82,
  "RepetitionTime": 0.46,
  "SAR": 0.0777757,
  "ScanOptions": "FS",
  "ScanningSequence": "EP",
  "SequenceName": "epfid2d1_82",
  "SequenceVariant": "SK\\SS",
  "SeriesDescription": "func_run-03_task-faces_acq-ap-mb8",
  "SeriesNumber": 22,
  "ShimSetting": [4148, -7732, -7316, 525, -56, -227, -31, 66],
  "SliceThickness": 2.7,
  "SliceTiming": [0, 0.25, 0.0625, 0.315, 0.125, 0.3775, 0.1875, 0, 0.25, 0.0625, 0.315, 0.125, 0.3775, 0.1875, 0, 0.25, 0.0625, 0.315, 0.125, 0.3775, 0.1875, 0, 0.25, 0.0625, 0.315, 0.125, 0.3775, 0.1875, 0, 0.25, 0.0625, 0.315, 0.125, 0.3775, 0.1875, 0, 0.25, 0.0625, 0.315, 0.125, 0.3775, 0.1875, 0, 0.25, 0.0625, 0.315, 0.125, 0.3775, 0.1875, 0, 0.25, 0.0625, 0.315, 0.125, 0.3775, 0.1875],
  "SoftwareVersions": "syngo MR E11",
  "SpacingBetweenSlices": 2.7,
  "StationName": "AWP66112",
  "TaskName": "faces",
  "TotalReadoutTime": 0.03969,
  "TxRefAmp": 221.713,
  "WipMemBlock": "56afc723-eed9-4d94-a98c-8af97dcb09fe||Sequence: R016 ve11c/master r/e634e98; Dec 19 2017 11:00:25 by eja",
  "dcmmeta_affine": [
    [-2.679835796356201, -0.08421707898378372, 0.09800982475280762, 112.18988037109375],
    [-0.0744720995426178, 2.6693496704101562, 0.26072898507118225, -105.0618896484375],
    [0.10502975434064865, -0.25607845187187195, 2.685593843460083, -80.7967529296875],
    [0.0, 0.0, 0.0, 1.0]
],
  "dcmmeta_reorient_transform": [
    [0.0, -1.0, 0.0, 81.0],
    [1.0, 0.0, 0.0, 0.0],
    [0.0, 0.0, 1.0, 0.0],
    [0.0, 0.0, 0.0, 1.0]
],
  "dcmmeta_shape": [82, 82, 56, 914],
  "dcmmeta_slice_dim": 2,
  "dcmmeta_version": 0.6,
  "global": {
    "const": {
      "AccessionNumber": "A003508",
      "AcquisitionMatrix": [82, 0, 0, 82],
      "AngioFlag": "N",
      "BitsAllocated": 16,
      "BitsStored": 16,
      "BodyPartExamined": "BRAIN",
      "Columns": 656,
      "EchoNumbers": 1,
      "EchoTime": 27.2,
      "EchoTrainLength": 82,
      "FlipAngle": 44.0,
      "HighBit": 15,
      "ImageOrientationPatient": [0.99884782752646, 0.02775778137465, 0.03914745226491, -0.031390001158, 0.99493942387572, 0.09544742346006],
      "ImagePositionPatient": [-850.31083759994, -898.63230569728, -205.17716655759],
      "ImageType": [
        "ORIGINAL",
        "PRIMARY",
        "M",
        "MB",
        "ND",
        "NORM",
        "MOSAIC"
],
      "ImagedNucleus": "1H",
      "ImagingFrequency": 123.252191,
      "InPlanePhaseEncodingDirection": "COL",
      "MRAcquisitionType": "2D",
      "MagneticFieldStrength": 3.0,
      "Manufacturer": "SIEMENS",
      "ManufacturerModelName": "Prisma",
      "Modality": "MR",
      "NumberOfAverages": 1.0,
      "NumberOfPhaseEncodingSteps": 82,
      "PercentPhaseFieldOfView": 100.0,
      "PercentSampling": 100.0,
      "PerformedProcedureStepStartTime": "143345.696000",
      "PhotometricInterpretation": "MONOCHROME2",
      "PixelBandwidth": 3050.0,
      "PixelRepresentation": 0,
      "PixelSpacing": [2.6829268932343, 2.6829268932343],
      "ProtocolName": "func_run-03_task-faces_acq-ap-mb8",
      "RepetitionTime": 460.0,
      "Rows": 656,
      "SAR": 0.07777566730014,
      "SamplesPerPixel": 1,
      "ScanOptions": "FS",
      "ScanningSequence": "EP",
      "SequenceName": "epfid2d1_82",
      "SequenceVariant": [
        "SK",
        "SS"
],
      "SeriesDescription": "func_run-03_task-faces_acq-ap-mb8",
      "SeriesNumber": 22,
      "SeriesTime": "162742.682000",
      "SliceLocation": -86.438607031337,
      "SliceThickness": 2.7000000476837,
      "SmallestImagePixelValue": 0,
      "SoftwareVersions": "syngo MR E11",
      "SpacingBetweenSlices": 2.6999999527921,
      "SpecificCharacterSet": "ISO_IR 100",
      "StudyID": "2",
      "StudyTime": "143345.618000",
      "TransmitCoilName": "Body",
      "VariableFlipAngleFlag": "N",
      "WindowCenterWidthExplanation": "Algo1",
      "dBdt": 0.0},
    "slices": {}
  },
  "time": {
    "samples": {
      "AcquisitionNumber": [1, 2, 3, 4, 5, 6, 7, 8, 9, 10, 11, 12, 13, 14, 15, 16, 17, 18, 19, 20, 21, 22, 23, 24, 25, 26, 27, 28, 29, 30, 31, 32, 33, 34, 35, 36, 37, 38, 39, 40, 41, 42, 43, 44, 45, 46, 47, 48, 49, 50, 51, 52, 53, 54, 55, 56, 57, 58, 59, 60, 61, 62, 63, 64, 65, 66, 67, 68, 69, 70, 71, 72, 73, 74, 75, 76, 77, 78, 79, 80, 81, 82, 83, 84, 85, 86, 87, 88, 89, 90, 91, 92, 93, 94, 95, 96, 97, 98, 99, 100, 101, 102, 103, 104, 105, 106, 107, 108, 109, 110, 111, 112, 113, 114, 115, 116, 117, 118, 119, 120, 121, 122, 123, 124, 125, 126, 127, 128, 129, 130, 131, 132, 133, 134, 135, 136, 137, 138, 139, 140, 141, 142, 143, 144, 145, 146, 147, 148, 149, 150, 151, 152, 153, 154, 155, 156, 157, 158, 159, 160, 161, 162, 163, 164, 165, 166, 167, 168, 169, 170, 171, 172, 173, 174, 175, 176, 177, 178, 179, 180, 181, 182, 183, 184, 185, 186, 187, 188, 189, 190, 191, 192, 193, 194, 195, 196, 197, 198, 199, 200, 201, 202, 203, 204, 205, 206, 207, 208, 209, 210, 211, 212, 213, 214, 215, 216, 217, 218, 219, 220, 221, 222, 223, 224, 225, 226, 227, 228, 229, 230, 231, 232, 233, 234, 235, 236, 237, 238, 239, 240, 241, 242, 243, 244, 245, 246, 247, 248, 249, 250, 251, 252, 253, 254, 255, 256, 257, 258, 259, 260, 261, 262, 263, 264, 265, 266, 267, 268, 269, 270, 271, 272, 273, 274, 275, 276, 277, 278, 279, 280, 281, 282, 283, 284, 285, 286, 287, 288, 289, 290, 291, 292, 293, 294, 295, 296, 297, 298, 299, 300, 301, 302, 303, 304, 305, 306, 307, 308, 309, 310, 311, 312, 313, 314, 315, 316, 317, 318, 319, 320, 321, 322, 323, 324, 325, 326, 327, 328, 329, 330, 331, 332, 333, 334, 335, 336, 337, 338, 339, 340, 341, 342, 343, 344, 345, 346, 347, 348, 349, 350, 351, 352, 353, 354, 355, 356, 357, 358, 359, 360, 361, 362, 363, 364, 365, 366, 367, 368, 369, 370, 371, 372, 373, 374, 375, 376, 377, 378, 379, 380, 381, 382, 383, 384, 385, 386, 387, 388, 389, 390, 391, 392, 393, 394, 395, 396, 397, 398, 399, 400, 401, 402, 403, 404, 405, 406, 407, 408, 409, 410, 411, 412, 413, 414, 415, 416, 417, 418, 419, 420, 421, 422, 423, 424, 425, 426, 427, 428, 429, 430, 431, 432, 433, 434, 435, 436, 437, 438, 439, 440, 441, 442, 443, 444, 445, 446, 447, 448, 449, 450, 451, 452, 453, 454, 455, 456, 457, 458, 459, 460, 461, 462, 463, 464, 465, 466, 467, 468, 469, 470, 471, 472, 473, 474, 475, 476, 477, 478, 479, 480, 481, 482, 483, 484, 485, 486, 487, 488, 489, 490, 491, 492, 493, 494, 495, 496, 497, 498, 499, 500, 501, 502, 503, 504, 505, 506, 507, 508, 509, 510, 511, 512, 513, 514, 515, 516, 517, 518, 519, 520, 521, 522, 523, 524, 525, 526, 527, 528, 529, 530, 531, 532, 533, 534, 535, 536, 537, 538, 539, 540, 541, 542, 543, 544, 545, 546, 547, 548, 549, 550, 551, 552, 553, 554, 555, 556, 557, 558, 559, 560, 561, 562, 563, 564, 565, 566, 567, 568, 569, 570, 571, 572, 573, 574, 575, 576, 577, 578, 579, 580, 581, 582, 583, 584, 585, 586, 587, 588, 589, 590, 591, 592, 593, 594, 595, 596, 597, 598, 599, 600, 601, 602, 603, 604, 605, 606, 607, 608, 609, 610, 611, 612, 613, 614, 615, 616, 617, 618, 619, 620, 621, 622, 623, 624, 625, 626, 627, 628, 629, 630, 631, 632, 633, 634, 635, 636, 637, 638, 639, 640, 641, 642, 643, 644, 645, 646, 647, 648, 649, 650, 651, 652, 653, 654, 655, 656, 657, 658, 659, 660, 661, 662, 663, 664, 665, 666, 667, 668, 669, 670, 671, 672, 673, 674, 675, 676, 677, 678, 679, 680, 681, 682, 683, 684, 685, 686, 687, 688, 689, 690, 691, 692, 693, 694, 695, 696, 697, 698, 699, 700, 701, 702, 703, 704, 705, 706, 707, 708, 709, 710, 711, 712, 713, 714, 715, 716, 717, 718, 719, 720, 721, 722, 723, 724, 725, 726, 727, 728, 729, 730, 731, 732, 733, 734, 735, 736, 737, 738, 739, 740, 741, 742, 743, 744, 745, 746, 747, 748, 749, 750, 751, 752, 753, 754, 755, 756, 757, 758, 759, 760, 761, 762, 763, 764, 765, 766, 767, 768, 769, 770, 771, 772, 773, 774, 775, 776, 777, 778, 779, 780, 781, 782, 783, 784, 785, 786, 787, 788, 789, 790, 791, 792, 793, 794, 795, 796, 797, 798, 799, 800, 801, 802, 803, 804, 805, 806, 807, 808, 809, 810, 811, 812, 813, 814, 815, 816, 817, 818, 819, 820, 821, 822, 823, 824, 825, 826, 827, 828, 829, 830, 831, 832, 833, 834, 835, 836, 837, 838, 839, 840, 841, 842, 843, 844, 845, 846, 847, 848, 849, 850, 851, 852, 853, 854, 855, 856, 857, 858, 859, 860, 861, 862, 863, 864, 865, 866, 867, 868, 869, 870, 871, 872, 873, 874, 875, 876, 877, 878, 879, 880, 881, 882, 883, 884, 885, 886, 887, 888, 889, 890, 891, 892, 893, 894, 895, 896, 897, 898, 899, 900, 901, 902, 903, 904, 905, 906, 907, 908, 909, 910, 911, 912, 913, 914],
      "AcquisitionTime": ["162716.192500", "162716.652500", "162717.112500", "162717.572500", "162718.032500", "162718.492500", "162718.952500", "162719.412500", "162719.872500", "162720.332500", "162720.792500", "162721.252500", "162721.712500", "162722.172500", "162722.632500", "162723.092500", "162723.552500", "162724.012500", "162724.472500", "162724.932500", "162725.392500", "162725.852500", "162726.312500", "162726.772500", "162727.232500", "162727.692500", "162728.152500", "162728.612500", "162729.072500", "162729.532500", "162729.992500", "162730.452500", "162730.912500", "162731.372500", "162731.832500", "162732.292500", "162732.752500", "162733.212500", "162733.672500", "162734.132500", "162734.592500", "162735.052500", "162735.512500", "162735.972500", "162736.432500", "162736.892500", "162737.352500", "162737.812500", "162738.272500", "162738.732500", "162739.192500", "162739.652500", "162740.112500", "162740.572500", "162741.032500", "162741.492500", "162741.952500", "162742.412500", "162742.872500", "162743.332500", "162743.792500", "162744.252500", "162744.712500", "162745.172500", "162745.632500", "162746.092500", "162746.552500", "162747.012500", "162747.472500", "162747.932500", "162748.392500", "162748.852500", "162749.312500", "162749.772500", "162750.232500", "162750.692500", "162751.152500", "162751.612500", "162752.072500", "162752.532500", "162752.992500", "162753.452500", "162753.912500", "162754.372500", "162754.832500", "162755.292500", "162755.752500", "162756.212500", "162756.672500", "162757.132500", "162757.592500", "162758.052500", "162758.512500", "162758.972500", "162759.432500", "162759.892500", "162800.352500", "162800.812500", "162801.272500", "162801.732500", "162802.192500", "162802.652500", "162803.112500", "162803.572500", "162804.032500", "162804.492500", "162804.952500", "162805.412500", "162805.872500", "162806.332500", "162806.792500", "162807.252500", "162807.712500", "162808.172500", "162808.632500", "162809.092500", "162809.552500", "162810.012500", "162810.472500", "162810.932500", "162811.392500", "162811.852500", "162812.312500", "162812.772500", "162813.232500", "162813.692500", "162814.152500", "162814.612500", "162815.072500", "162815.532500", "162815.992500", "162816.452500", "162816.912500", "162817.372500", "162817.832500", "162818.292500", "162818.752500", "162819.212500", "162819.672500", "162820.132500", "162820.592500", "162821.052500", "162821.512500", "162821.972500", "162822.432500", "162822.892500", "162823.352500", "162823.812500", "162824.272500", "162824.732500", "162825.192500", "162825.652500", "162826.112500", "162826.572500", "162827.032500", "162827.492500", "162827.952500", "162828.412500", "162828.872500", "162829.332500", "162829.792500", "162830.252500", "162830.712500", "162831.172500", "162831.632500", "162832.092500", "162832.552500", "162833.012500", "162833.472500", "162833.932500", "162834.392500", "162834.852500", "162835.312500", "162835.772500", "162836.232500", "162836.692500", "162837.152500", "162837.612500", "162838.072500", "162838.532500", "162838.992500", "162839.452500", "162839.912500", "162840.372500", "162840.832500", "162841.292500", "162841.752500", "162842.212500", "162842.672500", "162843.132500", "162843.592500", "162844.052500", "162844.512500", "162844.972500", "162845.432500", "162845.892500", "162846.352500", "162846.812500", "162847.272500", "162847.732500", "162848.192500", "162848.652500", "162849.112500", "162849.572500", "162850.032500", "162850.492500", "162850.952500", "162851.412500", "162851.872500", "162852.332500", "162852.792500", "162853.252500", "162853.712500", "162854.172500", "162854.632500", "162855.092500", "162855.552500", "162856.012500", "162856.472500", "162856.932500", "162857.392500", "162857.852500", "162858.312500", "162858.772500", "162859.232500", "162859.692500", "162900.152500", "162900.612500", "162901.072500", "162901.532500", "162901.992500", "162902.452500", "162902.912500", "162903.372500", "162903.832500", "162904.292500", "162904.752500", "162905.212500", "162905.672500", "162906.132500", "162906.592500", "162907.052500", "162907.512500", "162907.972500", "162908.432500", "162908.892500", "162909.352500", "162909.812500", "162910.272500", "162910.732500", "162911.192500", "162911.652500", "162912.112500", "162912.572500", "162913.032500", "162913.492500", "162913.952500", "162914.412500", "162914.872500", "162915.332500", "162915.792500", "162916.252500", "162916.712500", "162917.172500", "162917.632500", "162918.092500", "162918.552500", "162919.012500", "162919.472500", "162919.932500", "162920.392500", "162920.852500", "162921.312500", "162921.772500", "162922.232500", "162922.692500", "162923.152500", "162923.612500", "162924.072500", "162924.532500", "162924.992500", "162925.452500", "162925.912500", "162926.372500", "162926.832500", "162927.292500", "162927.752500", "162928.212500", "162928.672500", "162929.132500", "162929.592500", "162930.052500", "162930.512500", "162930.972500", "162931.432500", "162931.892500", "162932.352500", "162932.812500", "162933.272500", "162933.732500", "162934.192500", "162934.652500", "162935.112500", "162935.572500", "162936.032500", "162936.492500", "162936.952500", "162937.412500", "162937.872500", "162938.332500", "162938.792500", "162939.252500", "162939.712500", "162940.172500", "162940.632500", "162941.092500", "162941.552500", "162942.012500", "162942.472500", "162942.932500", "162943.392500", "162943.852500", "162944.312500", "162944.772500", "162945.232500", "162945.692500", "162946.152500", "162946.612500", "162947.072500", "162947.532500", "162947.992500", "162948.452500", "162948.912500", "162949.372500", "162949.832500", "162950.292500", "162950.752500", "162951.212500", "162951.672500", "162952.132500", "162952.592500", "162953.052500", "162953.512500", "162953.972500", "162954.432500", "162954.892500", "162955.352500", "162955.812500", "162956.272500", "162956.732500", "162957.192500", "162957.652500", "162958.112500", "162958.572500", "162959.032500", "162959.492500", "162959.952500", "163000.412500", "163000.872500", "163001.332500", "163001.792500", "163002.252500", "163002.712500", "163003.172500", "163003.632500", "163004.092500", "163004.552500", "163005.012500", "163005.472500", "163005.932500", "163006.392500", "163006.852500", "163007.312500", "163007.772500", "163008.232500", "163008.692500", "163009.152500", "163009.612500", "163010.072500", "163010.532500", "163010.992500", "163011.452500", "163011.912500", "163012.372500", "163012.832500", "163013.292500", "163013.752500", "163014.212500", "163014.672500", "163015.132500", "163015.592500", "163016.052500", "163016.512500", "163016.972500", "163017.432500", "163017.892500", "163018.352500", "163018.812500", "163019.272500", "163019.732500", "163020.192500", "163020.652500", "163021.112500", "163021.572500", "163022.032500", "163022.492500", "163022.952500", "163023.412500", "163023.872500", "163024.332500", "163024.792500", "163025.252500", "163025.712500", "163026.172500", "163026.632500", "163027.092500", "163027.552500", "163028.012500", "163028.472500", "163028.932500", "163029.392500", "163029.852500", "163030.312500", "163030.772500", "163031.232500", "163031.692500", "163032.152500", "163032.612500", "163033.072500", "163033.532500", "163033.992500", "163034.452500", "163034.912500", "163035.372500", "163035.832500", "163036.292500", "163036.752500", "163037.212500", "163037.672500", "163038.132500", "163038.592500", "163039.052500", "163039.512500", "163039.972500", "163040.432500", "163040.892500", "163041.352500", "163041.812500", "163042.272500", "163042.732500", "163043.192500", "163043.652500", "163044.112500", "163044.572500", "163045.032500", "163045.492500", "163045.952500", "163046.412500", "163046.872500", "163047.332500", "163047.792500", "163048.252500", "163048.712500", "163049.172500", "163049.632500", "163050.092500", "163050.552500", "163051.012500", "163051.472500", "163051.932500", "163052.392500", "163052.852500", "163053.312500", "163053.772500", "163054.232500", "163054.692500", "163055.152500", "163055.612500", "163056.072500", "163056.532500", "163056.992500", "163057.452500", "163057.912500", "163058.372500", "163058.832500", "163059.292500", "163059.752500", "163100.212500", "163100.672500", "163101.132500", "163101.592500", "163102.052500", "163102.512500", "163102.972500", "163103.432500", "163103.892500", "163104.352500", "163104.812500", "163105.272500", "163105.732500", "163106.192500", "163106.652500", "163107.112500", "163107.572500", "163108.032500", "163108.492500", "163108.952500", "163109.412500", "163109.872500", "163110.332500", "163110.792500", "163111.252500", "163111.712500", "163112.172500", "163112.632500", "163113.092500", "163113.552500", "163114.012500", "163114.472500", "163114.932500", "163115.392500", "163115.852500", "163116.312500", "163116.772500", "163117.232500", "163117.692500", "163118.152500", "163118.612500", "163119.072500", "163119.532500", "163119.992500", "163120.452500", "163120.912500", "163121.372500", "163121.832500", "163122.292500", "163122.752500", "163123.212500", "163123.672500", "163124.132500", "163124.592500", "163125.052500", "163125.512500", "163125.972500", "163126.432500", "163126.892500", "163127.352500", "163127.812500", "163128.272500", "163128.732500", "163129.192500", "163129.652500", "163130.112500", "163130.572500", "163131.032500", "163131.492500", "163131.952500", "163132.412500", "163132.872500", "163133.332500", "163133.792500", "163134.252500", "163134.712500", "163135.172500", "163135.632500", "163136.092500", "163136.552500", "163137.012500", "163137.472500", "163137.932500", "163138.392500", "163138.852500", "163139.312500", "163139.772500", "163140.232500", "163140.692500", "163141.152500", "163141.612500", "163142.072500", "163142.532500", "163142.992500", "163143.452500", "163143.912500", "163144.372500", "163144.832500", "163145.292500", "163145.752500", "163146.212500", "163146.672500", "163147.132500", "163147.592500", "163148.052500", "163148.512500", "163148.972500", "163149.432500", "163149.892500", "163150.352500", "163150.812500", "163151.272500", "163151.732500", "163152.192500", "163152.652500", "163153.112500", "163153.572500", "163154.032500", "163154.492500", "163154.952500", "163155.412500", "163155.872500", "163156.332500", "163156.792500", "163157.252500", "163157.712500", "163158.172500", "163158.632500", "163159.092500", "163159.552500", "163200.012500", "163200.472500", "163200.932500", "163201.392500", "163201.852500", "163202.312500", "163202.772500", "163203.232500", "163203.692500", "163204.152500", "163204.612500", "163205.072500", "163205.532500", "163205.992500", "163206.452500", "163206.912500", "163207.372500", "163207.832500", "163208.292500", "163208.752500", "163209.212500", "163209.672500", "163210.132500", "163210.592500", "163211.052500", "163211.512500", "163211.972500", "163212.432500", "163212.892500", "163213.352500", "163213.812500", "163214.272500", "163214.732500", "163215.192500", "163215.652500", "163216.112500", "163216.572500", "163217.032500", "163217.492500", "163217.952500", "163218.412500", "163218.872500", "163219.332500", "163219.792500", "163220.252500", "163220.712500", "163221.172500", "163221.632500", "163222.092500", "163222.552500", "163223.012500", "163223.472500", "163223.932500", "163224.392500", "163224.852500", "163225.312500", "163225.772500", "163226.232500", "163226.692500", "163227.152500", "163227.612500", "163228.072500", "163228.532500", "163228.992500", "163229.452500", "163229.912500", "163230.372500", "163230.832500", "163231.292500", "163231.752500", "163232.212500", "163232.672500", "163233.132500", "163233.592500", "163234.052500", "163234.512500", "163234.972500", "163235.432500", "163235.892500", "163236.352500", "163236.812500", "163237.272500", "163237.732500", "163238.192500", "163238.652500", "163239.112500", "163239.572500", "163240.032500", "163240.492500", "163240.952500", "163241.412500", "163241.872500", "163242.332500", "163242.792500", "163243.252500", "163243.712500", "163244.172500", "163244.632500", "163245.092500", "163245.552500", "163246.012500", "163246.472500", "163246.932500", "163247.392500", "163247.852500", "163248.312500", "163248.772500", "163249.232500", "163249.692500", "163250.152500", "163250.612500", "163251.072500", "163251.532500", "163251.992500", "163252.452500", "163252.912500", "163253.372500", "163253.832500", "163254.292500", "163254.752500", "163255.212500", "163255.672500", "163256.132500", "163256.592500", "163257.052500", "163257.512500", "163257.972500", "163258.432500", "163258.892500", "163259.352500", "163259.812500", "163300.272500", "163300.732500", "163301.192500", "163301.652500", "163302.112500", "163302.572500", "163303.032500", "163303.492500", "163303.952500", "163304.412500", "163304.872500", "163305.332500", "163305.792500", "163306.252500", "163306.712500", "163307.172500", "163307.632500", "163308.092500", "163308.552500", "163309.012500", "163309.472500", "163309.932500", "163310.392500", "163310.852500", "163311.312500", "163311.772500", "163312.232500", "163312.692500", "163313.152500", "163313.612500", "163314.072500", "163314.532500", "163314.992500", "163315.452500", "163315.912500", "163316.372500", "163316.832500", "163317.292500", "163317.752500", "163318.212500", "163318.672500", "163319.132500", "163319.592500", "163320.052500", "163320.512500", "163320.972500", "163321.432500", "163321.892500", "163322.352500", "163322.812500", "163323.272500", "163323.732500", "163324.192500", "163324.652500", "163325.112500", "163325.572500", "163326.032500", "163326.492500", "163326.952500", "163327.412500", "163327.872500", "163328.332500", "163328.792500", "163329.252500", "163329.712500", "163330.172500", "163330.632500", "163331.092500", "163331.552500", "163332.012500", "163332.472500", "163332.932500", "163333.392500", "163333.852500", "163334.312500", "163334.772500", "163335.232500", "163335.692500", "163336.152500", "163336.612500", "163337.072500", "163337.532500", "163337.992500", "163338.452500", "163338.912500", "163339.372500", "163339.832500", "163340.292500", "163340.752500", "163341.212500", "163341.672500", "163342.132500", "163342.592500", "163343.052500", "163343.512500", "163343.972500", "163344.432500", "163344.892500", "163345.352500", "163345.812500", "163346.272500", "163346.732500", "163347.192500", "163347.652500", "163348.112500", "163348.572500", "163349.032500", "163349.492500", "163349.952500", "163350.412500", "163350.872500", "163351.332500", "163351.792500", "163352.252500", "163352.712500", "163353.172500", "163353.632500", "163354.092500", "163354.552500", "163355.012500", "163355.472500", "163355.932500", "163356.392500", "163356.852500", "163357.312500", "163357.772500", "163358.232500", "163358.692500", "163359.152500", "163359.612500", "163400.072500", "163400.532500", "163400.992500", "163401.452500", "163401.912500", "163402.372500", "163402.832500", "163403.292500", "163403.752500", "163404.212500", "163404.672500", "163405.132500", "163405.592500", "163406.052500", "163406.512500", "163406.972500", "163407.432500", "163407.892500", "163408.352500", "163408.812500", "163409.272500", "163409.732500", "163410.192500", "163410.652500", "163411.112500", "163411.572500", "163412.032500", "163412.492500", "163412.952500", "163413.412500", "163413.872500", "163414.332500", "163414.792500", "163415.252500", "163415.712500", "163416.172500"],
