{
  "AcquisitionMatrixPE": 82,
  "AcquisitionNumber": 1,
  "AcquisitionTime": "16:39:46.565000",
  "BandwidthPerPixelPhaseEncode": 24.888,
  "BaseResolution": 82,
  "BodyPartExamined": "BRAIN",
  "ConsistencyInfo": "N4_VE11C_LATEST_20160120",
  "ConversionSoftware": "dcm2niix",
  "ConversionSoftwareVersion": "v1.0.20201102",
  "DerivedVendorReportedEchoSpacing": 0.00049,
  "DeviceSerialNumber": "66112",
  "DwellTime": 2e-06,
  "EchoTime": 0.0272,
  "EchoTrainLength": 82,
  "EffectiveEchoSpacing": 0.00049,
  "FlipAngle": 44,
  "ImageComments": "Unaliased MB8/PE3",
  "ImageOrientationPatientDICOM": [0.999793, 0.0148028, 0.0139919, -0.0165787, 0.990465, 0.13676],
  "ImageType": [
    "ORIGINAL",
    "PRIMARY",
    "M",
    "MB",
    "ND",
    "NORM",
    "MOSAIC"
],
  "ImagingFrequency": 123.252,
  "InPlanePhaseEncodingDirectionDICOM": "COL",
  "InstitutionAddress": "Maynard 3,Hanover,NH,US,03755",
  "InstitutionName": "Dartmouth College - PBS",
  "InstitutionalDepartmentName": "Department",
  "MRAcquisitionType": "2D",
  "MagneticFieldStrength": 3,
  "Manufacturer": "Siemens",
  "ManufacturersModelName": "Prisma",
  "Modality": "MR",
  "MultibandAccelerationFactor": 8,
  "PartialFourier": 1,
  "PatientPosition": "HFS",
  "PercentPhaseFOV": 100,
  "PercentSampling": 100,
  "PhaseEncodingDirection": "j-",
  "PhaseEncodingSteps": 82,
  "PhaseResolution": 1,
  "PixelBandwidth": 3050,
  "ProcedureStepDescription": "Wager_Wager^1076_spacetop",
  "ProtocolName": "func_run-01_task-alignvideo_acq-ap-mb8",
  "PulseSequenceDetails": "%CustomerSeq%\\cmrr_mbep2d_bold",
  "ReceiveCoilActiveElements": "HEA;HEP",
  "ReceiveCoilName": "Head_32",
  "ReconMatrixPE": 82,
  "RepetitionTime": 0.46,
  "SAR": 0.0777345,
  "ScanOptions": "FS",
  "ScanningSequence": "EP",
  "SequenceName": "epfid2d1_82",
  "SequenceVariant": "SK\\SS",
  "SeriesDescription": "func_run-01_task-alignvideo_acq-ap-mb8",
  "SeriesNumber": 30,
  "ShimSetting": [4149, -7732, -7313, 492, -67, -189, -31, 64],
  "SliceThickness": 2.7,
  "SliceTiming": [0, 0.2525, 0.0625, 0.315, 0.125, 0.3775, 0.19, 0, 0.2525, 0.0625, 0.315, 0.125, 0.3775, 0.19, 0, 0.2525, 0.0625, 0.315, 0.125, 0.3775, 0.19, 0, 0.2525, 0.0625, 0.315, 0.125, 0.3775, 0.19, 0, 0.2525, 0.0625, 0.315, 0.125, 0.3775, 0.19, 0, 0.2525, 0.0625, 0.315, 0.125, 0.3775, 0.19, 0, 0.2525, 0.0625, 0.315, 0.125, 0.3775, 0.19, 0, 0.2525, 0.0625, 0.315, 0.125, 0.3775, 0.19],
  "SoftwareVersions": "syngo MR E11",
  "SpacingBetweenSlices": 2.7,
  "StationName": "AWP66112",
  "TaskName": "alignvideo",
  "TotalReadoutTime": 0.03969,
  "TxRefAmp": 221.713,
  "WipMemBlock": "52a3f362-9b39-4743-96fa-0066ed86f022||Sequence: R016 ve11c/master r/e634e98; Dec 19 2017 11:00:25 by eja",
  "dcmmeta_affine": [
    [-2.682370185852051, -0.04447935149073601, 0.031951989978551865, 112.64012908935547],
    [-0.03971490636467934, 2.657346487045288, 0.3698021471500397, -108.6791000366211],
    [0.0375392846763134, -0.36691755056381226, 2.6743643283843994, -65.99459838867188],
    [0.0, 0.0, 0.0, 1.0]
],
  "dcmmeta_reorient_transform": [
    [0.0, -1.0, 0.0, 81.0],
    [1.0, 0.0, 0.0, 0.0],
    [0.0, 0.0, 1.0, 0.0],
    [0.0, 0.0, 0.0, 1.0]
],
  "dcmmeta_shape": [82, 82, 56, 839],
  "dcmmeta_slice_dim": 2,
  "dcmmeta_version": 0.6,
  "global": {
    "const": {
      "AccessionNumber": "A003508",
      "AcquisitionMatrix": [82, 0, 0, 82],
      "AngioFlag": "N",
      "BitsAllocated": 16,
      "BitsStored": 16,
      "BodyPartExamined": "BRAIN",
      "Columns": 656,
      "EchoNumbers": 1,
      "EchoTime": 27.2,
      "EchoTrainLength": 82,
      "FlipAngle": 44.0,
      "HighBit": 15,
      "ImageOrientationPatient": [0.99979252976454, 0.01480282862609, 0.0139919152261, -0.0165786665791, 0.99046544793403, 0.13676017060279],
      "ImagePositionPatient": [-866.11199516806, -880.62255084489, -211.79402558197],
      "ImageType": [
        "ORIGINAL",
        "PRIMARY",
        "M",
        "MB",
        "ND",
        "NORM",
        "MOSAIC"
],
      "ImagedNucleus": "1H",
      "ImagingFrequency": 123.252188,
      "InPlanePhaseEncodingDirection": "COL",
      "MRAcquisitionType": "2D",
      "MagneticFieldStrength": 3.0,
      "Manufacturer": "SIEMENS",
      "ManufacturerModelName": "Prisma",
      "Modality": "MR",
      "NumberOfAverages": 1.0,
      "NumberOfPhaseEncodingSteps": 82,
      "PercentPhaseFieldOfView": 100.0,
      "PercentSampling": 100.0,
      "PerformedProcedureStepStartTime": "143345.696000",
      "PhotometricInterpretation": "MONOCHROME2",
      "PixelBandwidth": 3050.0,
      "PixelRepresentation": 0,
      "PixelSpacing": [2.6829268932343, 2.6829268932343],
      "ProtocolName": "func_run-01_task-alignvideo_acq-ap-mb8",
      "RepetitionTime": 460.0,
      "Rows": 656,
      "SAR": 0.0777345114147,
      "SamplesPerPixel": 1,
      "ScanOptions": "FS",
      "ScanningSequence": "EP",
      "SequenceName": "epfid2d1_82",
      "SequenceVariant": [
        "SK",
        "SS"
],
      "SeriesDescription": "func_run-01_task-alignvideo_acq-ap-mb8",
      "SeriesNumber": 30,
      "SeriesTime": "164002.537000",
      "SliceLocation": -78.920108572352,
      "SliceThickness": 2.7000000476837,
      "SmallestImagePixelValue": 0,
      "SoftwareVersions": "syngo MR E11",
      "SpacingBetweenSlices": 2.6999999118008,
      "SpecificCharacterSet": "ISO_IR 100",
      "StudyID": "2",
      "StudyTime": "143345.618000",
      "TransmitCoilName": "Body",
      "VariableFlipAngleFlag": "N",
      "WindowCenterWidthExplanation": "Algo1",
      "dBdt": 0.0},
    "slices": {}
  },
  "time": {
    "samples": {
      "AcquisitionNumber": [1, 2, 3, 4, 5, 6, 7, 8, 9, 10, 11, 12, 13, 14, 15, 16, 17, 18, 19, 20, 21, 22, 23, 24, 25, 26, 27, 28, 29, 30, 31, 32, 33, 34, 35, 36, 37, 38, 39, 40, 41, 42, 43, 44, 45, 46, 47, 48, 49, 50, 51, 52, 53, 54, 55, 56, 57, 58, 59, 60, 61, 62, 63, 64, 65, 66, 67, 68, 69, 70, 71, 72, 73, 74, 75, 76, 77, 78, 79, 80, 81, 82, 83, 84, 85, 86, 87, 88, 89, 90, 91, 92, 93, 94, 95, 96, 97, 98, 99, 100, 101, 102, 103, 104, 105, 106, 107, 108, 109, 110, 111, 112, 113, 114, 115, 116, 117, 118, 119, 120, 121, 122, 123, 124, 125, 126, 127, 128, 129, 130, 131, 132, 133, 134, 135, 136, 137, 138, 139, 140, 141, 142, 143, 144, 145, 146, 147, 148, 149, 150, 151, 152, 153, 154, 155, 156, 157, 158, 159, 160, 161, 162, 163, 164, 165, 166, 167, 168, 169, 170, 171, 172, 173, 174, 175, 176, 177, 178, 179, 180, 181, 182, 183, 184, 185, 186, 187, 188, 189, 190, 191, 192, 193, 194, 195, 196, 197, 198, 199, 200, 201, 202, 203, 204, 205, 206, 207, 208, 209, 210, 211, 212, 213, 214, 215, 216, 217, 218, 219, 220, 221, 222, 223, 224, 225, 226, 227, 228, 229, 230, 231, 232, 233, 234, 235, 236, 237, 238, 239, 240, 241, 242, 243, 244, 245, 246, 247, 248, 249, 250, 251, 252, 253, 254, 255, 256, 257, 258, 259, 260, 261, 262, 263, 264, 265, 266, 267, 268, 269, 270, 271, 272, 273, 274, 275, 276, 277, 278, 279, 280, 281, 282, 283, 284, 285, 286, 287, 288, 289, 290, 291, 292, 293, 294, 295, 296, 297, 298, 299, 300, 301, 302, 303, 304, 305, 306, 307, 308, 309, 310, 311, 312, 313, 314, 315, 316, 317, 318, 319, 320, 321, 322, 323, 324, 325, 326, 327, 328, 329, 330, 331, 332, 333, 334, 335, 336, 337, 338, 339, 340, 341, 342, 343, 344, 345, 346, 347, 348, 349, 350, 351, 352, 353, 354, 355, 356, 357, 358, 359, 360, 361, 362, 363, 364, 365, 366, 367, 368, 369, 370, 371, 372, 373, 374, 375, 376, 377, 378, 379, 380, 381, 382, 383, 384, 385, 386, 387, 388, 389, 390, 391, 392, 393, 394, 395, 396, 397, 398, 399, 400, 401, 402, 403, 404, 405, 406, 407, 408, 409, 410, 411, 412, 413, 414, 415, 416, 417, 418, 419, 420, 421, 422, 423, 424, 425, 426, 427, 428, 429, 430, 431, 432, 433, 434, 435, 436, 437, 438, 439, 440, 441, 442, 443, 444, 445, 446, 447, 448, 449, 450, 451, 452, 453, 454, 455, 456, 457, 458, 459, 460, 461, 462, 463, 464, 465, 466, 467, 468, 469, 470, 471, 472, 473, 474, 475, 476, 477, 478, 479, 480, 481, 482, 483, 484, 485, 486, 487, 488, 489, 490, 491, 492, 493, 494, 495, 496, 497, 498, 499, 500, 501, 502, 503, 504, 505, 506, 507, 508, 509, 510, 511, 512, 513, 514, 515, 516, 517, 518, 519, 520, 521, 522, 523, 524, 525, 526, 527, 528, 529, 530, 531, 532, 533, 534, 535, 536, 537, 538, 539, 540, 541, 542, 543, 544, 545, 546, 547, 548, 549, 550, 551, 552, 553, 554, 555, 556, 557, 558, 559, 560, 561, 562, 563, 564, 565, 566, 567, 568, 569, 570, 571, 572, 573, 574, 575, 576, 577, 578, 579, 580, 581, 582, 583, 584, 585, 586, 587, 588, 589, 590, 591, 592, 593, 594, 595, 596, 597, 598, 599, 600, 601, 602, 603, 604, 605, 606, 607, 608, 609, 610, 611, 612, 613, 614, 615, 616, 617, 618, 619, 620, 621, 622, 623, 624, 625, 626, 627, 628, 629, 630, 631, 632, 633, 634, 635, 636, 637, 638, 639, 640, 641, 642, 643, 644, 645, 646, 647, 648, 649, 650, 651, 652, 653, 654, 655, 656, 657, 658, 659, 660, 661, 662, 663, 664, 665, 666, 667, 668, 669, 670, 671, 672, 673, 674, 675, 676, 677, 678, 679, 680, 681, 682, 683, 684, 685, 686, 687, 688, 689, 690, 691, 692, 693, 694, 695, 696, 697, 698, 699, 700, 701, 702, 703, 704, 705, 706, 707, 708, 709, 710, 711, 712, 713, 714, 715, 716, 717, 718, 719, 720, 721, 722, 723, 724, 725, 726, 727, 728, 729, 730, 731, 732, 733, 734, 735, 736, 737, 738, 739, 740, 741, 742, 743, 744, 745, 746, 747, 748, 749, 750, 751, 752, 753, 754, 755, 756, 757, 758, 759, 760, 761, 762, 763, 764, 765, 766, 767, 768, 769, 770, 771, 772, 773, 774, 775, 776, 777, 778, 779, 780, 781, 782, 783, 784, 785, 786, 787, 788, 789, 790, 791, 792, 793, 794, 795, 796, 797, 798, 799, 800, 801, 802, 803, 804, 805, 806, 807, 808, 809, 810, 811, 812, 813, 814, 815, 816, 817, 818, 819, 820, 821, 822, 823, 824, 825, 826, 827, 828, 829, 830, 831, 832, 833, 834, 835, 836, 837, 838, 839],
      "AcquisitionTime": ["163946.565000", "163947.025000", "163947.485000", "163947.945000", "163948.405000", "163948.865000", "163949.325000", "163949.785000", "163950.245000", "163950.705000", "163951.165000", "163951.625000", "163952.085000", "163952.545000", "163953.005000", "163953.465000", "163953.925000", "163954.385000", "163954.845000", "163955.305000", "163955.765000", "163956.225000", "163956.685000", "163957.145000", "163957.605000", "163958.065000", "163958.525000", "163958.985000", "163959.445000", "163959.905000", "164000.365000", "164000.825000", "164001.285000", "164001.745000", "164002.205000", "164002.665000", "164003.125000", "164003.585000", "164004.045000", "164004.505000", "164004.965000", "164005.425000", "164005.885000", "164006.345000", "164006.805000", "164007.265000", "164007.725000", "164008.185000", "164008.645000", "164009.105000", "164009.565000", "164010.025000", "164010.485000", "164010.945000", "164011.405000", "164011.865000", "164012.325000", "164012.785000", "164013.245000", "164013.705000", "164014.165000", "164014.625000", "164015.085000", "164015.545000", "164016.005000", "164016.465000", "164016.925000", "164017.385000", "164017.845000", "164018.305000", "164018.765000", "164019.225000", "164019.685000", "164020.145000", "164020.605000", "164021.065000", "164021.525000", "164021.985000", "164022.445000", "164022.905000", "164023.365000", "164023.825000", "164024.285000", "164024.745000", "164025.205000", "164025.665000", "164026.125000", "164026.585000", "164027.045000", "164027.505000", "164027.965000", "164028.425000", "164028.885000", "164029.345000", "164029.805000", "164030.265000", "164030.725000", "164031.185000", "164031.645000", "164032.105000", "164032.565000", "164033.025000", "164033.485000", "164033.945000", "164034.405000", "164034.865000", "164035.325000", "164035.785000", "164036.245000", "164036.705000", "164037.165000", "164037.625000", "164038.085000", "164038.545000", "164039.005000", "164039.465000", "164039.925000", "164040.385000", "164040.845000", "164041.305000", "164041.765000", "164042.225000", "164042.685000", "164043.145000", "164043.605000", "164044.065000", "164044.525000", "164044.985000", "164045.445000", "164045.905000", "164046.365000", "164046.825000", "164047.285000", "164047.745000", "164048.205000", "164048.665000", "164049.125000", "164049.585000", "164050.045000", "164050.505000", "164050.965000", "164051.425000", "164051.885000", "164052.345000", "164052.805000", "164053.265000", "164053.725000", "164054.185000", "164054.645000", "164055.105000", "164055.565000", "164056.025000", "164056.485000", "164056.945000", "164057.405000", "164057.865000", "164058.325000", "164058.785000", "164059.245000", "164059.705000", "164100.165000", "164100.625000", "164101.085000", "164101.545000", "164102.005000", "164102.465000", "164102.925000", "164103.385000", "164103.845000", "164104.305000", "164104.765000", "164105.225000", "164105.685000", "164106.145000", "164106.605000", "164107.065000", "164107.525000", "164107.985000", "164108.445000", "164108.905000", "164109.365000", "164109.825000", "164110.285000", "164110.745000", "164111.205000", "164111.665000", "164112.125000", "164112.585000", "164113.045000", "164113.505000", "164113.965000", "164114.425000", "164114.885000", "164115.345000", "164115.805000", "164116.265000", "164116.725000", "164117.185000", "164117.645000", "164118.105000", "164118.565000", "164119.025000", "164119.485000", "164119.945000", "164120.405000", "164120.865000", "164121.325000", "164121.785000", "164122.245000", "164122.705000", "164123.165000", "164123.625000", "164124.085000", "164124.545000", "164125.005000", "164125.465000", "164125.925000", "164126.385000", "164126.845000", "164127.305000", "164127.765000", "164128.225000", "164128.685000", "164129.145000", "164129.605000", "164130.065000", "164130.525000", "164130.985000", "164131.445000", "164131.905000", "164132.365000", "164132.825000", "164133.285000", "164133.745000", "164134.205000", "164134.665000", "164135.125000", "164135.585000", "164136.045000", "164136.505000", "164136.965000", "164137.425000", "164137.885000", "164138.345000", "164138.805000", "164139.265000", "164139.725000", "164140.185000", "164140.645000", "164141.105000", "164141.565000", "164142.025000", "164142.485000", "164142.945000", "164143.405000", "164143.865000", "164144.325000", "164144.785000", "164145.245000", "164145.705000", "164146.165000", "164146.625000", "164147.085000", "164147.545000", "164148.005000", "164148.465000", "164148.925000", "164149.385000", "164149.845000", "164150.305000", "164150.765000", "164151.225000", "164151.685000", "164152.145000", "164152.605000", "164153.065000", "164153.525000", "164153.985000", "164154.445000", "164154.905000", "164155.365000", "164155.825000", "164156.285000", "164156.745000", "164157.205000", "164157.665000", "164158.125000", "164158.585000", "164159.045000", "164159.505000", "164159.965000", "164200.425000", "164200.885000", "164201.345000", "164201.805000", "164202.265000", "164202.725000", "164203.185000", "164203.645000", "164204.105000", "164204.565000", "164205.025000", "164205.485000", "164205.945000", "164206.405000", "164206.865000", "164207.325000", "164207.785000", "164208.245000", "164208.705000", "164209.165000", "164209.625000", "164210.085000", "164210.545000", "164211.005000", "164211.465000", "164211.925000", "164212.385000", "164212.845000", "164213.305000", "164213.765000", "164214.225000", "164214.685000", "164215.145000", "164215.605000", "164216.065000", "164216.525000", "164216.985000", "164217.445000", "164217.905000", "164218.365000", "164218.825000", "164219.285000", "164219.745000", "164220.205000", "164220.665000", "164221.125000", "164221.585000", "164222.045000", "164222.505000", "164222.965000", "164223.425000", "164223.885000", "164224.345000", "164224.805000", "164225.265000", "164225.725000", "164226.185000", "164226.645000", "164227.105000", "164227.565000", "164228.025000", "164228.485000", "164228.945000", "164229.405000", "164229.865000", "164230.325000", "164230.785000", "164231.245000", "164231.705000", "164232.165000", "164232.625000", "164233.085000", "164233.545000", "164234.005000", "164234.465000", "164234.925000", "164235.385000", "164235.845000", "164236.305000", "164236.765000", "164237.225000", "164237.685000", "164238.145000", "164238.605000", "164239.065000", "164239.525000", "164239.985000", "164240.445000", "164240.905000", "164241.365000", "164241.825000", "164242.285000", "164242.745000", "164243.205000", "164243.665000", "164244.125000", "164244.585000", "164245.045000", "164245.505000", "164245.965000", "164246.425000", "164246.885000", "164247.345000", "164247.805000", "164248.265000", "164248.725000", "164249.185000", "164249.645000", "164250.105000", "164250.565000", "164251.025000", "164251.485000", "164251.945000", "164252.405000", "164252.865000", "164253.325000", "164253.785000", "164254.245000", "164254.705000", "164255.165000", "164255.625000", "164256.085000", "164256.545000", "164257.005000", "164257.465000", "164257.925000", "164258.385000", "164258.845000", "164259.305000", "164259.765000", "164300.225000", "164300.685000", "164301.145000", "164301.605000", "164302.065000", "164302.525000", "164302.985000", "164303.445000", "164303.905000", "164304.365000", "164304.825000", "164305.285000", "164305.745000", "164306.205000", "164306.665000", "164307.125000", "164307.585000", "164308.045000", "164308.505000", "164308.965000", "164309.425000", "164309.885000", "164310.345000", "164310.805000", "164311.265000", "164311.725000", "164312.185000", "164312.645000", "164313.105000", "164313.565000", "164314.025000", "164314.485000", "164314.945000", "164315.405000", "164315.865000", "164316.325000", "164316.785000", "164317.245000", "164317.705000", "164318.165000", "164318.625000", "164319.085000", "164319.545000", "164320.005000", "164320.465000", "164320.925000", "164321.385000", "164321.845000", "164322.305000", "164322.765000", "164323.225000", "164323.685000", "164324.145000", "164324.605000", "164325.065000", "164325.525000", "164325.985000", "164326.445000", "164326.905000", "164327.365000", "164327.825000", "164328.285000", "164328.745000", "164329.205000", "164329.665000", "164330.125000", "164330.585000", "164331.045000", "164331.505000", "164331.965000", "164332.425000", "164332.885000", "164333.345000", "164333.805000", "164334.265000", "164334.725000", "164335.185000", "164335.645000", "164336.105000", "164336.565000", "164337.025000", "164337.485000", "164337.945000", "164338.405000", "164338.865000", "164339.325000", "164339.785000", "164340.245000", "164340.705000", "164341.165000", "164341.625000", "164342.085000", "164342.545000", "164343.005000", "164343.465000", "164343.925000", "164344.385000", "164344.845000", "164345.305000", "164345.765000", "164346.225000", "164346.685000", "164347.145000", "164347.605000", "164348.065000", "164348.525000", "164348.985000", "164349.445000", "164349.905000", "164350.365000", "164350.825000", "164351.285000", "164351.745000", "164352.205000", "164352.665000", "164353.125000", "164353.585000", "164354.045000", "164354.505000", "164354.965000", "164355.425000", "164355.885000", "164356.345000", "164356.805000", "164357.265000", "164357.725000", "164358.185000", "164358.645000", "164359.105000", "164359.565000", "164400.025000", "164400.485000", "164400.945000", "164401.405000", "164401.865000", "164402.325000", "164402.785000", "164403.245000", "164403.705000", "164404.165000", "164404.625000", "164405.085000", "164405.545000", "164406.005000", "164406.465000", "164406.925000", "164407.385000", "164407.845000", "164408.305000", "164408.765000", "164409.225000", "164409.685000", "164410.145000", "164410.605000", "164411.065000", "164411.525000", "164411.985000", "164412.445000", "164412.905000", "164413.365000", "164413.825000", "164414.285000", "164414.745000", "164415.205000", "164415.665000", "164416.125000", "164416.585000", "164417.045000", "164417.505000", "164417.965000", "164418.425000", "164418.885000", "164419.345000", "164419.805000", "164420.265000", "164420.725000", "164421.185000", "164421.645000", "164422.105000", "164422.565000", "164423.025000", "164423.485000", "164423.945000", "164424.405000", "164424.865000", "164425.325000", "164425.785000", "164426.245000", "164426.705000", "164427.165000", "164427.625000", "164428.085000", "164428.545000", "164429.005000", "164429.465000", "164429.925000", "164430.385000", "164430.845000", "164431.305000", "164431.765000", "164432.225000", "164432.685000", "164433.145000", "164433.605000", "164434.065000", "164434.525000", "164434.985000", "164435.445000", "164435.905000", "164436.365000", "164436.825000", "164437.285000", "164437.745000", "164438.205000", "164438.665000", "164439.125000", "164439.585000", "164440.045000", "164440.505000", "164440.965000", "164441.425000", "164441.885000", "164442.345000", "164442.805000", "164443.265000", "164443.725000", "164444.185000", "164444.645000", "164445.105000", "164445.565000", "164446.025000", "164446.485000", "164446.945000", "164447.405000", "164447.865000", "164448.325000", "164448.785000", "164449.245000", "164449.705000", "164450.165000", "164450.625000", "164451.085000", "164451.545000", "164452.005000", "164452.465000", "164452.925000", "164453.385000", "164453.845000", "164454.305000", "164454.765000", "164455.225000", "164455.685000", "164456.145000", "164456.605000", "164457.065000", "164457.525000", "164457.985000", "164458.445000", "164458.905000", "164459.365000", "164459.825000", "164500.285000", "164500.745000", "164501.205000", "164501.665000", "164502.125000", "164502.585000", "164503.045000", "164503.505000", "164503.965000", "164504.425000", "164504.885000", "164505.345000", "164505.805000", "164506.265000", "164506.725000", "164507.185000", "164507.645000", "164508.105000", "164508.565000", "164509.025000", "164509.485000", "164509.945000", "164510.405000", "164510.865000", "164511.325000", "164511.785000", "164512.245000", "164512.705000", "164513.165000", "164513.625000", "164514.085000", "164514.545000", "164515.005000", "164515.465000", "164515.925000", "164516.385000", "164516.845000", "164517.305000", "164517.765000", "164518.225000", "164518.685000", "164519.145000", "164519.605000", "164520.065000", "164520.525000", "164520.985000", "164521.445000", "164521.905000", "164522.365000", "164522.825000", "164523.285000", "164523.745000", "164524.205000", "164524.665000", "164525.125000", "164525.585000", "164526.045000", "164526.505000", "164526.965000", "164527.425000", "164527.885000", "164528.345000", "164528.805000", "164529.265000", "164529.725000", "164530.185000", "164530.645000", "164531.105000", "164531.565000", "164532.025000", "164532.485000", "164532.945000", "164533.405000", "164533.865000", "164534.325000", "164534.785000", "164535.245000", "164535.705000", "164536.165000", "164536.625000", "164537.085000", "164537.545000", "164538.005000", "164538.465000", "164538.925000", "164539.385000", "164539.845000", "164540.305000", "164540.765000", "164541.225000", "164541.685000", "164542.145000", "164542.605000", "164543.065000", "164543.525000", "164543.985000", "164544.445000", "164544.905000", "164545.365000", "164545.825000", "164546.285000", "164546.745000", "164547.205000", "164547.665000", "164548.125000", "164548.585000", "164549.045000", "164549.505000", "164549.965000", "164550.425000", "164550.885000", "164551.345000", "164551.805000", "164552.265000", "164552.725000", "164553.185000", "164553.645000", "164554.105000", "164554.565000", "164555.025000", "164555.485000", "164555.945000", "164556.405000", "164556.865000", "164557.325000", "164557.785000", "164558.245000", "164558.705000", "164559.165000", "164559.625000", "164600.085000", "164600.545000", "164601.005000", "164601.465000", "164601.925000", "164602.385000", "164602.845000", "164603.305000", "164603.765000", "164604.225000", "164604.685000", "164605.145000", "164605.605000", "164606.065000", "164606.525000", "164606.985000", "164607.445000", "164607.905000", "164608.365000", "164608.825000", "164609.285000", "164609.745000", "164610.205000", "164610.665000", "164611.125000", "164611.585000", "164612.045000"],
