{
  "AcquisitionMatrixPE": 82,
  "AcquisitionNumber": 1,
  "AcquisitionTime": "17:10:28.110000",
  "BandwidthPerPixelPhaseEncode": 24.888,
  "BaseResolution": 82,
  "BodyPartExamined": "BRAIN",
  "ConsistencyInfo": "N4_VE11C_LATEST_20160120",
  "ConversionSoftware": "dcm2niix",
  "ConversionSoftwareVersion": "v1.0.20201102",
  "DerivedVendorReportedEchoSpacing": 0.00049,
  "DeviceSerialNumber": "66112",
  "DwellTime": 2e-06,
  "EchoTime": 0.0272,
  "EchoTrainLength": 82,
  "EffectiveEchoSpacing": 0.00049,
  "FlipAngle": 44,
  "ImageComments": "Unaliased MB8/PE3",
  "ImageOrientationPatientDICOM": [0.999793, 0.0148028, 0.0139919, -0.0165787, 0.990465, 0.13676],
  "ImageType": [
    "ORIGINAL",
    "PRIMARY",
    "M",
    "MB",
    "ND",
    "NORM",
    "MOSAIC"
],
  "ImagingFrequency": 123.252,
  "InPlanePhaseEncodingDirectionDICOM": "COL",
  "InstitutionAddress": "Maynard 3,Hanover,NH,US,03755",
  "InstitutionName": "Dartmouth College - PBS",
  "InstitutionalDepartmentName": "Department",
  "MRAcquisitionType": "2D",
  "MagneticFieldStrength": 3,
  "Manufacturer": "Siemens",
  "ManufacturersModelName": "Prisma",
  "Modality": "MR",
  "MultibandAccelerationFactor": 8,
  "PartialFourier": 1,
  "PatientPosition": "HFS",
  "PercentPhaseFOV": 100,
  "PercentSampling": 100,
  "PhaseEncodingDirection": "j-",
  "PhaseEncodingSteps": 82,
  "PhaseResolution": 1,
  "PixelBandwidth": 3050,
  "ProcedureStepDescription": "Wager_Wager^1076_spacetop",
  "ProtocolName": "func_run-04_task-alignvideo_acq-ap-mb8",
  "PulseSequenceDetails": "%CustomerSeq%\\cmrr_mbep2d_bold",
  "ReceiveCoilActiveElements": "HEA;HEP",
  "ReceiveCoilName": "Head_32",
  "ReconMatrixPE": 82,
  "RepetitionTime": 0.46,
  "SAR": 0.0777757,
  "ScanOptions": "FS",
  "ScanningSequence": "EP",
  "SequenceName": "epfid2d1_82",
  "SequenceVariant": "SK\\SS",
  "SeriesDescription": "func_run-04_task-alignvideo_acq-ap-mb8",
  "SeriesNumber": 36,
  "ShimSetting": [4149, -7732, -7313, 492, -67, -189, -31, 64],
  "SliceThickness": 2.7,
  "SliceTiming": [0, 0.2525, 0.065, 0.315, 0.1275, 0.3775, 0.19, 0, 0.2525, 0.065, 0.315, 0.1275, 0.3775, 0.19, 0, 0.2525, 0.065, 0.315, 0.1275, 0.3775, 0.19, 0, 0.2525, 0.065, 0.315, 0.1275, 0.3775, 0.19, 0, 0.2525, 0.065, 0.315, 0.1275, 0.3775, 0.19, 0, 0.2525, 0.065, 0.315, 0.1275, 0.3775, 0.19, 0, 0.2525, 0.065, 0.315, 0.1275, 0.3775, 0.19, 0, 0.2525, 0.065, 0.315, 0.1275, 0.3775, 0.19],
  "SoftwareVersions": "syngo MR E11",
  "SpacingBetweenSlices": 2.7,
  "StationName": "AWP66112",
  "TaskName": "alignvideo",
  "TotalReadoutTime": 0.03969,
  "TxRefAmp": 221.713,
  "WipMemBlock": "09bf99ba-6d44-41ed-9f47-83f626939d3e||Sequence: R016 ve11c/master r/e634e98; Dec 19 2017 11:00:25 by eja",
  "dcmmeta_affine": [
    [-2.682370185852051, -0.04447935149073601, 0.031951989978551865, 112.64012908935547],
    [-0.03971490636467934, 2.657346487045288, 0.3698021471500397, -108.6791000366211],
    [0.0375392846763134, -0.36691755056381226, 2.6743643283843994, -65.99459838867188],
    [0.0, 0.0, 0.0, 1.0]
],
  "dcmmeta_reorient_transform": [
    [0.0, -1.0, 0.0, 81.0],
    [1.0, 0.0, 0.0, 0.0],
    [0.0, 0.0, 1.0, 0.0],
    [0.0, 0.0, 0.0, 1.0]
],
  "dcmmeta_shape": [82, 82, 56, 914],
  "dcmmeta_slice_dim": 2,
  "dcmmeta_version": 0.6,
  "global": {
    "const": {
      "AccessionNumber": "A003508",
      "AcquisitionMatrix": [82, 0, 0, 82],
      "AngioFlag": "N",
      "BitsAllocated": 16,
      "BitsStored": 16,
      "BodyPartExamined": "BRAIN",
      "Columns": 656,
      "EchoNumbers": 1,
      "EchoTime": 27.2,
      "EchoTrainLength": 82,
      "FlipAngle": 44.0,
      "HighBit": 15,
      "ImageOrientationPatient": [0.99979252976454, 0.01480282862609, 0.0139919152261, -0.0165786665791, 0.99046544793403, 0.13676017060279],
      "ImagePositionPatient": [-866.11199516806, -880.62255084489, -211.79402558197],
      "ImageType": [
        "ORIGINAL",
        "PRIMARY",
        "M",
        "MB",
        "ND",
        "NORM",
        "MOSAIC"
],
      "ImagedNucleus": "1H",
      "ImagingFrequency": 123.252198,
      "InPlanePhaseEncodingDirection": "COL",
      "MRAcquisitionType": "2D",
      "MagneticFieldStrength": 3.0,
      "Manufacturer": "SIEMENS",
      "ManufacturerModelName": "Prisma",
      "Modality": "MR",
      "NumberOfAverages": 1.0,
      "NumberOfPhaseEncodingSteps": 82,
      "PercentPhaseFieldOfView": 100.0,
      "PercentSampling": 100.0,
      "PerformedProcedureStepStartTime": "143345.696000",
      "PhotometricInterpretation": "MONOCHROME2",
      "PixelBandwidth": 3050.0,
      "PixelRepresentation": 0,
      "PixelSpacing": [2.6829268932343, 2.6829268932343],
      "ProtocolName": "func_run-04_task-alignvideo_acq-ap-mb8",
      "RepetitionTime": 460.0,
      "Rows": 656,
      "SAR": 0.07777566730014,
      "SamplesPerPixel": 1,
      "ScanOptions": "FS",
      "ScanningSequence": "EP",
      "SequenceName": "epfid2d1_82",
      "SequenceVariant": [
        "SK",
        "SS"
],
      "SeriesDescription": "func_run-04_task-alignvideo_acq-ap-mb8",
      "SeriesNumber": 36,
      "SeriesTime": "171042.545000",
      "SliceLocation": -78.920108572352,
      "SliceThickness": 2.7000000476837,
      "SmallestImagePixelValue": 0,
      "SoftwareVersions": "syngo MR E11",
      "SpacingBetweenSlices": 2.6999999118008,
      "SpecificCharacterSet": "ISO_IR 100",
      "StudyID": "2",
      "StudyTime": "143345.618000",
      "TransmitCoilName": "Body",
      "VariableFlipAngleFlag": "N",
      "WindowCenterWidthExplanation": "Algo1",
      "dBdt": 0.0},
    "slices": {}
  },
  "time": {
    "samples": {
      "AcquisitionNumber": [1, 2, 3, 4, 5, 6, 7, 8, 9, 10, 11, 12, 13, 14, 15, 16, 17, 18, 19, 20, 21, 22, 23, 24, 25, 26, 27, 28, 29, 30, 31, 32, 33, 34, 35, 36, 37, 38, 39, 40, 41, 42, 43, 44, 45, 46, 47, 48, 49, 50, 51, 52, 53, 54, 55, 56, 57, 58, 59, 60, 61, 62, 63, 64, 65, 66, 67, 68, 69, 70, 71, 72, 73, 74, 75, 76, 77, 78, 79, 80, 81, 82, 83, 84, 85, 86, 87, 88, 89, 90, 91, 92, 93, 94, 95, 96, 97, 98, 99, 100, 101, 102, 103, 104, 105, 106, 107, 108, 109, 110, 111, 112, 113, 114, 115, 116, 117, 118, 119, 120, 121, 122, 123, 124, 125, 126, 127, 128, 129, 130, 131, 132, 133, 134, 135, 136, 137, 138, 139, 140, 141, 142, 143, 144, 145, 146, 147, 148, 149, 150, 151, 152, 153, 154, 155, 156, 157, 158, 159, 160, 161, 162, 163, 164, 165, 166, 167, 168, 169, 170, 171, 172, 173, 174, 175, 176, 177, 178, 179, 180, 181, 182, 183, 184, 185, 186, 187, 188, 189, 190, 191, 192, 193, 194, 195, 196, 197, 198, 199, 200, 201, 202, 203, 204, 205, 206, 207, 208, 209, 210, 211, 212, 213, 214, 215, 216, 217, 218, 219, 220, 221, 222, 223, 224, 225, 226, 227, 228, 229, 230, 231, 232, 233, 234, 235, 236, 237, 238, 239, 240, 241, 242, 243, 244, 245, 246, 247, 248, 249, 250, 251, 252, 253, 254, 255, 256, 257, 258, 259, 260, 261, 262, 263, 264, 265, 266, 267, 268, 269, 270, 271, 272, 273, 274, 275, 276, 277, 278, 279, 280, 281, 282, 283, 284, 285, 286, 287, 288, 289, 290, 291, 292, 293, 294, 295, 296, 297, 298, 299, 300, 301, 302, 303, 304, 305, 306, 307, 308, 309, 310, 311, 312, 313, 314, 315, 316, 317, 318, 319, 320, 321, 322, 323, 324, 325, 326, 327, 328, 329, 330, 331, 332, 333, 334, 335, 336, 337, 338, 339, 340, 341, 342, 343, 344, 345, 346, 347, 348, 349, 350, 351, 352, 353, 354, 355, 356, 357, 358, 359, 360, 361, 362, 363, 364, 365, 366, 367, 368, 369, 370, 371, 372, 373, 374, 375, 376, 377, 378, 379, 380, 381, 382, 383, 384, 385, 386, 387, 388, 389, 390, 391, 392, 393, 394, 395, 396, 397, 398, 399, 400, 401, 402, 403, 404, 405, 406, 407, 408, 409, 410, 411, 412, 413, 414, 415, 416, 417, 418, 419, 420, 421, 422, 423, 424, 425, 426, 427, 428, 429, 430, 431, 432, 433, 434, 435, 436, 437, 438, 439, 440, 441, 442, 443, 444, 445, 446, 447, 448, 449, 450, 451, 452, 453, 454, 455, 456, 457, 458, 459, 460, 461, 462, 463, 464, 465, 466, 467, 468, 469, 470, 471, 472, 473, 474, 475, 476, 477, 478, 479, 480, 481, 482, 483, 484, 485, 486, 487, 488, 489, 490, 491, 492, 493, 494, 495, 496, 497, 498, 499, 500, 501, 502, 503, 504, 505, 506, 507, 508, 509, 510, 511, 512, 513, 514, 515, 516, 517, 518, 519, 520, 521, 522, 523, 524, 525, 526, 527, 528, 529, 530, 531, 532, 533, 534, 535, 536, 537, 538, 539, 540, 541, 542, 543, 544, 545, 546, 547, 548, 549, 550, 551, 552, 553, 554, 555, 556, 557, 558, 559, 560, 561, 562, 563, 564, 565, 566, 567, 568, 569, 570, 571, 572, 573, 574, 575, 576, 577, 578, 579, 580, 581, 582, 583, 584, 585, 586, 587, 588, 589, 590, 591, 592, 593, 594, 595, 596, 597, 598, 599, 600, 601, 602, 603, 604, 605, 606, 607, 608, 609, 610, 611, 612, 613, 614, 615, 616, 617, 618, 619, 620, 621, 622, 623, 624, 625, 626, 627, 628, 629, 630, 631, 632, 633, 634, 635, 636, 637, 638, 639, 640, 641, 642, 643, 644, 645, 646, 647, 648, 649, 650, 651, 652, 653, 654, 655, 656, 657, 658, 659, 660, 661, 662, 663, 664, 665, 666, 667, 668, 669, 670, 671, 672, 673, 674, 675, 676, 677, 678, 679, 680, 681, 682, 683, 684, 685, 686, 687, 688, 689, 690, 691, 692, 693, 694, 695, 696, 697, 698, 699, 700, 701, 702, 703, 704, 705, 706, 707, 708, 709, 710, 711, 712, 713, 714, 715, 716, 717, 718, 719, 720, 721, 722, 723, 724, 725, 726, 727, 728, 729, 730, 731, 732, 733, 734, 735, 736, 737, 738, 739, 740, 741, 742, 743, 744, 745, 746, 747, 748, 749, 750, 751, 752, 753, 754, 755, 756, 757, 758, 759, 760, 761, 762, 763, 764, 765, 766, 767, 768, 769, 770, 771, 772, 773, 774, 775, 776, 777, 778, 779, 780, 781, 782, 783, 784, 785, 786, 787, 788, 789, 790, 791, 792, 793, 794, 795, 796, 797, 798, 799, 800, 801, 802, 803, 804, 805, 806, 807, 808, 809, 810, 811, 812, 813, 814, 815, 816, 817, 818, 819, 820, 821, 822, 823, 824, 825, 826, 827, 828, 829, 830, 831, 832, 833, 834, 835, 836, 837, 838, 839, 840, 841, 842, 843, 844, 845, 846, 847, 848, 849, 850, 851, 852, 853, 854, 855, 856, 857, 858, 859, 860, 861, 862, 863, 864, 865, 866, 867, 868, 869, 870, 871, 872, 873, 874, 875, 876, 877, 878, 879, 880, 881, 882, 883, 884, 885, 886, 887, 888, 889, 890, 891, 892, 893, 894, 895, 896, 897, 898, 899, 900, 901, 902, 903, 904, 905, 906, 907, 908, 909, 910, 911, 912, 913, 914],
      "AcquisitionTime": ["171028.110000", "171028.570000", "171029.030000", "171029.490000", "171029.950000", "171030.410000", "171030.870000", "171031.330000", "171031.790000", "171032.250000", "171032.710000", "171033.170000", "171033.630000", "171034.090000", "171034.550000", "171035.010000", "171035.470000", "171035.930000", "171036.390000", "171036.850000", "171037.310000", "171037.770000", "171038.230000", "171038.690000", "171039.150000", "171039.610000", "171040.070000", "171040.530000", "171040.990000", "171041.450000", "171041.910000", "171042.370000", "171042.830000", "171043.290000", "171043.750000", "171044.210000", "171044.670000", "171045.130000", "171045.590000", "171046.050000", "171046.510000", "171046.970000", "171047.430000", "171047.890000", "171048.350000", "171048.810000", "171049.270000", "171049.730000", "171050.190000", "171050.650000", "171051.110000", "171051.570000", "171052.030000", "171052.490000", "171052.950000", "171053.410000", "171053.870000", "171054.330000", "171054.790000", "171055.250000", "171055.710000", "171056.170000", "171056.630000", "171057.090000", "171057.550000", "171058.010000", "171058.470000", "171058.930000", "171059.390000", "171059.850000", "171100.310000", "171100.770000", "171101.230000", "171101.690000", "171102.150000", "171102.610000", "171103.070000", "171103.530000", "171103.990000", "171104.450000", "171104.910000", "171105.370000", "171105.830000", "171106.290000", "171106.750000", "171107.210000", "171107.670000", "171108.130000", "171108.590000", "171109.050000", "171109.510000", "171109.970000", "171110.430000", "171110.890000", "171111.350000", "171111.810000", "171112.270000", "171112.730000", "171113.190000", "171113.650000", "171114.110000", "171114.570000", "171115.030000", "171115.490000", "171115.950000", "171116.410000", "171116.870000", "171117.330000", "171117.790000", "171118.250000", "171118.710000", "171119.170000", "171119.630000", "171120.090000", "171120.550000", "171121.010000", "171121.470000", "171121.930000", "171122.390000", "171122.850000", "171123.310000", "171123.770000", "171124.230000", "171124.690000", "171125.150000", "171125.610000", "171126.070000", "171126.530000", "171126.990000", "171127.450000", "171127.910000", "171128.370000", "171128.830000", "171129.290000", "171129.750000", "171130.210000", "171130.670000", "171131.130000", "171131.590000", "171132.050000", "171132.510000", "171132.970000", "171133.430000", "171133.890000", "171134.350000", "171134.810000", "171135.270000", "171135.730000", "171136.190000", "171136.650000", "171137.110000", "171137.570000", "171138.030000", "171138.490000", "171138.950000", "171139.410000", "171139.870000", "171140.330000", "171140.790000", "171141.250000", "171141.710000", "171142.170000", "171142.630000", "171143.090000", "171143.550000", "171144.010000", "171144.470000", "171144.930000", "171145.390000", "171145.850000", "171146.310000", "171146.770000", "171147.230000", "171147.690000", "171148.150000", "171148.610000", "171149.070000", "171149.530000", "171149.990000", "171150.450000", "171150.910000", "171151.370000", "171151.830000", "171152.290000", "171152.750000", "171153.210000", "171153.670000", "171154.130000", "171154.590000", "171155.050000", "171155.510000", "171155.970000", "171156.430000", "171156.890000", "171157.350000", "171157.810000", "171158.270000", "171158.730000", "171159.190000", "171159.650000", "171200.110000", "171200.570000", "171201.030000", "171201.490000", "171201.950000", "171202.410000", "171202.870000", "171203.330000", "171203.790000", "171204.250000", "171204.710000", "171205.170000", "171205.630000", "171206.090000", "171206.550000", "171207.010000", "171207.470000", "171207.930000", "171208.390000", "171208.850000", "171209.310000", "171209.770000", "171210.230000", "171210.690000", "171211.150000", "171211.610000", "171212.070000", "171212.530000", "171212.990000", "171213.450000", "171213.910000", "171214.370000", "171214.830000", "171215.290000", "171215.750000", "171216.210000", "171216.670000", "171217.130000", "171217.590000", "171218.050000", "171218.510000", "171218.970000", "171219.430000", "171219.890000", "171220.350000", "171220.810000", "171221.270000", "171221.730000", "171222.190000", "171222.650000", "171223.110000", "171223.570000", "171224.030000", "171224.490000", "171224.950000", "171225.410000", "171225.870000", "171226.330000", "171226.790000", "171227.250000", "171227.710000", "171228.170000", "171228.630000", "171229.090000", "171229.550000", "171230.010000", "171230.470000", "171230.930000", "171231.390000", "171231.850000", "171232.310000", "171232.770000", "171233.230000", "171233.690000", "171234.150000", "171234.610000", "171235.070000", "171235.530000", "171235.990000", "171236.450000", "171236.910000", "171237.370000", "171237.830000", "171238.290000", "171238.750000", "171239.210000", "171239.670000", "171240.130000", "171240.590000", "171241.050000", "171241.510000", "171241.970000", "171242.430000", "171242.890000", "171243.350000", "171243.810000", "171244.270000", "171244.730000", "171245.190000", "171245.650000", "171246.110000", "171246.570000", "171247.030000", "171247.490000", "171247.950000", "171248.410000", "171248.870000", "171249.330000", "171249.790000", "171250.250000", "171250.710000", "171251.170000", "171251.630000", "171252.090000", "171252.550000", "171253.010000", "171253.470000", "171253.930000", "171254.390000", "171254.850000", "171255.310000", "171255.770000", "171256.230000", "171256.690000", "171257.150000", "171257.610000", "171258.070000", "171258.530000", "171258.990000", "171259.450000", "171259.910000", "171300.370000", "171300.830000", "171301.290000", "171301.750000", "171302.210000", "171302.670000", "171303.130000", "171303.590000", "171304.050000", "171304.510000", "171304.970000", "171305.430000", "171305.890000", "171306.350000", "171306.810000", "171307.270000", "171307.730000", "171308.190000", "171308.650000", "171309.110000", "171309.570000", "171310.030000", "171310.490000", "171310.950000", "171311.410000", "171311.870000", "171312.330000", "171312.790000", "171313.250000", "171313.710000", "171314.170000", "171314.630000", "171315.090000", "171315.550000", "171316.010000", "171316.470000", "171316.930000", "171317.390000", "171317.850000", "171318.310000", "171318.770000", "171319.230000", "171319.690000", "171320.150000", "171320.610000", "171321.070000", "171321.530000", "171321.990000", "171322.450000", "171322.910000", "171323.370000", "171323.830000", "171324.290000", "171324.750000", "171325.210000", "171325.670000", "171326.130000", "171326.590000", "171327.050000", "171327.510000", "171327.970000", "171328.430000", "171328.890000", "171329.350000", "171329.810000", "171330.270000", "171330.730000", "171331.190000", "171331.650000", "171332.110000", "171332.570000", "171333.030000", "171333.490000", "171333.950000", "171334.410000", "171334.870000", "171335.330000", "171335.790000", "171336.250000", "171336.710000", "171337.170000", "171337.630000", "171338.090000", "171338.550000", "171339.010000", "171339.470000", "171339.930000", "171340.390000", "171340.850000", "171341.310000", "171341.770000", "171342.230000", "171342.690000", "171343.150000", "171343.610000", "171344.070000", "171344.530000", "171344.990000", "171345.450000", "171345.910000", "171346.370000", "171346.830000", "171347.290000", "171347.750000", "171348.210000", "171348.670000", "171349.130000", "171349.590000", "171350.050000", "171350.510000", "171350.970000", "171351.430000", "171351.890000", "171352.350000", "171352.810000", "171353.270000", "171353.730000", "171354.190000", "171354.650000", "171355.110000", "171355.570000", "171356.030000", "171356.490000", "171356.950000", "171357.410000", "171357.870000", "171358.330000", "171358.790000", "171359.250000", "171359.710000", "171400.170000", "171400.630000", "171401.090000", "171401.550000", "171402.010000", "171402.470000", "171402.930000", "171403.390000", "171403.850000", "171404.310000", "171404.770000", "171405.230000", "171405.690000", "171406.150000", "171406.610000", "171407.070000", "171407.530000", "171407.990000", "171408.450000", "171408.910000", "171409.370000", "171409.830000", "171410.290000", "171410.750000", "171411.210000", "171411.670000", "171412.130000", "171412.590000", "171413.050000", "171413.510000", "171413.970000", "171414.430000", "171414.890000", "171415.350000", "171415.810000", "171416.270000", "171416.730000", "171417.190000", "171417.650000", "171418.110000", "171418.570000", "171419.030000", "171419.490000", "171419.950000", "171420.410000", "171420.870000", "171421.330000", "171421.790000", "171422.250000", "171422.710000", "171423.170000", "171423.630000", "171424.090000", "171424.550000", "171425.010000", "171425.470000", "171425.930000", "171426.390000", "171426.850000", "171427.310000", "171427.770000", "171428.230000", "171428.690000", "171429.150000", "171429.610000", "171430.070000", "171430.530000", "171430.990000", "171431.450000", "171431.910000", "171432.370000", "171432.830000", "171433.290000", "171433.750000", "171434.210000", "171434.670000", "171435.130000", "171435.590000", "171436.050000", "171436.510000", "171436.970000", "171437.430000", "171437.890000", "171438.350000", "171438.810000", "171439.270000", "171439.730000", "171440.190000", "171440.650000", "171441.110000", "171441.570000", "171442.030000", "171442.490000", "171442.950000", "171443.410000", "171443.870000", "171444.330000", "171444.790000", "171445.250000", "171445.710000", "171446.170000", "171446.630000", "171447.090000", "171447.550000", "171448.010000", "171448.470000", "171448.930000", "171449.390000", "171449.850000", "171450.310000", "171450.770000", "171451.230000", "171451.690000", "171452.150000", "171452.610000", "171453.070000", "171453.530000", "171453.990000", "171454.450000", "171454.910000", "171455.370000", "171455.830000", "171456.290000", "171456.750000", "171457.210000", "171457.670000", "171458.130000", "171458.590000", "171459.050000", "171459.510000", "171459.970000", "171500.430000", "171500.890000", "171501.350000", "171501.810000", "171502.270000", "171502.730000", "171503.190000", "171503.650000", "171504.110000", "171504.570000", "171505.030000", "171505.490000", "171505.950000", "171506.410000", "171506.870000", "171507.330000", "171507.790000", "171508.250000", "171508.710000", "171509.170000", "171509.630000", "171510.090000", "171510.550000", "171511.010000", "171511.470000", "171511.930000", "171512.390000", "171512.850000", "171513.310000", "171513.770000", "171514.230000", "171514.690000", "171515.150000", "171515.610000", "171516.070000", "171516.530000", "171516.990000", "171517.450000", "171517.910000", "171518.370000", "171518.830000", "171519.290000", "171519.750000", "171520.210000", "171520.670000", "171521.130000", "171521.590000", "171522.050000", "171522.510000", "171522.970000", "171523.430000", "171523.890000", "171524.350000", "171524.810000", "171525.270000", "171525.730000", "171526.190000", "171526.650000", "171527.110000", "171527.570000", "171528.030000", "171528.490000", "171528.950000", "171529.410000", "171529.870000", "171530.330000", "171530.790000", "171531.250000", "171531.710000", "171532.170000", "171532.630000", "171533.090000", "171533.550000", "171534.010000", "171534.470000", "171534.930000", "171535.390000", "171535.850000", "171536.310000", "171536.770000", "171537.230000", "171537.690000", "171538.150000", "171538.610000", "171539.070000", "171539.530000", "171539.990000", "171540.450000", "171540.910000", "171541.370000", "171541.830000", "171542.290000", "171542.750000", "171543.210000", "171543.670000", "171544.130000", "171544.590000", "171545.050000", "171545.510000", "171545.970000", "171546.430000", "171546.890000", "171547.350000", "171547.810000", "171548.270000", "171548.730000", "171549.190000", "171549.650000", "171550.110000", "171550.570000", "171551.030000", "171551.490000", "171551.950000", "171552.410000", "171552.870000", "171553.330000", "171553.790000", "171554.250000", "171554.710000", "171555.170000", "171555.630000", "171556.090000", "171556.550000", "171557.010000", "171557.470000", "171557.930000", "171558.390000", "171558.850000", "171559.310000", "171559.770000", "171600.230000", "171600.690000", "171601.150000", "171601.610000", "171602.070000", "171602.530000", "171602.990000", "171603.450000", "171603.910000", "171604.370000", "171604.830000", "171605.290000", "171605.750000", "171606.210000", "171606.670000", "171607.130000", "171607.590000", "171608.050000", "171608.510000", "171608.970000", "171609.430000", "171609.890000", "171610.350000", "171610.810000", "171611.270000", "171611.730000", "171612.190000", "171612.650000", "171613.110000", "171613.570000", "171614.030000", "171614.490000", "171614.950000", "171615.410000", "171615.870000", "171616.330000", "171616.790000", "171617.250000", "171617.710000", "171618.170000", "171618.630000", "171619.090000", "171619.550000", "171620.010000", "171620.470000", "171620.930000", "171621.390000", "171621.850000", "171622.310000", "171622.770000", "171623.230000", "171623.690000", "171624.150000", "171624.610000", "171625.070000", "171625.530000", "171625.990000", "171626.450000", "171626.910000", "171627.370000", "171627.830000", "171628.290000", "171628.750000", "171629.210000", "171629.670000", "171630.130000", "171630.590000", "171631.050000", "171631.510000", "171631.970000", "171632.430000", "171632.890000", "171633.350000", "171633.810000", "171634.270000", "171634.730000", "171635.190000", "171635.650000", "171636.110000", "171636.570000", "171637.030000", "171637.490000", "171637.950000", "171638.410000", "171638.870000", "171639.330000", "171639.790000", "171640.250000", "171640.710000", "171641.170000", "171641.630000", "171642.090000", "171642.550000", "171643.010000", "171643.470000", "171643.930000", "171644.390000", "171644.850000", "171645.310000", "171645.770000", "171646.230000", "171646.690000", "171647.150000", "171647.610000", "171648.070000", "171648.530000", "171648.990000", "171649.450000", "171649.910000", "171650.370000", "171650.830000", "171651.290000", "171651.750000", "171652.210000", "171652.670000", "171653.130000", "171653.590000", "171654.050000", "171654.510000", "171654.970000", "171655.430000", "171655.890000", "171656.350000", "171656.810000", "171657.270000", "171657.730000", "171658.190000", "171658.650000", "171659.110000", "171659.570000", "171700.030000", "171700.490000", "171700.950000", "171701.410000", "171701.870000", "171702.330000", "171702.790000", "171703.250000", "171703.710000", "171704.170000", "171704.630000", "171705.090000", "171705.550000", "171706.010000", "171706.470000", "171706.930000", "171707.390000", "171707.850000", "171708.310000", "171708.770000", "171709.230000", "171709.690000", "171710.150000", "171710.610000", "171711.070000", "171711.530000", "171711.990000", "171712.450000", "171712.910000", "171713.370000", "171713.830000", "171714.290000", "171714.750000", "171715.210000", "171715.670000", "171716.130000", "171716.590000", "171717.050000", "171717.510000", "171717.970000", "171718.430000", "171718.890000", "171719.350000", "171719.810000", "171720.270000", "171720.730000", "171721.190000", "171721.650000", "171722.110000", "171722.570000", "171723.030000", "171723.490000", "171723.950000", "171724.410000", "171724.870000", "171725.330000", "171725.790000", "171726.250000", "171726.710000", "171727.170000", "171727.630000", "171728.090000"],
