{
  "AcquisitionMatrixPE": 82,
  "AcquisitionNumber": 1,
  "AcquisitionTime": "10:09:26.540000",
  "BandwidthPerPixelPhaseEncode": 24.888,
  "BaseResolution": 82,
  "BodyPartExamined": "BRAIN",
  "ConsistencyInfo": "N4_VE11C_LATEST_20160120",
  "ConversionSoftware": "dcm2niix",
  "ConversionSoftwareVersion": "v1.0.20201102",
  "DerivedVendorReportedEchoSpacing": 0.00049,
  "DeviceSerialNumber": "66112",
  "DwellTime": 2e-06,
  "EchoTime": 0.0272,
  "EchoTrainLength": 82,
  "EffectiveEchoSpacing": 0.00049,
  "FlipAngle": 44,
  "ImageComments": "Unaliased MB8/PE3",
  "ImageOrientationPatientDICOM": [0.997105, -0.0299901, -0.0698788, 0.0372592, 0.993757, 0.10516],
  "ImageType": [
    "ORIGINAL",
    "PRIMARY",
    "M",
    "MB",
    "ND",
    "NORM",
    "MOSAIC"
],
  "ImagingFrequency": 123.252,
  "InPlanePhaseEncodingDirectionDICOM": "COL",
  "InstitutionAddress": "Maynard 3,Hanover,NH,US,03755",
  "InstitutionName": "Dartmouth College - PBS",
  "InstitutionalDepartmentName": "Department",
  "MRAcquisitionType": "2D",
  "MagneticFieldStrength": 3,
  "Manufacturer": "Siemens",
  "ManufacturersModelName": "Prisma",
  "Modality": "MR",
  "MultibandAccelerationFactor": 8,
  "PartialFourier": 1,
  "PatientPosition": "HFS",
  "PercentPhaseFOV": 100,
  "PercentSampling": 100,
  "PhaseEncodingDirection": "j-",
  "PhaseEncodingSteps": 82,
  "PhaseResolution": 1,
  "PixelBandwidth": 3050,
  "ProcedureStepDescription": "Wager_Wager^1076_spacetop",
  "ProtocolName": "func_run-03_task-social_acq-ap-mb8",
  "PulseSequenceDetails": "%CustomerSeq%\\cmrr_mbep2d_bold",
  "ReceiveCoilActiveElements": "HEA;HEP",
  "ReceiveCoilName": "Head_32",
  "ReconMatrixPE": 82,
  "RepetitionTime": 0.46,
  "SAR": 0.0699966,
  "ScanOptions": "FS",
  "ScanningSequence": "EP",
  "SequenceName": "epfid2d1_82",
  "SequenceVariant": "SK\\SS",
  "SeriesDescription": "func_run-03_task-social_acq-ap-mb8",
  "SeriesNumber": 12,
  "ShimSetting": [4118, -7783, -7263, 633, -97, -236, 34, 77],
  "SliceThickness": 2.7,
  "SliceTiming": [0, 0.2525, 0.0625, 0.315, 0.125, 0.3775, 0.19, 0, 0.2525, 0.0625, 0.315, 0.125, 0.3775, 0.19, 0, 0.2525, 0.0625, 0.315, 0.125, 0.3775, 0.19, 0, 0.2525, 0.0625, 0.315, 0.125, 0.3775, 0.19, 0, 0.2525, 0.0625, 0.315, 0.125, 0.3775, 0.19, 0, 0.2525, 0.0625, 0.315, 0.125, 0.3775, 0.19, 0, 0.2525, 0.0625, 0.315, 0.125, 0.3775, 0.19, 0, 0.2525, 0.0625, 0.315, 0.125, 0.3775, 0.19],
  "SoftwareVersions": "syngo MR E11",
  "SpacingBetweenSlices": 2.7,
  "StationName": "AWP66112",
  "TaskName": "social",
  "TotalReadoutTime": 0.03969,
  "TxRefAmp": 234.271,
  "WipMemBlock": "ff79f212-63c1-4e45-9c71-a66e8f62a7fc||Sequence: R016 ve11c/master r/e634e98; Dec 19 2017 11:00:25 by eja",
  "dcmmeta_affine": [
    [-2.675158739089966, 0.09996367990970612, -0.17897962033748627, 107.92984771728516],
    [0.08046118915081024, 2.66617751121521, 0.2901398539543152, -107.77104187011719],
    [-0.18747960031032562, -0.2821367681026459, 2.678392171859741, -39.465614318847656],
    [0.0, 0.0, 0.0, 1.0]
],
  "dcmmeta_reorient_transform": [
    [0.0, -1.0, 0.0, 81.0],
    [1.0, 0.0, 0.0, 0.0],
    [0.0, 0.0, 1.0, 0.0],
    [0.0, 0.0, 0.0, 1.0]
],
  "dcmmeta_shape": [82, 82, 56, 872],
  "dcmmeta_slice_dim": 2,
  "dcmmeta_version": 0.6,
  "global": {
    "const": {
      "AccessionNumber": "A003481",
      "AcquisitionMatrix": [82, 0, 0, 82],
      "AngioFlag": "N",
      "BitsAllocated": 16,
      "BitsStored": 16,
      "BodyPartExamined": "BRAIN",
      "Columns": 656,
      "EchoNumbers": 1,
      "EchoTime": 27.2,
      "EchoTrainLength": 82,
      "FlipAngle": 44.0,
      "HighBit": 15,
      "ImageOrientationPatient": [0.99710458552462, -0.0299900782268, -0.0698787573853, 0.03725918780418, 0.99375706960458, 0.10516006625661],
      "ImagePositionPatient": [-912.48703277605, -850.28993920678, -89.485300502287],
      "ImageType": [
        "ORIGINAL",
        "PRIMARY",
        "M",
        "MB",
        "ND",
        "NORM",
        "MOSAIC"
],
      "ImagedNucleus": "1H",
      "ImagingFrequency": 123.25213,
      "InPlanePhaseEncodingDirection": "COL",
      "MRAcquisitionType": "2D",
      "MagneticFieldStrength": 3.0,
      "Manufacturer": "SIEMENS",
      "ManufacturerModelName": "Prisma",
      "Modality": "MR",
      "NumberOfAverages": 1.0,
      "NumberOfPhaseEncodingSteps": 82,
      "PercentPhaseFieldOfView": 100.0,
      "PercentSampling": 100.0,
      "PerformedProcedureStepStartTime": "085840.521000",
      "PhotometricInterpretation": "MONOCHROME2",
      "PixelBandwidth": 3050.0,
      "PixelRepresentation": 0,
      "PixelSpacing": [2.6829268932343, 2.6829268932343],
      "ProtocolName": "func_run-03_task-social_acq-ap-mb8",
      "RepetitionTime": 460.0,
      "Rows": 656,
      "SAR": 0.06999660694677,
      "SamplesPerPixel": 1,
      "ScanOptions": "FS",
      "ScanningSequence": "EP",
      "SequenceName": "epfid2d1_82",
      "SequenceVariant": [
        "SK",
        "SS"
],
      "SeriesDescription": "func_run-03_task-social_acq-ap-mb8",
      "SeriesNumber": 12,
      "SeriesTime": "100947.121000",
      "SliceLocation": -57.885302038916,
      "SliceThickness": 2.7000000476837,
      "SmallestImagePixelValue": 0,
      "SoftwareVersions": "syngo MR E11",
      "SpacingBetweenSlices": 2.6999999683494,
      "SpecificCharacterSet": "ISO_IR 100",
      "StudyID": "4",
      "StudyTime": "085840.413000",
      "TransmitCoilName": "Body",
      "VariableFlipAngleFlag": "N",
      "WindowCenterWidthExplanation": "Algo1",
      "dBdt": 0.0},
    "slices": {}
  },
  "time": {
    "samples": {
      "AcquisitionNumber": [1, 2, 3, 4, 5, 6, 7, 8, 9, 10, 11, 12, 13, 14, 15, 16, 17, 18, 19, 20, 21, 22, 23, 24, 25, 26, 27, 28, 29, 30, 31, 32, 33, 34, 35, 36, 37, 38, 39, 40, 41, 42, 43, 44, 45, 46, 47, 48, 49, 50, 51, 52, 53, 54, 55, 56, 57, 58, 59, 60, 61, 62, 63, 64, 65, 66, 67, 68, 69, 70, 71, 72, 73, 74, 75, 76, 77, 78, 79, 80, 81, 82, 83, 84, 85, 86, 87, 88, 89, 90, 91, 92, 93, 94, 95, 96, 97, 98, 99, 100, 101, 102, 103, 104, 105, 106, 107, 108, 109, 110, 111, 112, 113, 114, 115, 116, 117, 118, 119, 120, 121, 122, 123, 124, 125, 126, 127, 128, 129, 130, 131, 132, 133, 134, 135, 136, 137, 138, 139, 140, 141, 142, 143, 144, 145, 146, 147, 148, 149, 150, 151, 152, 153, 154, 155, 156, 157, 158, 159, 160, 161, 162, 163, 164, 165, 166, 167, 168, 169, 170, 171, 172, 173, 174, 175, 176, 177, 178, 179, 180, 181, 182, 183, 184, 185, 186, 187, 188, 189, 190, 191, 192, 193, 194, 195, 196, 197, 198, 199, 200, 201, 202, 203, 204, 205, 206, 207, 208, 209, 210, 211, 212, 213, 214, 215, 216, 217, 218, 219, 220, 221, 222, 223, 224, 225, 226, 227, 228, 229, 230, 231, 232, 233, 234, 235, 236, 237, 238, 239, 240, 241, 242, 243, 244, 245, 246, 247, 248, 249, 250, 251, 252, 253, 254, 255, 256, 257, 258, 259, 260, 261, 262, 263, 264, 265, 266, 267, 268, 269, 270, 271, 272, 273, 274, 275, 276, 277, 278, 279, 280, 281, 282, 283, 284, 285, 286, 287, 288, 289, 290, 291, 292, 293, 294, 295, 296, 297, 298, 299, 300, 301, 302, 303, 304, 305, 306, 307, 308, 309, 310, 311, 312, 313, 314, 315, 316, 317, 318, 319, 320, 321, 322, 323, 324, 325, 326, 327, 328, 329, 330, 331, 332, 333, 334, 335, 336, 337, 338, 339, 340, 341, 342, 343, 344, 345, 346, 347, 348, 349, 350, 351, 352, 353, 354, 355, 356, 357, 358, 359, 360, 361, 362, 363, 364, 365, 366, 367, 368, 369, 370, 371, 372, 373, 374, 375, 376, 377, 378, 379, 380, 381, 382, 383, 384, 385, 386, 387, 388, 389, 390, 391, 392, 393, 394, 395, 396, 397, 398, 399, 400, 401, 402, 403, 404, 405, 406, 407, 408, 409, 410, 411, 412, 413, 414, 415, 416, 417, 418, 419, 420, 421, 422, 423, 424, 425, 426, 427, 428, 429, 430, 431, 432, 433, 434, 435, 436, 437, 438, 439, 440, 441, 442, 443, 444, 445, 446, 447, 448, 449, 450, 451, 452, 453, 454, 455, 456, 457, 458, 459, 460, 461, 462, 463, 464, 465, 466, 467, 468, 469, 470, 471, 472, 473, 474, 475, 476, 477, 478, 479, 480, 481, 482, 483, 484, 485, 486, 487, 488, 489, 490, 491, 492, 493, 494, 495, 496, 497, 498, 499, 500, 501, 502, 503, 504, 505, 506, 507, 508, 509, 510, 511, 512, 513, 514, 515, 516, 517, 518, 519, 520, 521, 522, 523, 524, 525, 526, 527, 528, 529, 530, 531, 532, 533, 534, 535, 536, 537, 538, 539, 540, 541, 542, 543, 544, 545, 546, 547, 548, 549, 550, 551, 552, 553, 554, 555, 556, 557, 558, 559, 560, 561, 562, 563, 564, 565, 566, 567, 568, 569, 570, 571, 572, 573, 574, 575, 576, 577, 578, 579, 580, 581, 582, 583, 584, 585, 586, 587, 588, 589, 590, 591, 592, 593, 594, 595, 596, 597, 598, 599, 600, 601, 602, 603, 604, 605, 606, 607, 608, 609, 610, 611, 612, 613, 614, 615, 616, 617, 618, 619, 620, 621, 622, 623, 624, 625, 626, 627, 628, 629, 630, 631, 632, 633, 634, 635, 636, 637, 638, 639, 640, 641, 642, 643, 644, 645, 646, 647, 648, 649, 650, 651, 652, 653, 654, 655, 656, 657, 658, 659, 660, 661, 662, 663, 664, 665, 666, 667, 668, 669, 670, 671, 672, 673, 674, 675, 676, 677, 678, 679, 680, 681, 682, 683, 684, 685, 686, 687, 688, 689, 690, 691, 692, 693, 694, 695, 696, 697, 698, 699, 700, 701, 702, 703, 704, 705, 706, 707, 708, 709, 710, 711, 712, 713, 714, 715, 716, 717, 718, 719, 720, 721, 722, 723, 724, 725, 726, 727, 728, 729, 730, 731, 732, 733, 734, 735, 736, 737, 738, 739, 740, 741, 742, 743, 744, 745, 746, 747, 748, 749, 750, 751, 752, 753, 754, 755, 756, 757, 758, 759, 760, 761, 762, 763, 764, 765, 766, 767, 768, 769, 770, 771, 772, 773, 774, 775, 776, 777, 778, 779, 780, 781, 782, 783, 784, 785, 786, 787, 788, 789, 790, 791, 792, 793, 794, 795, 796, 797, 798, 799, 800, 801, 802, 803, 804, 805, 806, 807, 808, 809, 810, 811, 812, 813, 814, 815, 816, 817, 818, 819, 820, 821, 822, 823, 824, 825, 826, 827, 828, 829, 830, 831, 832, 833, 834, 835, 836, 837, 838, 839, 840, 841, 842, 843, 844, 845, 846, 847, 848, 849, 850, 851, 852, 853, 854, 855, 856, 857, 858, 859, 860, 861, 862, 863, 864, 865, 866, 867, 868, 869, 870, 871, 872],
      "AcquisitionTime": ["100926.540000", "100927.000000", "100927.460000", "100927.920000", "100928.380000", "100928.840000", "100929.300000", "100929.760000", "100930.220000", "100930.680000", "100931.140000", "100931.600000", "100932.060000", "100932.520000", "100932.980000", "100933.440000", "100933.900000", "100934.360000", "100934.820000", "100935.280000", "100935.740000", "100936.200000", "100936.660000", "100937.120000", "100937.580000", "100938.040000", "100938.500000", "100938.960000", "100939.420000", "100939.880000", "100940.340000", "100940.800000", "100941.260000", "100941.720000", "100942.180000", "100942.640000", "100943.100000", "100943.560000", "100944.020000", "100944.480000", "100944.940000", "100945.400000", "100945.860000", "100946.320000", "100946.780000", "100947.240000", "100947.700000", "100948.160000", "100948.620000", "100949.080000", "100949.540000", "100950.000000", "100950.460000", "100950.920000", "100951.380000", "100951.840000", "100952.300000", "100952.760000", "100953.220000", "100953.680000", "100954.140000", "100954.600000", "100955.060000", "100955.520000", "100955.980000", "100956.440000", "100956.900000", "100957.360000", "100957.820000", "100958.280000", "100958.740000", "100959.200000", "100959.660000", "101000.120000", "101000.580000", "101001.040000", "101001.500000", "101001.960000", "101002.420000", "101002.880000", "101003.340000", "101003.800000", "101004.260000", "101004.720000", "101005.180000", "101005.640000", "101006.100000", "101006.560000", "101007.020000", "101007.480000", "101007.940000", "101008.400000", "101008.860000", "101009.320000", "101009.780000", "101010.240000", "101010.700000", "101011.160000", "101011.620000", "101012.080000", "101012.540000", "101013.000000", "101013.460000", "101013.920000", "101014.380000", "101014.840000", "101015.300000", "101015.760000", "101016.220000", "101016.680000", "101017.140000", "101017.600000", "101018.060000", "101018.520000", "101018.980000", "101019.440000", "101019.900000", "101020.360000", "101020.820000", "101021.280000", "101021.740000", "101022.200000", "101022.660000", "101023.120000", "101023.580000", "101024.040000", "101024.500000", "101024.960000", "101025.420000", "101025.880000", "101026.340000", "101026.800000", "101027.260000", "101027.720000", "101028.180000", "101028.640000", "101029.100000", "101029.560000", "101030.020000", "101030.480000", "101030.940000", "101031.400000", "101031.860000", "101032.320000", "101032.780000", "101033.240000", "101033.700000", "101034.160000", "101034.620000", "101035.080000", "101035.540000", "101036.000000", "101036.460000", "101036.920000", "101037.380000", "101037.840000", "101038.300000", "101038.760000", "101039.220000", "101039.680000", "101040.140000", "101040.600000", "101041.060000", "101041.520000", "101041.980000", "101042.440000", "101042.900000", "101043.360000", "101043.820000", "101044.280000", "101044.740000", "101045.200000", "101045.660000", "101046.120000", "101046.580000", "101047.040000", "101047.500000", "101047.960000", "101048.420000", "101048.880000", "101049.340000", "101049.800000", "101050.260000", "101050.720000", "101051.180000", "101051.640000", "101052.100000", "101052.560000", "101053.020000", "101053.480000", "101053.940000", "101054.400000", "101054.860000", "101055.320000", "101055.780000", "101056.240000", "101056.700000", "101057.160000", "101057.620000", "101058.080000", "101058.540000", "101059.000000", "101059.460000", "101059.920000", "101100.380000", "101100.840000", "101101.300000", "101101.760000", "101102.220000", "101102.680000", "101103.140000", "101103.600000", "101104.060000", "101104.520000", "101104.980000", "101105.440000", "101105.900000", "101106.360000", "101106.820000", "101107.280000", "101107.740000", "101108.200000", "101108.660000", "101109.120000", "101109.580000", "101110.040000", "101110.500000", "101110.960000", "101111.420000", "101111.880000", "101112.340000", "101112.800000", "101113.260000", "101113.720000", "101114.180000", "101114.640000", "101115.100000", "101115.560000", "101116.020000", "101116.480000", "101116.940000", "101117.400000", "101117.860000", "101118.320000", "101118.780000", "101119.240000", "101119.700000", "101120.160000", "101120.620000", "101121.080000", "101121.540000", "101122.000000", "101122.460000", "101122.920000", "101123.380000", "101123.840000", "101124.300000", "101124.760000", "101125.220000", "101125.680000", "101126.140000", "101126.600000", "101127.060000", "101127.520000", "101127.980000", "101128.440000", "101128.900000", "101129.360000", "101129.820000", "101130.280000", "101130.740000", "101131.200000", "101131.660000", "101132.120000", "101132.580000", "101133.040000", "101133.500000", "101133.960000", "101134.420000", "101134.880000", "101135.340000", "101135.800000", "101136.260000", "101136.720000", "101137.180000", "101137.640000", "101138.100000", "101138.560000", "101139.020000", "101139.480000", "101139.940000", "101140.400000", "101140.860000", "101141.320000", "101141.780000", "101142.240000", "101142.700000", "101143.160000", "101143.620000", "101144.080000", "101144.540000", "101145.000000", "101145.460000", "101145.920000", "101146.380000", "101146.840000", "101147.300000", "101147.760000", "101148.220000", "101148.680000", "101149.140000", "101149.600000", "101150.060000", "101150.520000", "101150.980000", "101151.440000", "101151.900000", "101152.360000", "101152.820000", "101153.280000", "101153.740000", "101154.200000", "101154.660000", "101155.120000", "101155.580000", "101156.040000", "101156.500000", "101156.960000", "101157.420000", "101157.880000", "101158.340000", "101158.800000", "101159.260000", "101159.720000", "101200.180000", "101200.640000", "101201.100000", "101201.560000", "101202.020000", "101202.480000", "101202.940000", "101203.400000", "101203.860000", "101204.320000", "101204.780000", "101205.240000", "101205.700000", "101206.160000", "101206.620000", "101207.080000", "101207.540000", "101208.000000", "101208.460000", "101208.920000", "101209.380000", "101209.840000", "101210.300000", "101210.760000", "101211.220000", "101211.680000", "101212.140000", "101212.600000", "101213.060000", "101213.520000", "101213.980000", "101214.440000", "101214.900000", "101215.360000", "101215.820000", "101216.280000", "101216.740000", "101217.200000", "101217.660000", "101218.120000", "101218.580000", "101219.040000", "101219.500000", "101219.960000", "101220.420000", "101220.880000", "101221.340000", "101221.800000", "101222.260000", "101222.720000", "101223.180000", "101223.640000", "101224.100000", "101224.560000", "101225.020000", "101225.480000", "101225.940000", "101226.400000", "101226.860000", "101227.320000", "101227.780000", "101228.240000", "101228.700000", "101229.160000", "101229.620000", "101230.080000", "101230.540000", "101231.000000", "101231.460000", "101231.920000", "101232.380000", "101232.840000", "101233.300000", "101233.760000", "101234.220000", "101234.680000", "101235.140000", "101235.600000", "101236.060000", "101236.520000", "101236.980000", "101237.440000", "101237.900000", "101238.360000", "101238.820000", "101239.280000", "101239.740000", "101240.200000", "101240.660000", "101241.120000", "101241.580000", "101242.040000", "101242.500000", "101242.960000", "101243.420000", "101243.880000", "101244.340000", "101244.800000", "101245.260000", "101245.720000", "101246.180000", "101246.640000", "101247.100000", "101247.560000", "101248.020000", "101248.480000", "101248.940000", "101249.400000", "101249.860000", "101250.320000", "101250.780000", "101251.240000", "101251.700000", "101252.160000", "101252.620000", "101253.080000", "101253.540000", "101254.000000", "101254.460000", "101254.920000", "101255.380000", "101255.840000", "101256.300000", "101256.760000", "101257.220000", "101257.680000", "101258.140000", "101258.600000", "101259.060000", "101259.520000", "101259.980000", "101300.440000", "101300.900000", "101301.360000", "101301.820000", "101302.280000", "101302.740000", "101303.200000", "101303.660000", "101304.120000", "101304.580000", "101305.040000", "101305.500000", "101305.960000", "101306.420000", "101306.880000", "101307.340000", "101307.800000", "101308.260000", "101308.720000", "101309.180000", "101309.640000", "101310.100000", "101310.560000", "101311.020000", "101311.480000", "101311.940000", "101312.400000", "101312.860000", "101313.320000", "101313.780000", "101314.240000", "101314.700000", "101315.160000", "101315.620000", "101316.080000", "101316.540000", "101317.000000", "101317.460000", "101317.920000", "101318.380000", "101318.840000", "101319.300000", "101319.760000", "101320.220000", "101320.680000", "101321.140000", "101321.600000", "101322.060000", "101322.520000", "101322.980000", "101323.440000", "101323.900000", "101324.360000", "101324.820000", "101325.280000", "101325.740000", "101326.200000", "101326.660000", "101327.120000", "101327.580000", "101328.040000", "101328.500000", "101328.960000", "101329.420000", "101329.880000", "101330.340000", "101330.800000", "101331.260000", "101331.720000", "101332.180000", "101332.640000", "101333.100000", "101333.560000", "101334.020000", "101334.480000", "101334.940000", "101335.400000", "101335.860000", "101336.320000", "101336.780000", "101337.240000", "101337.700000", "101338.160000", "101338.620000", "101339.080000", "101339.540000", "101340.000000", "101340.460000", "101340.920000", "101341.380000", "101341.840000", "101342.300000", "101342.760000", "101343.220000", "101343.680000", "101344.140000", "101344.600000", "101345.060000", "101345.520000", "101345.980000", "101346.440000", "101346.900000", "101347.360000", "101347.820000", "101348.280000", "101348.740000", "101349.200000", "101349.660000", "101350.120000", "101350.580000", "101351.040000", "101351.500000", "101351.960000", "101352.420000", "101352.880000", "101353.340000", "101353.800000", "101354.260000", "101354.720000", "101355.180000", "101355.640000", "101356.100000", "101356.560000", "101357.020000", "101357.480000", "101357.940000", "101358.400000", "101358.860000", "101359.320000", "101359.780000", "101400.240000", "101400.700000", "101401.160000", "101401.620000", "101402.080000", "101402.540000", "101403.000000", "101403.460000", "101403.920000", "101404.380000", "101404.840000", "101405.300000", "101405.760000", "101406.220000", "101406.680000", "101407.140000", "101407.600000", "101408.060000", "101408.520000", "101408.980000", "101409.440000", "101409.900000", "101410.360000", "101410.820000", "101411.280000", "101411.740000", "101412.200000", "101412.660000", "101413.120000", "101413.580000", "101414.040000", "101414.500000", "101414.960000", "101415.420000", "101415.880000", "101416.340000", "101416.800000", "101417.260000", "101417.720000", "101418.180000", "101418.640000", "101419.100000", "101419.560000", "101420.020000", "101420.480000", "101420.940000", "101421.400000", "101421.860000", "101422.320000", "101422.780000", "101423.240000", "101423.700000", "101424.160000", "101424.620000", "101425.080000", "101425.540000", "101426.000000", "101426.460000", "101426.920000", "101427.380000", "101427.840000", "101428.300000", "101428.760000", "101429.220000", "101429.680000", "101430.140000", "101430.600000", "101431.060000", "101431.520000", "101431.980000", "101432.440000", "101432.900000", "101433.360000", "101433.820000", "101434.280000", "101434.740000", "101435.200000", "101435.660000", "101436.120000", "101436.580000", "101437.040000", "101437.500000", "101437.960000", "101438.420000", "101438.880000", "101439.340000", "101439.800000", "101440.260000", "101440.720000", "101441.180000", "101441.640000", "101442.100000", "101442.560000", "101443.020000", "101443.480000", "101443.940000", "101444.400000", "101444.860000", "101445.320000", "101445.780000", "101446.240000", "101446.700000", "101447.160000", "101447.620000", "101448.080000", "101448.540000", "101449.000000", "101449.460000", "101449.920000", "101450.380000", "101450.840000", "101451.300000", "101451.760000", "101452.220000", "101452.680000", "101453.140000", "101453.600000", "101454.060000", "101454.520000", "101454.980000", "101455.440000", "101455.900000", "101456.360000", "101456.820000", "101457.280000", "101457.740000", "101458.200000", "101458.660000", "101459.120000", "101459.580000", "101500.040000", "101500.500000", "101500.960000", "101501.420000", "101501.880000", "101502.340000", "101502.800000", "101503.260000", "101503.720000", "101504.180000", "101504.640000", "101505.100000", "101505.560000", "101506.020000", "101506.480000", "101506.940000", "101507.400000", "101507.860000", "101508.320000", "101508.780000", "101509.240000", "101509.700000", "101510.160000", "101510.620000", "101511.080000", "101511.540000", "101512.000000", "101512.460000", "101512.920000", "101513.380000", "101513.840000", "101514.300000", "101514.760000", "101515.220000", "101515.680000", "101516.140000", "101516.600000", "101517.060000", "101517.520000", "101517.980000", "101518.440000", "101518.900000", "101519.360000", "101519.820000", "101520.280000", "101520.740000", "101521.200000", "101521.660000", "101522.120000", "101522.580000", "101523.040000", "101523.500000", "101523.960000", "101524.420000", "101524.880000", "101525.340000", "101525.800000", "101526.260000", "101526.720000", "101527.180000", "101527.640000", "101528.100000", "101528.560000", "101529.020000", "101529.480000", "101529.940000", "101530.400000", "101530.860000", "101531.320000", "101531.780000", "101532.240000", "101532.700000", "101533.160000", "101533.620000", "101534.080000", "101534.540000", "101535.000000", "101535.460000", "101535.920000", "101536.380000", "101536.840000", "101537.300000", "101537.760000", "101538.220000", "101538.680000", "101539.140000", "101539.600000", "101540.060000", "101540.520000", "101540.980000", "101541.440000", "101541.900000", "101542.360000", "101542.820000", "101543.280000", "101543.740000", "101544.200000", "101544.660000", "101545.120000", "101545.580000", "101546.040000", "101546.500000", "101546.960000", "101547.420000", "101547.880000", "101548.340000", "101548.800000", "101549.260000", "101549.720000", "101550.180000", "101550.640000", "101551.100000", "101551.560000", "101552.020000", "101552.480000", "101552.940000", "101553.400000", "101553.860000", "101554.320000", "101554.780000", "101555.240000", "101555.700000", "101556.160000", "101556.620000", "101557.080000", "101557.540000", "101558.000000", "101558.460000", "101558.920000", "101559.380000", "101559.840000", "101600.300000", "101600.760000", "101601.220000", "101601.680000", "101602.140000", "101602.600000", "101603.060000", "101603.520000", "101603.980000", "101604.440000", "101604.900000", "101605.360000", "101605.820000", "101606.280000", "101606.740000", "101607.200000"],
