{
  "AcquisitionMatrixPE": 82,
  "AcquisitionNumber": 1,
  "AcquisitionTime": "09:55:10.740000",
  "BandwidthPerPixelPhaseEncode": 24.888,
  "BaseResolution": 82,
  "BodyPartExamined": "BRAIN",
  "ConsistencyInfo": "N4_VE11C_LATEST_20160120",
  "ConversionSoftware": "dcm2niix",
  "ConversionSoftwareVersion": "v1.0.20201102",
  "DerivedVendorReportedEchoSpacing": 0.00049,
  "DeviceSerialNumber": "66112",
  "DwellTime": 2e-06,
  "EchoTime": 0.0272,
  "EchoTrainLength": 82,
  "EffectiveEchoSpacing": 0.00049,
  "FlipAngle": 44,
  "ImageComments": "Unaliased MB8/PE3",
  "ImageOrientationPatientDICOM": [0.997105, -0.0299901, -0.0698788, 0.0372592, 0.993757, 0.10516],
  "ImageType": [
    "ORIGINAL",
    "PRIMARY",
    "M",
    "MB",
    "ND",
    "NORM",
    "MOSAIC"
],
  "ImagingFrequency": 123.252,
  "InPlanePhaseEncodingDirectionDICOM": "COL",
  "InstitutionAddress": "Maynard 3,Hanover,NH,US,03755",
  "InstitutionName": "Dartmouth College - PBS",
  "InstitutionalDepartmentName": "Department",
  "MRAcquisitionType": "2D",
  "MagneticFieldStrength": 3,
  "Manufacturer": "Siemens",
  "ManufacturersModelName": "Prisma",
  "Modality": "MR",
  "MultibandAccelerationFactor": 8,
  "PartialFourier": 1,
  "PatientPosition": "HFS",
  "PercentPhaseFOV": 100,
  "PercentSampling": 100,
  "PhaseEncodingDirection": "j-",
  "PhaseEncodingSteps": 82,
  "PhaseResolution": 1,
  "PixelBandwidth": 3050,
  "ProcedureStepDescription": "Wager_Wager^1076_spacetop",
  "ProtocolName": "func_run-01_task-social_acq-ap-mb8",
  "PulseSequenceDetails": "%CustomerSeq%\\cmrr_mbep2d_bold",
  "ReceiveCoilActiveElements": "HEA;HEP",
  "ReceiveCoilName": "Head_32",
  "ReconMatrixPE": 82,
  "RepetitionTime": 0.46,
  "SAR": 0.0699966,
  "ScanOptions": "FS",
  "ScanningSequence": "EP",
  "SequenceName": "epfid2d1_82",
  "SequenceVariant": "SK\\SS",
  "SeriesDescription": "func_run-01_task-social_acq-ap-mb8",
  "SeriesNumber": 8,
  "ShimSetting": [4118, -7783, -7263, 633, -97, -236, 34, 77],
  "SliceThickness": 2.7,
  "SliceTiming": [0, 0.25, 0.0625, 0.3125, 0.125, 0.375, 0.1875, 0, 0.25, 0.0625, 0.3125, 0.125, 0.375, 0.1875, 0, 0.25, 0.0625, 0.3125, 0.125, 0.375, 0.1875, 0, 0.25, 0.0625, 0.3125, 0.125, 0.375, 0.1875, 0, 0.25, 0.0625, 0.3125, 0.125, 0.375, 0.1875, 0, 0.25, 0.0625, 0.3125, 0.125, 0.375, 0.1875, 0, 0.25, 0.0625, 0.3125, 0.125, 0.375, 0.1875, 0, 0.25, 0.0625, 0.3125, 0.125, 0.375, 0.1875],
  "SoftwareVersions": "syngo MR E11",
  "SpacingBetweenSlices": 2.7,
  "StationName": "AWP66112",
  "TaskName": "social",
  "TotalReadoutTime": 0.03969,
  "TxRefAmp": 234.271,
  "WipMemBlock": "cfabc3d1-8e95-45e6-9ba5-56eae65152c2||Sequence: R016 ve11c/master r/e634e98; Dec 19 2017 11:00:25 by eja",
  "dcmmeta_affine": [
    [-2.675158739089966, 0.09996367990970612, -0.17897962033748627, 107.92984771728516],
    [0.08046118915081024, 2.66617751121521, 0.2901398539543152, -107.77104187011719],
    [-0.18747960031032562, -0.2821367681026459, 2.678392171859741, -39.465614318847656],
    [0.0, 0.0, 0.0, 1.0]
],
  "dcmmeta_reorient_transform": [
    [0.0, -1.0, 0.0, 81.0],
    [1.0, 0.0, 0.0, 0.0],
    [0.0, 0.0, 1.0, 0.0],
    [0.0, 0.0, 0.0, 1.0]
],
  "dcmmeta_shape": [82, 82, 56, 872],
  "dcmmeta_slice_dim": 2,
  "dcmmeta_version": 0.6,
  "global": {
    "const": {
      "AccessionNumber": "A003481",
      "AcquisitionMatrix": [82, 0, 0, 82],
      "AngioFlag": "N",
      "BitsAllocated": 16,
      "BitsStored": 16,
      "BodyPartExamined": "BRAIN",
      "Columns": 656,
      "EchoNumbers": 1,
      "EchoTime": 27.2,
      "EchoTrainLength": 82,
      "FlipAngle": 44.0,
      "HighBit": 15,
      "ImageOrientationPatient": [0.99710458552462, -0.0299900782268, -0.0698787573853, 0.03725918780418, 0.99375706960458, 0.10516006625661],
      "ImagePositionPatient": [-912.48703277605, -850.28993920678, -89.485300502287],
      "ImageType": [
        "ORIGINAL",
        "PRIMARY",
        "M",
        "MB",
        "ND",
        "NORM",
        "MOSAIC"
],
      "ImagedNucleus": "1H",
      "ImagingFrequency": 123.252115,
      "InPlanePhaseEncodingDirection": "COL",
      "MRAcquisitionType": "2D",
      "MagneticFieldStrength": 3.0,
      "Manufacturer": "SIEMENS",
      "ManufacturerModelName": "Prisma",
      "Modality": "MR",
      "NumberOfAverages": 1.0,
      "NumberOfPhaseEncodingSteps": 82,
      "PercentPhaseFieldOfView": 100.0,
      "PercentSampling": 100.0,
      "PerformedProcedureStepStartTime": "085840.521000",
      "PhotometricInterpretation": "MONOCHROME2",
      "PixelBandwidth": 3050.0,
      "PixelRepresentation": 0,
      "PixelSpacing": [2.6829268932343, 2.6829268932343],
      "ProtocolName": "func_run-01_task-social_acq-ap-mb8",
      "RepetitionTime": 460.0,
      "Rows": 656,
      "SAR": 0.06999660694677,
      "SamplesPerPixel": 1,
      "ScanOptions": "FS",
      "ScanningSequence": "EP",
      "SequenceName": "epfid2d1_82",
      "SequenceVariant": [
        "SK",
        "SS"
],
      "SeriesDescription": "func_run-01_task-social_acq-ap-mb8",
      "SeriesNumber": 8,
      "SeriesTime": "095527.321000",
      "SliceLocation": -57.885302038916,
      "SliceThickness": 2.7000000476837,
      "SmallestImagePixelValue": 0,
      "SoftwareVersions": "syngo MR E11",
      "SpacingBetweenSlices": 2.6999999683494,
      "SpecificCharacterSet": "ISO_IR 100",
      "StudyID": "4",
      "StudyTime": "085840.413000",
      "TransmitCoilName": "Body",
      "VariableFlipAngleFlag": "N",
      "WindowCenterWidthExplanation": "Algo1",
      "dBdt": 0.0},
    "slices": {}
  },
  "time": {
    "samples": {
      "AcquisitionNumber": [1, 2, 3, 4, 5, 6, 7, 8, 9, 10, 11, 12, 13, 14, 15, 16, 17, 18, 19, 20, 21, 22, 23, 24, 25, 26, 27, 28, 29, 30, 31, 32, 33, 34, 35, 36, 37, 38, 39, 40, 41, 42, 43, 44, 45, 46, 47, 48, 49, 50, 51, 52, 53, 54, 55, 56, 57, 58, 59, 60, 61, 62, 63, 64, 65, 66, 67, 68, 69, 70, 71, 72, 73, 74, 75, 76, 77, 78, 79, 80, 81, 82, 83, 84, 85, 86, 87, 88, 89, 90, 91, 92, 93, 94, 95, 96, 97, 98, 99, 100, 101, 102, 103, 104, 105, 106, 107, 108, 109, 110, 111, 112, 113, 114, 115, 116, 117, 118, 119, 120, 121, 122, 123, 124, 125, 126, 127, 128, 129, 130, 131, 132, 133, 134, 135, 136, 137, 138, 139, 140, 141, 142, 143, 144, 145, 146, 147, 148, 149, 150, 151, 152, 153, 154, 155, 156, 157, 158, 159, 160, 161, 162, 163, 164, 165, 166, 167, 168, 169, 170, 171, 172, 173, 174, 175, 176, 177, 178, 179, 180, 181, 182, 183, 184, 185, 186, 187, 188, 189, 190, 191, 192, 193, 194, 195, 196, 197, 198, 199, 200, 201, 202, 203, 204, 205, 206, 207, 208, 209, 210, 211, 212, 213, 214, 215, 216, 217, 218, 219, 220, 221, 222, 223, 224, 225, 226, 227, 228, 229, 230, 231, 232, 233, 234, 235, 236, 237, 238, 239, 240, 241, 242, 243, 244, 245, 246, 247, 248, 249, 250, 251, 252, 253, 254, 255, 256, 257, 258, 259, 260, 261, 262, 263, 264, 265, 266, 267, 268, 269, 270, 271, 272, 273, 274, 275, 276, 277, 278, 279, 280, 281, 282, 283, 284, 285, 286, 287, 288, 289, 290, 291, 292, 293, 294, 295, 296, 297, 298, 299, 300, 301, 302, 303, 304, 305, 306, 307, 308, 309, 310, 311, 312, 313, 314, 315, 316, 317, 318, 319, 320, 321, 322, 323, 324, 325, 326, 327, 328, 329, 330, 331, 332, 333, 334, 335, 336, 337, 338, 339, 340, 341, 342, 343, 344, 345, 346, 347, 348, 349, 350, 351, 352, 353, 354, 355, 356, 357, 358, 359, 360, 361, 362, 363, 364, 365, 366, 367, 368, 369, 370, 371, 372, 373, 374, 375, 376, 377, 378, 379, 380, 381, 382, 383, 384, 385, 386, 387, 388, 389, 390, 391, 392, 393, 394, 395, 396, 397, 398, 399, 400, 401, 402, 403, 404, 405, 406, 407, 408, 409, 410, 411, 412, 413, 414, 415, 416, 417, 418, 419, 420, 421, 422, 423, 424, 425, 426, 427, 428, 429, 430, 431, 432, 433, 434, 435, 436, 437, 438, 439, 440, 441, 442, 443, 444, 445, 446, 447, 448, 449, 450, 451, 452, 453, 454, 455, 456, 457, 458, 459, 460, 461, 462, 463, 464, 465, 466, 467, 468, 469, 470, 471, 472, 473, 474, 475, 476, 477, 478, 479, 480, 481, 482, 483, 484, 485, 486, 487, 488, 489, 490, 491, 492, 493, 494, 495, 496, 497, 498, 499, 500, 501, 502, 503, 504, 505, 506, 507, 508, 509, 510, 511, 512, 513, 514, 515, 516, 517, 518, 519, 520, 521, 522, 523, 524, 525, 526, 527, 528, 529, 530, 531, 532, 533, 534, 535, 536, 537, 538, 539, 540, 541, 542, 543, 544, 545, 546, 547, 548, 549, 550, 551, 552, 553, 554, 555, 556, 557, 558, 559, 560, 561, 562, 563, 564, 565, 566, 567, 568, 569, 570, 571, 572, 573, 574, 575, 576, 577, 578, 579, 580, 581, 582, 583, 584, 585, 586, 587, 588, 589, 590, 591, 592, 593, 594, 595, 596, 597, 598, 599, 600, 601, 602, 603, 604, 605, 606, 607, 608, 609, 610, 611, 612, 613, 614, 615, 616, 617, 618, 619, 620, 621, 622, 623, 624, 625, 626, 627, 628, 629, 630, 631, 632, 633, 634, 635, 636, 637, 638, 639, 640, 641, 642, 643, 644, 645, 646, 647, 648, 649, 650, 651, 652, 653, 654, 655, 656, 657, 658, 659, 660, 661, 662, 663, 664, 665, 666, 667, 668, 669, 670, 671, 672, 673, 674, 675, 676, 677, 678, 679, 680, 681, 682, 683, 684, 685, 686, 687, 688, 689, 690, 691, 692, 693, 694, 695, 696, 697, 698, 699, 700, 701, 702, 703, 704, 705, 706, 707, 708, 709, 710, 711, 712, 713, 714, 715, 716, 717, 718, 719, 720, 721, 722, 723, 724, 725, 726, 727, 728, 729, 730, 731, 732, 733, 734, 735, 736, 737, 738, 739, 740, 741, 742, 743, 744, 745, 746, 747, 748, 749, 750, 751, 752, 753, 754, 755, 756, 757, 758, 759, 760, 761, 762, 763, 764, 765, 766, 767, 768, 769, 770, 771, 772, 773, 774, 775, 776, 777, 778, 779, 780, 781, 782, 783, 784, 785, 786, 787, 788, 789, 790, 791, 792, 793, 794, 795, 796, 797, 798, 799, 800, 801, 802, 803, 804, 805, 806, 807, 808, 809, 810, 811, 812, 813, 814, 815, 816, 817, 818, 819, 820, 821, 822, 823, 824, 825, 826, 827, 828, 829, 830, 831, 832, 833, 834, 835, 836, 837, 838, 839, 840, 841, 842, 843, 844, 845, 846, 847, 848, 849, 850, 851, 852, 853, 854, 855, 856, 857, 858, 859, 860, 861, 862, 863, 864, 865, 866, 867, 868, 869, 870, 871, 872],
      "AcquisitionTime": ["095510.740000", "095511.200000", "095511.660000", "095512.120000", "095512.580000", "095513.040000", "095513.500000", "095513.960000", "095514.420000", "095514.880000", "095515.340000", "095515.800000", "095516.260000", "095516.720000", "095517.180000", "095517.640000", "095518.100000", "095518.560000", "095519.020000", "095519.480000", "095519.940000", "095520.400000", "095520.860000", "095521.320000", "095521.780000", "095522.240000", "095522.700000", "095523.160000", "095523.620000", "095524.080000", "095524.540000", "095525.000000", "095525.460000", "095525.920000", "095526.380000", "095526.840000", "095527.300000", "095527.760000", "095528.220000", "095528.680000", "095529.140000", "095529.600000", "095530.060000", "095530.520000", "095530.980000", "095531.440000", "095531.900000", "095532.360000", "095532.820000", "095533.280000", "095533.740000", "095534.200000", "095534.660000", "095535.120000", "095535.580000", "095536.040000", "095536.500000", "095536.960000", "095537.420000", "095537.880000", "095538.340000", "095538.800000", "095539.260000", "095539.720000", "095540.180000", "095540.640000", "095541.100000", "095541.560000", "095542.020000", "095542.480000", "095542.940000", "095543.400000", "095543.860000", "095544.320000", "095544.780000", "095545.240000", "095545.700000", "095546.160000", "095546.620000", "095547.080000", "095547.540000", "095548.000000", "095548.460000", "095548.920000", "095549.380000", "095549.840000", "095550.300000", "095550.760000", "095551.220000", "095551.680000", "095552.140000", "095552.600000", "095553.060000", "095553.520000", "095553.980000", "095554.440000", "095554.900000", "095555.360000", "095555.820000", "095556.280000", "095556.740000", "095557.200000", "095557.660000", "095558.120000", "095558.580000", "095559.040000", "095559.500000", "095559.960000", "095600.420000", "095600.880000", "095601.340000", "095601.800000", "095602.260000", "095602.720000", "095603.180000", "095603.640000", "095604.100000", "095604.560000", "095605.020000", "095605.480000", "095605.940000", "095606.400000", "095606.860000", "095607.320000", "095607.780000", "095608.240000", "095608.700000", "095609.160000", "095609.620000", "095610.080000", "095610.540000", "095611.000000", "095611.460000", "095611.920000", "095612.380000", "095612.840000", "095613.300000", "095613.760000", "095614.220000", "095614.680000", "095615.140000", "095615.600000", "095616.060000", "095616.520000", "095616.980000", "095617.440000", "095617.900000", "095618.360000", "095618.820000", "095619.280000", "095619.740000", "095620.200000", "095620.660000", "095621.120000", "095621.580000", "095622.040000", "095622.500000", "095622.960000", "095623.420000", "095623.880000", "095624.340000", "095624.800000", "095625.260000", "095625.720000", "095626.180000", "095626.640000", "095627.100000", "095627.560000", "095628.020000", "095628.480000", "095628.940000", "095629.400000", "095629.860000", "095630.320000", "095630.780000", "095631.240000", "095631.700000", "095632.160000", "095632.620000", "095633.080000", "095633.540000", "095634.000000", "095634.460000", "095634.920000", "095635.380000", "095635.840000", "095636.300000", "095636.760000", "095637.220000", "095637.680000", "095638.140000", "095638.600000", "095639.060000", "095639.520000", "095639.980000", "095640.440000", "095640.900000", "095641.360000", "095641.820000", "095642.280000", "095642.740000", "095643.200000", "095643.660000", "095644.120000", "095644.580000", "095645.040000", "095645.500000", "095645.960000", "095646.420000", "095646.880000", "095647.340000", "095647.800000", "095648.260000", "095648.720000", "095649.180000", "095649.640000", "095650.100000", "095650.560000", "095651.020000", "095651.480000", "095651.940000", "095652.400000", "095652.860000", "095653.320000", "095653.780000", "095654.240000", "095654.700000", "095655.160000", "095655.620000", "095656.080000", "095656.540000", "095657.000000", "095657.460000", "095657.920000", "095658.380000", "095658.840000", "095659.300000", "095659.760000", "095700.220000", "095700.680000", "095701.140000", "095701.600000", "095702.060000", "095702.520000", "095702.980000", "095703.440000", "095703.900000", "095704.360000", "095704.820000", "095705.280000", "095705.740000", "095706.200000", "095706.660000", "095707.120000", "095707.580000", "095708.040000", "095708.500000", "095708.960000", "095709.420000", "095709.880000", "095710.340000", "095710.800000", "095711.260000", "095711.720000", "095712.180000", "095712.640000", "095713.100000", "095713.560000", "095714.020000", "095714.480000", "095714.940000", "095715.400000", "095715.860000", "095716.320000", "095716.780000", "095717.240000", "095717.700000", "095718.160000", "095718.620000", "095719.080000", "095719.540000", "095720.000000", "095720.460000", "095720.920000", "095721.380000", "095721.840000", "095722.300000", "095722.760000", "095723.220000", "095723.680000", "095724.140000", "095724.600000", "095725.060000", "095725.520000", "095725.980000", "095726.440000", "095726.900000", "095727.360000", "095727.820000", "095728.280000", "095728.740000", "095729.200000", "095729.660000", "095730.120000", "095730.580000", "095731.040000", "095731.500000", "095731.960000", "095732.420000", "095732.880000", "095733.340000", "095733.800000", "095734.260000", "095734.720000", "095735.180000", "095735.640000", "095736.100000", "095736.560000", "095737.020000", "095737.480000", "095737.940000", "095738.400000", "095738.860000", "095739.320000", "095739.780000", "095740.240000", "095740.700000", "095741.160000", "095741.620000", "095742.080000", "095742.540000", "095743.000000", "095743.460000", "095743.920000", "095744.380000", "095744.840000", "095745.300000", "095745.760000", "095746.220000", "095746.680000", "095747.140000", "095747.600000", "095748.060000", "095748.520000", "095748.980000", "095749.440000", "095749.900000", "095750.360000", "095750.820000", "095751.280000", "095751.740000", "095752.200000", "095752.660000", "095753.120000", "095753.580000", "095754.040000", "095754.500000", "095754.960000", "095755.420000", "095755.880000", "095756.340000", "095756.800000", "095757.260000", "095757.720000", "095758.180000", "095758.640000", "095759.100000", "095759.560000", "095800.020000", "095800.480000", "095800.940000", "095801.400000", "095801.860000", "095802.320000", "095802.780000", "095803.240000", "095803.700000", "095804.160000", "095804.620000", "095805.080000", "095805.540000", "095806.000000", "095806.460000", "095806.920000", "095807.380000", "095807.840000", "095808.300000", "095808.760000", "095809.220000", "095809.680000", "095810.140000", "095810.600000", "095811.060000", "095811.520000", "095811.980000", "095812.440000", "095812.900000", "095813.360000", "095813.820000", "095814.280000", "095814.740000", "095815.200000", "095815.660000", "095816.120000", "095816.580000", "095817.040000", "095817.500000", "095817.960000", "095818.420000", "095818.880000", "095819.340000", "095819.800000", "095820.260000", "095820.720000", "095821.180000", "095821.640000", "095822.100000", "095822.560000", "095823.020000", "095823.480000", "095823.940000", "095824.400000", "095824.860000", "095825.320000", "095825.780000", "095826.240000", "095826.700000", "095827.160000", "095827.620000", "095828.080000", "095828.540000", "095829.000000", "095829.460000", "095829.920000", "095830.380000", "095830.840000", "095831.300000", "095831.760000", "095832.220000", "095832.680000", "095833.140000", "095833.600000", "095834.060000", "095834.520000", "095834.980000", "095835.440000", "095835.900000", "095836.360000", "095836.820000", "095837.280000", "095837.740000", "095838.200000", "095838.660000", "095839.120000", "095839.580000", "095840.040000", "095840.500000", "095840.960000", "095841.420000", "095841.880000", "095842.340000", "095842.800000", "095843.260000", "095843.720000", "095844.180000", "095844.640000", "095845.100000", "095845.560000", "095846.020000", "095846.480000", "095846.940000", "095847.400000", "095847.860000", "095848.320000", "095848.780000", "095849.240000", "095849.700000", "095850.160000", "095850.620000", "095851.080000", "095851.540000", "095852.000000", "095852.460000", "095852.920000", "095853.380000", "095853.840000", "095854.300000", "095854.760000", "095855.220000", "095855.680000", "095856.140000", "095856.600000", "095857.060000", "095857.520000", "095857.980000", "095858.440000", "095858.900000", "095859.360000", "095859.820000", "095900.280000", "095900.740000", "095901.200000", "095901.660000", "095902.120000", "095902.580000", "095903.040000", "095903.500000", "095903.960000", "095904.420000", "095904.880000", "095905.340000", "095905.800000", "095906.260000", "095906.720000", "095907.180000", "095907.640000", "095908.100000", "095908.560000", "095909.020000", "095909.480000", "095909.940000", "095910.400000", "095910.860000", "095911.320000", "095911.780000", "095912.240000", "095912.700000", "095913.160000", "095913.620000", "095914.080000", "095914.540000", "095915.000000", "095915.460000", "095915.920000", "095916.380000", "095916.840000", "095917.300000", "095917.760000", "095918.220000", "095918.680000", "095919.140000", "095919.600000", "095920.060000", "095920.520000", "095920.980000", "095921.440000", "095921.900000", "095922.360000", "095922.820000", "095923.280000", "095923.740000", "095924.200000", "095924.660000", "095925.120000", "095925.580000", "095926.040000", "095926.500000", "095926.960000", "095927.420000", "095927.880000", "095928.340000", "095928.800000", "095929.260000", "095929.720000", "095930.180000", "095930.640000", "095931.100000", "095931.560000", "095932.020000", "095932.480000", "095932.940000", "095933.400000", "095933.860000", "095934.320000", "095934.780000", "095935.240000", "095935.700000", "095936.160000", "095936.620000", "095937.080000", "095937.540000", "095938.000000", "095938.460000", "095938.920000", "095939.380000", "095939.840000", "095940.300000", "095940.760000", "095941.220000", "095941.680000", "095942.140000", "095942.600000", "095943.060000", "095943.520000", "095943.980000", "095944.440000", "095944.900000", "095945.360000", "095945.820000", "095946.280000", "095946.740000", "095947.200000", "095947.660000", "095948.120000", "095948.580000", "095949.040000", "095949.500000", "095949.960000", "095950.420000", "095950.880000", "095951.340000", "095951.800000", "095952.260000", "095952.720000", "095953.180000", "095953.640000", "095954.100000", "095954.560000", "095955.020000", "095955.480000", "095955.940000", "095956.400000", "095956.860000", "095957.320000", "095957.780000", "095958.240000", "095958.700000", "095959.160000", "095959.620000", "100000.080000", "100000.540000", "100001.000000", "100001.460000", "100001.920000", "100002.380000", "100002.840000", "100003.300000", "100003.760000", "100004.220000", "100004.680000", "100005.140000", "100005.600000", "100006.060000", "100006.520000", "100006.980000", "100007.440000", "100007.900000", "100008.360000", "100008.820000", "100009.280000", "100009.740000", "100010.200000", "100010.660000", "100011.120000", "100011.580000", "100012.040000", "100012.500000", "100012.960000", "100013.420000", "100013.880000", "100014.340000", "100014.800000", "100015.260000", "100015.720000", "100016.180000", "100016.640000", "100017.100000", "100017.560000", "100018.020000", "100018.480000", "100018.940000", "100019.400000", "100019.860000", "100020.320000", "100020.780000", "100021.240000", "100021.700000", "100022.160000", "100022.620000", "100023.080000", "100023.540000", "100024.000000", "100024.460000", "100024.920000", "100025.380000", "100025.840000", "100026.300000", "100026.760000", "100027.220000", "100027.680000", "100028.140000", "100028.600000", "100029.060000", "100029.520000", "100029.980000", "100030.440000", "100030.900000", "100031.360000", "100031.820000", "100032.280000", "100032.740000", "100033.200000", "100033.660000", "100034.120000", "100034.580000", "100035.040000", "100035.500000", "100035.960000", "100036.420000", "100036.880000", "100037.340000", "100037.800000", "100038.260000", "100038.720000", "100039.180000", "100039.640000", "100040.100000", "100040.560000", "100041.020000", "100041.480000", "100041.940000", "100042.400000", "100042.860000", "100043.320000", "100043.780000", "100044.240000", "100044.700000", "100045.160000", "100045.620000", "100046.080000", "100046.540000", "100047.000000", "100047.460000", "100047.920000", "100048.380000", "100048.840000", "100049.300000", "100049.760000", "100050.220000", "100050.680000", "100051.140000", "100051.600000", "100052.060000", "100052.520000", "100052.980000", "100053.440000", "100053.900000", "100054.360000", "100054.820000", "100055.280000", "100055.740000", "100056.200000", "100056.660000", "100057.120000", "100057.580000", "100058.040000", "100058.500000", "100058.960000", "100059.420000", "100059.880000", "100100.340000", "100100.800000", "100101.260000", "100101.720000", "100102.180000", "100102.640000", "100103.100000", "100103.560000", "100104.020000", "100104.480000", "100104.940000", "100105.400000", "100105.860000", "100106.320000", "100106.780000", "100107.240000", "100107.700000", "100108.160000", "100108.620000", "100109.080000", "100109.540000", "100110.000000", "100110.460000", "100110.920000", "100111.380000", "100111.840000", "100112.300000", "100112.760000", "100113.220000", "100113.680000", "100114.140000", "100114.600000", "100115.060000", "100115.520000", "100115.980000", "100116.440000", "100116.900000", "100117.360000", "100117.820000", "100118.280000", "100118.740000", "100119.200000", "100119.660000", "100120.120000", "100120.580000", "100121.040000", "100121.500000", "100121.960000", "100122.420000", "100122.880000", "100123.340000", "100123.800000", "100124.260000", "100124.720000", "100125.180000", "100125.640000", "100126.100000", "100126.560000", "100127.020000", "100127.480000", "100127.940000", "100128.400000", "100128.860000", "100129.320000", "100129.780000", "100130.240000", "100130.700000", "100131.160000", "100131.620000", "100132.080000", "100132.540000", "100133.000000", "100133.460000", "100133.920000", "100134.380000", "100134.840000", "100135.300000", "100135.760000", "100136.220000", "100136.680000", "100137.140000", "100137.600000", "100138.060000", "100138.520000", "100138.980000", "100139.440000", "100139.900000", "100140.360000", "100140.820000", "100141.280000", "100141.740000", "100142.200000", "100142.660000", "100143.120000", "100143.580000", "100144.040000", "100144.500000", "100144.960000", "100145.420000", "100145.880000", "100146.340000", "100146.800000", "100147.260000", "100147.720000", "100148.180000", "100148.640000", "100149.100000", "100149.560000", "100150.020000", "100150.480000", "100150.940000", "100151.400000"],
