{
  "AcquisitionMatrixPE": 82,
  "AcquisitionNumber": 1,
  "AcquisitionTime": "10:26:19.282500",
  "BandwidthPerPixelPhaseEncode": 24.888,
  "BaseResolution": 82,
  "BodyPartExamined": "BRAIN",
  "ConsistencyInfo": "N4_VE11C_LATEST_20160120",
  "ConversionSoftware": "dcm2niix",
  "ConversionSoftwareVersion": "v1.0.20201102",
  "DerivedVendorReportedEchoSpacing": 0.00049,
  "DeviceSerialNumber": "66112",
  "DwellTime": 2e-06,
  "EchoTime": 0.0272,
  "EchoTrainLength": 82,
  "EffectiveEchoSpacing": 0.00049,
  "FlipAngle": 44,
  "ImageComments": "Unaliased MB8/PE3",
  "ImageOrientationPatientDICOM": [0.997105, -0.0299901, -0.0698788, 0.0372592, 0.993757, 0.10516],
  "ImageType": [
    "ORIGINAL",
    "PRIMARY",
    "M",
    "MB",
    "ND",
    "NORM",
    "MOSAIC"
],
  "ImagingFrequency": 123.252,
  "InPlanePhaseEncodingDirectionDICOM": "COL",
  "InstitutionAddress": "Maynard 3,Hanover,NH,US,03755",
  "InstitutionName": "Dartmouth College - PBS",
  "InstitutionalDepartmentName": "Department",
  "MRAcquisitionType": "2D",
  "MagneticFieldStrength": 3,
  "Manufacturer": "Siemens",
  "ManufacturersModelName": "Prisma",
  "Modality": "MR",
  "MultibandAccelerationFactor": 8,
  "PartialFourier": 1,
  "PatientPosition": "HFS",
  "PercentPhaseFOV": 100,
  "PercentSampling": 100,
  "PhaseEncodingDirection": "j-",
  "PhaseEncodingSteps": 82,
  "PhaseResolution": 1,
  "PixelBandwidth": 3050,
  "ProcedureStepDescription": "Wager_Wager^1076_spacetop",
  "ProtocolName": "func_run-05_task-social_acq-ap-mb8",
  "PulseSequenceDetails": "%CustomerSeq%\\cmrr_mbep2d_bold",
  "ReceiveCoilActiveElements": "HEA;HEP",
  "ReceiveCoilName": "Head_32",
  "ReconMatrixPE": 82,
  "RepetitionTime": 0.46,
  "SAR": 0.0699966,
  "ScanOptions": "FS",
  "ScanningSequence": "EP",
  "SequenceName": "epfid2d1_82",
  "SequenceVariant": "SK\\SS",
  "SeriesDescription": "func_run-05_task-social_acq-ap-mb8",
  "SeriesNumber": 16,
  "ShimSetting": [4118, -7783, -7263, 633, -97, -236, 34, 77],
  "SliceThickness": 2.7,
  "SliceTiming": [0, 0.2525, 0.065, 0.315, 0.1275, 0.3775, 0.19, 0, 0.2525, 0.065, 0.315, 0.1275, 0.3775, 0.19, 0, 0.2525, 0.065, 0.315, 0.1275, 0.3775, 0.19, 0, 0.2525, 0.065, 0.315, 0.1275, 0.3775, 0.19, 0, 0.2525, 0.065, 0.315, 0.1275, 0.3775, 0.19, 0, 0.2525, 0.065, 0.315, 0.1275, 0.3775, 0.19, 0, 0.2525, 0.065, 0.315, 0.1275, 0.3775, 0.19, 0, 0.2525, 0.065, 0.315, 0.1275, 0.3775, 0.19],
  "SoftwareVersions": "syngo MR E11",
  "SpacingBetweenSlices": 2.7,
  "StationName": "AWP66112",
  "TaskName": "social",
  "TotalReadoutTime": 0.03969,
  "TxRefAmp": 234.271,
  "WipMemBlock": "e7aec233-2906-498e-b4a7-1169564b56aa||Sequence: R016 ve11c/master r/e634e98; Dec 19 2017 11:00:25 by eja",
  "dcmmeta_affine": [
    [-2.675158739089966, 0.09996367990970612, -0.17897962033748627, 107.92984771728516],
    [0.08046118915081024, 2.66617751121521, 0.2901398539543152, -107.77104187011719],
    [-0.18747960031032562, -0.2821367681026459, 2.678392171859741, -39.465614318847656],
    [0.0, 0.0, 0.0, 1.0]
],
  "dcmmeta_reorient_transform": [
    [0.0, -1.0, 0.0, 81.0],
    [1.0, 0.0, 0.0, 0.0],
    [0.0, 0.0, 1.0, 0.0],
    [0.0, 0.0, 0.0, 1.0]
],
  "dcmmeta_shape": [82, 82, 56, 872],
  "dcmmeta_slice_dim": 2,
  "dcmmeta_version": 0.6,
  "global": {
    "const": {
      "AccessionNumber": "A003481",
      "AcquisitionMatrix": [82, 0, 0, 82],
      "AngioFlag": "N",
      "BitsAllocated": 16,
      "BitsStored": 16,
      "BodyPartExamined": "BRAIN",
      "Columns": 656,
      "EchoNumbers": 1,
      "EchoTime": 27.2,
      "EchoTrainLength": 82,
      "FlipAngle": 44.0,
      "HighBit": 15,
      "ImageOrientationPatient": [0.99710458552462, -0.0299900782268, -0.0698787573853, 0.03725918780418, 0.99375706960458, 0.10516006625661],
      "ImagePositionPatient": [-912.48703277605, -850.28993920678, -89.485300502287],
      "ImageType": [
        "ORIGINAL",
        "PRIMARY",
        "M",
        "MB",
        "ND",
        "NORM",
        "MOSAIC"
],
      "ImagedNucleus": "1H",
      "ImagingFrequency": 123.252126,
      "InPlanePhaseEncodingDirection": "COL",
      "MRAcquisitionType": "2D",
      "MagneticFieldStrength": 3.0,
      "Manufacturer": "SIEMENS",
      "ManufacturerModelName": "Prisma",
      "Modality": "MR",
      "NumberOfAverages": 1.0,
      "NumberOfPhaseEncodingSteps": 82,
      "PercentPhaseFieldOfView": 100.0,
      "PercentSampling": 100.0,
      "PerformedProcedureStepStartTime": "085840.521000",
      "PhotometricInterpretation": "MONOCHROME2",
      "PixelBandwidth": 3050.0,
      "PixelRepresentation": 0,
      "PixelSpacing": [2.6829268932343, 2.6829268932343],
      "ProtocolName": "func_run-05_task-social_acq-ap-mb8",
      "RepetitionTime": 460.0,
      "Rows": 656,
      "SAR": 0.06999660694677,
      "SamplesPerPixel": 1,
      "ScanOptions": "FS",
      "ScanningSequence": "EP",
      "SequenceName": "epfid2d1_82",
      "SequenceVariant": [
        "SK",
        "SS"
],
      "SeriesDescription": "func_run-05_task-social_acq-ap-mb8",
      "SeriesNumber": 16,
      "SeriesTime": "102647.365000",
      "SliceLocation": -57.885302038916,
      "SliceThickness": 2.7000000476837,
      "SmallestImagePixelValue": 0,
      "SoftwareVersions": "syngo MR E11",
      "SpacingBetweenSlices": 2.6999999683494,
      "SpecificCharacterSet": "ISO_IR 100",
      "StudyID": "4",
      "StudyTime": "085840.413000",
      "TransmitCoilName": "Body",
      "VariableFlipAngleFlag": "N",
      "WindowCenterWidthExplanation": "Algo1",
      "dBdt": 0.0},
    "slices": {}
  },
  "time": {
    "samples": {
      "AcquisitionNumber": [1, 2, 3, 4, 5, 6, 7, 8, 9, 10, 11, 12, 13, 14, 15, 16, 17, 18, 19, 20, 21, 22, 23, 24, 25, 26, 27, 28, 29, 30, 31, 32, 33, 34, 35, 36, 37, 38, 39, 40, 41, 42, 43, 44, 45, 46, 47, 48, 49, 50, 51, 52, 53, 54, 55, 56, 57, 58, 59, 60, 61, 62, 63, 64, 65, 66, 67, 68, 69, 70, 71, 72, 73, 74, 75, 76, 77, 78, 79, 80, 81, 82, 83, 84, 85, 86, 87, 88, 89, 90, 91, 92, 93, 94, 95, 96, 97, 98, 99, 100, 101, 102, 103, 104, 105, 106, 107, 108, 109, 110, 111, 112, 113, 114, 115, 116, 117, 118, 119, 120, 121, 122, 123, 124, 125, 126, 127, 128, 129, 130, 131, 132, 133, 134, 135, 136, 137, 138, 139, 140, 141, 142, 143, 144, 145, 146, 147, 148, 149, 150, 151, 152, 153, 154, 155, 156, 157, 158, 159, 160, 161, 162, 163, 164, 165, 166, 167, 168, 169, 170, 171, 172, 173, 174, 175, 176, 177, 178, 179, 180, 181, 182, 183, 184, 185, 186, 187, 188, 189, 190, 191, 192, 193, 194, 195, 196, 197, 198, 199, 200, 201, 202, 203, 204, 205, 206, 207, 208, 209, 210, 211, 212, 213, 214, 215, 216, 217, 218, 219, 220, 221, 222, 223, 224, 225, 226, 227, 228, 229, 230, 231, 232, 233, 234, 235, 236, 237, 238, 239, 240, 241, 242, 243, 244, 245, 246, 247, 248, 249, 250, 251, 252, 253, 254, 255, 256, 257, 258, 259, 260, 261, 262, 263, 264, 265, 266, 267, 268, 269, 270, 271, 272, 273, 274, 275, 276, 277, 278, 279, 280, 281, 282, 283, 284, 285, 286, 287, 288, 289, 290, 291, 292, 293, 294, 295, 296, 297, 298, 299, 300, 301, 302, 303, 304, 305, 306, 307, 308, 309, 310, 311, 312, 313, 314, 315, 316, 317, 318, 319, 320, 321, 322, 323, 324, 325, 326, 327, 328, 329, 330, 331, 332, 333, 334, 335, 336, 337, 338, 339, 340, 341, 342, 343, 344, 345, 346, 347, 348, 349, 350, 351, 352, 353, 354, 355, 356, 357, 358, 359, 360, 361, 362, 363, 364, 365, 366, 367, 368, 369, 370, 371, 372, 373, 374, 375, 376, 377, 378, 379, 380, 381, 382, 383, 384, 385, 386, 387, 388, 389, 390, 391, 392, 393, 394, 395, 396, 397, 398, 399, 400, 401, 402, 403, 404, 405, 406, 407, 408, 409, 410, 411, 412, 413, 414, 415, 416, 417, 418, 419, 420, 421, 422, 423, 424, 425, 426, 427, 428, 429, 430, 431, 432, 433, 434, 435, 436, 437, 438, 439, 440, 441, 442, 443, 444, 445, 446, 447, 448, 449, 450, 451, 452, 453, 454, 455, 456, 457, 458, 459, 460, 461, 462, 463, 464, 465, 466, 467, 468, 469, 470, 471, 472, 473, 474, 475, 476, 477, 478, 479, 480, 481, 482, 483, 484, 485, 486, 487, 488, 489, 490, 491, 492, 493, 494, 495, 496, 497, 498, 499, 500, 501, 502, 503, 504, 505, 506, 507, 508, 509, 510, 511, 512, 513, 514, 515, 516, 517, 518, 519, 520, 521, 522, 523, 524, 525, 526, 527, 528, 529, 530, 531, 532, 533, 534, 535, 536, 537, 538, 539, 540, 541, 542, 543, 544, 545, 546, 547, 548, 549, 550, 551, 552, 553, 554, 555, 556, 557, 558, 559, 560, 561, 562, 563, 564, 565, 566, 567, 568, 569, 570, 571, 572, 573, 574, 575, 576, 577, 578, 579, 580, 581, 582, 583, 584, 585, 586, 587, 588, 589, 590, 591, 592, 593, 594, 595, 596, 597, 598, 599, 600, 601, 602, 603, 604, 605, 606, 607, 608, 609, 610, 611, 612, 613, 614, 615, 616, 617, 618, 619, 620, 621, 622, 623, 624, 625, 626, 627, 628, 629, 630, 631, 632, 633, 634, 635, 636, 637, 638, 639, 640, 641, 642, 643, 644, 645, 646, 647, 648, 649, 650, 651, 652, 653, 654, 655, 656, 657, 658, 659, 660, 661, 662, 663, 664, 665, 666, 667, 668, 669, 670, 671, 672, 673, 674, 675, 676, 677, 678, 679, 680, 681, 682, 683, 684, 685, 686, 687, 688, 689, 690, 691, 692, 693, 694, 695, 696, 697, 698, 699, 700, 701, 702, 703, 704, 705, 706, 707, 708, 709, 710, 711, 712, 713, 714, 715, 716, 717, 718, 719, 720, 721, 722, 723, 724, 725, 726, 727, 728, 729, 730, 731, 732, 733, 734, 735, 736, 737, 738, 739, 740, 741, 742, 743, 744, 745, 746, 747, 748, 749, 750, 751, 752, 753, 754, 755, 756, 757, 758, 759, 760, 761, 762, 763, 764, 765, 766, 767, 768, 769, 770, 771, 772, 773, 774, 775, 776, 777, 778, 779, 780, 781, 782, 783, 784, 785, 786, 787, 788, 789, 790, 791, 792, 793, 794, 795, 796, 797, 798, 799, 800, 801, 802, 803, 804, 805, 806, 807, 808, 809, 810, 811, 812, 813, 814, 815, 816, 817, 818, 819, 820, 821, 822, 823, 824, 825, 826, 827, 828, 829, 830, 831, 832, 833, 834, 835, 836, 837, 838, 839, 840, 841, 842, 843, 844, 845, 846, 847, 848, 849, 850, 851, 852, 853, 854, 855, 856, 857, 858, 859, 860, 861, 862, 863, 864, 865, 866, 867, 868, 869, 870, 871, 872],
      "AcquisitionTime": ["102619.282500", "102619.742500", "102620.202500", "102620.662500", "102621.122500", "102621.582500", "102622.042500", "102622.502500", "102622.962500", "102623.422500", "102623.882500", "102624.342500", "102624.802500", "102625.262500", "102625.722500", "102626.182500", "102626.642500", "102627.102500", "102627.562500", "102628.022500", "102628.482500", "102628.942500", "102629.402500", "102629.862500", "102630.322500", "102630.782500", "102631.242500", "102631.702500", "102632.162500", "102632.622500", "102633.082500", "102633.542500", "102634.002500", "102634.462500", "102634.922500", "102635.382500", "102635.842500", "102636.302500", "102636.762500", "102637.222500", "102637.682500", "102638.142500", "102638.602500", "102639.062500", "102639.522500", "102639.982500", "102640.442500", "102640.902500", "102641.362500", "102641.822500", "102642.282500", "102642.742500", "102643.202500", "102643.662500", "102644.122500", "102644.582500", "102645.042500", "102645.502500", "102645.962500", "102646.422500", "102646.882500", "102647.342500", "102647.802500", "102648.262500", "102648.722500", "102649.182500", "102649.642500", "102650.102500", "102650.562500", "102651.022500", "102651.482500", "102651.942500", "102652.402500", "102652.862500", "102653.322500", "102653.782500", "102654.242500", "102654.702500", "102655.162500", "102655.622500", "102656.082500", "102656.542500", "102657.002500", "102657.462500", "102657.922500", "102658.382500", "102658.842500", "102659.302500", "102659.762500", "102700.222500", "102700.682500", "102701.142500", "102701.602500", "102702.062500", "102702.522500", "102702.982500", "102703.442500", "102703.902500", "102704.362500", "102704.822500", "102705.282500", "102705.742500", "102706.202500", "102706.662500", "102707.122500", "102707.582500", "102708.042500", "102708.502500", "102708.962500", "102709.422500", "102709.882500", "102710.342500", "102710.802500", "102711.262500", "102711.722500", "102712.182500", "102712.642500", "102713.102500", "102713.562500", "102714.022500", "102714.482500", "102714.942500", "102715.402500", "102715.862500", "102716.322500", "102716.782500", "102717.242500", "102717.702500", "102718.162500", "102718.622500", "102719.082500", "102719.542500", "102720.002500", "102720.462500", "102720.922500", "102721.382500", "102721.842500", "102722.302500", "102722.762500", "102723.222500", "102723.682500", "102724.142500", "102724.602500", "102725.062500", "102725.522500", "102725.982500", "102726.442500", "102726.902500", "102727.362500", "102727.822500", "102728.282500", "102728.742500", "102729.202500", "102729.662500", "102730.122500", "102730.582500", "102731.042500", "102731.502500", "102731.962500", "102732.422500", "102732.882500", "102733.342500", "102733.802500", "102734.262500", "102734.722500", "102735.182500", "102735.642500", "102736.102500", "102736.562500", "102737.022500", "102737.482500", "102737.942500", "102738.402500", "102738.862500", "102739.322500", "102739.782500", "102740.242500", "102740.702500", "102741.162500", "102741.622500", "102742.082500", "102742.542500", "102743.002500", "102743.462500", "102743.922500", "102744.382500", "102744.842500", "102745.302500", "102745.762500", "102746.222500", "102746.682500", "102747.142500", "102747.602500", "102748.062500", "102748.522500", "102748.982500", "102749.442500", "102749.902500", "102750.362500", "102750.822500", "102751.282500", "102751.742500", "102752.202500", "102752.662500", "102753.122500", "102753.582500", "102754.042500", "102754.502500", "102754.962500", "102755.422500", "102755.882500", "102756.342500", "102756.802500", "102757.262500", "102757.722500", "102758.182500", "102758.642500", "102759.102500", "102759.562500", "102800.022500", "102800.482500", "102800.942500", "102801.402500", "102801.862500", "102802.322500", "102802.782500", "102803.242500", "102803.702500", "102804.162500", "102804.622500", "102805.082500", "102805.542500", "102806.002500", "102806.462500", "102806.922500", "102807.382500", "102807.842500", "102808.302500", "102808.762500", "102809.222500", "102809.682500", "102810.142500", "102810.602500", "102811.062500", "102811.522500", "102811.982500", "102812.442500", "102812.902500", "102813.362500", "102813.822500", "102814.282500", "102814.742500", "102815.202500", "102815.662500", "102816.122500", "102816.582500", "102817.042500", "102817.502500", "102817.962500", "102818.422500", "102818.882500", "102819.342500", "102819.802500", "102820.262500", "102820.722500", "102821.182500", "102821.642500", "102822.102500", "102822.562500", "102823.022500", "102823.482500", "102823.942500", "102824.402500", "102824.862500", "102825.322500", "102825.782500", "102826.242500", "102826.702500", "102827.162500", "102827.622500", "102828.082500", "102828.542500", "102829.002500", "102829.462500", "102829.922500", "102830.382500", "102830.842500", "102831.302500", "102831.762500", "102832.222500", "102832.682500", "102833.142500", "102833.602500", "102834.062500", "102834.522500", "102834.982500", "102835.442500", "102835.902500", "102836.362500", "102836.822500", "102837.282500", "102837.742500", "102838.202500", "102838.662500", "102839.122500", "102839.582500", "102840.042500", "102840.502500", "102840.962500", "102841.422500", "102841.882500", "102842.342500", "102842.802500", "102843.262500", "102843.722500", "102844.182500", "102844.642500", "102845.102500", "102845.562500", "102846.022500", "102846.482500", "102846.942500", "102847.402500", "102847.862500", "102848.322500", "102848.782500", "102849.242500", "102849.702500", "102850.162500", "102850.622500", "102851.082500", "102851.542500", "102852.002500", "102852.462500", "102852.922500", "102853.382500", "102853.842500", "102854.302500", "102854.762500", "102855.222500", "102855.682500", "102856.142500", "102856.602500", "102857.062500", "102857.522500", "102857.982500", "102858.442500", "102858.902500", "102859.362500", "102859.822500", "102900.282500", "102900.742500", "102901.202500", "102901.662500", "102902.122500", "102902.582500", "102903.042500", "102903.502500", "102903.962500", "102904.422500", "102904.882500", "102905.342500", "102905.802500", "102906.262500", "102906.722500", "102907.182500", "102907.642500", "102908.102500", "102908.562500", "102909.022500", "102909.482500", "102909.942500", "102910.402500", "102910.862500", "102911.322500", "102911.782500", "102912.242500", "102912.702500", "102913.162500", "102913.622500", "102914.082500", "102914.542500", "102915.002500", "102915.462500", "102915.922500", "102916.382500", "102916.842500", "102917.302500", "102917.762500", "102918.222500", "102918.682500", "102919.142500", "102919.602500", "102920.062500", "102920.522500", "102920.982500", "102921.442500", "102921.902500", "102922.362500", "102922.822500", "102923.282500", "102923.742500", "102924.202500", "102924.662500", "102925.122500", "102925.582500", "102926.042500", "102926.502500", "102926.962500", "102927.422500", "102927.882500", "102928.342500", "102928.802500", "102929.262500", "102929.722500", "102930.182500", "102930.642500", "102931.102500", "102931.562500", "102932.022500", "102932.482500", "102932.942500", "102933.402500", "102933.862500", "102934.322500", "102934.782500", "102935.242500", "102935.702500", "102936.162500", "102936.622500", "102937.082500", "102937.542500", "102938.002500", "102938.462500", "102938.922500", "102939.382500", "102939.842500", "102940.302500", "102940.762500", "102941.222500", "102941.682500", "102942.142500", "102942.602500", "102943.062500", "102943.522500", "102943.982500", "102944.442500", "102944.902500", "102945.362500", "102945.822500", "102946.282500", "102946.742500", "102947.202500", "102947.662500", "102948.122500", "102948.582500", "102949.042500", "102949.502500", "102949.962500", "102950.422500", "102950.882500", "102951.342500", "102951.802500", "102952.262500", "102952.722500", "102953.182500", "102953.642500", "102954.102500", "102954.562500", "102955.022500", "102955.482500", "102955.942500", "102956.402500", "102956.862500", "102957.322500", "102957.782500", "102958.242500", "102958.702500", "102959.162500", "102959.622500", "103000.082500", "103000.542500", "103001.002500", "103001.462500", "103001.922500", "103002.382500", "103002.842500", "103003.302500", "103003.762500", "103004.222500", "103004.682500", "103005.142500", "103005.602500", "103006.062500", "103006.522500", "103006.982500", "103007.442500", "103007.902500", "103008.362500", "103008.822500", "103009.282500", "103009.742500", "103010.202500", "103010.662500", "103011.122500", "103011.582500", "103012.042500", "103012.502500", "103012.962500", "103013.422500", "103013.882500", "103014.342500", "103014.802500", "103015.262500", "103015.722500", "103016.182500", "103016.642500", "103017.102500", "103017.562500", "103018.022500", "103018.482500", "103018.942500", "103019.402500", "103019.862500", "103020.322500", "103020.782500", "103021.242500", "103021.702500", "103022.162500", "103022.622500", "103023.082500", "103023.542500", "103024.002500", "103024.462500", "103024.922500", "103025.382500", "103025.842500", "103026.302500", "103026.762500", "103027.222500", "103027.682500", "103028.142500", "103028.602500", "103029.062500", "103029.522500", "103029.982500", "103030.442500", "103030.902500", "103031.362500", "103031.822500", "103032.282500", "103032.742500", "103033.202500", "103033.662500", "103034.122500", "103034.582500", "103035.042500", "103035.502500", "103035.962500", "103036.422500", "103036.882500", "103037.342500", "103037.802500", "103038.262500", "103038.722500", "103039.182500", "103039.642500", "103040.102500", "103040.562500", "103041.022500", "103041.482500", "103041.942500", "103042.402500", "103042.862500", "103043.322500", "103043.782500", "103044.242500", "103044.702500", "103045.162500", "103045.622500", "103046.082500", "103046.542500", "103047.002500", "103047.462500", "103047.922500", "103048.382500", "103048.842500", "103049.302500", "103049.762500", "103050.222500", "103050.682500", "103051.142500", "103051.602500", "103052.062500", "103052.522500", "103052.982500", "103053.442500", "103053.902500", "103054.362500", "103054.822500", "103055.282500", "103055.742500", "103056.202500", "103056.662500", "103057.122500", "103057.582500", "103058.042500", "103058.502500", "103058.962500", "103059.422500", "103059.882500", "103100.342500", "103100.802500", "103101.262500", "103101.722500", "103102.182500", "103102.642500", "103103.102500", "103103.562500", "103104.022500", "103104.482500", "103104.942500", "103105.402500", "103105.862500", "103106.322500", "103106.782500", "103107.242500", "103107.702500", "103108.162500", "103108.622500", "103109.082500", "103109.542500", "103110.002500", "103110.462500", "103110.922500", "103111.382500", "103111.842500", "103112.302500", "103112.762500", "103113.222500", "103113.682500", "103114.142500", "103114.602500", "103115.062500", "103115.522500", "103115.982500", "103116.442500", "103116.902500", "103117.362500", "103117.822500", "103118.282500", "103118.742500", "103119.202500", "103119.662500", "103120.122500", "103120.582500", "103121.042500", "103121.502500", "103121.962500", "103122.422500", "103122.882500", "103123.342500", "103123.802500", "103124.262500", "103124.722500", "103125.182500", "103125.642500", "103126.102500", "103126.562500", "103127.022500", "103127.482500", "103127.942500", "103128.402500", "103128.862500", "103129.322500", "103129.782500", "103130.242500", "103130.702500", "103131.162500", "103131.622500", "103132.082500", "103132.542500", "103133.002500", "103133.462500", "103133.922500", "103134.382500", "103134.842500", "103135.302500", "103135.762500", "103136.222500", "103136.682500", "103137.142500", "103137.602500", "103138.062500", "103138.522500", "103138.982500", "103139.442500", "103139.902500", "103140.362500", "103140.822500", "103141.282500", "103141.742500", "103142.202500", "103142.662500", "103143.122500", "103143.582500", "103144.042500", "103144.502500", "103144.962500", "103145.422500", "103145.882500", "103146.342500", "103146.802500", "103147.262500", "103147.722500", "103148.182500", "103148.642500", "103149.102500", "103149.562500", "103150.022500", "103150.482500", "103150.942500", "103151.402500", "103151.862500", "103152.322500", "103152.782500", "103153.242500", "103153.702500", "103154.162500", "103154.622500", "103155.082500", "103155.542500", "103156.002500", "103156.462500", "103156.922500", "103157.382500", "103157.842500", "103158.302500", "103158.762500", "103159.222500", "103159.682500", "103200.142500", "103200.602500", "103201.062500", "103201.522500", "103201.982500", "103202.442500", "103202.902500", "103203.362500", "103203.822500", "103204.282500", "103204.742500", "103205.202500", "103205.662500", "103206.122500", "103206.582500", "103207.042500", "103207.502500", "103207.962500", "103208.422500", "103208.882500", "103209.342500", "103209.802500", "103210.262500", "103210.722500", "103211.182500", "103211.642500", "103212.102500", "103212.562500", "103213.022500", "103213.482500", "103213.942500", "103214.402500", "103214.862500", "103215.322500", "103215.782500", "103216.242500", "103216.702500", "103217.162500", "103217.622500", "103218.082500", "103218.542500", "103219.002500", "103219.462500", "103219.922500", "103220.382500", "103220.842500", "103221.302500", "103221.762500", "103222.222500", "103222.682500", "103223.142500", "103223.602500", "103224.062500", "103224.522500", "103224.982500", "103225.442500", "103225.902500", "103226.362500", "103226.822500", "103227.282500", "103227.742500", "103228.202500", "103228.662500", "103229.122500", "103229.582500", "103230.042500", "103230.502500", "103230.962500", "103231.422500", "103231.882500", "103232.342500", "103232.802500", "103233.262500", "103233.722500", "103234.182500", "103234.642500", "103235.102500", "103235.562500", "103236.022500", "103236.482500", "103236.942500", "103237.402500", "103237.862500", "103238.322500", "103238.782500", "103239.242500", "103239.702500", "103240.162500", "103240.622500", "103241.082500", "103241.542500", "103242.002500", "103242.462500", "103242.922500", "103243.382500", "103243.842500", "103244.302500", "103244.762500", "103245.222500", "103245.682500", "103246.142500", "103246.602500", "103247.062500", "103247.522500", "103247.982500", "103248.442500", "103248.902500", "103249.362500", "103249.822500", "103250.282500", "103250.742500", "103251.202500", "103251.662500", "103252.122500", "103252.582500", "103253.042500", "103253.502500", "103253.962500", "103254.422500", "103254.882500", "103255.342500", "103255.802500", "103256.262500", "103256.722500", "103257.182500", "103257.642500", "103258.102500", "103258.562500", "103259.022500", "103259.482500", "103259.942500"],
