{
  "AcquisitionMatrixPE": 82,
  "AcquisitionNumber": 1,
  "AcquisitionTime": "11:16:29.807500",
  "BandwidthPerPixelPhaseEncode": 24.888,
  "BaseResolution": 82,
  "BodyPartExamined": "BRAIN",
  "ConsistencyInfo": "N4_VE11C_LATEST_20160120",
  "ConversionSoftware": "dcm2niix",
  "ConversionSoftwareVersion": "v1.0.20201102",
  "DerivedVendorReportedEchoSpacing": 0.00049,
  "DeviceSerialNumber": "66112",
  "DwellTime": 2e-06,
  "EchoTime": 0.0272,
  "EchoTrainLength": 82,
  "EffectiveEchoSpacing": 0.00049,
  "FlipAngle": 44,
  "ImageComments": "Unaliased MB8/PE3",
  "ImageOrientationPatientDICOM": [0.984114, -0.154392, -0.0876472, 0.162037, 0.982847, 0.0880673],
  "ImageType": [
    "ORIGINAL",
    "PRIMARY",
    "M",
    "MB",
    "ND",
    "NORM",
    "MOSAIC"
],
  "ImagingFrequency": 123.252,
  "InPlanePhaseEncodingDirectionDICOM": "COL",
  "InstitutionAddress": "Maynard 3,Hanover,NH,US,03755",
  "InstitutionName": "Dartmouth College - PBS",
  "InstitutionalDepartmentName": "Department",
  "MRAcquisitionType": "2D",
  "MagneticFieldStrength": 3,
  "Manufacturer": "Siemens",
  "ManufacturersModelName": "Prisma",
  "Modality": "MR",
  "MultibandAccelerationFactor": 8,
  "PartialFourier": 1,
  "PatientPosition": "HFS",
  "PercentPhaseFOV": 100,
  "PercentSampling": 100,
  "PhaseEncodingDirection": "j-",
  "PhaseEncodingSteps": 82,
  "PhaseResolution": 1,
  "PixelBandwidth": 3050,
  "ProcedureStepDescription": "Wager_Wager^1076_spacetop",
  "ProtocolName": "func_run-03_task-alignvideo_acq-ap-mb8",
  "PulseSequenceDetails": "%CustomerSeq%\\cmrr_mbep2d_bold",
  "ReceiveCoilActiveElements": "HEA;HEP",
  "ReceiveCoilName": "Head_32",
  "ReconMatrixPE": 82,
  "RepetitionTime": 0.46,
  "SAR": 0.0700756,
  "ScanOptions": "FS",
  "ScanningSequence": "EP",
  "SequenceName": "epfid2d1_82",
  "SequenceVariant": "SK\\SS",
  "SeriesDescription": "func_run-03_task-alignvideo_acq-ap-mb8",
  "SeriesNumber": 32,
  "ShimSetting": [4118, -7783, -7261, 637, -99, -234, 35, 77],
  "SliceThickness": 2.7,
  "SliceTiming": [0, 0.25, 0.0625, 0.3125, 0.125, 0.375, 0.1875, 0, 0.25, 0.0625, 0.3125, 0.125, 0.375, 0.1875, 0, 0.25, 0.0625, 0.3125, 0.125, 0.375, 0.1875, 0, 0.25, 0.0625, 0.3125, 0.125, 0.375, 0.1875, 0, 0.25, 0.0625, 0.3125, 0.125, 0.375, 0.1875, 0, 0.25, 0.0625, 0.3125, 0.125, 0.375, 0.1875, 0, 0.25, 0.0625, 0.3125, 0.125, 0.375, 0.1875, 0, 0.25, 0.0625, 0.3125, 0.125, 0.375, 0.1875],
  "SoftwareVersions": "syngo MR E11",
  "SpacingBetweenSlices": 2.7,
  "StationName": "AWP66112",
  "TaskName": "alignvideo",
  "TotalReadoutTime": 0.03969,
  "TxRefAmp": 234.271,
  "WipMemBlock": "0b6e21e3-9448-4024-856b-64109e5dba22||Sequence: R016 ve11c/master r/e634e98; Dec 19 2017 11:00:25 by eja",
  "dcmmeta_affine": [
    [-2.6403067111968994, 0.43473297357559204, -0.19587655365467072, 94.27367401123047],
    [0.4142230153083801, 2.636906623840332, 0.27234992384910583, -117.7434310913086],
    [-0.2351509928703308, -0.23627805709838867, 2.6790778636932373, -38.54157257080078],
    [0.0, 0.0, 0.0, 1.0]
],
  "dcmmeta_reorient_transform": [
    [0.0, -1.0, 0.0, 81.0],
    [1.0, 0.0, 0.0, 0.0],
    [0.0, 0.0, 1.0, 0.0],
    [0.0, 0.0, 0.0, 1.0]
],
  "dcmmeta_shape": [82, 82, 56, 1065],
  "dcmmeta_slice_dim": 2,
  "dcmmeta_version": 0.6,
  "global": {
    "const": {
      "AccessionNumber": "A003481",
      "AcquisitionMatrix": [82, 0, 0, 82],
      "AngioFlag": "N",
      "BitsAllocated": 16,
      "BitsStored": 16,
      "BodyPartExamined": "BRAIN",
      "Columns": 656,
      "EchoNumbers": 1,
      "EchoTime": 27.2,
      "EchoTrainLength": 82,
      "FlipAngle": 44.0,
      "HighBit": 15,
      "ImageOrientationPatient": [0.98411432993892, -0.1543922145786, -0.0876471886963, 0.16203683710504, 0.98284699657471, 0.08806727397319],
      "ImagePositionPatient": [-1012.0234664569, -733.75620273013, -58.003559482368],
      "ImageType": [
        "ORIGINAL",
        "PRIMARY",
        "M",
        "MB",
        "ND",
        "NORM",
        "MOSAIC"
],
      "ImagedNucleus": "1H",
      "ImagingFrequency": 123.252143,
      "InPlanePhaseEncodingDirection": "COL",
      "MRAcquisitionType": "2D",
      "MagneticFieldStrength": 3.0,
      "Manufacturer": "SIEMENS",
      "ManufacturerModelName": "Prisma",
      "Modality": "MR",
      "NumberOfAverages": 1.0,
      "NumberOfPhaseEncodingSteps": 82,
      "PercentPhaseFieldOfView": 100.0,
      "PercentSampling": 100.0,
      "PerformedProcedureStepStartTime": "085840.521000",
      "PhotometricInterpretation": "MONOCHROME2",
      "PixelBandwidth": 3050.0,
      "PixelRepresentation": 0,
      "PixelSpacing": [2.6829268932343, 2.6829268932343],
      "ProtocolName": "func_run-03_task-alignvideo_acq-ap-mb8",
      "RepetitionTime": 460.0,
      "Rows": 656,
      "SAR": 0.07007557298891,
      "SamplesPerPixel": 1,
      "ScanOptions": "FS",
      "ScanningSequence": "EP",
      "SequenceName": "epfid2d1_82",
      "SequenceVariant": [
        "SK",
        "SS"
],
      "SeriesDescription": "func_run-03_task-alignvideo_acq-ap-mb8",
      "SeriesNumber": 32,
      "SeriesTime": "111647.316000",
      "SliceLocation": -56.958994500091,
      "SliceThickness": 2.7000000476837,
      "SmallestImagePixelValue": 0,
      "SoftwareVersions": "syngo MR E11",
      "SpacingBetweenSlices": 2.6999999656692,
      "SpecificCharacterSet": "ISO_IR 100",
      "StudyID": "4",
      "StudyTime": "085840.413000",
      "TransmitCoilName": "Body",
      "VariableFlipAngleFlag": "N",
      "WindowCenterWidthExplanation": "Algo1",
      "dBdt": 0.0},
    "slices": {}
  },
  "time": {
    "samples": {
      "AcquisitionNumber": [1, 2, 3, 4, 5, 6, 7, 8, 9, 10, 11, 12, 13, 14, 15, 16, 17, 18, 19, 20, 21, 22, 23, 24, 25, 26, 27, 28, 29, 30, 31, 32, 33, 34, 35, 36, 37, 38, 39, 40, 41, 42, 43, 44, 45, 46, 47, 48, 49, 50, 51, 52, 53, 54, 55, 56, 57, 58, 59, 60, 61, 62, 63, 64, 65, 66, 67, 68, 69, 70, 71, 72, 73, 74, 75, 76, 77, 78, 79, 80, 81, 82, 83, 84, 85, 86, 87, 88, 89, 90, 91, 92, 93, 94, 95, 96, 97, 98, 99, 100, 101, 102, 103, 104, 105, 106, 107, 108, 109, 110, 111, 112, 113, 114, 115, 116, 117, 118, 119, 120, 121, 122, 123, 124, 125, 126, 127, 128, 129, 130, 131, 132, 133, 134, 135, 136, 137, 138, 139, 140, 141, 142, 143, 144, 145, 146, 147, 148, 149, 150, 151, 152, 153, 154, 155, 156, 157, 158, 159, 160, 161, 162, 163, 164, 165, 166, 167, 168, 169, 170, 171, 172, 173, 174, 175, 176, 177, 178, 179, 180, 181, 182, 183, 184, 185, 186, 187, 188, 189, 190, 191, 192, 193, 194, 195, 196, 197, 198, 199, 200, 201, 202, 203, 204, 205, 206, 207, 208, 209, 210, 211, 212, 213, 214, 215, 216, 217, 218, 219, 220, 221, 222, 223, 224, 225, 226, 227, 228, 229, 230, 231, 232, 233, 234, 235, 236, 237, 238, 239, 240, 241, 242, 243, 244, 245, 246, 247, 248, 249, 250, 251, 252, 253, 254, 255, 256, 257, 258, 259, 260, 261, 262, 263, 264, 265, 266, 267, 268, 269, 270, 271, 272, 273, 274, 275, 276, 277, 278, 279, 280, 281, 282, 283, 284, 285, 286, 287, 288, 289, 290, 291, 292, 293, 294, 295, 296, 297, 298, 299, 300, 301, 302, 303, 304, 305, 306, 307, 308, 309, 310, 311, 312, 313, 314, 315, 316, 317, 318, 319, 320, 321, 322, 323, 324, 325, 326, 327, 328, 329, 330, 331, 332, 333, 334, 335, 336, 337, 338, 339, 340, 341, 342, 343, 344, 345, 346, 347, 348, 349, 350, 351, 352, 353, 354, 355, 356, 357, 358, 359, 360, 361, 362, 363, 364, 365, 366, 367, 368, 369, 370, 371, 372, 373, 374, 375, 376, 377, 378, 379, 380, 381, 382, 383, 384, 385, 386, 387, 388, 389, 390, 391, 392, 393, 394, 395, 396, 397, 398, 399, 400, 401, 402, 403, 404, 405, 406, 407, 408, 409, 410, 411, 412, 413, 414, 415, 416, 417, 418, 419, 420, 421, 422, 423, 424, 425, 426, 427, 428, 429, 430, 431, 432, 433, 434, 435, 436, 437, 438, 439, 440, 441, 442, 443, 444, 445, 446, 447, 448, 449, 450, 451, 452, 453, 454, 455, 456, 457, 458, 459, 460, 461, 462, 463, 464, 465, 466, 467, 468, 469, 470, 471, 472, 473, 474, 475, 476, 477, 478, 479, 480, 481, 482, 483, 484, 485, 486, 487, 488, 489, 490, 491, 492, 493, 494, 495, 496, 497, 498, 499, 500, 501, 502, 503, 504, 505, 506, 507, 508, 509, 510, 511, 512, 513, 514, 515, 516, 517, 518, 519, 520, 521, 522, 523, 524, 525, 526, 527, 528, 529, 530, 531, 532, 533, 534, 535, 536, 537, 538, 539, 540, 541, 542, 543, 544, 545, 546, 547, 548, 549, 550, 551, 552, 553, 554, 555, 556, 557, 558, 559, 560, 561, 562, 563, 564, 565, 566, 567, 568, 569, 570, 571, 572, 573, 574, 575, 576, 577, 578, 579, 580, 581, 582, 583, 584, 585, 586, 587, 588, 589, 590, 591, 592, 593, 594, 595, 596, 597, 598, 599, 600, 601, 602, 603, 604, 605, 606, 607, 608, 609, 610, 611, 612, 613, 614, 615, 616, 617, 618, 619, 620, 621, 622, 623, 624, 625, 626, 627, 628, 629, 630, 631, 632, 633, 634, 635, 636, 637, 638, 639, 640, 641, 642, 643, 644, 645, 646, 647, 648, 649, 650, 651, 652, 653, 654, 655, 656, 657, 658, 659, 660, 661, 662, 663, 664, 665, 666, 667, 668, 669, 670, 671, 672, 673, 674, 675, 676, 677, 678, 679, 680, 681, 682, 683, 684, 685, 686, 687, 688, 689, 690, 691, 692, 693, 694, 695, 696, 697, 698, 699, 700, 701, 702, 703, 704, 705, 706, 707, 708, 709, 710, 711, 712, 713, 714, 715, 716, 717, 718, 719, 720, 721, 722, 723, 724, 725, 726, 727, 728, 729, 730, 731, 732, 733, 734, 735, 736, 737, 738, 739, 740, 741, 742, 743, 744, 745, 746, 747, 748, 749, 750, 751, 752, 753, 754, 755, 756, 757, 758, 759, 760, 761, 762, 763, 764, 765, 766, 767, 768, 769, 770, 771, 772, 773, 774, 775, 776, 777, 778, 779, 780, 781, 782, 783, 784, 785, 786, 787, 788, 789, 790, 791, 792, 793, 794, 795, 796, 797, 798, 799, 800, 801, 802, 803, 804, 805, 806, 807, 808, 809, 810, 811, 812, 813, 814, 815, 816, 817, 818, 819, 820, 821, 822, 823, 824, 825, 826, 827, 828, 829, 830, 831, 832, 833, 834, 835, 836, 837, 838, 839, 840, 841, 842, 843, 844, 845, 846, 847, 848, 849, 850, 851, 852, 853, 854, 855, 856, 857, 858, 859, 860, 861, 862, 863, 864, 865, 866, 867, 868, 869, 870, 871, 872, 873, 874, 875, 876, 877, 878, 879, 880, 881, 882, 883, 884, 885, 886, 887, 888, 889, 890, 891, 892, 893, 894, 895, 896, 897, 898, 899, 900, 901, 902, 903, 904, 905, 906, 907, 908, 909, 910, 911, 912, 913, 914, 915, 916, 917, 918, 919, 920, 921, 922, 923, 924, 925, 926, 927, 928, 929, 930, 931, 932, 933, 934, 935, 936, 937, 938, 939, 940, 941, 942, 943, 944, 945, 946, 947, 948, 949, 950, 951, 952, 953, 954, 955, 956, 957, 958, 959, 960, 961, 962, 963, 964, 965, 966, 967, 968, 969, 970, 971, 972, 973, 974, 975, 976, 977, 978, 979, 980, 981, 982, 983, 984, 985, 986, 987, 988, 989, 990, 991, 992, 993, 994, 995, 996, 997, 998, 999, 1000, 1001, 1002, 1003, 1004, 1005, 1006, 1007, 1008, 1009, 1010, 1011, 1012, 1013, 1014, 1015, 1016, 1017, 1018, 1019, 1020, 1021, 1022, 1023, 1024, 1025, 1026, 1027, 1028, 1029, 1030, 1031, 1032, 1033, 1034, 1035, 1036, 1037, 1038, 1039, 1040, 1041, 1042, 1043, 1044, 1045, 1046, 1047, 1048, 1049, 1050, 1051, 1052, 1053, 1054, 1055, 1056, 1057, 1058, 1059, 1060, 1061, 1062, 1063, 1064, 1065],
      "AcquisitionTime": ["111629.807500", "111630.267500", "111630.727500", "111631.187500", "111631.647500", "111632.107500", "111632.567500", "111633.027500", "111633.487500", "111633.947500", "111634.407500", "111634.867500", "111635.327500", "111635.787500", "111636.247500", "111636.707500", "111637.167500", "111637.627500", "111638.087500", "111638.547500", "111639.007500", "111639.467500", "111639.927500", "111640.387500", "111640.847500", "111641.307500", "111641.767500", "111642.227500", "111642.687500", "111643.147500", "111643.607500", "111644.067500", "111644.527500", "111644.987500", "111645.447500", "111645.907500", "111646.367500", "111646.827500", "111647.287500", "111647.747500", "111648.207500", "111648.667500", "111649.127500", "111649.587500", "111650.047500", "111650.507500", "111650.967500", "111651.427500", "111651.887500", "111652.347500", "111652.807500", "111653.267500", "111653.727500", "111654.187500", "111654.647500", "111655.107500", "111655.567500", "111656.027500", "111656.487500", "111656.947500", "111657.407500", "111657.867500", "111658.327500", "111658.787500", "111659.247500", "111659.707500", "111700.167500", "111700.627500", "111701.087500", "111701.547500", "111702.007500", "111702.467500", "111702.927500", "111703.387500", "111703.847500", "111704.307500", "111704.767500", "111705.227500", "111705.687500", "111706.147500", "111706.607500", "111707.067500", "111707.527500", "111707.987500", "111708.447500", "111708.907500", "111709.367500", "111709.827500", "111710.287500", "111710.747500", "111711.207500", "111711.667500", "111712.127500", "111712.587500", "111713.047500", "111713.507500", "111713.967500", "111714.427500", "111714.887500", "111715.347500", "111715.807500", "111716.267500", "111716.727500", "111717.187500", "111717.647500", "111718.107500", "111718.567500", "111719.027500", "111719.487500", "111719.947500", "111720.407500", "111720.867500", "111721.327500", "111721.787500", "111722.247500", "111722.707500", "111723.167500", "111723.627500", "111724.087500", "111724.547500", "111725.007500", "111725.467500", "111725.927500", "111726.387500", "111726.847500", "111727.307500", "111727.767500", "111728.227500", "111728.687500", "111729.147500", "111729.607500", "111730.067500", "111730.527500", "111730.987500", "111731.447500", "111731.907500", "111732.367500", "111732.827500", "111733.287500", "111733.747500", "111734.207500", "111734.667500", "111735.127500", "111735.587500", "111736.047500", "111736.507500", "111736.967500", "111737.427500", "111737.887500", "111738.347500", "111738.807500", "111739.267500", "111739.727500", "111740.187500", "111740.647500", "111741.107500", "111741.567500", "111742.027500", "111742.487500", "111742.947500", "111743.407500", "111743.867500", "111744.327500", "111744.787500", "111745.247500", "111745.707500", "111746.167500", "111746.627500", "111747.087500", "111747.547500", "111748.007500", "111748.467500", "111748.927500", "111749.387500", "111749.847500", "111750.307500", "111750.767500", "111751.227500", "111751.687500", "111752.147500", "111752.607500", "111753.067500", "111753.527500", "111753.987500", "111754.447500", "111754.907500", "111755.367500", "111755.827500", "111756.287500", "111756.747500", "111757.207500", "111757.667500", "111758.127500", "111758.587500", "111759.047500", "111759.507500", "111759.967500", "111800.427500", "111800.887500", "111801.347500", "111801.807500", "111802.267500", "111802.727500", "111803.187500", "111803.647500", "111804.107500", "111804.567500", "111805.027500", "111805.487500", "111805.947500", "111806.407500", "111806.867500", "111807.327500", "111807.787500", "111808.247500", "111808.707500", "111809.167500", "111809.627500", "111810.087500", "111810.547500", "111811.007500", "111811.467500", "111811.927500", "111812.387500", "111812.847500", "111813.307500", "111813.767500", "111814.227500", "111814.687500", "111815.147500", "111815.607500", "111816.067500", "111816.527500", "111816.987500", "111817.447500", "111817.907500", "111818.367500", "111818.827500", "111819.287500", "111819.747500", "111820.207500", "111820.667500", "111821.127500", "111821.587500", "111822.047500", "111822.507500", "111822.967500", "111823.427500", "111823.887500", "111824.347500", "111824.807500", "111825.267500", "111825.727500", "111826.187500", "111826.647500", "111827.107500", "111827.567500", "111828.027500", "111828.487500", "111828.947500", "111829.407500", "111829.867500", "111830.327500", "111830.787500", "111831.247500", "111831.707500", "111832.167500", "111832.627500", "111833.087500", "111833.547500", "111834.007500", "111834.467500", "111834.927500", "111835.387500", "111835.847500", "111836.307500", "111836.767500", "111837.227500", "111837.687500", "111838.147500", "111838.607500", "111839.067500", "111839.527500", "111839.987500", "111840.447500", "111840.907500", "111841.367500", "111841.827500", "111842.287500", "111842.747500", "111843.207500", "111843.667500", "111844.127500", "111844.587500", "111845.047500", "111845.507500", "111845.967500", "111846.427500", "111846.887500", "111847.347500", "111847.807500", "111848.267500", "111848.727500", "111849.187500", "111849.647500", "111850.107500", "111850.567500", "111851.027500", "111851.487500", "111851.947500", "111852.407500", "111852.867500", "111853.327500", "111853.787500", "111854.247500", "111854.707500", "111855.167500", "111855.627500", "111856.087500", "111856.547500", "111857.007500", "111857.467500", "111857.927500", "111858.387500", "111858.847500", "111859.307500", "111859.767500", "111900.227500", "111900.687500", "111901.147500", "111901.607500", "111902.067500", "111902.527500", "111902.987500", "111903.447500", "111903.907500", "111904.367500", "111904.827500", "111905.287500", "111905.747500", "111906.207500", "111906.667500", "111907.127500", "111907.587500", "111908.047500", "111908.507500", "111908.967500", "111909.427500", "111909.887500", "111910.347500", "111910.807500", "111911.267500", "111911.727500", "111912.187500", "111912.647500", "111913.107500", "111913.567500", "111914.027500", "111914.487500", "111914.947500", "111915.407500", "111915.867500", "111916.327500", "111916.787500", "111917.247500", "111917.707500", "111918.167500", "111918.627500", "111919.087500", "111919.547500", "111920.007500", "111920.467500", "111920.927500", "111921.387500", "111921.847500", "111922.307500", "111922.767500", "111923.227500", "111923.687500", "111924.147500", "111924.607500", "111925.067500", "111925.527500", "111925.987500", "111926.447500", "111926.907500", "111927.367500", "111927.827500", "111928.287500", "111928.747500", "111929.207500", "111929.667500", "111930.127500", "111930.587500", "111931.047500", "111931.507500", "111931.967500", "111932.427500", "111932.887500", "111933.347500", "111933.807500", "111934.267500", "111934.727500", "111935.187500", "111935.647500", "111936.107500", "111936.567500", "111937.027500", "111937.487500", "111937.947500", "111938.407500", "111938.867500", "111939.327500", "111939.787500", "111940.247500", "111940.707500", "111941.167500", "111941.627500", "111942.087500", "111942.547500", "111943.007500", "111943.467500", "111943.927500", "111944.387500", "111944.847500", "111945.307500", "111945.767500", "111946.227500", "111946.687500", "111947.147500", "111947.607500", "111948.067500", "111948.527500", "111948.987500", "111949.447500", "111949.907500", "111950.367500", "111950.827500", "111951.287500", "111951.747500", "111952.207500", "111952.667500", "111953.127500", "111953.587500", "111954.047500", "111954.507500", "111954.967500", "111955.427500", "111955.887500", "111956.347500", "111956.807500", "111957.267500", "111957.727500", "111958.187500", "111958.647500", "111959.107500", "111959.567500", "112000.027500", "112000.487500", "112000.947500", "112001.407500", "112001.867500", "112002.327500", "112002.787500", "112003.247500", "112003.707500", "112004.167500", "112004.627500", "112005.087500", "112005.547500", "112006.007500", "112006.467500", "112006.927500", "112007.387500", "112007.847500", "112008.307500", "112008.767500", "112009.227500", "112009.687500", "112010.147500", "112010.607500", "112011.067500", "112011.527500", "112011.987500", "112012.447500", "112012.907500", "112013.367500", "112013.827500", "112014.287500", "112014.747500", "112015.207500", "112015.667500", "112016.127500", "112016.587500", "112017.047500", "112017.507500", "112017.967500", "112018.427500", "112018.887500", "112019.347500", "112019.807500", "112020.267500", "112020.727500", "112021.187500", "112021.647500", "112022.107500", "112022.567500", "112023.027500", "112023.487500", "112023.947500", "112024.407500", "112024.867500", "112025.327500", "112025.787500", "112026.247500", "112026.707500", "112027.167500", "112027.627500", "112028.087500", "112028.547500", "112029.007500", "112029.467500", "112029.927500", "112030.387500", "112030.847500", "112031.307500", "112031.767500", "112032.227500", "112032.687500", "112033.147500", "112033.607500", "112034.067500", "112034.527500", "112034.987500", "112035.447500", "112035.907500", "112036.367500", "112036.827500", "112037.287500", "112037.747500", "112038.207500", "112038.667500", "112039.127500", "112039.587500", "112040.047500", "112040.507500", "112040.967500", "112041.427500", "112041.887500", "112042.347500", "112042.807500", "112043.267500", "112043.727500", "112044.187500", "112044.647500", "112045.107500", "112045.567500", "112046.027500", "112046.487500", "112046.947500", "112047.407500", "112047.867500", "112048.327500", "112048.787500", "112049.247500", "112049.707500", "112050.167500", "112050.627500", "112051.087500", "112051.547500", "112052.007500", "112052.467500", "112052.927500", "112053.387500", "112053.847500", "112054.307500", "112054.767500", "112055.227500", "112055.687500", "112056.147500", "112056.607500", "112057.067500", "112057.527500", "112057.987500", "112058.447500", "112058.907500", "112059.367500", "112059.827500", "112100.287500", "112100.747500", "112101.207500", "112101.667500", "112102.127500", "112102.587500", "112103.047500", "112103.507500", "112103.967500", "112104.427500", "112104.887500", "112105.347500", "112105.807500", "112106.267500", "112106.727500", "112107.187500", "112107.647500", "112108.107500", "112108.567500", "112109.027500", "112109.487500", "112109.947500", "112110.407500", "112110.867500", "112111.327500", "112111.787500", "112112.247500", "112112.707500", "112113.167500", "112113.627500", "112114.087500", "112114.547500", "112115.007500", "112115.467500", "112115.927500", "112116.387500", "112116.847500", "112117.307500", "112117.767500", "112118.227500", "112118.687500", "112119.147500", "112119.607500", "112120.067500", "112120.527500", "112120.987500", "112121.447500", "112121.907500", "112122.367500", "112122.827500", "112123.287500", "112123.747500", "112124.207500", "112124.667500", "112125.127500", "112125.587500", "112126.047500", "112126.507500", "112126.967500", "112127.427500", "112127.887500", "112128.347500", "112128.807500", "112129.267500", "112129.727500", "112130.187500", "112130.647500", "112131.107500", "112131.567500", "112132.027500", "112132.487500", "112132.947500", "112133.407500", "112133.867500", "112134.327500", "112134.787500", "112135.247500", "112135.707500", "112136.167500", "112136.627500", "112137.087500", "112137.547500", "112138.007500", "112138.467500", "112138.927500", "112139.387500", "112139.847500", "112140.307500", "112140.767500", "112141.227500", "112141.687500", "112142.147500", "112142.607500", "112143.067500", "112143.527500", "112143.987500", "112144.447500", "112144.907500", "112145.367500", "112145.827500", "112146.287500", "112146.747500", "112147.207500", "112147.667500", "112148.127500", "112148.587500", "112149.047500", "112149.507500", "112149.967500", "112150.427500", "112150.887500", "112151.347500", "112151.807500", "112152.267500", "112152.727500", "112153.187500", "112153.647500", "112154.107500", "112154.567500", "112155.027500", "112155.487500", "112155.947500", "112156.407500", "112156.867500", "112157.327500", "112157.787500", "112158.247500", "112158.707500", "112159.167500", "112159.627500", "112200.087500", "112200.547500", "112201.007500", "112201.467500", "112201.927500", "112202.387500", "112202.847500", "112203.307500", "112203.767500", "112204.227500", "112204.687500", "112205.147500", "112205.607500", "112206.067500", "112206.527500", "112206.987500", "112207.447500", "112207.907500", "112208.367500", "112208.827500", "112209.287500", "112209.747500", "112210.207500", "112210.667500", "112211.127500", "112211.587500", "112212.047500", "112212.507500", "112212.967500", "112213.427500", "112213.887500", "112214.347500", "112214.807500", "112215.267500", "112215.727500", "112216.187500", "112216.647500", "112217.107500", "112217.567500", "112218.027500", "112218.487500", "112218.947500", "112219.407500", "112219.867500", "112220.327500", "112220.787500", "112221.247500", "112221.707500", "112222.167500", "112222.627500", "112223.087500", "112223.547500", "112224.007500", "112224.467500", "112224.927500", "112225.387500", "112225.847500", "112226.307500", "112226.767500", "112227.227500", "112227.687500", "112228.147500", "112228.607500", "112229.067500", "112229.527500", "112229.987500", "112230.447500", "112230.907500", "112231.367500", "112231.827500", "112232.287500", "112232.747500", "112233.207500", "112233.667500", "112234.127500", "112234.587500", "112235.047500", "112235.507500", "112235.967500", "112236.427500", "112236.887500", "112237.347500", "112237.807500", "112238.267500", "112238.727500", "112239.187500", "112239.647500", "112240.107500", "112240.567500", "112241.027500", "112241.487500", "112241.947500", "112242.407500", "112242.867500", "112243.327500", "112243.787500", "112244.247500", "112244.707500", "112245.167500", "112245.627500", "112246.087500", "112246.547500", "112247.007500", "112247.467500", "112247.927500", "112248.387500", "112248.847500", "112249.307500", "112249.767500", "112250.227500", "112250.687500", "112251.147500", "112251.607500", "112252.067500", "112252.527500", "112252.987500", "112253.447500", "112253.907500", "112254.367500", "112254.827500", "112255.287500", "112255.747500", "112256.207500", "112256.667500", "112257.127500", "112257.587500", "112258.047500", "112258.507500", "112258.967500", "112259.427500", "112259.887500", "112300.347500", "112300.807500", "112301.267500", "112301.727500", "112302.187500", "112302.647500", "112303.107500", "112303.567500", "112304.027500", "112304.487500", "112304.947500", "112305.407500", "112305.867500", "112306.327500", "112306.787500", "112307.247500", "112307.707500", "112308.167500", "112308.627500", "112309.087500", "112309.547500", "112310.007500", "112310.467500", "112310.927500", "112311.387500", "112311.847500", "112312.307500", "112312.767500", "112313.227500", "112313.687500", "112314.147500", "112314.607500", "112315.067500", "112315.527500", "112315.987500", "112316.447500", "112316.907500", "112317.367500", "112317.827500", "112318.287500", "112318.747500", "112319.207500", "112319.667500", "112320.127500", "112320.587500", "112321.047500", "112321.507500", "112321.967500", "112322.427500", "112322.887500", "112323.347500", "112323.807500", "112324.267500", "112324.727500", "112325.187500", "112325.647500", "112326.107500", "112326.567500", "112327.027500", "112327.487500", "112327.947500", "112328.407500", "112328.867500", "112329.327500", "112329.787500", "112330.247500", "112330.707500", "112331.167500", "112331.627500", "112332.087500", "112332.547500", "112333.007500", "112333.467500", "112333.927500", "112334.387500", "112334.847500", "112335.307500", "112335.767500", "112336.227500", "112336.687500", "112337.147500", "112337.607500", "112338.067500", "112338.527500", "112338.987500", "112339.447500", "112339.907500", "112340.367500", "112340.827500", "112341.287500", "112341.747500", "112342.207500", "112342.667500", "112343.127500", "112343.587500", "112344.047500", "112344.507500", "112344.967500", "112345.427500", "112345.887500", "112346.347500", "112346.807500", "112347.267500", "112347.727500", "112348.187500", "112348.647500", "112349.107500", "112349.567500", "112350.027500", "112350.487500", "112350.947500", "112351.407500", "112351.867500", "112352.327500", "112352.787500", "112353.247500", "112353.707500", "112354.167500", "112354.627500", "112355.087500", "112355.547500", "112356.007500", "112356.467500", "112356.927500", "112357.387500", "112357.847500", "112358.307500", "112358.767500", "112359.227500", "112359.687500", "112400.147500", "112400.607500", "112401.067500", "112401.527500", "112401.987500", "112402.447500", "112402.907500", "112403.367500", "112403.827500", "112404.287500", "112404.747500", "112405.207500", "112405.667500", "112406.127500", "112406.587500", "112407.047500", "112407.507500", "112407.967500", "112408.427500", "112408.887500", "112409.347500", "112409.807500", "112410.267500", "112410.727500", "112411.187500", "112411.647500", "112412.107500", "112412.567500", "112413.027500", "112413.487500", "112413.947500", "112414.407500", "112414.867500", "112415.327500", "112415.787500", "112416.247500", "112416.707500", "112417.167500", "112417.627500", "112418.087500", "112418.547500", "112419.007500", "112419.467500", "112419.927500", "112420.387500", "112420.847500", "112421.307500", "112421.767500", "112422.227500", "112422.687500", "112423.147500", "112423.607500", "112424.067500", "112424.527500", "112424.987500", "112425.447500", "112425.907500", "112426.367500", "112426.827500", "112427.287500", "112427.747500", "112428.207500", "112428.667500", "112429.127500", "112429.587500", "112430.047500", "112430.507500", "112430.967500", "112431.427500", "112431.887500", "112432.347500", "112432.807500", "112433.267500", "112433.727500", "112434.187500", "112434.647500", "112435.107500", "112435.567500", "112436.027500", "112436.487500", "112436.947500", "112437.407500", "112437.867500", "112438.327500", "112438.787500", "112439.247500"],
