{
  "AcquisitionMatrixPE": 82,
  "AcquisitionNumber": 1,
  "AcquisitionTime": "10:33:25.497500",
  "BandwidthPerPixelPhaseEncode": 24.888,
  "BaseResolution": 82,
  "BodyPartExamined": "BRAIN",
  "ConsistencyInfo": "N4_VE11C_LATEST_20160120",
  "ConversionSoftware": "dcm2niix",
  "ConversionSoftwareVersion": "v1.0.20201102",
  "DerivedVendorReportedEchoSpacing": 0.00049,
  "DeviceSerialNumber": "66112",
  "DwellTime": 2e-06,
  "EchoTime": 0.0272,
  "EchoTrainLength": 82,
  "EffectiveEchoSpacing": 0.00049,
  "FlipAngle": 44,
  "ImageComments": "Unaliased MB8/PE3",
  "ImageOrientationPatientDICOM": [0.997105, -0.0299901, -0.0698788, 0.0372592, 0.993757, 0.10516],
  "ImageType": [
    "ORIGINAL",
    "PRIMARY",
    "M",
    "MB",
    "ND",
    "NORM",
    "MOSAIC"
],
  "ImagingFrequency": 123.252,
  "InPlanePhaseEncodingDirectionDICOM": "COL",
  "InstitutionAddress": "Maynard 3,Hanover,NH,US,03755",
  "InstitutionName": "Dartmouth College - PBS",
  "InstitutionalDepartmentName": "Department",
  "MRAcquisitionType": "2D",
  "MagneticFieldStrength": 3,
  "Manufacturer": "Siemens",
  "ManufacturersModelName": "Prisma",
  "Modality": "MR",
  "MultibandAccelerationFactor": 8,
  "PartialFourier": 1,
  "PatientPosition": "HFS",
  "PercentPhaseFOV": 100,
  "PercentSampling": 100,
  "PhaseEncodingDirection": "j-",
  "PhaseEncodingSteps": 82,
  "PhaseResolution": 1,
  "PixelBandwidth": 3050,
  "ProcedureStepDescription": "Wager_Wager^1076_spacetop",
  "ProtocolName": "func_run-06_task-social_acq-ap-mb8",
  "PulseSequenceDetails": "%CustomerSeq%\\cmrr_mbep2d_bold",
  "ReceiveCoilActiveElements": "HEA;HEP",
  "ReceiveCoilName": "Head_32",
  "ReconMatrixPE": 82,
  "RepetitionTime": 0.46,
  "SAR": 0.0699966,
  "ScanOptions": "FS",
  "ScanningSequence": "EP",
  "SequenceName": "epfid2d1_82",
  "SequenceVariant": "SK\\SS",
  "SeriesDescription": "func_run-06_task-social_acq-ap-mb8",
  "SeriesNumber": 18,
  "ShimSetting": [4118, -7783, -7263, 633, -97, -236, 34, 77],
  "SliceThickness": 2.7,
  "SliceTiming": [0, 0.2525, 0.0625, 0.315, 0.1275, 0.3775, 0.19, 0, 0.2525, 0.0625, 0.315, 0.1275, 0.3775, 0.19, 0, 0.2525, 0.0625, 0.315, 0.1275, 0.3775, 0.19, 0, 0.2525, 0.0625, 0.315, 0.1275, 0.3775, 0.19, 0, 0.2525, 0.0625, 0.315, 0.1275, 0.3775, 0.19, 0, 0.2525, 0.0625, 0.315, 0.1275, 0.3775, 0.19, 0, 0.2525, 0.0625, 0.315, 0.1275, 0.3775, 0.19, 0, 0.2525, 0.0625, 0.315, 0.1275, 0.3775, 0.19],
  "SoftwareVersions": "syngo MR E11",
  "SpacingBetweenSlices": 2.7,
  "StationName": "AWP66112",
  "TaskName": "social",
  "TotalReadoutTime": 0.03969,
  "TxRefAmp": 234.271,
  "WipMemBlock": "18ec9269-5615-4a59-a247-c28ac132da6d||Sequence: R016 ve11c/master r/e634e98; Dec 19 2017 11:00:25 by eja",
  "dcmmeta_affine": [
    [-2.675158739089966, 0.09996367990970612, -0.17897962033748627, 107.92984771728516],
    [0.08046118915081024, 2.66617751121521, 0.2901398539543152, -107.77104187011719],
    [-0.18747960031032562, -0.2821367681026459, 2.678392171859741, -39.465614318847656],
    [0.0, 0.0, 0.0, 1.0]
],
  "dcmmeta_reorient_transform": [
    [0.0, -1.0, 0.0, 81.0],
    [1.0, 0.0, 0.0, 0.0],
    [0.0, 0.0, 1.0, 0.0],
    [0.0, 0.0, 0.0, 1.0]
],
  "dcmmeta_shape": [82, 82, 56, 872],
  "dcmmeta_slice_dim": 2,
  "dcmmeta_version": 0.6,
  "global": {
    "const": {
      "AccessionNumber": "A003481",
      "AcquisitionMatrix": [82, 0, 0, 82],
      "AngioFlag": "N",
      "BitsAllocated": 16,
      "BitsStored": 16,
      "BodyPartExamined": "BRAIN",
      "Columns": 656,
      "EchoNumbers": 1,
      "EchoTime": 27.2,
      "EchoTrainLength": 82,
      "FlipAngle": 44.0,
      "HighBit": 15,
      "ImageOrientationPatient": [0.99710458552462, -0.0299900782268, -0.0698787573853, 0.03725918780418, 0.99375706960458, 0.10516006625661],
      "ImagePositionPatient": [-912.48703277605, -850.28993920678, -89.485300502287],
      "ImageType": [
        "ORIGINAL",
        "PRIMARY",
        "M",
        "MB",
        "ND",
        "NORM",
        "MOSAIC"
],
      "ImagedNucleus": "1H",
      "ImagingFrequency": 123.25213,
      "InPlanePhaseEncodingDirection": "COL",
      "MRAcquisitionType": "2D",
      "MagneticFieldStrength": 3.0,
      "Manufacturer": "SIEMENS",
      "ManufacturerModelName": "Prisma",
      "Modality": "MR",
      "NumberOfAverages": 1.0,
      "NumberOfPhaseEncodingSteps": 82,
      "PercentPhaseFieldOfView": 100.0,
      "PercentSampling": 100.0,
      "PerformedProcedureStepStartTime": "085840.521000",
      "PhotometricInterpretation": "MONOCHROME2",
      "PixelBandwidth": 3050.0,
      "PixelRepresentation": 0,
      "PixelSpacing": [2.6829268932343, 2.6829268932343],
      "ProtocolName": "func_run-06_task-social_acq-ap-mb8",
      "RepetitionTime": 460.0,
      "Rows": 656,
      "SAR": 0.06999660694677,
      "SamplesPerPixel": 1,
      "ScanOptions": "FS",
      "ScanningSequence": "EP",
      "SequenceName": "epfid2d1_82",
      "SequenceVariant": [
        "SK",
        "SS"
],
      "SeriesDescription": "func_run-06_task-social_acq-ap-mb8",
      "SeriesNumber": 18,
      "SeriesTime": "103347.137000",
      "SliceLocation": -57.885302038916,
      "SliceThickness": 2.7000000476837,
      "SmallestImagePixelValue": 0,
      "SoftwareVersions": "syngo MR E11",
      "SpacingBetweenSlices": 2.6999999683494,
      "SpecificCharacterSet": "ISO_IR 100",
      "StudyID": "4",
      "StudyTime": "085840.413000",
      "TransmitCoilName": "Body",
      "VariableFlipAngleFlag": "N",
      "WindowCenterWidthExplanation": "Algo1",
      "dBdt": 0.0},
    "slices": {}
  },
  "time": {
    "samples": {
      "AcquisitionNumber": [1, 2, 3, 4, 5, 6, 7, 8, 9, 10, 11, 12, 13, 14, 15, 16, 17, 18, 19, 20, 21, 22, 23, 24, 25, 26, 27, 28, 29, 30, 31, 32, 33, 34, 35, 36, 37, 38, 39, 40, 41, 42, 43, 44, 45, 46, 47, 48, 49, 50, 51, 52, 53, 54, 55, 56, 57, 58, 59, 60, 61, 62, 63, 64, 65, 66, 67, 68, 69, 70, 71, 72, 73, 74, 75, 76, 77, 78, 79, 80, 81, 82, 83, 84, 85, 86, 87, 88, 89, 90, 91, 92, 93, 94, 95, 96, 97, 98, 99, 100, 101, 102, 103, 104, 105, 106, 107, 108, 109, 110, 111, 112, 113, 114, 115, 116, 117, 118, 119, 120, 121, 122, 123, 124, 125, 126, 127, 128, 129, 130, 131, 132, 133, 134, 135, 136, 137, 138, 139, 140, 141, 142, 143, 144, 145, 146, 147, 148, 149, 150, 151, 152, 153, 154, 155, 156, 157, 158, 159, 160, 161, 162, 163, 164, 165, 166, 167, 168, 169, 170, 171, 172, 173, 174, 175, 176, 177, 178, 179, 180, 181, 182, 183, 184, 185, 186, 187, 188, 189, 190, 191, 192, 193, 194, 195, 196, 197, 198, 199, 200, 201, 202, 203, 204, 205, 206, 207, 208, 209, 210, 211, 212, 213, 214, 215, 216, 217, 218, 219, 220, 221, 222, 223, 224, 225, 226, 227, 228, 229, 230, 231, 232, 233, 234, 235, 236, 237, 238, 239, 240, 241, 242, 243, 244, 245, 246, 247, 248, 249, 250, 251, 252, 253, 254, 255, 256, 257, 258, 259, 260, 261, 262, 263, 264, 265, 266, 267, 268, 269, 270, 271, 272, 273, 274, 275, 276, 277, 278, 279, 280, 281, 282, 283, 284, 285, 286, 287, 288, 289, 290, 291, 292, 293, 294, 295, 296, 297, 298, 299, 300, 301, 302, 303, 304, 305, 306, 307, 308, 309, 310, 311, 312, 313, 314, 315, 316, 317, 318, 319, 320, 321, 322, 323, 324, 325, 326, 327, 328, 329, 330, 331, 332, 333, 334, 335, 336, 337, 338, 339, 340, 341, 342, 343, 344, 345, 346, 347, 348, 349, 350, 351, 352, 353, 354, 355, 356, 357, 358, 359, 360, 361, 362, 363, 364, 365, 366, 367, 368, 369, 370, 371, 372, 373, 374, 375, 376, 377, 378, 379, 380, 381, 382, 383, 384, 385, 386, 387, 388, 389, 390, 391, 392, 393, 394, 395, 396, 397, 398, 399, 400, 401, 402, 403, 404, 405, 406, 407, 408, 409, 410, 411, 412, 413, 414, 415, 416, 417, 418, 419, 420, 421, 422, 423, 424, 425, 426, 427, 428, 429, 430, 431, 432, 433, 434, 435, 436, 437, 438, 439, 440, 441, 442, 443, 444, 445, 446, 447, 448, 449, 450, 451, 452, 453, 454, 455, 456, 457, 458, 459, 460, 461, 462, 463, 464, 465, 466, 467, 468, 469, 470, 471, 472, 473, 474, 475, 476, 477, 478, 479, 480, 481, 482, 483, 484, 485, 486, 487, 488, 489, 490, 491, 492, 493, 494, 495, 496, 497, 498, 499, 500, 501, 502, 503, 504, 505, 506, 507, 508, 509, 510, 511, 512, 513, 514, 515, 516, 517, 518, 519, 520, 521, 522, 523, 524, 525, 526, 527, 528, 529, 530, 531, 532, 533, 534, 535, 536, 537, 538, 539, 540, 541, 542, 543, 544, 545, 546, 547, 548, 549, 550, 551, 552, 553, 554, 555, 556, 557, 558, 559, 560, 561, 562, 563, 564, 565, 566, 567, 568, 569, 570, 571, 572, 573, 574, 575, 576, 577, 578, 579, 580, 581, 582, 583, 584, 585, 586, 587, 588, 589, 590, 591, 592, 593, 594, 595, 596, 597, 598, 599, 600, 601, 602, 603, 604, 605, 606, 607, 608, 609, 610, 611, 612, 613, 614, 615, 616, 617, 618, 619, 620, 621, 622, 623, 624, 625, 626, 627, 628, 629, 630, 631, 632, 633, 634, 635, 636, 637, 638, 639, 640, 641, 642, 643, 644, 645, 646, 647, 648, 649, 650, 651, 652, 653, 654, 655, 656, 657, 658, 659, 660, 661, 662, 663, 664, 665, 666, 667, 668, 669, 670, 671, 672, 673, 674, 675, 676, 677, 678, 679, 680, 681, 682, 683, 684, 685, 686, 687, 688, 689, 690, 691, 692, 693, 694, 695, 696, 697, 698, 699, 700, 701, 702, 703, 704, 705, 706, 707, 708, 709, 710, 711, 712, 713, 714, 715, 716, 717, 718, 719, 720, 721, 722, 723, 724, 725, 726, 727, 728, 729, 730, 731, 732, 733, 734, 735, 736, 737, 738, 739, 740, 741, 742, 743, 744, 745, 746, 747, 748, 749, 750, 751, 752, 753, 754, 755, 756, 757, 758, 759, 760, 761, 762, 763, 764, 765, 766, 767, 768, 769, 770, 771, 772, 773, 774, 775, 776, 777, 778, 779, 780, 781, 782, 783, 784, 785, 786, 787, 788, 789, 790, 791, 792, 793, 794, 795, 796, 797, 798, 799, 800, 801, 802, 803, 804, 805, 806, 807, 808, 809, 810, 811, 812, 813, 814, 815, 816, 817, 818, 819, 820, 821, 822, 823, 824, 825, 826, 827, 828, 829, 830, 831, 832, 833, 834, 835, 836, 837, 838, 839, 840, 841, 842, 843, 844, 845, 846, 847, 848, 849, 850, 851, 852, 853, 854, 855, 856, 857, 858, 859, 860, 861, 862, 863, 864, 865, 866, 867, 868, 869, 870, 871, 872],
      "AcquisitionTime": ["103325.497500", "103325.957500", "103326.417500", "103326.877500", "103327.337500", "103327.797500", "103328.257500", "103328.717500", "103329.177500", "103329.637500", "103330.097500", "103330.557500", "103331.017500", "103331.477500", "103331.937500", "103332.397500", "103332.857500", "103333.317500", "103333.777500", "103334.237500", "103334.697500", "103335.157500", "103335.617500", "103336.077500", "103336.537500", "103336.997500", "103337.457500", "103337.917500", "103338.377500", "103338.837500", "103339.297500", "103339.757500", "103340.217500", "103340.677500", "103341.137500", "103341.597500", "103342.057500", "103342.517500", "103342.977500", "103343.437500", "103343.897500", "103344.357500", "103344.817500", "103345.277500", "103345.737500", "103346.197500", "103346.657500", "103347.117500", "103347.577500", "103348.037500", "103348.497500", "103348.957500", "103349.417500", "103349.877500", "103350.337500", "103350.797500", "103351.257500", "103351.717500", "103352.177500", "103352.637500", "103353.097500", "103353.557500", "103354.017500", "103354.477500", "103354.937500", "103355.397500", "103355.857500", "103356.317500", "103356.777500", "103357.237500", "103357.697500", "103358.157500", "103358.617500", "103359.077500", "103359.537500", "103359.997500", "103400.457500", "103400.917500", "103401.377500", "103401.837500", "103402.297500", "103402.757500", "103403.217500", "103403.677500", "103404.137500", "103404.597500", "103405.057500", "103405.517500", "103405.977500", "103406.437500", "103406.897500", "103407.357500", "103407.817500", "103408.277500", "103408.737500", "103409.197500", "103409.657500", "103410.117500", "103410.577500", "103411.037500", "103411.497500", "103411.957500", "103412.417500", "103412.877500", "103413.337500", "103413.797500", "103414.257500", "103414.717500", "103415.177500", "103415.637500", "103416.097500", "103416.557500", "103417.017500", "103417.477500", "103417.937500", "103418.397500", "103418.857500", "103419.317500", "103419.777500", "103420.237500", "103420.697500", "103421.157500", "103421.617500", "103422.077500", "103422.537500", "103422.997500", "103423.457500", "103423.917500", "103424.377500", "103424.837500", "103425.297500", "103425.757500", "103426.217500", "103426.677500", "103427.137500", "103427.597500", "103428.057500", "103428.517500", "103428.977500", "103429.437500", "103429.897500", "103430.357500", "103430.817500", "103431.277500", "103431.737500", "103432.197500", "103432.657500", "103433.117500", "103433.577500", "103434.037500", "103434.497500", "103434.957500", "103435.417500", "103435.877500", "103436.337500", "103436.797500", "103437.257500", "103437.717500", "103438.177500", "103438.637500", "103439.097500", "103439.557500", "103440.017500", "103440.477500", "103440.937500", "103441.397500", "103441.857500", "103442.317500", "103442.777500", "103443.237500", "103443.697500", "103444.157500", "103444.617500", "103445.077500", "103445.537500", "103445.997500", "103446.457500", "103446.917500", "103447.377500", "103447.837500", "103448.297500", "103448.757500", "103449.217500", "103449.677500", "103450.137500", "103450.597500", "103451.057500", "103451.517500", "103451.977500", "103452.437500", "103452.897500", "103453.357500", "103453.817500", "103454.277500", "103454.737500", "103455.197500", "103455.657500", "103456.117500", "103456.577500", "103457.037500", "103457.497500", "103457.957500", "103458.417500", "103458.877500", "103459.337500", "103459.797500", "103500.257500", "103500.717500", "103501.177500", "103501.637500", "103502.097500", "103502.557500", "103503.017500", "103503.477500", "103503.937500", "103504.397500", "103504.857500", "103505.317500", "103505.777500", "103506.237500", "103506.697500", "103507.157500", "103507.617500", "103508.077500", "103508.537500", "103508.997500", "103509.457500", "103509.917500", "103510.377500", "103510.837500", "103511.297500", "103511.757500", "103512.217500", "103512.677500", "103513.137500", "103513.597500", "103514.057500", "103514.517500", "103514.977500", "103515.437500", "103515.897500", "103516.357500", "103516.817500", "103517.277500", "103517.737500", "103518.197500", "103518.657500", "103519.117500", "103519.577500", "103520.037500", "103520.497500", "103520.957500", "103521.417500", "103521.877500", "103522.337500", "103522.797500", "103523.257500", "103523.717500", "103524.177500", "103524.637500", "103525.097500", "103525.557500", "103526.017500", "103526.477500", "103526.937500", "103527.397500", "103527.857500", "103528.317500", "103528.777500", "103529.237500", "103529.697500", "103530.157500", "103530.617500", "103531.077500", "103531.537500", "103531.997500", "103532.457500", "103532.917500", "103533.377500", "103533.837500", "103534.297500", "103534.757500", "103535.217500", "103535.677500", "103536.137500", "103536.597500", "103537.057500", "103537.517500", "103537.977500", "103538.437500", "103538.897500", "103539.357500", "103539.817500", "103540.277500", "103540.737500", "103541.197500", "103541.657500", "103542.117500", "103542.577500", "103543.037500", "103543.497500", "103543.957500", "103544.417500", "103544.877500", "103545.337500", "103545.797500", "103546.257500", "103546.717500", "103547.177500", "103547.637500", "103548.097500", "103548.557500", "103549.017500", "103549.477500", "103549.937500", "103550.397500", "103550.857500", "103551.317500", "103551.777500", "103552.237500", "103552.697500", "103553.157500", "103553.617500", "103554.077500", "103554.537500", "103554.997500", "103555.457500", "103555.917500", "103556.377500", "103556.837500", "103557.297500", "103557.757500", "103558.217500", "103558.677500", "103559.137500", "103559.597500", "103600.057500", "103600.517500", "103600.977500", "103601.437500", "103601.897500", "103602.357500", "103602.817500", "103603.277500", "103603.737500", "103604.197500", "103604.657500", "103605.117500", "103605.577500", "103606.037500", "103606.497500", "103606.957500", "103607.417500", "103607.877500", "103608.337500", "103608.797500", "103609.257500", "103609.717500", "103610.177500", "103610.637500", "103611.097500", "103611.557500", "103612.017500", "103612.477500", "103612.937500", "103613.397500", "103613.857500", "103614.317500", "103614.777500", "103615.237500", "103615.697500", "103616.157500", "103616.617500", "103617.077500", "103617.537500", "103617.997500", "103618.457500", "103618.917500", "103619.377500", "103619.837500", "103620.297500", "103620.757500", "103621.217500", "103621.677500", "103622.137500", "103622.597500", "103623.057500", "103623.517500", "103623.977500", "103624.437500", "103624.897500", "103625.357500", "103625.817500", "103626.277500", "103626.737500", "103627.197500", "103627.657500", "103628.117500", "103628.577500", "103629.037500", "103629.497500", "103629.957500", "103630.417500", "103630.877500", "103631.337500", "103631.797500", "103632.257500", "103632.717500", "103633.177500", "103633.637500", "103634.097500", "103634.557500", "103635.017500", "103635.477500", "103635.937500", "103636.397500", "103636.857500", "103637.317500", "103637.777500", "103638.237500", "103638.697500", "103639.157500", "103639.617500", "103640.077500", "103640.537500", "103640.997500", "103641.457500", "103641.917500", "103642.377500", "103642.837500", "103643.297500", "103643.757500", "103644.217500", "103644.677500", "103645.137500", "103645.597500", "103646.057500", "103646.517500", "103646.977500", "103647.437500", "103647.897500", "103648.357500", "103648.817500", "103649.277500", "103649.737500", "103650.197500", "103650.657500", "103651.117500", "103651.577500", "103652.037500", "103652.497500", "103652.957500", "103653.417500", "103653.877500", "103654.337500", "103654.797500", "103655.257500", "103655.717500", "103656.177500", "103656.637500", "103657.097500", "103657.557500", "103658.017500", "103658.477500", "103658.937500", "103659.397500", "103659.857500", "103700.317500", "103700.777500", "103701.237500", "103701.697500", "103702.157500", "103702.617500", "103703.077500", "103703.537500", "103703.997500", "103704.457500", "103704.917500", "103705.377500", "103705.837500", "103706.297500", "103706.757500", "103707.217500", "103707.677500", "103708.137500", "103708.597500", "103709.057500", "103709.517500", "103709.977500", "103710.437500", "103710.897500", "103711.357500", "103711.817500", "103712.277500", "103712.737500", "103713.197500", "103713.657500", "103714.117500", "103714.577500", "103715.037500", "103715.497500", "103715.957500", "103716.417500", "103716.877500", "103717.337500", "103717.797500", "103718.257500", "103718.717500", "103719.177500", "103719.637500", "103720.097500", "103720.557500", "103721.017500", "103721.477500", "103721.937500", "103722.397500", "103722.857500", "103723.317500", "103723.777500", "103724.237500", "103724.697500", "103725.157500", "103725.617500", "103726.077500", "103726.537500", "103726.997500", "103727.457500", "103727.917500", "103728.377500", "103728.837500", "103729.297500", "103729.757500", "103730.217500", "103730.677500", "103731.137500", "103731.597500", "103732.057500", "103732.517500", "103732.977500", "103733.437500", "103733.897500", "103734.357500", "103734.817500", "103735.277500", "103735.737500", "103736.197500", "103736.657500", "103737.117500", "103737.577500", "103738.037500", "103738.497500", "103738.957500", "103739.417500", "103739.877500", "103740.337500", "103740.797500", "103741.257500", "103741.717500", "103742.177500", "103742.637500", "103743.097500", "103743.557500", "103744.017500", "103744.477500", "103744.937500", "103745.397500", "103745.857500", "103746.317500", "103746.777500", "103747.237500", "103747.697500", "103748.157500", "103748.617500", "103749.077500", "103749.537500", "103749.997500", "103750.457500", "103750.917500", "103751.377500", "103751.837500", "103752.297500", "103752.757500", "103753.217500", "103753.677500", "103754.137500", "103754.597500", "103755.057500", "103755.517500", "103755.977500", "103756.437500", "103756.897500", "103757.357500", "103757.817500", "103758.277500", "103758.737500", "103759.197500", "103759.657500", "103800.117500", "103800.577500", "103801.037500", "103801.497500", "103801.957500", "103802.417500", "103802.877500", "103803.337500", "103803.797500", "103804.257500", "103804.717500", "103805.177500", "103805.637500", "103806.097500", "103806.557500", "103807.017500", "103807.477500", "103807.937500", "103808.397500", "103808.857500", "103809.317500", "103809.777500", "103810.237500", "103810.697500", "103811.157500", "103811.617500", "103812.077500", "103812.537500", "103812.997500", "103813.457500", "103813.917500", "103814.377500", "103814.837500", "103815.297500", "103815.757500", "103816.217500", "103816.677500", "103817.137500", "103817.597500", "103818.057500", "103818.517500", "103818.977500", "103819.437500", "103819.897500", "103820.357500", "103820.817500", "103821.277500", "103821.737500", "103822.197500", "103822.657500", "103823.117500", "103823.577500", "103824.037500", "103824.497500", "103824.957500", "103825.417500", "103825.877500", "103826.337500", "103826.797500", "103827.257500", "103827.717500", "103828.177500", "103828.637500", "103829.097500", "103829.557500", "103830.017500", "103830.477500", "103830.937500", "103831.397500", "103831.857500", "103832.317500", "103832.777500", "103833.237500", "103833.697500", "103834.157500", "103834.617500", "103835.077500", "103835.537500", "103835.997500", "103836.457500", "103836.917500", "103837.377500", "103837.837500", "103838.297500", "103838.757500", "103839.217500", "103839.677500", "103840.137500", "103840.597500", "103841.057500", "103841.517500", "103841.977500", "103842.437500", "103842.897500", "103843.357500", "103843.817500", "103844.277500", "103844.737500", "103845.197500", "103845.657500", "103846.117500", "103846.577500", "103847.037500", "103847.497500", "103847.957500", "103848.417500", "103848.877500", "103849.337500", "103849.797500", "103850.257500", "103850.717500", "103851.177500", "103851.637500", "103852.097500", "103852.557500", "103853.017500", "103853.477500", "103853.937500", "103854.397500", "103854.857500", "103855.317500", "103855.777500", "103856.237500", "103856.697500", "103857.157500", "103857.617500", "103858.077500", "103858.537500", "103858.997500", "103859.457500", "103859.917500", "103900.377500", "103900.837500", "103901.297500", "103901.757500", "103902.217500", "103902.677500", "103903.137500", "103903.597500", "103904.057500", "103904.517500", "103904.977500", "103905.437500", "103905.897500", "103906.357500", "103906.817500", "103907.277500", "103907.737500", "103908.197500", "103908.657500", "103909.117500", "103909.577500", "103910.037500", "103910.497500", "103910.957500", "103911.417500", "103911.877500", "103912.337500", "103912.797500", "103913.257500", "103913.717500", "103914.177500", "103914.637500", "103915.097500", "103915.557500", "103916.017500", "103916.477500", "103916.937500", "103917.397500", "103917.857500", "103918.317500", "103918.777500", "103919.237500", "103919.697500", "103920.157500", "103920.617500", "103921.077500", "103921.537500", "103921.997500", "103922.457500", "103922.917500", "103923.377500", "103923.837500", "103924.297500", "103924.757500", "103925.217500", "103925.677500", "103926.137500", "103926.597500", "103927.057500", "103927.517500", "103927.977500", "103928.437500", "103928.897500", "103929.357500", "103929.817500", "103930.277500", "103930.737500", "103931.197500", "103931.657500", "103932.117500", "103932.577500", "103933.037500", "103933.497500", "103933.957500", "103934.417500", "103934.877500", "103935.337500", "103935.797500", "103936.257500", "103936.717500", "103937.177500", "103937.637500", "103938.097500", "103938.557500", "103939.017500", "103939.477500", "103939.937500", "103940.397500", "103940.857500", "103941.317500", "103941.777500", "103942.237500", "103942.697500", "103943.157500", "103943.617500", "103944.077500", "103944.537500", "103944.997500", "103945.457500", "103945.917500", "103946.377500", "103946.837500", "103947.297500", "103947.757500", "103948.217500", "103948.677500", "103949.137500", "103949.597500", "103950.057500", "103950.517500", "103950.977500", "103951.437500", "103951.897500", "103952.357500", "103952.817500", "103953.277500", "103953.737500", "103954.197500", "103954.657500", "103955.117500", "103955.577500", "103956.037500", "103956.497500", "103956.957500", "103957.417500", "103957.877500", "103958.337500", "103958.797500", "103959.257500", "103959.717500", "104000.177500", "104000.637500", "104001.097500", "104001.557500", "104002.017500", "104002.477500", "104002.937500", "104003.397500", "104003.857500", "104004.317500", "104004.777500", "104005.237500", "104005.697500", "104006.157500"],
