{
  "AcquisitionMatrixPE": 82,
  "AcquisitionNumber": 1,
  "AcquisitionTime": "17:52:37.597500",
  "BandwidthPerPixelPhaseEncode": 24.888,
  "BaseResolution": 82,
  "BodyPartExamined": "BRAIN",
  "ConsistencyInfo": "N4_VE11E_LATEST_20181129",
  "ConversionSoftware": "dcm2niix",
  "ConversionSoftwareVersion": "v1.0.20201102",
  "DerivedVendorReportedEchoSpacing": 0.00049,
  "DeviceSerialNumber": "66112",
  "DwellTime": 2e-06,
  "EchoTime": 0.0272,
  "EchoTrainLength": 82,
  "EffectiveEchoSpacing": 0.00049,
  "FlipAngle": 44,
  "ImageComments": "Unaliased MB8/PE3",
  "ImageOrientationPatientDICOM": [0.997589, 0.0162274, -0.0674775, -0.015323, 0.999786, 0.0138986],
  "ImageType": [
    "ORIGINAL",
    "PRIMARY",
    "M",
    "MB",
    "ND",
    "NORM",
    "MOSAIC"
],
  "ImagingFrequency": 123.252,
  "InPlanePhaseEncodingDirectionDICOM": "COL",
  "InstitutionAddress": "Maynard 3,Hanover,NH,US,03755",
  "InstitutionName": "Dartmouth College - PBS",
  "InstitutionalDepartmentName": "Department",
  "MRAcquisitionType": "2D",
  "MagneticFieldStrength": 3,
  "Manufacturer": "Siemens",
  "ManufacturersModelName": "Prisma",
  "Modality": "MR",
  "MultibandAccelerationFactor": 8,
  "PartialFourier": 1,
  "PatientPosition": "HFS",
  "PercentPhaseFOV": 100,
  "PercentSampling": 100,
  "PhaseEncodingDirection": "j-",
  "PhaseEncodingSteps": 82,
  "PhaseResolution": 1,
  "PixelBandwidth": 3050,
  "ProcedureStepDescription": "Wager_Wager^1076_spacetop",
  "ProtocolName": "func_run-01_task-narratives_acq-ap-mb8",
  "PulseSequenceDetails": "%CustomerSeq%\\cmrr_mbep2d_bold",
  "ReceiveCoilActiveElements": "HEA;HEP",
  "ReceiveCoilName": "Head_32",
  "ReconMatrixPE": 82,
  "RepetitionTime": 0.46,
  "SAR": 0.105447,
  "ScanOptions": "FS",
  "ScanningSequence": "EP",
  "SequenceName": "epfid2d1_82",
  "SequenceVariant": "SK\\SS",
  "SeriesDescription": "func_run-01_task-narratives_acq-ap-mb8",
  "SeriesNumber": 8,
  "ShimSetting": [4121, -7773, -7238, 604, 0, -256, -48, 79],
  "SliceThickness": 2.7,
  "SliceTiming": [0, 0.2525, 0.0625, 0.315, 0.125, 0.3775, 0.19, 0, 0.2525, 0.0625, 0.315, 0.125, 0.3775, 0.19, 0, 0.2525, 0.0625, 0.315, 0.125, 0.3775, 0.19, 0, 0.2525, 0.0625, 0.315, 0.125, 0.3775, 0.19, 0, 0.2525, 0.0625, 0.315, 0.125, 0.3775, 0.19, 0, 0.2525, 0.0625, 0.315, 0.125, 0.3775, 0.19, 0, 0.2525, 0.0625, 0.315, 0.125, 0.3775, 0.19, 0, 0.2525, 0.0625, 0.315, 0.125, 0.3775, 0.19],
  "SoftwareVersions": "syngo MR E11",
  "SpacingBetweenSlices": 2.7,
  "StationName": "AWP66112",
  "TaskName": "narratives",
  "TotalReadoutTime": 0.03969,
  "TxRefAmp": 250.498,
  "WipMemBlock": "0cdf4b61-bd34-4d92-8273-df7d91cffa7c||Sequence: R016 ve11e/master r/434b28f1; Aug  7 2019 18:53:46 by eja",
  "dcmmeta_affine": [
    [-2.6764578819274902, -0.041110582649707794, -0.1827591359615326, 118.76461029052734],
    [-0.04353693872690201, 2.6823527812957764, 0.034644026309251785, -92.18801879882812],
    [-0.18103711307048798, -0.03728890419006348, 2.693584680557251, -67.0714111328125],
    [0.0, 0.0, 0.0, 1.0]
],
  "dcmmeta_reorient_transform": [
    [0.0, -1.0, 0.0, 81.0],
    [1.0, 0.0, 0.0, 0.0],
    [0.0, 0.0, 1.0, 0.0],
    [0.0, 0.0, 0.0, 1.0]
],
  "dcmmeta_shape": [82, 82, 56, 967],
  "dcmmeta_slice_dim": 2,
  "dcmmeta_version": 0.6,
  "global": {
    "const": {
      "AccessionNumber": "A003959",
      "AcquisitionMatrix": [82, 0, 0, 82],
      "AngioFlag": "N",
      "BitsAllocated": 16,
      "BitsStored": 16,
      "BodyPartExamined": "BRAIN",
      "Columns": 656,
      "EchoNumbers": 1,
      "EchoTime": 27.2,
      "EchoTrainLength": 82,
      "FlipAngle": 44.0,
      "HighBit": 15,
      "ImageOrientationPatient": [0.9975888244301, 0.01622740355097, -0.0674774684333, -0.0153230355328, 0.99978599396568, 0.01389859173142],
      "ImagePositionPatient": [-871.77932896192, -907.41288466357, -28.836076269854],
      "ImageType": [
        "ORIGINAL",
        "PRIMARY",
        "M",
        "MB",
        "ND",
        "NORM",
        "MOSAIC"
],
      "ImagedNucleus": "1H",
      "ImagingFrequency": 123.252179,
      "InPlanePhaseEncodingDirection": "COL",
      "MRAcquisitionType": "2D",
      "MagneticFieldStrength": 3.0,
      "Manufacturer": "SIEMENS",
      "ManufacturerModelName": "Prisma",
      "Modality": "MR",
      "NumberOfAverages": 1.0,
      "NumberOfPhaseEncodingSteps": 82,
      "PercentPhaseFieldOfView": 100.0,
      "PercentSampling": 100.0,
      "PerformedProcedureStepStartTime": "174110.612000",
      "PhotometricInterpretation": "MONOCHROME2",
      "PixelBandwidth": 3050.0,
      "PixelRepresentation": 0,
      "PixelSpacing": [2.6829268932343, 2.6829268932343],
      "ProtocolName": "func_run-01_task-narratives_acq-ap-mb8",
      "RepetitionTime": 460.0,
      "Rows": 656,
      "SAR": 0.10544668936009,
      "SamplesPerPixel": 1,
      "ScanOptions": "FS",
      "ScanningSequence": "EP",
      "SequenceName": "epfid2d1_82",
      "SequenceVariant": [
        "SK",
        "SS"
],
      "SeriesDescription": "func_run-01_task-narratives_acq-ap-mb8",
      "SeriesNumber": 8,
      "SeriesTime": "175250.815000",
      "SliceLocation": -76.133930214642,
      "SliceThickness": 2.7000000476837,
      "SmallestImagePixelValue": 0,
      "SoftwareVersions": "syngo MR E11",
      "SpacingBetweenSlices": 2.7000000224239,
      "SpecificCharacterSet": "ISO_IR 100",
      "StudyID": "2",
      "StudyTime": "174110.555000",
      "TransmitCoilName": "Body",
      "VariableFlipAngleFlag": "N",
      "WindowCenterWidthExplanation": "Algo1"
    },
    "slices": {}
  },
  "time": {
    "samples": {
      "AcquisitionNumber": [1, 2, 3, 4, 5, 6, 7, 8, 9, 10, 11, 12, 13, 14, 15, 16, 17, 18, 19, 20, 21, 22, 23, 24, 25, 26, 27, 28, 29, 30, 31, 32, 33, 34, 35, 36, 37, 38, 39, 40, 41, 42, 43, 44, 45, 46, 47, 48, 49, 50, 51, 52, 53, 54, 55, 56, 57, 58, 59, 60, 61, 62, 63, 64, 65, 66, 67, 68, 69, 70, 71, 72, 73, 74, 75, 76, 77, 78, 79, 80, 81, 82, 83, 84, 85, 86, 87, 88, 89, 90, 91, 92, 93, 94, 95, 96, 97, 98, 99, 100, 101, 102, 103, 104, 105, 106, 107, 108, 109, 110, 111, 112, 113, 114, 115, 116, 117, 118, 119, 120, 121, 122, 123, 124, 125, 126, 127, 128, 129, 130, 131, 132, 133, 134, 135, 136, 137, 138, 139, 140, 141, 142, 143, 144, 145, 146, 147, 148, 149, 150, 151, 152, 153, 154, 155, 156, 157, 158, 159, 160, 161, 162, 163, 164, 165, 166, 167, 168, 169, 170, 171, 172, 173, 174, 175, 176, 177, 178, 179, 180, 181, 182, 183, 184, 185, 186, 187, 188, 189, 190, 191, 192, 193, 194, 195, 196, 197, 198, 199, 200, 201, 202, 203, 204, 205, 206, 207, 208, 209, 210, 211, 212, 213, 214, 215, 216, 217, 218, 219, 220, 221, 222, 223, 224, 225, 226, 227, 228, 229, 230, 231, 232, 233, 234, 235, 236, 237, 238, 239, 240, 241, 242, 243, 244, 245, 246, 247, 248, 249, 250, 251, 252, 253, 254, 255, 256, 257, 258, 259, 260, 261, 262, 263, 264, 265, 266, 267, 268, 269, 270, 271, 272, 273, 274, 275, 276, 277, 278, 279, 280, 281, 282, 283, 284, 285, 286, 287, 288, 289, 290, 291, 292, 293, 294, 295, 296, 297, 298, 299, 300, 301, 302, 303, 304, 305, 306, 307, 308, 309, 310, 311, 312, 313, 314, 315, 316, 317, 318, 319, 320, 321, 322, 323, 324, 325, 326, 327, 328, 329, 330, 331, 332, 333, 334, 335, 336, 337, 338, 339, 340, 341, 342, 343, 344, 345, 346, 347, 348, 349, 350, 351, 352, 353, 354, 355, 356, 357, 358, 359, 360, 361, 362, 363, 364, 365, 366, 367, 368, 369, 370, 371, 372, 373, 374, 375, 376, 377, 378, 379, 380, 381, 382, 383, 384, 385, 386, 387, 388, 389, 390, 391, 392, 393, 394, 395, 396, 397, 398, 399, 400, 401, 402, 403, 404, 405, 406, 407, 408, 409, 410, 411, 412, 413, 414, 415, 416, 417, 418, 419, 420, 421, 422, 423, 424, 425, 426, 427, 428, 429, 430, 431, 432, 433, 434, 435, 436, 437, 438, 439, 440, 441, 442, 443, 444, 445, 446, 447, 448, 449, 450, 451, 452, 453, 454, 455, 456, 457, 458, 459, 460, 461, 462, 463, 464, 465, 466, 467, 468, 469, 470, 471, 472, 473, 474, 475, 476, 477, 478, 479, 480, 481, 482, 483, 484, 485, 486, 487, 488, 489, 490, 491, 492, 493, 494, 495, 496, 497, 498, 499, 500, 501, 502, 503, 504, 505, 506, 507, 508, 509, 510, 511, 512, 513, 514, 515, 516, 517, 518, 519, 520, 521, 522, 523, 524, 525, 526, 527, 528, 529, 530, 531, 532, 533, 534, 535, 536, 537, 538, 539, 540, 541, 542, 543, 544, 545, 546, 547, 548, 549, 550, 551, 552, 553, 554, 555, 556, 557, 558, 559, 560, 561, 562, 563, 564, 565, 566, 567, 568, 569, 570, 571, 572, 573, 574, 575, 576, 577, 578, 579, 580, 581, 582, 583, 584, 585, 586, 587, 588, 589, 590, 591, 592, 593, 594, 595, 596, 597, 598, 599, 600, 601, 602, 603, 604, 605, 606, 607, 608, 609, 610, 611, 612, 613, 614, 615, 616, 617, 618, 619, 620, 621, 622, 623, 624, 625, 626, 627, 628, 629, 630, 631, 632, 633, 634, 635, 636, 637, 638, 639, 640, 641, 642, 643, 644, 645, 646, 647, 648, 649, 650, 651, 652, 653, 654, 655, 656, 657, 658, 659, 660, 661, 662, 663, 664, 665, 666, 667, 668, 669, 670, 671, 672, 673, 674, 675, 676, 677, 678, 679, 680, 681, 682, 683, 684, 685, 686, 687, 688, 689, 690, 691, 692, 693, 694, 695, 696, 697, 698, 699, 700, 701, 702, 703, 704, 705, 706, 707, 708, 709, 710, 711, 712, 713, 714, 715, 716, 717, 718, 719, 720, 721, 722, 723, 724, 725, 726, 727, 728, 729, 730, 731, 732, 733, 734, 735, 736, 737, 738, 739, 740, 741, 742, 743, 744, 745, 746, 747, 748, 749, 750, 751, 752, 753, 754, 755, 756, 757, 758, 759, 760, 761, 762, 763, 764, 765, 766, 767, 768, 769, 770, 771, 772, 773, 774, 775, 776, 777, 778, 779, 780, 781, 782, 783, 784, 785, 786, 787, 788, 789, 790, 791, 792, 793, 794, 795, 796, 797, 798, 799, 800, 801, 802, 803, 804, 805, 806, 807, 808, 809, 810, 811, 812, 813, 814, 815, 816, 817, 818, 819, 820, 821, 822, 823, 824, 825, 826, 827, 828, 829, 830, 831, 832, 833, 834, 835, 836, 837, 838, 839, 840, 841, 842, 843, 844, 845, 846, 847, 848, 849, 850, 851, 852, 853, 854, 855, 856, 857, 858, 859, 860, 861, 862, 863, 864, 865, 866, 867, 868, 869, 870, 871, 872, 873, 874, 875, 876, 877, 878, 879, 880, 881, 882, 883, 884, 885, 886, 887, 888, 889, 890, 891, 892, 893, 894, 895, 896, 897, 898, 899, 900, 901, 902, 903, 904, 905, 906, 907, 908, 909, 910, 911, 912, 913, 914, 915, 916, 917, 918, 919, 920, 921, 922, 923, 924, 925, 926, 927, 928, 929, 930, 931, 932, 933, 934, 935, 936, 937, 938, 939, 940, 941, 942, 943, 944, 945, 946, 947, 948, 949, 950, 951, 952, 953, 954, 955, 956, 957, 958, 959, 960, 961, 962, 963, 964, 965, 966, 967],
      "AcquisitionTime": ["175237.597500", "175238.057500", "175238.517500", "175238.977500", "175239.437500", "175239.897500", "175240.357500", "175240.817500", "175241.277500", "175241.737500", "175242.197500", "175242.657500", "175243.117500", "175243.577500", "175244.037500", "175244.497500", "175244.957500", "175245.417500", "175245.877500", "175246.337500", "175246.797500", "175247.257500", "175247.717500", "175248.177500", "175248.637500", "175249.097500", "175249.557500", "175250.017500", "175250.477500", "175250.937500", "175251.397500", "175251.857500", "175252.317500", "175252.777500", "175253.237500", "175253.697500", "175254.157500", "175254.617500", "175255.077500", "175255.537500", "175255.997500", "175256.457500", "175256.917500", "175257.377500", "175257.837500", "175258.297500", "175258.757500", "175259.217500", "175259.677500", "175300.137500", "175300.597500", "175301.057500", "175301.517500", "175301.977500", "175302.437500", "175302.897500", "175303.357500", "175303.817500", "175304.277500", "175304.737500", "175305.197500", "175305.657500", "175306.117500", "175306.577500", "175307.037500", "175307.497500", "175307.957500", "175308.417500", "175308.877500", "175309.337500", "175309.797500", "175310.257500", "175310.717500", "175311.177500", "175311.637500", "175312.097500", "175312.557500", "175313.017500", "175313.477500", "175313.937500", "175314.397500", "175314.857500", "175315.317500", "175315.777500", "175316.237500", "175316.697500", "175317.157500", "175317.617500", "175318.077500", "175318.537500", "175318.997500", "175319.457500", "175319.917500", "175320.377500", "175320.837500", "175321.297500", "175321.757500", "175322.217500", "175322.677500", "175323.137500", "175323.597500", "175324.057500", "175324.517500", "175324.977500", "175325.437500", "175325.897500", "175326.357500", "175326.817500", "175327.277500", "175327.737500", "175328.197500", "175328.657500", "175329.117500", "175329.577500", "175330.037500", "175330.497500", "175330.957500", "175331.417500", "175331.877500", "175332.337500", "175332.797500", "175333.257500", "175333.717500", "175334.177500", "175334.637500", "175335.097500", "175335.557500", "175336.017500", "175336.477500", "175336.937500", "175337.397500", "175337.857500", "175338.317500", "175338.777500", "175339.237500", "175339.697500", "175340.157500", "175340.617500", "175341.077500", "175341.537500", "175341.997500", "175342.457500", "175342.917500", "175343.377500", "175343.837500", "175344.297500", "175344.757500", "175345.217500", "175345.677500", "175346.137500", "175346.597500", "175347.057500", "175347.517500", "175347.977500", "175348.437500", "175348.897500", "175349.357500", "175349.817500", "175350.277500", "175350.737500", "175351.197500", "175351.657500", "175352.117500", "175352.577500", "175353.037500", "175353.497500", "175353.957500", "175354.417500", "175354.877500", "175355.337500", "175355.797500", "175356.257500", "175356.717500", "175357.177500", "175357.637500", "175358.097500", "175358.557500", "175359.017500", "175359.477500", "175359.937500", "175400.397500", "175400.857500", "175401.317500", "175401.777500", "175402.237500", "175402.697500", "175403.157500", "175403.617500", "175404.077500", "175404.537500", "175404.997500", "175405.457500", "175405.917500", "175406.377500", "175406.837500", "175407.297500", "175407.757500", "175408.217500", "175408.677500", "175409.137500", "175409.597500", "175410.057500", "175410.517500", "175410.977500", "175411.437500", "175411.897500", "175412.357500", "175412.817500", "175413.277500", "175413.737500", "175414.197500", "175414.657500", "175415.117500", "175415.577500", "175416.037500", "175416.497500", "175416.957500", "175417.417500", "175417.877500", "175418.337500", "175418.797500", "175419.257500", "175419.717500", "175420.177500", "175420.637500", "175421.097500", "175421.557500", "175422.017500", "175422.477500", "175422.937500", "175423.397500", "175423.857500", "175424.317500", "175424.777500", "175425.237500", "175425.697500", "175426.157500", "175426.617500", "175427.077500", "175427.537500", "175427.997500", "175428.457500", "175428.917500", "175429.377500", "175429.837500", "175430.297500", "175430.757500", "175431.217500", "175431.677500", "175432.137500", "175432.597500", "175433.057500", "175433.517500", "175433.977500", "175434.437500", "175434.897500", "175435.357500", "175435.817500", "175436.277500", "175436.737500", "175437.197500", "175437.657500", "175438.117500", "175438.577500", "175439.037500", "175439.497500", "175439.957500", "175440.417500", "175440.877500", "175441.337500", "175441.797500", "175442.257500", "175442.717500", "175443.177500", "175443.637500", "175444.097500", "175444.557500", "175445.017500", "175445.477500", "175445.937500", "175446.397500", "175446.857500", "175447.317500", "175447.777500", "175448.237500", "175448.697500", "175449.157500", "175449.617500", "175450.077500", "175450.537500", "175450.997500", "175451.457500", "175451.917500", "175452.377500", "175452.837500", "175453.297500", "175453.757500", "175454.217500", "175454.677500", "175455.137500", "175455.597500", "175456.057500", "175456.517500", "175456.977500", "175457.437500", "175457.897500", "175458.357500", "175458.817500", "175459.277500", "175459.737500", "175500.197500", "175500.657500", "175501.117500", "175501.577500", "175502.037500", "175502.497500", "175502.957500", "175503.417500", "175503.877500", "175504.337500", "175504.797500", "175505.257500", "175505.717500", "175506.177500", "175506.637500", "175507.097500", "175507.557500", "175508.017500", "175508.477500", "175508.937500", "175509.397500", "175509.857500", "175510.317500", "175510.777500", "175511.237500", "175511.697500", "175512.157500", "175512.617500", "175513.077500", "175513.537500", "175513.997500", "175514.457500", "175514.917500", "175515.377500", "175515.837500", "175516.297500", "175516.757500", "175517.217500", "175517.677500", "175518.137500", "175518.597500", "175519.057500", "175519.517500", "175519.977500", "175520.437500", "175520.897500", "175521.357500", "175521.817500", "175522.277500", "175522.737500", "175523.197500", "175523.657500", "175524.117500", "175524.577500", "175525.037500", "175525.497500", "175525.957500", "175526.417500", "175526.877500", "175527.337500", "175527.797500", "175528.257500", "175528.717500", "175529.177500", "175529.637500", "175530.097500", "175530.557500", "175531.017500", "175531.477500", "175531.937500", "175532.397500", "175532.857500", "175533.317500", "175533.777500", "175534.237500", "175534.697500", "175535.157500", "175535.617500", "175536.077500", "175536.537500", "175536.997500", "175537.457500", "175537.917500", "175538.377500", "175538.837500", "175539.297500", "175539.757500", "175540.217500", "175540.677500", "175541.137500", "175541.597500", "175542.057500", "175542.517500", "175542.977500", "175543.437500", "175543.897500", "175544.357500", "175544.817500", "175545.277500", "175545.737500", "175546.197500", "175546.657500", "175547.117500", "175547.577500", "175548.037500", "175548.497500", "175548.957500", "175549.417500", "175549.877500", "175550.337500", "175550.797500", "175551.257500", "175551.717500", "175552.177500", "175552.637500", "175553.097500", "175553.557500", "175554.017500", "175554.477500", "175554.937500", "175555.397500", "175555.857500", "175556.317500", "175556.777500", "175557.237500", "175557.697500", "175558.157500", "175558.617500", "175559.077500", "175559.537500", "175559.997500", "175600.457500", "175600.917500", "175601.377500", "175601.837500", "175602.297500", "175602.757500", "175603.217500", "175603.677500", "175604.137500", "175604.597500", "175605.057500", "175605.517500", "175605.977500", "175606.437500", "175606.897500", "175607.357500", "175607.817500", "175608.277500", "175608.737500", "175609.197500", "175609.657500", "175610.117500", "175610.577500", "175611.037500", "175611.497500", "175611.957500", "175612.417500", "175612.877500", "175613.337500", "175613.797500", "175614.257500", "175614.717500", "175615.177500", "175615.637500", "175616.097500", "175616.557500", "175617.017500", "175617.477500", "175617.937500", "175618.397500", "175618.857500", "175619.317500", "175619.777500", "175620.237500", "175620.697500", "175621.157500", "175621.617500", "175622.077500", "175622.537500", "175622.997500", "175623.457500", "175623.917500", "175624.377500", "175624.837500", "175625.297500", "175625.757500", "175626.217500", "175626.677500", "175627.137500", "175627.597500", "175628.057500", "175628.517500", "175628.977500", "175629.437500", "175629.897500", "175630.357500", "175630.817500", "175631.277500", "175631.737500", "175632.197500", "175632.657500", "175633.117500", "175633.577500", "175634.037500", "175634.497500", "175634.957500", "175635.417500", "175635.877500", "175636.337500", "175636.797500", "175637.257500", "175637.717500", "175638.177500", "175638.637500", "175639.097500", "175639.557500", "175640.017500", "175640.477500", "175640.937500", "175641.397500", "175641.857500", "175642.317500", "175642.777500", "175643.237500", "175643.697500", "175644.157500", "175644.617500", "175645.077500", "175645.537500", "175645.997500", "175646.457500", "175646.917500", "175647.377500", "175647.837500", "175648.297500", "175648.757500", "175649.217500", "175649.677500", "175650.137500", "175650.597500", "175651.057500", "175651.517500", "175651.977500", "175652.437500", "175652.897500", "175653.357500", "175653.817500", "175654.277500", "175654.737500", "175655.197500", "175655.657500", "175656.117500", "175656.577500", "175657.037500", "175657.497500", "175657.957500", "175658.417500", "175658.877500", "175659.337500", "175659.797500", "175700.257500", "175700.717500", "175701.177500", "175701.637500", "175702.097500", "175702.557500", "175703.017500", "175703.477500", "175703.937500", "175704.397500", "175704.857500", "175705.317500", "175705.777500", "175706.237500", "175706.697500", "175707.157500", "175707.617500", "175708.077500", "175708.537500", "175708.997500", "175709.457500", "175709.917500", "175710.377500", "175710.837500", "175711.297500", "175711.757500", "175712.217500", "175712.677500", "175713.137500", "175713.597500", "175714.057500", "175714.517500", "175714.977500", "175715.437500", "175715.897500", "175716.357500", "175716.817500", "175717.277500", "175717.737500", "175718.197500", "175718.657500", "175719.117500", "175719.577500", "175720.037500", "175720.497500", "175720.957500", "175721.417500", "175721.877500", "175722.337500", "175722.797500", "175723.257500", "175723.717500", "175724.177500", "175724.637500", "175725.097500", "175725.557500", "175726.017500", "175726.477500", "175726.937500", "175727.397500", "175727.857500", "175728.317500", "175728.777500", "175729.237500", "175729.697500", "175730.157500", "175730.617500", "175731.077500", "175731.537500", "175731.997500", "175732.457500", "175732.917500", "175733.377500", "175733.837500", "175734.297500", "175734.757500", "175735.217500", "175735.677500", "175736.137500", "175736.597500", "175737.057500", "175737.517500", "175737.977500", "175738.437500", "175738.897500", "175739.357500", "175739.817500", "175740.277500", "175740.737500", "175741.197500", "175741.657500", "175742.117500", "175742.577500", "175743.037500", "175743.497500", "175743.957500", "175744.417500", "175744.877500", "175745.337500", "175745.797500", "175746.257500", "175746.717500", "175747.177500", "175747.637500", "175748.097500", "175748.557500", "175749.017500", "175749.477500", "175749.937500", "175750.397500", "175750.857500", "175751.317500", "175751.777500", "175752.237500", "175752.697500", "175753.157500", "175753.617500", "175754.077500", "175754.537500", "175754.997500", "175755.457500", "175755.917500", "175756.377500", "175756.837500", "175757.297500", "175757.757500", "175758.217500", "175758.677500", "175759.137500", "175759.597500", "175800.057500", "175800.517500", "175800.977500", "175801.437500", "175801.897500", "175802.357500", "175802.817500", "175803.277500", "175803.737500", "175804.197500", "175804.657500", "175805.117500", "175805.577500", "175806.037500", "175806.497500", "175806.957500", "175807.417500", "175807.877500", "175808.337500", "175808.797500", "175809.257500", "175809.717500", "175810.177500", "175810.637500", "175811.097500", "175811.557500", "175812.017500", "175812.477500", "175812.937500", "175813.397500", "175813.857500", "175814.317500", "175814.777500", "175815.237500", "175815.697500", "175816.157500", "175816.617500", "175817.077500", "175817.537500", "175817.997500", "175818.457500", "175818.917500", "175819.377500", "175819.837500", "175820.297500", "175820.757500", "175821.217500", "175821.677500", "175822.137500", "175822.597500", "175823.057500", "175823.517500", "175823.977500", "175824.437500", "175824.897500", "175825.357500", "175825.817500", "175826.277500", "175826.737500", "175827.197500", "175827.657500", "175828.117500", "175828.577500", "175829.037500", "175829.497500", "175829.957500", "175830.417500", "175830.877500", "175831.337500", "175831.797500", "175832.257500", "175832.717500", "175833.177500", "175833.637500", "175834.097500", "175834.557500", "175835.017500", "175835.477500", "175835.937500", "175836.397500", "175836.857500", "175837.317500", "175837.777500", "175838.237500", "175838.697500", "175839.157500", "175839.617500", "175840.077500", "175840.537500", "175840.997500", "175841.457500", "175841.917500", "175842.377500", "175842.837500", "175843.297500", "175843.757500", "175844.217500", "175844.677500", "175845.137500", "175845.597500", "175846.057500", "175846.517500", "175846.977500", "175847.437500", "175847.897500", "175848.357500", "175848.817500", "175849.277500", "175849.737500", "175850.197500", "175850.657500", "175851.117500", "175851.577500", "175852.037500", "175852.497500", "175852.957500", "175853.417500", "175853.877500", "175854.337500", "175854.797500", "175855.257500", "175855.717500", "175856.177500", "175856.637500", "175857.097500", "175857.557500", "175858.017500", "175858.477500", "175858.937500", "175859.397500", "175859.857500", "175900.317500", "175900.777500", "175901.237500", "175901.697500", "175902.157500", "175902.617500", "175903.077500", "175903.537500", "175903.997500", "175904.457500", "175904.917500", "175905.377500", "175905.837500", "175906.297500", "175906.757500", "175907.217500", "175907.677500", "175908.137500", "175908.597500", "175909.057500", "175909.517500", "175909.977500", "175910.437500", "175910.897500", "175911.357500", "175911.817500", "175912.277500", "175912.737500", "175913.197500", "175913.657500", "175914.117500", "175914.577500", "175915.037500", "175915.497500", "175915.957500", "175916.417500", "175916.877500", "175917.337500", "175917.797500", "175918.257500", "175918.717500", "175919.177500", "175919.637500", "175920.097500", "175920.557500", "175921.017500", "175921.477500", "175921.937500", "175922.397500", "175922.857500", "175923.317500", "175923.777500", "175924.237500", "175924.697500", "175925.157500", "175925.617500", "175926.077500", "175926.537500", "175926.997500", "175927.457500", "175927.917500", "175928.377500", "175928.837500", "175929.297500", "175929.757500", "175930.217500", "175930.677500", "175931.137500", "175931.597500", "175932.057500", "175932.517500", "175932.977500", "175933.437500", "175933.897500", "175934.357500", "175934.817500", "175935.277500", "175935.737500", "175936.197500", "175936.657500", "175937.117500", "175937.577500", "175938.037500", "175938.497500", "175938.957500", "175939.417500", "175939.877500", "175940.337500", "175940.797500", "175941.257500", "175941.717500", "175942.177500", "175942.637500", "175943.097500", "175943.557500", "175944.017500", "175944.477500", "175944.937500", "175945.397500", "175945.857500", "175946.317500", "175946.777500", "175947.237500", "175947.697500", "175948.157500", "175948.617500", "175949.077500", "175949.537500", "175949.997500", "175950.457500", "175950.917500", "175951.377500", "175951.837500", "175952.297500", "175952.757500", "175953.217500", "175953.677500", "175954.137500", "175954.597500", "175955.057500", "175955.517500", "175955.977500", "175956.437500", "175956.897500", "175957.357500", "175957.817500", "175958.277500", "175958.737500", "175959.197500", "175959.657500", "180000.117500", "180000.577500", "180001.037500", "180001.497500", "180001.957500"],
