{
  "AcquisitionMatrixPE": 82,
  "AcquisitionNumber": 1,
  "AcquisitionTime": "18:55:45.560000",
  "BandwidthPerPixelPhaseEncode": 24.888,
  "BaseResolution": 82,
  "BodyPartExamined": "BRAIN",
  "ConsistencyInfo": "N4_VE11E_LATEST_20181129",
  "ConversionSoftware": "dcm2niix",
  "ConversionSoftwareVersion": "v1.0.20201102",
  "DerivedVendorReportedEchoSpacing": 0.00049,
  "DeviceSerialNumber": "66112",
  "DwellTime": 2e-06,
  "EchoTime": 0.0272,
  "EchoTrainLength": 82,
  "EffectiveEchoSpacing": 0.00049,
  "FlipAngle": 44,
  "ImageComments": "Unaliased MB8/PE3",
  "ImageOrientationPatientDICOM": [0.998404, 0.00919271, -0.0557291, -0.00853867, 0.999892, 0.0119629],
  "ImageType": [
    "ORIGINAL",
    "PRIMARY",
    "M",
    "MB",
    "ND",
    "NORM",
    "MOSAIC"
],
  "ImagingFrequency": 123.252,
  "InPlanePhaseEncodingDirectionDICOM": "COL",
  "InstitutionAddress": "Maynard 3,Hanover,NH,US,03755",
  "InstitutionName": "Dartmouth College - PBS",
  "InstitutionalDepartmentName": "Department",
  "MRAcquisitionType": "2D",
  "MagneticFieldStrength": 3,
  "Manufacturer": "Siemens",
  "ManufacturersModelName": "Prisma",
  "Modality": "MR",
  "MultibandAccelerationFactor": 8,
  "PartialFourier": 1,
  "PatientPosition": "HFS",
  "PercentPhaseFOV": 100,
  "PercentSampling": 100,
  "PhaseEncodingDirection": "j-",
  "PhaseEncodingSteps": 82,
  "PhaseResolution": 1,
  "PixelBandwidth": 3050,
  "ProcedureStepDescription": "Wager_Wager^1076_spacetop",
  "ProtocolName": "func_run-01_task-alignvideo_acq-ap-mb8",
  "PulseSequenceDetails": "%CustomerSeq%\\cmrr_mbep2d_bold",
  "ReceiveCoilActiveElements": "HEA;HEP",
  "ReceiveCoilName": "Head_32",
  "ReconMatrixPE": 82,
  "RepetitionTime": 0.46,
  "SAR": 0.105357,
  "ScanOptions": "FS",
  "ScanningSequence": "EP",
  "SequenceName": "epfid2d1_82",
  "SequenceVariant": "SK\\SS",
  "SeriesDescription": "func_run-01_task-alignvideo_acq-ap-mb8",
  "SeriesNumber": 28,
  "ShimSetting": [4121, -7771, -7237, 603, -5, -241, -46, 80],
  "SliceThickness": 2.7,
  "SliceTiming": [0, 0.25, 0.0625, 0.3125, 0.125, 0.375, 0.1875, 0, 0.25, 0.0625, 0.3125, 0.125, 0.375, 0.1875, 0, 0.25, 0.0625, 0.3125, 0.125, 0.375, 0.1875, 0, 0.25, 0.0625, 0.3125, 0.125, 0.375, 0.1875, 0, 0.25, 0.0625, 0.3125, 0.125, 0.375, 0.1875, 0, 0.25, 0.0625, 0.3125, 0.125, 0.375, 0.1875, 0, 0.25, 0.0625, 0.3125, 0.125, 0.375, 0.1875, 0, 0.25, 0.0625, 0.3125, 0.125, 0.375, 0.1875],
  "SoftwareVersions": "syngo MR E11",
  "SpacingBetweenSlices": 2.7,
  "StationName": "AWP66112",
  "TaskName": "alignvideo",
  "TotalReadoutTime": 0.03969,
  "TxRefAmp": 250.498,
  "WipMemBlock": "d6d4d057-5725-45f8-bcf5-9faf08e6b4ca||Sequence: R016 ve11e/master r/434b28f1; Aug  7 2019 18:53:46 by eja",
  "dcmmeta_affine": [
    [-2.6786439418792725, -0.022908618673682213, -0.1507492959499359, 117.4549789428711],
    [-0.024663375690579414, 2.6826369762420654, 0.030963556841015816, -93.37109375],
    [-0.14951716363430023, -0.03209567815065384, 2.695610523223877, -65.35345458984375],
    [0.0, 0.0, 0.0, 1.0]
],
  "dcmmeta_reorient_transform": [
    [0.0, -1.0, 0.0, 81.0],
    [1.0, 0.0, 0.0, 0.0],
    [0.0, 0.0, 1.0, 0.0],
    [0.0, 0.0, 0.0, 1.0]
],
  "dcmmeta_shape": [82, 82, 56, 839],
  "dcmmeta_slice_dim": 2,
  "dcmmeta_version": 0.6,
  "global": {
    "const": {
      "AccessionNumber": "A003959",
      "AcquisitionMatrix": [82, 0, 0, 82],
      "AngioFlag": "N",
      "BitsAllocated": 16,
      "BitsStored": 16,
      "BodyPartExamined": "BRAIN",
      "Columns": 656,
      "EchoNumbers": 1,
      "EchoTime": 27.2,
      "EchoTrainLength": 82,
      "FlipAngle": 44.0,
      "HighBit": 15,
      "ImageOrientationPatient": [0.99840360525912, 0.00919271271695, -0.0557291219965, -0.0085386670189, 0.99989198385162, 0.0119629342057],
      "ImagePositionPatient": [-877.79539981806, -900.91774236131, -34.25324039809],
      "ImageType": [
        "ORIGINAL",
        "PRIMARY",
        "M",
        "MB",
        "ND",
        "NORM",
        "MOSAIC"
],
      "ImagedNucleus": "1H",
      "ImagingFrequency": 123.252191,
      "InPlanePhaseEncodingDirection": "COL",
      "MRAcquisitionType": "2D",
      "MagneticFieldStrength": 3.0,
      "Manufacturer": "SIEMENS",
      "ManufacturerModelName": "Prisma",
      "Modality": "MR",
      "NumberOfAverages": 1.0,
      "NumberOfPhaseEncodingSteps": 82,
      "PercentPhaseFieldOfView": 100.0,
      "PercentSampling": 100.0,
      "PerformedProcedureStepStartTime": "174110.612000",
      "PhotometricInterpretation": "MONOCHROME2",
      "PixelBandwidth": 3050.0,
      "PixelRepresentation": 0,
      "PixelSpacing": [2.6829268932343, 2.6829268932343],
      "ProtocolName": "func_run-01_task-alignvideo_acq-ap-mb8",
      "RepetitionTime": 460.0,
      "Rows": 656,
      "SAR": 0.10535663446955,
      "SamplesPerPixel": 1,
      "ScanOptions": "FS",
      "ScanningSequence": "EP",
      "SequenceName": "epfid2d1_82",
      "SequenceVariant": [
        "SK",
        "SS"
],
      "SeriesDescription": "func_run-01_task-alignvideo_acq-ap-mb8",
      "SeriesNumber": 28,
      "SeriesTime": "185610.888000",
      "SliceLocation": -72.875858571982,
      "SliceThickness": 2.7000000476837,
      "SmallestImagePixelValue": 0,
      "SoftwareVersions": "syngo MR E11",
      "SpacingBetweenSlices": 2.6999999744957,
      "SpecificCharacterSet": "ISO_IR 100",
      "StudyID": "2",
      "StudyTime": "174110.555000",
      "TransmitCoilName": "Body",
      "VariableFlipAngleFlag": "N",
      "WindowCenterWidthExplanation": "Algo1"
    },
    "slices": {}
  },
  "time": {
    "samples": {
      "AcquisitionNumber": [1, 2, 3, 4, 5, 6, 7, 8, 9, 10, 11, 12, 13, 14, 15, 16, 17, 18, 19, 20, 21, 22, 23, 24, 25, 26, 27, 28, 29, 30, 31, 32, 33, 34, 35, 36, 37, 38, 39, 40, 41, 42, 43, 44, 45, 46, 47, 48, 49, 50, 51, 52, 53, 54, 55, 56, 57, 58, 59, 60, 61, 62, 63, 64, 65, 66, 67, 68, 69, 70, 71, 72, 73, 74, 75, 76, 77, 78, 79, 80, 81, 82, 83, 84, 85, 86, 87, 88, 89, 90, 91, 92, 93, 94, 95, 96, 97, 98, 99, 100, 101, 102, 103, 104, 105, 106, 107, 108, 109, 110, 111, 112, 113, 114, 115, 116, 117, 118, 119, 120, 121, 122, 123, 124, 125, 126, 127, 128, 129, 130, 131, 132, 133, 134, 135, 136, 137, 138, 139, 140, 141, 142, 143, 144, 145, 146, 147, 148, 149, 150, 151, 152, 153, 154, 155, 156, 157, 158, 159, 160, 161, 162, 163, 164, 165, 166, 167, 168, 169, 170, 171, 172, 173, 174, 175, 176, 177, 178, 179, 180, 181, 182, 183, 184, 185, 186, 187, 188, 189, 190, 191, 192, 193, 194, 195, 196, 197, 198, 199, 200, 201, 202, 203, 204, 205, 206, 207, 208, 209, 210, 211, 212, 213, 214, 215, 216, 217, 218, 219, 220, 221, 222, 223, 224, 225, 226, 227, 228, 229, 230, 231, 232, 233, 234, 235, 236, 237, 238, 239, 240, 241, 242, 243, 244, 245, 246, 247, 248, 249, 250, 251, 252, 253, 254, 255, 256, 257, 258, 259, 260, 261, 262, 263, 264, 265, 266, 267, 268, 269, 270, 271, 272, 273, 274, 275, 276, 277, 278, 279, 280, 281, 282, 283, 284, 285, 286, 287, 288, 289, 290, 291, 292, 293, 294, 295, 296, 297, 298, 299, 300, 301, 302, 303, 304, 305, 306, 307, 308, 309, 310, 311, 312, 313, 314, 315, 316, 317, 318, 319, 320, 321, 322, 323, 324, 325, 326, 327, 328, 329, 330, 331, 332, 333, 334, 335, 336, 337, 338, 339, 340, 341, 342, 343, 344, 345, 346, 347, 348, 349, 350, 351, 352, 353, 354, 355, 356, 357, 358, 359, 360, 361, 362, 363, 364, 365, 366, 367, 368, 369, 370, 371, 372, 373, 374, 375, 376, 377, 378, 379, 380, 381, 382, 383, 384, 385, 386, 387, 388, 389, 390, 391, 392, 393, 394, 395, 396, 397, 398, 399, 400, 401, 402, 403, 404, 405, 406, 407, 408, 409, 410, 411, 412, 413, 414, 415, 416, 417, 418, 419, 420, 421, 422, 423, 424, 425, 426, 427, 428, 429, 430, 431, 432, 433, 434, 435, 436, 437, 438, 439, 440, 441, 442, 443, 444, 445, 446, 447, 448, 449, 450, 451, 452, 453, 454, 455, 456, 457, 458, 459, 460, 461, 462, 463, 464, 465, 466, 467, 468, 469, 470, 471, 472, 473, 474, 475, 476, 477, 478, 479, 480, 481, 482, 483, 484, 485, 486, 487, 488, 489, 490, 491, 492, 493, 494, 495, 496, 497, 498, 499, 500, 501, 502, 503, 504, 505, 506, 507, 508, 509, 510, 511, 512, 513, 514, 515, 516, 517, 518, 519, 520, 521, 522, 523, 524, 525, 526, 527, 528, 529, 530, 531, 532, 533, 534, 535, 536, 537, 538, 539, 540, 541, 542, 543, 544, 545, 546, 547, 548, 549, 550, 551, 552, 553, 554, 555, 556, 557, 558, 559, 560, 561, 562, 563, 564, 565, 566, 567, 568, 569, 570, 571, 572, 573, 574, 575, 576, 577, 578, 579, 580, 581, 582, 583, 584, 585, 586, 587, 588, 589, 590, 591, 592, 593, 594, 595, 596, 597, 598, 599, 600, 601, 602, 603, 604, 605, 606, 607, 608, 609, 610, 611, 612, 613, 614, 615, 616, 617, 618, 619, 620, 621, 622, 623, 624, 625, 626, 627, 628, 629, 630, 631, 632, 633, 634, 635, 636, 637, 638, 639, 640, 641, 642, 643, 644, 645, 646, 647, 648, 649, 650, 651, 652, 653, 654, 655, 656, 657, 658, 659, 660, 661, 662, 663, 664, 665, 666, 667, 668, 669, 670, 671, 672, 673, 674, 675, 676, 677, 678, 679, 680, 681, 682, 683, 684, 685, 686, 687, 688, 689, 690, 691, 692, 693, 694, 695, 696, 697, 698, 699, 700, 701, 702, 703, 704, 705, 706, 707, 708, 709, 710, 711, 712, 713, 714, 715, 716, 717, 718, 719, 720, 721, 722, 723, 724, 725, 726, 727, 728, 729, 730, 731, 732, 733, 734, 735, 736, 737, 738, 739, 740, 741, 742, 743, 744, 745, 746, 747, 748, 749, 750, 751, 752, 753, 754, 755, 756, 757, 758, 759, 760, 761, 762, 763, 764, 765, 766, 767, 768, 769, 770, 771, 772, 773, 774, 775, 776, 777, 778, 779, 780, 781, 782, 783, 784, 785, 786, 787, 788, 789, 790, 791, 792, 793, 794, 795, 796, 797, 798, 799, 800, 801, 802, 803, 804, 805, 806, 807, 808, 809, 810, 811, 812, 813, 814, 815, 816, 817, 818, 819, 820, 821, 822, 823, 824, 825, 826, 827, 828, 829, 830, 831, 832, 833, 834, 835, 836, 837, 838, 839],
      "AcquisitionTime": ["185545.560000", "185546.020000", "185546.480000", "185546.940000", "185547.400000", "185547.860000", "185548.320000", "185548.780000", "185549.240000", "185549.700000", "185550.160000", "185550.620000", "185551.080000", "185551.540000", "185552.000000", "185552.460000", "185552.920000", "185553.380000", "185553.840000", "185554.300000", "185554.760000", "185555.220000", "185555.680000", "185556.140000", "185556.600000", "185557.060000", "185557.520000", "185557.980000", "185558.440000", "185558.900000", "185559.360000", "185559.820000", "185600.280000", "185600.740000", "185601.200000", "185601.660000", "185602.120000", "185602.580000", "185603.040000", "185603.500000", "185603.960000", "185604.420000", "185604.880000", "185605.340000", "185605.800000", "185606.260000", "185606.720000", "185607.180000", "185607.640000", "185608.100000", "185608.560000", "185609.020000", "185609.480000", "185609.940000", "185610.400000", "185610.860000", "185611.320000", "185611.780000", "185612.240000", "185612.700000", "185613.160000", "185613.620000", "185614.080000", "185614.540000", "185615.000000", "185615.460000", "185615.920000", "185616.380000", "185616.840000", "185617.300000", "185617.760000", "185618.220000", "185618.680000", "185619.140000", "185619.600000", "185620.060000", "185620.520000", "185620.980000", "185621.440000", "185621.900000", "185622.360000", "185622.820000", "185623.280000", "185623.740000", "185624.200000", "185624.660000", "185625.120000", "185625.580000", "185626.040000", "185626.500000", "185626.960000", "185627.420000", "185627.880000", "185628.340000", "185628.800000", "185629.260000", "185629.720000", "185630.180000", "185630.640000", "185631.100000", "185631.560000", "185632.020000", "185632.480000", "185632.940000", "185633.400000", "185633.860000", "185634.320000", "185634.780000", "185635.240000", "185635.700000", "185636.160000", "185636.620000", "185637.080000", "185637.540000", "185638.000000", "185638.460000", "185638.920000", "185639.380000", "185639.840000", "185640.300000", "185640.760000", "185641.220000", "185641.680000", "185642.140000", "185642.600000", "185643.060000", "185643.520000", "185643.980000", "185644.440000", "185644.900000", "185645.360000", "185645.820000", "185646.280000", "185646.740000", "185647.200000", "185647.660000", "185648.120000", "185648.580000", "185649.040000", "185649.500000", "185649.960000", "185650.420000", "185650.880000", "185651.340000", "185651.800000", "185652.260000", "185652.720000", "185653.180000", "185653.640000", "185654.100000", "185654.560000", "185655.020000", "185655.480000", "185655.940000", "185656.400000", "185656.860000", "185657.320000", "185657.780000", "185658.240000", "185658.700000", "185659.160000", "185659.620000", "185700.080000", "185700.540000", "185701.000000", "185701.460000", "185701.920000", "185702.380000", "185702.840000", "185703.300000", "185703.760000", "185704.220000", "185704.680000", "185705.140000", "185705.600000", "185706.060000", "185706.520000", "185706.980000", "185707.440000", "185707.900000", "185708.360000", "185708.820000", "185709.280000", "185709.740000", "185710.200000", "185710.660000", "185711.120000", "185711.580000", "185712.040000", "185712.500000", "185712.960000", "185713.420000", "185713.880000", "185714.340000", "185714.800000", "185715.260000", "185715.720000", "185716.180000", "185716.640000", "185717.100000", "185717.560000", "185718.020000", "185718.480000", "185718.940000", "185719.400000", "185719.860000", "185720.320000", "185720.780000", "185721.240000", "185721.700000", "185722.160000", "185722.620000", "185723.080000", "185723.540000", "185724.000000", "185724.460000", "185724.920000", "185725.380000", "185725.840000", "185726.300000", "185726.760000", "185727.220000", "185727.680000", "185728.140000", "185728.600000", "185729.060000", "185729.520000", "185729.980000", "185730.440000", "185730.900000", "185731.360000", "185731.820000", "185732.280000", "185732.740000", "185733.200000", "185733.660000", "185734.120000", "185734.580000", "185735.040000", "185735.500000", "185735.960000", "185736.420000", "185736.880000", "185737.340000", "185737.800000", "185738.260000", "185738.720000", "185739.180000", "185739.640000", "185740.100000", "185740.560000", "185741.020000", "185741.480000", "185741.940000", "185742.400000", "185742.860000", "185743.320000", "185743.780000", "185744.240000", "185744.700000", "185745.160000", "185745.620000", "185746.080000", "185746.540000", "185747.000000", "185747.460000", "185747.920000", "185748.380000", "185748.840000", "185749.300000", "185749.760000", "185750.220000", "185750.680000", "185751.140000", "185751.600000", "185752.060000", "185752.520000", "185752.980000", "185753.440000", "185753.900000", "185754.360000", "185754.820000", "185755.280000", "185755.740000", "185756.200000", "185756.660000", "185757.120000", "185757.580000", "185758.040000", "185758.500000", "185758.960000", "185759.420000", "185759.880000", "185800.340000", "185800.800000", "185801.260000", "185801.720000", "185802.180000", "185802.640000", "185803.100000", "185803.560000", "185804.020000", "185804.480000", "185804.940000", "185805.400000", "185805.860000", "185806.320000", "185806.780000", "185807.240000", "185807.700000", "185808.160000", "185808.620000", "185809.080000", "185809.540000", "185810.000000", "185810.460000", "185810.920000", "185811.380000", "185811.840000", "185812.300000", "185812.760000", "185813.220000", "185813.680000", "185814.140000", "185814.600000", "185815.060000", "185815.520000", "185815.980000", "185816.440000", "185816.900000", "185817.360000", "185817.820000", "185818.280000", "185818.740000", "185819.200000", "185819.660000", "185820.120000", "185820.580000", "185821.040000", "185821.500000", "185821.960000", "185822.420000", "185822.880000", "185823.340000", "185823.800000", "185824.260000", "185824.720000", "185825.180000", "185825.640000", "185826.100000", "185826.560000", "185827.020000", "185827.480000", "185827.940000", "185828.400000", "185828.860000", "185829.320000", "185829.780000", "185830.240000", "185830.700000", "185831.160000", "185831.620000", "185832.080000", "185832.540000", "185833.000000", "185833.460000", "185833.920000", "185834.380000", "185834.840000", "185835.300000", "185835.760000", "185836.220000", "185836.680000", "185837.140000", "185837.600000", "185838.060000", "185838.520000", "185838.980000", "185839.440000", "185839.900000", "185840.360000", "185840.820000", "185841.280000", "185841.740000", "185842.200000", "185842.660000", "185843.120000", "185843.580000", "185844.040000", "185844.500000", "185844.960000", "185845.420000", "185845.880000", "185846.340000", "185846.800000", "185847.260000", "185847.720000", "185848.180000", "185848.640000", "185849.100000", "185849.560000", "185850.020000", "185850.480000", "185850.940000", "185851.400000", "185851.860000", "185852.320000", "185852.780000", "185853.240000", "185853.700000", "185854.160000", "185854.620000", "185855.080000", "185855.540000", "185856.000000", "185856.460000", "185856.920000", "185857.380000", "185857.840000", "185858.300000", "185858.760000", "185859.220000", "185859.680000", "185900.140000", "185900.600000", "185901.060000", "185901.520000", "185901.980000", "185902.440000", "185902.900000", "185903.360000", "185903.820000", "185904.280000", "185904.740000", "185905.200000", "185905.660000", "185906.120000", "185906.580000", "185907.040000", "185907.500000", "185907.960000", "185908.420000", "185908.880000", "185909.340000", "185909.800000", "185910.260000", "185910.720000", "185911.180000", "185911.640000", "185912.100000", "185912.560000", "185913.020000", "185913.480000", "185913.940000", "185914.400000", "185914.860000", "185915.320000", "185915.780000", "185916.240000", "185916.700000", "185917.160000", "185917.620000", "185918.080000", "185918.540000", "185919.000000", "185919.460000", "185919.920000", "185920.380000", "185920.840000", "185921.300000", "185921.760000", "185922.220000", "185922.680000", "185923.140000", "185923.600000", "185924.060000", "185924.520000", "185924.980000", "185925.440000", "185925.900000", "185926.360000", "185926.820000", "185927.280000", "185927.740000", "185928.200000", "185928.660000", "185929.120000", "185929.580000", "185930.040000", "185930.500000", "185930.960000", "185931.420000", "185931.880000", "185932.340000", "185932.800000", "185933.260000", "185933.720000", "185934.180000", "185934.640000", "185935.100000", "185935.560000", "185936.020000", "185936.480000", "185936.940000", "185937.400000", "185937.860000", "185938.320000", "185938.780000", "185939.240000", "185939.700000", "185940.160000", "185940.620000", "185941.080000", "185941.540000", "185942.000000", "185942.460000", "185942.920000", "185943.380000", "185943.840000", "185944.300000", "185944.760000", "185945.220000", "185945.680000", "185946.140000", "185946.600000", "185947.060000", "185947.520000", "185947.980000", "185948.440000", "185948.900000", "185949.360000", "185949.820000", "185950.280000", "185950.740000", "185951.200000", "185951.660000", "185952.120000", "185952.580000", "185953.040000", "185953.500000", "185953.960000", "185954.420000", "185954.880000", "185955.340000", "185955.800000", "185956.260000", "185956.720000", "185957.180000", "185957.640000", "185958.100000", "185958.560000", "185959.020000", "185959.480000", "185959.940000", "190000.400000", "190000.860000", "190001.320000", "190001.780000", "190002.240000", "190002.700000", "190003.160000", "190003.620000", "190004.080000", "190004.540000", "190005.000000", "190005.460000", "190005.920000", "190006.380000", "190006.840000", "190007.300000", "190007.760000", "190008.220000", "190008.680000", "190009.140000", "190009.600000", "190010.060000", "190010.520000", "190010.980000", "190011.440000", "190011.900000", "190012.360000", "190012.820000", "190013.280000", "190013.740000", "190014.200000", "190014.660000", "190015.120000", "190015.580000", "190016.040000", "190016.500000", "190016.960000", "190017.420000", "190017.880000", "190018.340000", "190018.800000", "190019.260000", "190019.720000", "190020.180000", "190020.640000", "190021.100000", "190021.560000", "190022.020000", "190022.480000", "190022.940000", "190023.400000", "190023.860000", "190024.320000", "190024.780000", "190025.240000", "190025.700000", "190026.160000", "190026.620000", "190027.080000", "190027.540000", "190028.000000", "190028.460000", "190028.920000", "190029.380000", "190029.840000", "190030.300000", "190030.760000", "190031.220000", "190031.680000", "190032.140000", "190032.600000", "190033.060000", "190033.520000", "190033.980000", "190034.440000", "190034.900000", "190035.360000", "190035.820000", "190036.280000", "190036.740000", "190037.200000", "190037.660000", "190038.120000", "190038.580000", "190039.040000", "190039.500000", "190039.960000", "190040.420000", "190040.880000", "190041.340000", "190041.800000", "190042.260000", "190042.720000", "190043.180000", "190043.640000", "190044.100000", "190044.560000", "190045.020000", "190045.480000", "190045.940000", "190046.400000", "190046.860000", "190047.320000", "190047.780000", "190048.240000", "190048.700000", "190049.160000", "190049.620000", "190050.080000", "190050.540000", "190051.000000", "190051.460000", "190051.920000", "190052.380000", "190052.840000", "190053.300000", "190053.760000", "190054.220000", "190054.680000", "190055.140000", "190055.600000", "190056.060000", "190056.520000", "190056.980000", "190057.440000", "190057.900000", "190058.360000", "190058.820000", "190059.280000", "190059.740000", "190100.200000", "190100.660000", "190101.120000", "190101.580000", "190102.040000", "190102.500000", "190102.960000", "190103.420000", "190103.880000", "190104.340000", "190104.800000", "190105.260000", "190105.720000", "190106.180000", "190106.640000", "190107.100000", "190107.560000", "190108.020000", "190108.480000", "190108.940000", "190109.400000", "190109.860000", "190110.320000", "190110.780000", "190111.240000", "190111.700000", "190112.160000", "190112.620000", "190113.080000", "190113.540000", "190114.000000", "190114.460000", "190114.920000", "190115.380000", "190115.840000", "190116.300000", "190116.760000", "190117.220000", "190117.680000", "190118.140000", "190118.600000", "190119.060000", "190119.520000", "190119.980000", "190120.440000", "190120.900000", "190121.360000", "190121.820000", "190122.280000", "190122.740000", "190123.200000", "190123.660000", "190124.120000", "190124.580000", "190125.040000", "190125.500000", "190125.960000", "190126.420000", "190126.880000", "190127.340000", "190127.800000", "190128.260000", "190128.720000", "190129.180000", "190129.640000", "190130.100000", "190130.560000", "190131.020000", "190131.480000", "190131.940000", "190132.400000", "190132.860000", "190133.320000", "190133.780000", "190134.240000", "190134.700000", "190135.160000", "190135.620000", "190136.080000", "190136.540000", "190137.000000", "190137.460000", "190137.920000", "190138.380000", "190138.840000", "190139.300000", "190139.760000", "190140.220000", "190140.680000", "190141.140000", "190141.600000", "190142.060000", "190142.520000", "190142.980000", "190143.440000", "190143.900000", "190144.360000", "190144.820000", "190145.280000", "190145.740000", "190146.200000", "190146.660000", "190147.120000", "190147.580000", "190148.040000", "190148.500000", "190148.960000", "190149.420000", "190149.880000", "190150.340000", "190150.800000", "190151.260000", "190151.720000", "190152.180000", "190152.640000", "190153.100000", "190153.560000", "190154.020000", "190154.480000", "190154.940000", "190155.400000", "190155.860000", "190156.320000", "190156.780000", "190157.240000", "190157.700000", "190158.160000", "190158.620000", "190159.080000", "190159.540000", "190200.000000", "190200.460000", "190200.920000", "190201.380000", "190201.840000", "190202.300000", "190202.760000", "190203.220000", "190203.680000", "190204.140000", "190204.600000", "190205.060000", "190205.520000", "190205.980000", "190206.440000", "190206.900000", "190207.360000", "190207.820000", "190208.280000", "190208.740000", "190209.200000", "190209.660000", "190210.120000", "190210.580000", "190211.040000"],
