{
  "AcquisitionMatrixPE": 82,
  "AcquisitionNumber": 1,
  "AcquisitionTime": "18:46:31.550000",
  "BandwidthPerPixelPhaseEncode": 24.888,
  "BaseResolution": 82,
  "BodyPartExamined": "BRAIN",
  "ConsistencyInfo": "N4_VE11E_LATEST_20181129",
  "ConversionSoftware": "dcm2niix",
  "ConversionSoftwareVersion": "v1.0.20201102",
  "DerivedVendorReportedEchoSpacing": 0.00049,
  "DeviceSerialNumber": "66112",
  "DwellTime": 2e-06,
  "EchoTime": 0.0272,
  "EchoTrainLength": 82,
  "EffectiveEchoSpacing": 0.00049,
  "FlipAngle": 44,
  "ImageComments": "Unaliased MB8/PE3",
  "ImageOrientationPatientDICOM": [0.997589, 0.0162274, -0.0674775, -0.015323, 0.999786, 0.0138986],
  "ImageType": [
    "ORIGINAL",
    "PRIMARY",
    "M",
    "MB",
    "ND",
    "NORM",
    "MOSAIC"
],
  "ImagingFrequency": 123.252,
  "InPlanePhaseEncodingDirectionDICOM": "COL",
  "InstitutionAddress": "Maynard 3,Hanover,NH,US,03755",
  "InstitutionName": "Dartmouth College - PBS",
  "InstitutionalDepartmentName": "Department",
  "MRAcquisitionType": "2D",
  "MagneticFieldStrength": 3,
  "Manufacturer": "Siemens",
  "ManufacturersModelName": "Prisma",
  "Modality": "MR",
  "MultibandAccelerationFactor": 8,
  "PartialFourier": 1,
  "PatientPosition": "HFS",
  "PercentPhaseFOV": 100,
  "PercentSampling": 100,
  "PhaseEncodingDirection": "j-",
  "PhaseEncodingSteps": 82,
  "PhaseResolution": 1,
  "PixelBandwidth": 3050,
  "ProcedureStepDescription": "Wager_Wager^1076_spacetop",
  "ProtocolName": "func_run-03_task-faces_acq-ap-mb8",
  "PulseSequenceDetails": "%CustomerSeq%\\cmrr_mbep2d_bold",
  "ReceiveCoilActiveElements": "HEA;HEP",
  "ReceiveCoilName": "Head_32",
  "ReconMatrixPE": 82,
  "RepetitionTime": 0.46,
  "SAR": 0.105412,
  "ScanOptions": "FS",
  "ScanningSequence": "EP",
  "SequenceName": "epfid2d1_82",
  "SequenceVariant": "SK\\SS",
  "SeriesDescription": "func_run-03_task-faces_acq-ap-mb8",
  "SeriesNumber": 20,
  "ShimSetting": [4121, -7773, -7238, 604, 0, -256, -48, 79],
  "SliceThickness": 2.7,
  "SliceTiming": [0, 0.2525, 0.0625, 0.315, 0.125, 0.3775, 0.1875, 0, 0.2525, 0.0625, 0.315, 0.125, 0.3775, 0.1875, 0, 0.2525, 0.0625, 0.315, 0.125, 0.3775, 0.1875, 0, 0.2525, 0.0625, 0.315, 0.125, 0.3775, 0.1875, 0, 0.2525, 0.0625, 0.315, 0.125, 0.3775, 0.1875, 0, 0.2525, 0.0625, 0.315, 0.125, 0.3775, 0.1875, 0, 0.2525, 0.0625, 0.315, 0.125, 0.3775, 0.1875, 0, 0.2525, 0.0625, 0.315, 0.125, 0.3775, 0.1875],
  "SoftwareVersions": "syngo MR E11",
  "SpacingBetweenSlices": 2.7,
  "StationName": "AWP66112",
  "TaskName": "faces",
  "TotalReadoutTime": 0.03969,
  "TxRefAmp": 250.498,
  "WipMemBlock": "a136f61f-81eb-40d3-9696-cd09e574cdaa||Sequence: R016 ve11e/master r/434b28f1; Aug  7 2019 18:53:46 by eja",
  "dcmmeta_affine": [
    [-2.6764578819274902, -0.041110582649707794, -0.1827591359615326, 118.76461029052734],
    [-0.04353693872690201, 2.6823527812957764, 0.034644026309251785, -92.18801879882812],
    [-0.18103711307048798, -0.03728890419006348, 2.693584680557251, -67.0714111328125],
    [0.0, 0.0, 0.0, 1.0]
],
  "dcmmeta_reorient_transform": [
    [0.0, -1.0, 0.0, 81.0],
    [1.0, 0.0, 0.0, 0.0],
    [0.0, 0.0, 1.0, 0.0],
    [0.0, 0.0, 0.0, 1.0]
],
  "dcmmeta_shape": [82, 82, 56, 914],
  "dcmmeta_slice_dim": 2,
  "dcmmeta_version": 0.6,
  "global": {
    "const": {
      "AccessionNumber": "A003959",
      "AcquisitionMatrix": [82, 0, 0, 82],
      "AngioFlag": "N",
      "BitsAllocated": 16,
      "BitsStored": 16,
      "BodyPartExamined": "BRAIN",
      "Columns": 656,
      "EchoNumbers": 1,
      "EchoTime": 27.2,
      "EchoTrainLength": 82,
      "FlipAngle": 44.0,
      "HighBit": 15,
      "ImageOrientationPatient": [0.9975888244301, 0.01622740355097, -0.0674774684333, -0.0153230355328, 0.99978599396568, 0.01389859173142],
      "ImagePositionPatient": [-871.77932896192, -907.41288466357, -28.836076269854],
      "ImageType": [
        "ORIGINAL",
        "PRIMARY",
        "M",
        "MB",
        "ND",
        "NORM",
        "MOSAIC"
],
      "ImagedNucleus": "1H",
      "ImagingFrequency": 123.252193,
      "InPlanePhaseEncodingDirection": "COL",
      "MRAcquisitionType": "2D",
      "MagneticFieldStrength": 3.0,
      "Manufacturer": "SIEMENS",
      "ManufacturerModelName": "Prisma",
      "Modality": "MR",
      "NumberOfAverages": 1.0,
      "NumberOfPhaseEncodingSteps": 82,
      "PercentPhaseFieldOfView": 100.0,
      "PercentSampling": 100.0,
      "PerformedProcedureStepStartTime": "174110.612000",
      "PhotometricInterpretation": "MONOCHROME2",
      "PixelBandwidth": 3050.0,
      "PixelRepresentation": 0,
      "PixelSpacing": [2.6829268932343, 2.6829268932343],
      "ProtocolName": "func_run-03_task-faces_acq-ap-mb8",
      "RepetitionTime": 460.0,
      "Rows": 656,
      "SAR": 0.10541241019812,
      "SamplesPerPixel": 1,
      "ScanOptions": "FS",
      "ScanningSequence": "EP",
      "SequenceName": "epfid2d1_82",
      "SequenceVariant": [
        "SK",
        "SS"
],
      "SeriesDescription": "func_run-03_task-faces_acq-ap-mb8",
      "SeriesNumber": 20,
      "SeriesTime": "184650.837000",
      "SliceLocation": -76.133930214642,
      "SliceThickness": 2.7000000476837,
      "SmallestImagePixelValue": 0,
      "SoftwareVersions": "syngo MR E11",
      "SpacingBetweenSlices": 2.7000000224239,
      "SpecificCharacterSet": "ISO_IR 100",
      "StudyID": "2",
      "StudyTime": "174110.555000",
      "TransmitCoilName": "Body",
      "VariableFlipAngleFlag": "N",
      "WindowCenterWidthExplanation": "Algo1"
    },
    "slices": {}
  },
  "time": {
    "samples": {
      "AcquisitionNumber": [1, 2, 3, 4, 5, 6, 7, 8, 9, 10, 11, 12, 13, 14, 15, 16, 17, 18, 19, 20, 21, 22, 23, 24, 25, 26, 27, 28, 29, 30, 31, 32, 33, 34, 35, 36, 37, 38, 39, 40, 41, 42, 43, 44, 45, 46, 47, 48, 49, 50, 51, 52, 53, 54, 55, 56, 57, 58, 59, 60, 61, 62, 63, 64, 65, 66, 67, 68, 69, 70, 71, 72, 73, 74, 75, 76, 77, 78, 79, 80, 81, 82, 83, 84, 85, 86, 87, 88, 89, 90, 91, 92, 93, 94, 95, 96, 97, 98, 99, 100, 101, 102, 103, 104, 105, 106, 107, 108, 109, 110, 111, 112, 113, 114, 115, 116, 117, 118, 119, 120, 121, 122, 123, 124, 125, 126, 127, 128, 129, 130, 131, 132, 133, 134, 135, 136, 137, 138, 139, 140, 141, 142, 143, 144, 145, 146, 147, 148, 149, 150, 151, 152, 153, 154, 155, 156, 157, 158, 159, 160, 161, 162, 163, 164, 165, 166, 167, 168, 169, 170, 171, 172, 173, 174, 175, 176, 177, 178, 179, 180, 181, 182, 183, 184, 185, 186, 187, 188, 189, 190, 191, 192, 193, 194, 195, 196, 197, 198, 199, 200, 201, 202, 203, 204, 205, 206, 207, 208, 209, 210, 211, 212, 213, 214, 215, 216, 217, 218, 219, 220, 221, 222, 223, 224, 225, 226, 227, 228, 229, 230, 231, 232, 233, 234, 235, 236, 237, 238, 239, 240, 241, 242, 243, 244, 245, 246, 247, 248, 249, 250, 251, 252, 253, 254, 255, 256, 257, 258, 259, 260, 261, 262, 263, 264, 265, 266, 267, 268, 269, 270, 271, 272, 273, 274, 275, 276, 277, 278, 279, 280, 281, 282, 283, 284, 285, 286, 287, 288, 289, 290, 291, 292, 293, 294, 295, 296, 297, 298, 299, 300, 301, 302, 303, 304, 305, 306, 307, 308, 309, 310, 311, 312, 313, 314, 315, 316, 317, 318, 319, 320, 321, 322, 323, 324, 325, 326, 327, 328, 329, 330, 331, 332, 333, 334, 335, 336, 337, 338, 339, 340, 341, 342, 343, 344, 345, 346, 347, 348, 349, 350, 351, 352, 353, 354, 355, 356, 357, 358, 359, 360, 361, 362, 363, 364, 365, 366, 367, 368, 369, 370, 371, 372, 373, 374, 375, 376, 377, 378, 379, 380, 381, 382, 383, 384, 385, 386, 387, 388, 389, 390, 391, 392, 393, 394, 395, 396, 397, 398, 399, 400, 401, 402, 403, 404, 405, 406, 407, 408, 409, 410, 411, 412, 413, 414, 415, 416, 417, 418, 419, 420, 421, 422, 423, 424, 425, 426, 427, 428, 429, 430, 431, 432, 433, 434, 435, 436, 437, 438, 439, 440, 441, 442, 443, 444, 445, 446, 447, 448, 449, 450, 451, 452, 453, 454, 455, 456, 457, 458, 459, 460, 461, 462, 463, 464, 465, 466, 467, 468, 469, 470, 471, 472, 473, 474, 475, 476, 477, 478, 479, 480, 481, 482, 483, 484, 485, 486, 487, 488, 489, 490, 491, 492, 493, 494, 495, 496, 497, 498, 499, 500, 501, 502, 503, 504, 505, 506, 507, 508, 509, 510, 511, 512, 513, 514, 515, 516, 517, 518, 519, 520, 521, 522, 523, 524, 525, 526, 527, 528, 529, 530, 531, 532, 533, 534, 535, 536, 537, 538, 539, 540, 541, 542, 543, 544, 545, 546, 547, 548, 549, 550, 551, 552, 553, 554, 555, 556, 557, 558, 559, 560, 561, 562, 563, 564, 565, 566, 567, 568, 569, 570, 571, 572, 573, 574, 575, 576, 577, 578, 579, 580, 581, 582, 583, 584, 585, 586, 587, 588, 589, 590, 591, 592, 593, 594, 595, 596, 597, 598, 599, 600, 601, 602, 603, 604, 605, 606, 607, 608, 609, 610, 611, 612, 613, 614, 615, 616, 617, 618, 619, 620, 621, 622, 623, 624, 625, 626, 627, 628, 629, 630, 631, 632, 633, 634, 635, 636, 637, 638, 639, 640, 641, 642, 643, 644, 645, 646, 647, 648, 649, 650, 651, 652, 653, 654, 655, 656, 657, 658, 659, 660, 661, 662, 663, 664, 665, 666, 667, 668, 669, 670, 671, 672, 673, 674, 675, 676, 677, 678, 679, 680, 681, 682, 683, 684, 685, 686, 687, 688, 689, 690, 691, 692, 693, 694, 695, 696, 697, 698, 699, 700, 701, 702, 703, 704, 705, 706, 707, 708, 709, 710, 711, 712, 713, 714, 715, 716, 717, 718, 719, 720, 721, 722, 723, 724, 725, 726, 727, 728, 729, 730, 731, 732, 733, 734, 735, 736, 737, 738, 739, 740, 741, 742, 743, 744, 745, 746, 747, 748, 749, 750, 751, 752, 753, 754, 755, 756, 757, 758, 759, 760, 761, 762, 763, 764, 765, 766, 767, 768, 769, 770, 771, 772, 773, 774, 775, 776, 777, 778, 779, 780, 781, 782, 783, 784, 785, 786, 787, 788, 789, 790, 791, 792, 793, 794, 795, 796, 797, 798, 799, 800, 801, 802, 803, 804, 805, 806, 807, 808, 809, 810, 811, 812, 813, 814, 815, 816, 817, 818, 819, 820, 821, 822, 823, 824, 825, 826, 827, 828, 829, 830, 831, 832, 833, 834, 835, 836, 837, 838, 839, 840, 841, 842, 843, 844, 845, 846, 847, 848, 849, 850, 851, 852, 853, 854, 855, 856, 857, 858, 859, 860, 861, 862, 863, 864, 865, 866, 867, 868, 869, 870, 871, 872, 873, 874, 875, 876, 877, 878, 879, 880, 881, 882, 883, 884, 885, 886, 887, 888, 889, 890, 891, 892, 893, 894, 895, 896, 897, 898, 899, 900, 901, 902, 903, 904, 905, 906, 907, 908, 909, 910, 911, 912, 913, 914],
      "AcquisitionTime": ["184631.550000", "184632.010000", "184632.470000", "184632.930000", "184633.390000", "184633.850000", "184634.310000", "184634.770000", "184635.230000", "184635.690000", "184636.150000", "184636.610000", "184637.070000", "184637.530000", "184637.990000", "184638.450000", "184638.910000", "184639.370000", "184639.830000", "184640.290000", "184640.750000", "184641.210000", "184641.670000", "184642.130000", "184642.590000", "184643.050000", "184643.510000", "184643.970000", "184644.430000", "184644.890000", "184645.350000", "184645.810000", "184646.270000", "184646.730000", "184647.190000", "184647.650000", "184648.110000", "184648.570000", "184649.030000", "184649.490000", "184649.950000", "184650.410000", "184650.870000", "184651.330000", "184651.790000", "184652.250000", "184652.710000", "184653.170000", "184653.630000", "184654.090000", "184654.550000", "184655.010000", "184655.470000", "184655.930000", "184656.390000", "184656.850000", "184657.310000", "184657.770000", "184658.230000", "184658.690000", "184659.150000", "184659.610000", "184700.070000", "184700.530000", "184700.990000", "184701.450000", "184701.910000", "184702.370000", "184702.830000", "184703.290000", "184703.750000", "184704.210000", "184704.670000", "184705.130000", "184705.590000", "184706.050000", "184706.510000", "184706.970000", "184707.430000", "184707.890000", "184708.350000", "184708.810000", "184709.270000", "184709.730000", "184710.190000", "184710.650000", "184711.110000", "184711.570000", "184712.030000", "184712.490000", "184712.950000", "184713.410000", "184713.870000", "184714.330000", "184714.790000", "184715.250000", "184715.710000", "184716.170000", "184716.630000", "184717.090000", "184717.550000", "184718.010000", "184718.470000", "184718.930000", "184719.390000", "184719.850000", "184720.310000", "184720.770000", "184721.230000", "184721.690000", "184722.150000", "184722.610000", "184723.070000", "184723.530000", "184723.990000", "184724.450000", "184724.910000", "184725.370000", "184725.830000", "184726.290000", "184726.750000", "184727.210000", "184727.670000", "184728.130000", "184728.590000", "184729.050000", "184729.510000", "184729.970000", "184730.430000", "184730.890000", "184731.350000", "184731.810000", "184732.270000", "184732.730000", "184733.190000", "184733.650000", "184734.110000", "184734.570000", "184735.030000", "184735.490000", "184735.950000", "184736.410000", "184736.870000", "184737.330000", "184737.790000", "184738.250000", "184738.710000", "184739.170000", "184739.630000", "184740.090000", "184740.550000", "184741.010000", "184741.470000", "184741.930000", "184742.390000", "184742.850000", "184743.310000", "184743.770000", "184744.230000", "184744.690000", "184745.150000", "184745.610000", "184746.070000", "184746.530000", "184746.990000", "184747.450000", "184747.910000", "184748.370000", "184748.830000", "184749.290000", "184749.750000", "184750.210000", "184750.670000", "184751.130000", "184751.590000", "184752.050000", "184752.510000", "184752.970000", "184753.430000", "184753.890000", "184754.350000", "184754.810000", "184755.270000", "184755.730000", "184756.190000", "184756.650000", "184757.110000", "184757.570000", "184758.030000", "184758.490000", "184758.950000", "184759.410000", "184759.870000", "184800.330000", "184800.790000", "184801.250000", "184801.710000", "184802.170000", "184802.630000", "184803.090000", "184803.550000", "184804.010000", "184804.470000", "184804.930000", "184805.390000", "184805.850000", "184806.310000", "184806.770000", "184807.230000", "184807.690000", "184808.150000", "184808.610000", "184809.070000", "184809.530000", "184809.990000", "184810.450000", "184810.910000", "184811.370000", "184811.830000", "184812.290000", "184812.750000", "184813.210000", "184813.670000", "184814.130000", "184814.590000", "184815.050000", "184815.510000", "184815.970000", "184816.430000", "184816.890000", "184817.350000", "184817.810000", "184818.270000", "184818.730000", "184819.190000", "184819.650000", "184820.110000", "184820.570000", "184821.030000", "184821.490000", "184821.950000", "184822.410000", "184822.870000", "184823.330000", "184823.790000", "184824.250000", "184824.710000", "184825.170000", "184825.630000", "184826.090000", "184826.550000", "184827.010000", "184827.470000", "184827.930000", "184828.390000", "184828.850000", "184829.310000", "184829.770000", "184830.230000", "184830.690000", "184831.150000", "184831.610000", "184832.070000", "184832.530000", "184832.990000", "184833.450000", "184833.910000", "184834.370000", "184834.830000", "184835.290000", "184835.750000", "184836.210000", "184836.670000", "184837.130000", "184837.590000", "184838.050000", "184838.510000", "184838.970000", "184839.430000", "184839.890000", "184840.350000", "184840.810000", "184841.270000", "184841.730000", "184842.190000", "184842.650000", "184843.110000", "184843.570000", "184844.030000", "184844.490000", "184844.950000", "184845.410000", "184845.870000", "184846.330000", "184846.790000", "184847.250000", "184847.710000", "184848.170000", "184848.630000", "184849.090000", "184849.550000", "184850.010000", "184850.470000", "184850.930000", "184851.390000", "184851.850000", "184852.310000", "184852.770000", "184853.230000", "184853.690000", "184854.150000", "184854.610000", "184855.070000", "184855.530000", "184855.990000", "184856.450000", "184856.910000", "184857.370000", "184857.830000", "184858.290000", "184858.750000", "184859.210000", "184859.670000", "184900.130000", "184900.590000", "184901.050000", "184901.510000", "184901.970000", "184902.430000", "184902.890000", "184903.350000", "184903.810000", "184904.270000", "184904.730000", "184905.190000", "184905.650000", "184906.110000", "184906.570000", "184907.030000", "184907.490000", "184907.950000", "184908.410000", "184908.870000", "184909.330000", "184909.790000", "184910.250000", "184910.710000", "184911.170000", "184911.630000", "184912.090000", "184912.550000", "184913.010000", "184913.470000", "184913.930000", "184914.390000", "184914.850000", "184915.310000", "184915.770000", "184916.230000", "184916.690000", "184917.150000", "184917.610000", "184918.070000", "184918.530000", "184918.990000", "184919.450000", "184919.910000", "184920.370000", "184920.830000", "184921.290000", "184921.750000", "184922.210000", "184922.670000", "184923.130000", "184923.590000", "184924.050000", "184924.510000", "184924.970000", "184925.430000", "184925.890000", "184926.350000", "184926.810000", "184927.270000", "184927.730000", "184928.190000", "184928.650000", "184929.110000", "184929.570000", "184930.030000", "184930.490000", "184930.950000", "184931.410000", "184931.870000", "184932.330000", "184932.790000", "184933.250000", "184933.710000", "184934.170000", "184934.630000", "184935.090000", "184935.550000", "184936.010000", "184936.470000", "184936.930000", "184937.390000", "184937.850000", "184938.310000", "184938.770000", "184939.230000", "184939.690000", "184940.150000", "184940.610000", "184941.070000", "184941.530000", "184941.990000", "184942.450000", "184942.910000", "184943.370000", "184943.830000", "184944.290000", "184944.750000", "184945.210000", "184945.670000", "184946.130000", "184946.590000", "184947.050000", "184947.510000", "184947.970000", "184948.430000", "184948.890000", "184949.350000", "184949.810000", "184950.270000", "184950.730000", "184951.190000", "184951.650000", "184952.110000", "184952.570000", "184953.030000", "184953.490000", "184953.950000", "184954.410000", "184954.870000", "184955.330000", "184955.790000", "184956.250000", "184956.710000", "184957.170000", "184957.630000", "184958.090000", "184958.550000", "184959.010000", "184959.470000", "184959.930000", "185000.390000", "185000.850000", "185001.310000", "185001.770000", "185002.230000", "185002.690000", "185003.150000", "185003.610000", "185004.070000", "185004.530000", "185004.990000", "185005.450000", "185005.910000", "185006.370000", "185006.830000", "185007.290000", "185007.750000", "185008.210000", "185008.670000", "185009.130000", "185009.590000", "185010.050000", "185010.510000", "185010.970000", "185011.430000", "185011.890000", "185012.350000", "185012.810000", "185013.270000", "185013.730000", "185014.190000", "185014.650000", "185015.110000", "185015.570000", "185016.030000", "185016.490000", "185016.950000", "185017.410000", "185017.870000", "185018.330000", "185018.790000", "185019.250000", "185019.710000", "185020.170000", "185020.630000", "185021.090000", "185021.550000", "185022.010000", "185022.470000", "185022.930000", "185023.390000", "185023.850000", "185024.310000", "185024.770000", "185025.230000", "185025.690000", "185026.150000", "185026.610000", "185027.070000", "185027.530000", "185027.990000", "185028.450000", "185028.910000", "185029.370000", "185029.830000", "185030.290000", "185030.750000", "185031.210000", "185031.670000", "185032.130000", "185032.590000", "185033.050000", "185033.510000", "185033.970000", "185034.430000", "185034.890000", "185035.350000", "185035.810000", "185036.270000", "185036.730000", "185037.190000", "185037.650000", "185038.110000", "185038.570000", "185039.030000", "185039.490000", "185039.950000", "185040.410000", "185040.870000", "185041.330000", "185041.790000", "185042.250000", "185042.710000", "185043.170000", "185043.630000", "185044.090000", "185044.550000", "185045.010000", "185045.470000", "185045.930000", "185046.390000", "185046.850000", "185047.310000", "185047.770000", "185048.230000", "185048.690000", "185049.150000", "185049.610000", "185050.070000", "185050.530000", "185050.990000", "185051.450000", "185051.910000", "185052.370000", "185052.830000", "185053.290000", "185053.750000", "185054.210000", "185054.670000", "185055.130000", "185055.590000", "185056.050000", "185056.510000", "185056.970000", "185057.430000", "185057.890000", "185058.350000", "185058.810000", "185059.270000", "185059.730000", "185100.190000", "185100.650000", "185101.110000", "185101.570000", "185102.030000", "185102.490000", "185102.950000", "185103.410000", "185103.870000", "185104.330000", "185104.790000", "185105.250000", "185105.710000", "185106.170000", "185106.630000", "185107.090000", "185107.550000", "185108.010000", "185108.470000", "185108.930000", "185109.390000", "185109.850000", "185110.310000", "185110.770000", "185111.230000", "185111.690000", "185112.150000", "185112.610000", "185113.070000", "185113.530000", "185113.990000", "185114.450000", "185114.910000", "185115.370000", "185115.830000", "185116.290000", "185116.750000", "185117.210000", "185117.670000", "185118.130000", "185118.590000", "185119.050000", "185119.510000", "185119.970000", "185120.430000", "185120.890000", "185121.350000", "185121.810000", "185122.270000", "185122.730000", "185123.190000", "185123.650000", "185124.110000", "185124.570000", "185125.030000", "185125.490000", "185125.950000", "185126.410000", "185126.870000", "185127.330000", "185127.790000", "185128.250000", "185128.710000", "185129.170000", "185129.630000", "185130.090000", "185130.550000", "185131.010000", "185131.470000", "185131.930000", "185132.390000", "185132.850000", "185133.310000", "185133.770000", "185134.230000", "185134.690000", "185135.150000", "185135.610000", "185136.070000", "185136.530000", "185136.990000", "185137.450000", "185137.910000", "185138.370000", "185138.830000", "185139.290000", "185139.750000", "185140.210000", "185140.670000", "185141.130000", "185141.590000", "185142.050000", "185142.510000", "185142.970000", "185143.430000", "185143.890000", "185144.350000", "185144.810000", "185145.270000", "185145.730000", "185146.190000", "185146.650000", "185147.110000", "185147.570000", "185148.030000", "185148.490000", "185148.950000", "185149.410000", "185149.870000", "185150.330000", "185150.790000", "185151.250000", "185151.710000", "185152.170000", "185152.630000", "185153.090000", "185153.550000", "185154.010000", "185154.470000", "185154.930000", "185155.390000", "185155.850000", "185156.310000", "185156.770000", "185157.230000", "185157.690000", "185158.150000", "185158.610000", "185159.070000", "185159.530000", "185159.990000", "185200.450000", "185200.910000", "185201.370000", "185201.830000", "185202.290000", "185202.750000", "185203.210000", "185203.670000", "185204.130000", "185204.590000", "185205.050000", "185205.510000", "185205.970000", "185206.430000", "185206.890000", "185207.350000", "185207.810000", "185208.270000", "185208.730000", "185209.190000", "185209.650000", "185210.110000", "185210.570000", "185211.030000", "185211.490000", "185211.950000", "185212.410000", "185212.870000", "185213.330000", "185213.790000", "185214.250000", "185214.710000", "185215.170000", "185215.630000", "185216.090000", "185216.550000", "185217.010000", "185217.470000", "185217.930000", "185218.390000", "185218.850000", "185219.310000", "185219.770000", "185220.230000", "185220.690000", "185221.150000", "185221.610000", "185222.070000", "185222.530000", "185222.990000", "185223.450000", "185223.910000", "185224.370000", "185224.830000", "185225.290000", "185225.750000", "185226.210000", "185226.670000", "185227.130000", "185227.590000", "185228.050000", "185228.510000", "185228.970000", "185229.430000", "185229.890000", "185230.350000", "185230.810000", "185231.270000", "185231.730000", "185232.190000", "185232.650000", "185233.110000", "185233.570000", "185234.030000", "185234.490000", "185234.950000", "185235.410000", "185235.870000", "185236.330000", "185236.790000", "185237.250000", "185237.710000", "185238.170000", "185238.630000", "185239.090000", "185239.550000", "185240.010000", "185240.470000", "185240.930000", "185241.390000", "185241.850000", "185242.310000", "185242.770000", "185243.230000", "185243.690000", "185244.150000", "185244.610000", "185245.070000", "185245.530000", "185245.990000", "185246.450000", "185246.910000", "185247.370000", "185247.830000", "185248.290000", "185248.750000", "185249.210000", "185249.670000", "185250.130000", "185250.590000", "185251.050000", "185251.510000", "185251.970000", "185252.430000", "185252.890000", "185253.350000", "185253.810000", "185254.270000", "185254.730000", "185255.190000", "185255.650000", "185256.110000", "185256.570000", "185257.030000", "185257.490000", "185257.950000", "185258.410000", "185258.870000", "185259.330000", "185259.790000", "185300.250000", "185300.710000", "185301.170000", "185301.630000", "185302.090000", "185302.550000", "185303.010000", "185303.470000", "185303.930000", "185304.390000", "185304.850000", "185305.310000", "185305.770000", "185306.230000", "185306.690000", "185307.150000", "185307.610000", "185308.070000", "185308.530000", "185308.990000", "185309.450000", "185309.910000", "185310.370000", "185310.830000", "185311.290000", "185311.750000", "185312.210000", "185312.670000", "185313.130000", "185313.590000", "185314.050000", "185314.510000", "185314.970000", "185315.430000", "185315.890000", "185316.350000", "185316.810000", "185317.270000", "185317.730000", "185318.190000", "185318.650000", "185319.110000", "185319.570000", "185320.030000", "185320.490000", "185320.950000", "185321.410000", "185321.870000", "185322.330000", "185322.790000", "185323.250000", "185323.710000", "185324.170000", "185324.630000", "185325.090000", "185325.550000", "185326.010000", "185326.470000", "185326.930000", "185327.390000", "185327.850000", "185328.310000", "185328.770000", "185329.230000", "185329.690000", "185330.150000", "185330.610000", "185331.070000", "185331.530000"],
