{
  "AcquisitionMatrixPE": 82,
  "AcquisitionNumber": 1,
  "AcquisitionTime": "12:41:39.727500",
  "BandwidthPerPixelPhaseEncode": 24.888,
  "BaseResolution": 82,
  "BodyPartExamined": "BRAIN",
  "ConsistencyInfo": "N4_VE11E_LATEST_20181129",
  "ConversionSoftware": "dcm2niix",
  "ConversionSoftwareVersion": "v1.0.20201102",
  "DerivedVendorReportedEchoSpacing": 0.00049,
  "DeviceSerialNumber": "66112",
  "DwellTime": 2e-06,
  "EchoTime": 0.0272,
  "EchoTrainLength": 82,
  "EffectiveEchoSpacing": 0.00049,
  "FlipAngle": 44,
  "ImageComments": "Unaliased MB8/PE3",
  "ImageOrientationPatientDICOM": [0.999433, 0.0134801, -0.0308404, -0.0137812, 0.999859, -0.00957185],
  "ImageType": [
    "ORIGINAL",
    "PRIMARY",
    "M",
    "MB",
    "ND",
    "NORM",
    "MOSAIC"
],
  "ImagingFrequency": 123.259,
  "InPlanePhaseEncodingDirectionDICOM": "COL",
  "InstitutionAddress": "Maynard 3,Hanover,NH,US,03755",
  "InstitutionName": "Dartmouth College - PBS",
  "InstitutionalDepartmentName": "Department",
  "MRAcquisitionType": "2D",
  "MagneticFieldStrength": 3,
  "Manufacturer": "Siemens",
  "ManufacturersModelName": "Prisma",
  "Modality": "MR",
  "MultibandAccelerationFactor": 8,
  "PartialFourier": 1,
  "PatientPosition": "HFS",
  "PercentPhaseFOV": 100,
  "PercentSampling": 100,
  "PhaseEncodingDirection": "j-",
  "PhaseEncodingSteps": 82,
  "PhaseResolution": 1,
  "PixelBandwidth": 3050,
  "ProcedureStepDescription": "Wager_Wager^1076_spacetop",
  "ProtocolName": "func_run-03_task-social_acq-ap-mb8",
  "PulseSequenceDetails": "%CustomerSeq%\\cmrr_mbep2d_bold",
  "ReceiveCoilActiveElements": "HEA;HEP",
  "ReceiveCoilName": "Head_32",
  "ReconMatrixPE": 82,
  "RepetitionTime": 0.46,
  "SAR": 0.11234,
  "ScanOptions": "FS",
  "ScanningSequence": "EP",
  "SequenceName": "epfid2d1_82",
  "SequenceVariant": "SK\\SS",
  "SeriesDescription": "func_run-03_task-social_acq-ap-mb8",
  "SeriesNumber": 16,
  "ShimSetting": [4223, -7754, -7260, 114, -102, -38, 62, 131],
  "SliceThickness": 2.7,
  "SliceTiming": [0, 0.2525, 0.0625, 0.315, 0.125, 0.3775, 0.1875, 0, 0.2525, 0.0625, 0.315, 0.125, 0.3775, 0.1875, 0, 0.2525, 0.0625, 0.315, 0.125, 0.3775, 0.1875, 0, 0.2525, 0.0625, 0.315, 0.125, 0.3775, 0.1875, 0, 0.2525, 0.0625, 0.315, 0.125, 0.3775, 0.1875, 0, 0.2525, 0.0625, 0.315, 0.125, 0.3775, 0.1875, 0, 0.2525, 0.0625, 0.315, 0.125, 0.3775, 0.1875, 0, 0.2525, 0.0625, 0.315, 0.125, 0.3775, 0.1875],
  "SoftwareVersions": "syngo MR E11",
  "SpacingBetweenSlices": 2.7,
  "StationName": "AWP66112",
  "TaskName": "social",
  "TotalReadoutTime": 0.03969,
  "TxRefAmp": 248.67,
  "WipMemBlock": "95a0ad45-545f-477f-9434-5eea27d0993b||Sequence: R016 ve11e/master r/434b28f1; Aug  7 2019 18:53:46 by eja",
  "dcmmeta_affine": [
    [-2.6814067363739014, -0.03697394207119942, -0.08290902525186539, 116.07263946533203],
    [-0.03616608679294586, 2.682549238204956, -0.02697690576314926, -92.38004302978516],
    [-0.0827425867319107, 0.025680579245090485, 2.698591947555542, -75.21609497070312],
    [0.0, 0.0, 0.0, 1.0]
],
  "dcmmeta_reorient_transform": [
    [0.0, -1.0, 0.0, 81.0],
    [1.0, 0.0, 0.0, 0.0],
    [0.0, 0.0, 1.0, 0.0],
    [0.0, 0.0, 0.0, 1.0]
],
  "dcmmeta_shape": [82, 82, 56, 872],
  "dcmmeta_slice_dim": 2,
  "dcmmeta_version": 0.6,
  "global": {
    "const": {
      "AccessionNumber": "A004806",
      "AcquisitionMatrix": [82, 0, 0, 82],
      "AngioFlag": "N",
      "BitsAllocated": 16,
      "BitsStored": 16,
      "BodyPartExamined": "BRAIN",
      "Columns": 656,
      "EchoNumbers": 1,
      "EchoTime": 27.2,
      "EchoTrainLength": 82,
      "FlipAngle": 44.0,
      "HighBit": 15,
      "ImageOrientationPatient": [0.9994334174034, 0.0134800861461, -0.0308404191746, -0.0137811965278, 0.99985921922472, -0.0095718521506],
      "ImagePositionPatient": [-872.02997947916, -905.17772741867, -42.018522102204],
      "ImageType": [
        "ORIGINAL",
        "PRIMARY",
        "M",
        "MB",
        "ND",
        "NORM",
        "MOSAIC"
],
      "ImagedNucleus": "1H",
      "ImagingFrequency": 123.259078,
      "InPlanePhaseEncodingDirection": "COL",
      "MRAcquisitionType": "2D",
      "MagneticFieldStrength": 3.0,
      "Manufacturer": "SIEMENS",
      "ManufacturerModelName": "Prisma",
      "Modality": "MR",
      "NumberOfAverages": 1.0,
      "NumberOfPhaseEncodingSteps": 82,
      "PercentPhaseFieldOfView": 100.0,
      "PercentSampling": 100.0,
      "PerformedProcedureStepStartTime": "113728.177000",
      "PhotometricInterpretation": "MONOCHROME2",
      "PixelBandwidth": 3050.0,
      "PixelRepresentation": 0,
      "PixelSpacing": [2.6829268932343, 2.6829268932343],
      "ProtocolName": "func_run-03_task-social_acq-ap-mb8",
      "RepetitionTime": 460.0,
      "Rows": 656,
      "SAR": 0.11233970467009,
      "SamplesPerPixel": 1,
      "ScanOptions": "FS",
      "ScanningSequence": "EP",
      "SequenceName": "epfid2d1_82",
      "SequenceVariant": [
        "SK",
        "SS"
],
      "SeriesDescription": "func_run-03_task-social_acq-ap-mb8",
      "SeriesNumber": 16,
      "SeriesTime": "124203.912000",
      "SliceLocation": -77.8181105128,
      "SliceThickness": 2.7000000476837,
      "SmallestImagePixelValue": 0,
      "SoftwareVersions": "syngo MR E11",
      "SpacingBetweenSlices": 2.6999999730563,
      "SpecificCharacterSet": "ISO_IR 100",
      "StudyID": "1",
      "StudyTime": "113728.078000",
      "TransmitCoilName": "Body",
      "VariableFlipAngleFlag": "N",
      "WindowCenterWidthExplanation": "Algo1"
    },
    "slices": {}
  },
  "time": {
    "samples": {
      "AcquisitionNumber": [1, 2, 3, 4, 5, 6, 7, 8, 9, 10, 11, 12, 13, 14, 15, 16, 17, 18, 19, 20, 21, 22, 23, 24, 25, 26, 27, 28, 29, 30, 31, 32, 33, 34, 35, 36, 37, 38, 39, 40, 41, 42, 43, 44, 45, 46, 47, 48, 49, 50, 51, 52, 53, 54, 55, 56, 57, 58, 59, 60, 61, 62, 63, 64, 65, 66, 67, 68, 69, 70, 71, 72, 73, 74, 75, 76, 77, 78, 79, 80, 81, 82, 83, 84, 85, 86, 87, 88, 89, 90, 91, 92, 93, 94, 95, 96, 97, 98, 99, 100, 101, 102, 103, 104, 105, 106, 107, 108, 109, 110, 111, 112, 113, 114, 115, 116, 117, 118, 119, 120, 121, 122, 123, 124, 125, 126, 127, 128, 129, 130, 131, 132, 133, 134, 135, 136, 137, 138, 139, 140, 141, 142, 143, 144, 145, 146, 147, 148, 149, 150, 151, 152, 153, 154, 155, 156, 157, 158, 159, 160, 161, 162, 163, 164, 165, 166, 167, 168, 169, 170, 171, 172, 173, 174, 175, 176, 177, 178, 179, 180, 181, 182, 183, 184, 185, 186, 187, 188, 189, 190, 191, 192, 193, 194, 195, 196, 197, 198, 199, 200, 201, 202, 203, 204, 205, 206, 207, 208, 209, 210, 211, 212, 213, 214, 215, 216, 217, 218, 219, 220, 221, 222, 223, 224, 225, 226, 227, 228, 229, 230, 231, 232, 233, 234, 235, 236, 237, 238, 239, 240, 241, 242, 243, 244, 245, 246, 247, 248, 249, 250, 251, 252, 253, 254, 255, 256, 257, 258, 259, 260, 261, 262, 263, 264, 265, 266, 267, 268, 269, 270, 271, 272, 273, 274, 275, 276, 277, 278, 279, 280, 281, 282, 283, 284, 285, 286, 287, 288, 289, 290, 291, 292, 293, 294, 295, 296, 297, 298, 299, 300, 301, 302, 303, 304, 305, 306, 307, 308, 309, 310, 311, 312, 313, 314, 315, 316, 317, 318, 319, 320, 321, 322, 323, 324, 325, 326, 327, 328, 329, 330, 331, 332, 333, 334, 335, 336, 337, 338, 339, 340, 341, 342, 343, 344, 345, 346, 347, 348, 349, 350, 351, 352, 353, 354, 355, 356, 357, 358, 359, 360, 361, 362, 363, 364, 365, 366, 367, 368, 369, 370, 371, 372, 373, 374, 375, 376, 377, 378, 379, 380, 381, 382, 383, 384, 385, 386, 387, 388, 389, 390, 391, 392, 393, 394, 395, 396, 397, 398, 399, 400, 401, 402, 403, 404, 405, 406, 407, 408, 409, 410, 411, 412, 413, 414, 415, 416, 417, 418, 419, 420, 421, 422, 423, 424, 425, 426, 427, 428, 429, 430, 431, 432, 433, 434, 435, 436, 437, 438, 439, 440, 441, 442, 443, 444, 445, 446, 447, 448, 449, 450, 451, 452, 453, 454, 455, 456, 457, 458, 459, 460, 461, 462, 463, 464, 465, 466, 467, 468, 469, 470, 471, 472, 473, 474, 475, 476, 477, 478, 479, 480, 481, 482, 483, 484, 485, 486, 487, 488, 489, 490, 491, 492, 493, 494, 495, 496, 497, 498, 499, 500, 501, 502, 503, 504, 505, 506, 507, 508, 509, 510, 511, 512, 513, 514, 515, 516, 517, 518, 519, 520, 521, 522, 523, 524, 525, 526, 527, 528, 529, 530, 531, 532, 533, 534, 535, 536, 537, 538, 539, 540, 541, 542, 543, 544, 545, 546, 547, 548, 549, 550, 551, 552, 553, 554, 555, 556, 557, 558, 559, 560, 561, 562, 563, 564, 565, 566, 567, 568, 569, 570, 571, 572, 573, 574, 575, 576, 577, 578, 579, 580, 581, 582, 583, 584, 585, 586, 587, 588, 589, 590, 591, 592, 593, 594, 595, 596, 597, 598, 599, 600, 601, 602, 603, 604, 605, 606, 607, 608, 609, 610, 611, 612, 613, 614, 615, 616, 617, 618, 619, 620, 621, 622, 623, 624, 625, 626, 627, 628, 629, 630, 631, 632, 633, 634, 635, 636, 637, 638, 639, 640, 641, 642, 643, 644, 645, 646, 647, 648, 649, 650, 651, 652, 653, 654, 655, 656, 657, 658, 659, 660, 661, 662, 663, 664, 665, 666, 667, 668, 669, 670, 671, 672, 673, 674, 675, 676, 677, 678, 679, 680, 681, 682, 683, 684, 685, 686, 687, 688, 689, 690, 691, 692, 693, 694, 695, 696, 697, 698, 699, 700, 701, 702, 703, 704, 705, 706, 707, 708, 709, 710, 711, 712, 713, 714, 715, 716, 717, 718, 719, 720, 721, 722, 723, 724, 725, 726, 727, 728, 729, 730, 731, 732, 733, 734, 735, 736, 737, 738, 739, 740, 741, 742, 743, 744, 745, 746, 747, 748, 749, 750, 751, 752, 753, 754, 755, 756, 757, 758, 759, 760, 761, 762, 763, 764, 765, 766, 767, 768, 769, 770, 771, 772, 773, 774, 775, 776, 777, 778, 779, 780, 781, 782, 783, 784, 785, 786, 787, 788, 789, 790, 791, 792, 793, 794, 795, 796, 797, 798, 799, 800, 801, 802, 803, 804, 805, 806, 807, 808, 809, 810, 811, 812, 813, 814, 815, 816, 817, 818, 819, 820, 821, 822, 823, 824, 825, 826, 827, 828, 829, 830, 831, 832, 833, 834, 835, 836, 837, 838, 839, 840, 841, 842, 843, 844, 845, 846, 847, 848, 849, 850, 851, 852, 853, 854, 855, 856, 857, 858, 859, 860, 861, 862, 863, 864, 865, 866, 867, 868, 869, 870, 871, 872],
      "AcquisitionTime": ["124139.727500", "124140.187500", "124140.647500", "124141.107500", "124141.567500", "124142.027500", "124142.487500", "124142.947500", "124143.407500", "124143.867500", "124144.327500", "124144.787500", "124145.247500", "124145.707500", "124146.167500", "124146.627500", "124147.087500", "124147.547500", "124148.007500", "124148.467500", "124148.927500", "124149.387500", "124149.847500", "124150.307500", "124150.767500", "124151.227500", "124151.687500", "124152.147500", "124152.607500", "124153.067500", "124153.527500", "124153.987500", "124154.447500", "124154.907500", "124155.367500", "124155.827500", "124156.287500", "124156.747500", "124157.207500", "124157.667500", "124158.127500", "124158.587500", "124159.047500", "124159.507500", "124159.967500", "124200.427500", "124200.887500", "124201.347500", "124201.807500", "124202.267500", "124202.727500", "124203.187500", "124203.647500", "124204.107500", "124204.567500", "124205.027500", "124205.487500", "124205.947500", "124206.407500", "124206.867500", "124207.327500", "124207.787500", "124208.247500", "124208.707500", "124209.167500", "124209.627500", "124210.087500", "124210.547500", "124211.007500", "124211.467500", "124211.927500", "124212.387500", "124212.847500", "124213.307500", "124213.767500", "124214.227500", "124214.687500", "124215.147500", "124215.607500", "124216.067500", "124216.527500", "124216.987500", "124217.447500", "124217.907500", "124218.367500", "124218.827500", "124219.287500", "124219.747500", "124220.207500", "124220.667500", "124221.127500", "124221.587500", "124222.047500", "124222.507500", "124222.967500", "124223.427500", "124223.887500", "124224.347500", "124224.807500", "124225.267500", "124225.727500", "124226.187500", "124226.647500", "124227.107500", "124227.567500", "124228.027500", "124228.487500", "124228.947500", "124229.407500", "124229.867500", "124230.327500", "124230.787500", "124231.247500", "124231.707500", "124232.167500", "124232.627500", "124233.087500", "124233.547500", "124234.007500", "124234.467500", "124234.927500", "124235.387500", "124235.847500", "124236.307500", "124236.767500", "124237.227500", "124237.687500", "124238.147500", "124238.607500", "124239.067500", "124239.527500", "124239.987500", "124240.447500", "124240.907500", "124241.367500", "124241.827500", "124242.287500", "124242.747500", "124243.207500", "124243.667500", "124244.127500", "124244.587500", "124245.047500", "124245.507500", "124245.967500", "124246.427500", "124246.887500", "124247.347500", "124247.807500", "124248.267500", "124248.727500", "124249.187500", "124249.647500", "124250.107500", "124250.567500", "124251.027500", "124251.487500", "124251.947500", "124252.407500", "124252.867500", "124253.327500", "124253.787500", "124254.247500", "124254.707500", "124255.167500", "124255.627500", "124256.087500", "124256.547500", "124257.007500", "124257.467500", "124257.927500", "124258.387500", "124258.847500", "124259.307500", "124259.767500", "124300.227500", "124300.687500", "124301.147500", "124301.607500", "124302.067500", "124302.527500", "124302.987500", "124303.447500", "124303.907500", "124304.367500", "124304.827500", "124305.287500", "124305.747500", "124306.207500", "124306.667500", "124307.127500", "124307.587500", "124308.047500", "124308.507500", "124308.967500", "124309.427500", "124309.887500", "124310.347500", "124310.807500", "124311.267500", "124311.727500", "124312.187500", "124312.647500", "124313.107500", "124313.567500", "124314.027500", "124314.487500", "124314.947500", "124315.407500", "124315.867500", "124316.327500", "124316.787500", "124317.247500", "124317.707500", "124318.167500", "124318.627500", "124319.087500", "124319.547500", "124320.007500", "124320.467500", "124320.927500", "124321.387500", "124321.847500", "124322.307500", "124322.767500", "124323.227500", "124323.687500", "124324.147500", "124324.607500", "124325.067500", "124325.527500", "124325.987500", "124326.447500", "124326.907500", "124327.367500", "124327.827500", "124328.287500", "124328.747500", "124329.207500", "124329.667500", "124330.127500", "124330.587500", "124331.047500", "124331.507500", "124331.967500", "124332.427500", "124332.887500", "124333.347500", "124333.807500", "124334.267500", "124334.727500", "124335.187500", "124335.647500", "124336.107500", "124336.567500", "124337.027500", "124337.487500", "124337.947500", "124338.407500", "124338.867500", "124339.327500", "124339.787500", "124340.247500", "124340.707500", "124341.167500", "124341.627500", "124342.087500", "124342.547500", "124343.007500", "124343.467500", "124343.927500", "124344.387500", "124344.847500", "124345.307500", "124345.767500", "124346.227500", "124346.687500", "124347.147500", "124347.607500", "124348.067500", "124348.527500", "124348.987500", "124349.447500", "124349.907500", "124350.367500", "124350.827500", "124351.287500", "124351.747500", "124352.207500", "124352.667500", "124353.127500", "124353.587500", "124354.047500", "124354.507500", "124354.967500", "124355.427500", "124355.887500", "124356.347500", "124356.807500", "124357.267500", "124357.727500", "124358.187500", "124358.647500", "124359.107500", "124359.567500", "124400.027500", "124400.487500", "124400.947500", "124401.407500", "124401.867500", "124402.327500", "124402.787500", "124403.247500", "124403.707500", "124404.167500", "124404.627500", "124405.087500", "124405.547500", "124406.007500", "124406.467500", "124406.927500", "124407.387500", "124407.847500", "124408.307500", "124408.767500", "124409.227500", "124409.687500", "124410.147500", "124410.607500", "124411.067500", "124411.527500", "124411.987500", "124412.447500", "124412.907500", "124413.367500", "124413.827500", "124414.287500", "124414.747500", "124415.207500", "124415.667500", "124416.127500", "124416.587500", "124417.047500", "124417.507500", "124417.967500", "124418.427500", "124418.887500", "124419.347500", "124419.807500", "124420.267500", "124420.727500", "124421.187500", "124421.647500", "124422.107500", "124422.567500", "124423.027500", "124423.487500", "124423.947500", "124424.407500", "124424.867500", "124425.327500", "124425.787500", "124426.247500", "124426.707500", "124427.167500", "124427.627500", "124428.087500", "124428.547500", "124429.007500", "124429.467500", "124429.927500", "124430.387500", "124430.847500", "124431.307500", "124431.767500", "124432.227500", "124432.687500", "124433.147500", "124433.607500", "124434.067500", "124434.527500", "124434.987500", "124435.447500", "124435.907500", "124436.367500", "124436.827500", "124437.287500", "124437.747500", "124438.207500", "124438.667500", "124439.127500", "124439.587500", "124440.047500", "124440.507500", "124440.967500", "124441.427500", "124441.887500", "124442.347500", "124442.807500", "124443.267500", "124443.727500", "124444.187500", "124444.647500", "124445.107500", "124445.567500", "124446.027500", "124446.487500", "124446.947500", "124447.407500", "124447.867500", "124448.327500", "124448.787500", "124449.247500", "124449.707500", "124450.167500", "124450.627500", "124451.087500", "124451.547500", "124452.007500", "124452.467500", "124452.927500", "124453.387500", "124453.847500", "124454.307500", "124454.767500", "124455.227500", "124455.687500", "124456.147500", "124456.607500", "124457.067500", "124457.527500", "124457.987500", "124458.447500", "124458.907500", "124459.367500", "124459.827500", "124500.287500", "124500.747500", "124501.207500", "124501.667500", "124502.127500", "124502.587500", "124503.047500", "124503.507500", "124503.967500", "124504.427500", "124504.887500", "124505.347500", "124505.807500", "124506.267500", "124506.727500", "124507.187500", "124507.647500", "124508.107500", "124508.567500", "124509.027500", "124509.487500", "124509.947500", "124510.407500", "124510.867500", "124511.327500", "124511.787500", "124512.247500", "124512.707500", "124513.167500", "124513.627500", "124514.087500", "124514.547500", "124515.007500", "124515.467500", "124515.927500", "124516.387500", "124516.847500", "124517.307500", "124517.767500", "124518.227500", "124518.687500", "124519.147500", "124519.607500", "124520.067500", "124520.527500", "124520.987500", "124521.447500", "124521.907500", "124522.367500", "124522.827500", "124523.287500", "124523.747500", "124524.207500", "124524.667500", "124525.127500", "124525.587500", "124526.047500", "124526.507500", "124526.967500", "124527.427500", "124527.887500", "124528.347500", "124528.807500", "124529.267500", "124529.727500", "124530.187500", "124530.647500", "124531.107500", "124531.567500", "124532.027500", "124532.487500", "124532.947500", "124533.407500", "124533.867500", "124534.327500", "124534.787500", "124535.247500", "124535.707500", "124536.167500", "124536.627500", "124537.087500", "124537.547500", "124538.007500", "124538.467500", "124538.927500", "124539.387500", "124539.847500", "124540.307500", "124540.767500", "124541.227500", "124541.687500", "124542.147500", "124542.607500", "124543.067500", "124543.527500", "124543.987500", "124544.447500", "124544.907500", "124545.367500", "124545.827500", "124546.287500", "124546.747500", "124547.207500", "124547.667500", "124548.127500", "124548.587500", "124549.047500", "124549.507500", "124549.967500", "124550.427500", "124550.887500", "124551.347500", "124551.807500", "124552.267500", "124552.727500", "124553.187500", "124553.647500", "124554.107500", "124554.567500", "124555.027500", "124555.487500", "124555.947500", "124556.407500", "124556.867500", "124557.327500", "124557.787500", "124558.247500", "124558.707500", "124559.167500", "124559.627500", "124600.087500", "124600.547500", "124601.007500", "124601.467500", "124601.927500", "124602.387500", "124602.847500", "124603.307500", "124603.767500", "124604.227500", "124604.687500", "124605.147500", "124605.607500", "124606.067500", "124606.527500", "124606.987500", "124607.447500", "124607.907500", "124608.367500", "124608.827500", "124609.287500", "124609.747500", "124610.207500", "124610.667500", "124611.127500", "124611.587500", "124612.047500", "124612.507500", "124612.967500", "124613.427500", "124613.887500", "124614.347500", "124614.807500", "124615.267500", "124615.727500", "124616.187500", "124616.647500", "124617.107500", "124617.567500", "124618.027500", "124618.487500", "124618.947500", "124619.407500", "124619.867500", "124620.327500", "124620.787500", "124621.247500", "124621.707500", "124622.167500", "124622.627500", "124623.087500", "124623.547500", "124624.007500", "124624.467500", "124624.927500", "124625.387500", "124625.847500", "124626.307500", "124626.767500", "124627.227500", "124627.687500", "124628.147500", "124628.607500", "124629.067500", "124629.527500", "124629.987500", "124630.447500", "124630.907500", "124631.367500", "124631.827500", "124632.287500", "124632.747500", "124633.207500", "124633.667500", "124634.127500", "124634.587500", "124635.047500", "124635.507500", "124635.967500", "124636.427500", "124636.887500", "124637.347500", "124637.807500", "124638.267500", "124638.727500", "124639.187500", "124639.647500", "124640.107500", "124640.567500", "124641.027500", "124641.487500", "124641.947500", "124642.407500", "124642.867500", "124643.327500", "124643.787500", "124644.247500", "124644.707500", "124645.167500", "124645.627500", "124646.087500", "124646.547500", "124647.007500", "124647.467500", "124647.927500", "124648.387500", "124648.847500", "124649.307500", "124649.767500", "124650.227500", "124650.687500", "124651.147500", "124651.607500", "124652.067500", "124652.527500", "124652.987500", "124653.447500", "124653.907500", "124654.367500", "124654.827500", "124655.287500", "124655.747500", "124656.207500", "124656.667500", "124657.127500", "124657.587500", "124658.047500", "124658.507500", "124658.967500", "124659.427500", "124659.887500", "124700.347500", "124700.807500", "124701.267500", "124701.727500", "124702.187500", "124702.647500", "124703.107500", "124703.567500", "124704.027500", "124704.487500", "124704.947500", "124705.407500", "124705.867500", "124706.327500", "124706.787500", "124707.247500", "124707.707500", "124708.167500", "124708.627500", "124709.087500", "124709.547500", "124710.007500", "124710.467500", "124710.927500", "124711.387500", "124711.847500", "124712.307500", "124712.767500", "124713.227500", "124713.687500", "124714.147500", "124714.607500", "124715.067500", "124715.527500", "124715.987500", "124716.447500", "124716.907500", "124717.367500", "124717.827500", "124718.287500", "124718.747500", "124719.207500", "124719.667500", "124720.127500", "124720.587500", "124721.047500", "124721.507500", "124721.967500", "124722.427500", "124722.887500", "124723.347500", "124723.807500", "124724.267500", "124724.727500", "124725.187500", "124725.647500", "124726.107500", "124726.567500", "124727.027500", "124727.487500", "124727.947500", "124728.407500", "124728.867500", "124729.327500", "124729.787500", "124730.247500", "124730.707500", "124731.167500", "124731.627500", "124732.087500", "124732.547500", "124733.007500", "124733.467500", "124733.927500", "124734.387500", "124734.847500", "124735.307500", "124735.767500", "124736.227500", "124736.687500", "124737.147500", "124737.607500", "124738.067500", "124738.527500", "124738.987500", "124739.447500", "124739.907500", "124740.367500", "124740.827500", "124741.287500", "124741.747500", "124742.207500", "124742.667500", "124743.127500", "124743.587500", "124744.047500", "124744.507500", "124744.967500", "124745.427500", "124745.887500", "124746.347500", "124746.807500", "124747.267500", "124747.727500", "124748.187500", "124748.647500", "124749.107500", "124749.567500", "124750.027500", "124750.487500", "124750.947500", "124751.407500", "124751.867500", "124752.327500", "124752.787500", "124753.247500", "124753.707500", "124754.167500", "124754.627500", "124755.087500", "124755.547500", "124756.007500", "124756.467500", "124756.927500", "124757.387500", "124757.847500", "124758.307500", "124758.767500", "124759.227500", "124759.687500", "124800.147500", "124800.607500", "124801.067500", "124801.527500", "124801.987500", "124802.447500", "124802.907500", "124803.367500", "124803.827500", "124804.287500", "124804.747500", "124805.207500", "124805.667500", "124806.127500", "124806.587500", "124807.047500", "124807.507500", "124807.967500", "124808.427500", "124808.887500", "124809.347500", "124809.807500", "124810.267500", "124810.727500", "124811.187500", "124811.647500", "124812.107500", "124812.567500", "124813.027500", "124813.487500", "124813.947500", "124814.407500", "124814.867500", "124815.327500", "124815.787500", "124816.247500", "124816.707500", "124817.167500", "124817.627500", "124818.087500", "124818.547500", "124819.007500", "124819.467500", "124819.927500", "124820.387500"],
