{
  "AcquisitionMatrixPE": 82,
  "AcquisitionNumber": 1,
  "AcquisitionTime": "13:34:46.310000",
  "BandwidthPerPixelPhaseEncode": 24.888,
  "BaseResolution": 82,
  "BodyPartExamined": "BRAIN",
  "ConsistencyInfo": "N4_VE11E_LATEST_20181129",
  "ConversionSoftware": "dcm2niix",
  "ConversionSoftwareVersion": "v1.0.20201102",
  "DerivedVendorReportedEchoSpacing": 0.00049,
  "DeviceSerialNumber": "66112",
  "DwellTime": 2e-06,
  "EchoTime": 0.0272,
  "EchoTrainLength": 82,
  "EffectiveEchoSpacing": 0.00049,
  "FlipAngle": 44,
  "ImageComments": "Unaliased MB8/PE3",
  "ImageOrientationPatientDICOM": [0.999259, 0.0227327, -0.0310731, -0.0231999, 0.999622, -0.0147555],
  "ImageType": [
    "ORIGINAL",
    "PRIMARY",
    "M",
    "MB",
    "ND",
    "NORM",
    "MOSAIC"
],
  "ImagingFrequency": 123.259,
  "InPlanePhaseEncodingDirectionDICOM": "COL",
  "InstitutionAddress": "Maynard 3,Hanover,NH,US,03755",
  "InstitutionName": "Dartmouth College - PBS",
  "InstitutionalDepartmentName": "Department",
  "MRAcquisitionType": "2D",
  "MagneticFieldStrength": 3,
  "Manufacturer": "Siemens",
  "ManufacturersModelName": "Prisma",
  "Modality": "MR",
  "MultibandAccelerationFactor": 8,
  "PartialFourier": 1,
  "PatientPosition": "HFS",
  "PercentPhaseFOV": 100,
  "PercentSampling": 100,
  "PhaseEncodingDirection": "j-",
  "PhaseEncodingSteps": 82,
  "PhaseResolution": 1,
  "PixelBandwidth": 3050,
  "ProcedureStepDescription": "Wager_Wager^1076_spacetop",
  "ProtocolName": "func_run-03_task-alignvideo_acq-ap-mb8",
  "PulseSequenceDetails": "%CustomerSeq%\\cmrr_mbep2d_bold",
  "ReceiveCoilActiveElements": "HEA;HEP",
  "ReceiveCoilName": "Head_32",
  "ReconMatrixPE": 82,
  "RepetitionTime": 0.46,
  "SAR": 0.112439,
  "ScanOptions": "FS",
  "ScanningSequence": "EP",
  "SequenceName": "epfid2d1_82",
  "SequenceVariant": "SK\\SS",
  "SeriesDescription": "func_run-03_task-alignvideo_acq-ap-mb8",
  "SeriesNumber": 34,
  "ShimSetting": [4225, -7754, -7257, 136, -100, -12, 59, 132],
  "SliceThickness": 2.7,
  "SliceTiming": [0, 0.2525, 0.065, 0.315, 0.1275, 0.3775, 0.19, 0, 0.2525, 0.065, 0.315, 0.1275, 0.3775, 0.19, 0, 0.2525, 0.065, 0.315, 0.1275, 0.3775, 0.19, 0, 0.2525, 0.065, 0.315, 0.1275, 0.3775, 0.19, 0, 0.2525, 0.065, 0.315, 0.1275, 0.3775, 0.19, 0, 0.2525, 0.065, 0.315, 0.1275, 0.3775, 0.19, 0, 0.2525, 0.065, 0.315, 0.1275, 0.3775, 0.19, 0, 0.2525, 0.065, 0.315, 0.1275, 0.3775, 0.19],
  "SoftwareVersions": "syngo MR E11",
  "SpacingBetweenSlices": 2.7,
  "StationName": "AWP66112",
  "TaskName": "alignvideo",
  "TotalReadoutTime": 0.03969,
  "TxRefAmp": 248.67,
  "WipMemBlock": "221b9f95-a308-41b4-af3f-39e18c155f1c||Sequence: R016 ve11e/master r/434b28f1; Aug  7 2019 18:53:46 by eja",
  "dcmmeta_affine": [
    [-2.6809377670288086, -0.0622435063123703, -0.08296004682779312, 116.25617980957031],
    [-0.06099029257893562, 2.681912660598755, -0.04175671935081482, -91.37535858154297],
    [-0.08336692303419113, 0.039587926119565964, 2.698402166366577, -72.18623352050781],
    [0.0, 0.0, 0.0, 1.0]
],
  "dcmmeta_reorient_transform": [
    [0.0, -1.0, 0.0, 81.0],
    [1.0, 0.0, 0.0, 0.0],
    [0.0, 0.0, 1.0, 0.0],
    [0.0, 0.0, 0.0, 1.0]
],
  "dcmmeta_shape": [82, 82, 56, 1016],
  "dcmmeta_slice_dim": 2,
  "dcmmeta_version": 0.6,
  "global": {
    "const": {
      "AccessionNumber": "A004806",
      "AcquisitionMatrix": [82, 0, 0, 82],
      "AngioFlag": "N",
      "BitsAllocated": 16,
      "BitsStored": 16,
      "BodyPartExamined": "BRAIN",
      "Columns": 656,
      "EchoNumbers": 1,
      "EchoTime": 27.2,
      "EchoTrainLength": 82,
      "FlipAngle": 44.0,
      "HighBit": 15,
      "ImageOrientationPatient": [0.99925856674529, 0.02273274544121, -0.0310731245749, -0.0231998519347, 0.99962194959068, -0.0147554995425],
      "ImagePositionPatient": [-862.77968121681, -913.07269819816, -33.691569397686],
      "ImageType": [
        "ORIGINAL",
        "PRIMARY",
        "M",
        "MB",
        "ND",
        "NORM",
        "MOSAIC"
],
      "ImagedNucleus": "1H",
      "ImagingFrequency": 123.259089,
      "InPlanePhaseEncodingDirection": "COL",
      "MRAcquisitionType": "2D",
      "MagneticFieldStrength": 3.0,
      "Manufacturer": "SIEMENS",
      "ManufacturerModelName": "Prisma",
      "Modality": "MR",
      "NumberOfAverages": 1.0,
      "NumberOfPhaseEncodingSteps": 82,
      "PercentPhaseFieldOfView": 100.0,
      "PercentSampling": 100.0,
      "PerformedProcedureStepStartTime": "113728.177000",
      "PhotometricInterpretation": "MONOCHROME2",
      "PixelBandwidth": 3050.0,
      "PixelRepresentation": 0,
      "PixelSpacing": [2.6829268932343, 2.6829268932343],
      "ProtocolName": "func_run-03_task-alignvideo_acq-ap-mb8",
      "RepetitionTime": 460.0,
      "Rows": 656,
      "SAR": 0.11243875224938,
      "SamplesPerPixel": 1,
      "ScanOptions": "FS",
      "ScanningSequence": "EP",
      "SequenceName": "epfid2d1_82",
      "SequenceVariant": [
        "SK",
        "SS"
],
      "SeriesDescription": "func_run-03_task-alignvideo_acq-ap-mb8",
      "SeriesNumber": 34,
      "SeriesTime": "133503.908000",
      "SliceLocation": -74.302432231934,
      "SliceThickness": 2.7000000476837,
      "SmallestImagePixelValue": 0,
      "SoftwareVersions": "syngo MR E11",
      "SpacingBetweenSlices": 2.7000000063532,
      "SpecificCharacterSet": "ISO_IR 100",
      "StudyID": "1",
      "StudyTime": "113728.078000",
      "TransmitCoilName": "Body",
      "VariableFlipAngleFlag": "N",
      "WindowCenterWidthExplanation": "Algo1"
    },
    "slices": {}
  },
  "time": {
    "samples": {
      "AcquisitionNumber": [1, 2, 3, 4, 5, 6, 7, 8, 9, 10, 11, 12, 13, 14, 15, 16, 17, 18, 19, 20, 21, 22, 23, 24, 25, 26, 27, 28, 29, 30, 31, 32, 33, 34, 35, 36, 37, 38, 39, 40, 41, 42, 43, 44, 45, 46, 47, 48, 49, 50, 51, 52, 53, 54, 55, 56, 57, 58, 59, 60, 61, 62, 63, 64, 65, 66, 67, 68, 69, 70, 71, 72, 73, 74, 75, 76, 77, 78, 79, 80, 81, 82, 83, 84, 85, 86, 87, 88, 89, 90, 91, 92, 93, 94, 95, 96, 97, 98, 99, 100, 101, 102, 103, 104, 105, 106, 107, 108, 109, 110, 111, 112, 113, 114, 115, 116, 117, 118, 119, 120, 121, 122, 123, 124, 125, 126, 127, 128, 129, 130, 131, 132, 133, 134, 135, 136, 137, 138, 139, 140, 141, 142, 143, 144, 145, 146, 147, 148, 149, 150, 151, 152, 153, 154, 155, 156, 157, 158, 159, 160, 161, 162, 163, 164, 165, 166, 167, 168, 169, 170, 171, 172, 173, 174, 175, 176, 177, 178, 179, 180, 181, 182, 183, 184, 185, 186, 187, 188, 189, 190, 191, 192, 193, 194, 195, 196, 197, 198, 199, 200, 201, 202, 203, 204, 205, 206, 207, 208, 209, 210, 211, 212, 213, 214, 215, 216, 217, 218, 219, 220, 221, 222, 223, 224, 225, 226, 227, 228, 229, 230, 231, 232, 233, 234, 235, 236, 237, 238, 239, 240, 241, 242, 243, 244, 245, 246, 247, 248, 249, 250, 251, 252, 253, 254, 255, 256, 257, 258, 259, 260, 261, 262, 263, 264, 265, 266, 267, 268, 269, 270, 271, 272, 273, 274, 275, 276, 277, 278, 279, 280, 281, 282, 283, 284, 285, 286, 287, 288, 289, 290, 291, 292, 293, 294, 295, 296, 297, 298, 299, 300, 301, 302, 303, 304, 305, 306, 307, 308, 309, 310, 311, 312, 313, 314, 315, 316, 317, 318, 319, 320, 321, 322, 323, 324, 325, 326, 327, 328, 329, 330, 331, 332, 333, 334, 335, 336, 337, 338, 339, 340, 341, 342, 343, 344, 345, 346, 347, 348, 349, 350, 351, 352, 353, 354, 355, 356, 357, 358, 359, 360, 361, 362, 363, 364, 365, 366, 367, 368, 369, 370, 371, 372, 373, 374, 375, 376, 377, 378, 379, 380, 381, 382, 383, 384, 385, 386, 387, 388, 389, 390, 391, 392, 393, 394, 395, 396, 397, 398, 399, 400, 401, 402, 403, 404, 405, 406, 407, 408, 409, 410, 411, 412, 413, 414, 415, 416, 417, 418, 419, 420, 421, 422, 423, 424, 425, 426, 427, 428, 429, 430, 431, 432, 433, 434, 435, 436, 437, 438, 439, 440, 441, 442, 443, 444, 445, 446, 447, 448, 449, 450, 451, 452, 453, 454, 455, 456, 457, 458, 459, 460, 461, 462, 463, 464, 465, 466, 467, 468, 469, 470, 471, 472, 473, 474, 475, 476, 477, 478, 479, 480, 481, 482, 483, 484, 485, 486, 487, 488, 489, 490, 491, 492, 493, 494, 495, 496, 497, 498, 499, 500, 501, 502, 503, 504, 505, 506, 507, 508, 509, 510, 511, 512, 513, 514, 515, 516, 517, 518, 519, 520, 521, 522, 523, 524, 525, 526, 527, 528, 529, 530, 531, 532, 533, 534, 535, 536, 537, 538, 539, 540, 541, 542, 543, 544, 545, 546, 547, 548, 549, 550, 551, 552, 553, 554, 555, 556, 557, 558, 559, 560, 561, 562, 563, 564, 565, 566, 567, 568, 569, 570, 571, 572, 573, 574, 575, 576, 577, 578, 579, 580, 581, 582, 583, 584, 585, 586, 587, 588, 589, 590, 591, 592, 593, 594, 595, 596, 597, 598, 599, 600, 601, 602, 603, 604, 605, 606, 607, 608, 609, 610, 611, 612, 613, 614, 615, 616, 617, 618, 619, 620, 621, 622, 623, 624, 625, 626, 627, 628, 629, 630, 631, 632, 633, 634, 635, 636, 637, 638, 639, 640, 641, 642, 643, 644, 645, 646, 647, 648, 649, 650, 651, 652, 653, 654, 655, 656, 657, 658, 659, 660, 661, 662, 663, 664, 665, 666, 667, 668, 669, 670, 671, 672, 673, 674, 675, 676, 677, 678, 679, 680, 681, 682, 683, 684, 685, 686, 687, 688, 689, 690, 691, 692, 693, 694, 695, 696, 697, 698, 699, 700, 701, 702, 703, 704, 705, 706, 707, 708, 709, 710, 711, 712, 713, 714, 715, 716, 717, 718, 719, 720, 721, 722, 723, 724, 725, 726, 727, 728, 729, 730, 731, 732, 733, 734, 735, 736, 737, 738, 739, 740, 741, 742, 743, 744, 745, 746, 747, 748, 749, 750, 751, 752, 753, 754, 755, 756, 757, 758, 759, 760, 761, 762, 763, 764, 765, 766, 767, 768, 769, 770, 771, 772, 773, 774, 775, 776, 777, 778, 779, 780, 781, 782, 783, 784, 785, 786, 787, 788, 789, 790, 791, 792, 793, 794, 795, 796, 797, 798, 799, 800, 801, 802, 803, 804, 805, 806, 807, 808, 809, 810, 811, 812, 813, 814, 815, 816, 817, 818, 819, 820, 821, 822, 823, 824, 825, 826, 827, 828, 829, 830, 831, 832, 833, 834, 835, 836, 837, 838, 839, 840, 841, 842, 843, 844, 845, 846, 847, 848, 849, 850, 851, 852, 853, 854, 855, 856, 857, 858, 859, 860, 861, 862, 863, 864, 865, 866, 867, 868, 869, 870, 871, 872, 873, 874, 875, 876, 877, 878, 879, 880, 881, 882, 883, 884, 885, 886, 887, 888, 889, 890, 891, 892, 893, 894, 895, 896, 897, 898, 899, 900, 901, 902, 903, 904, 905, 906, 907, 908, 909, 910, 911, 912, 913, 914, 915, 916, 917, 918, 919, 920, 921, 922, 923, 924, 925, 926, 927, 928, 929, 930, 931, 932, 933, 934, 935, 936, 937, 938, 939, 940, 941, 942, 943, 944, 945, 946, 947, 948, 949, 950, 951, 952, 953, 954, 955, 956, 957, 958, 959, 960, 961, 962, 963, 964, 965, 966, 967, 968, 969, 970, 971, 972, 973, 974, 975, 976, 977, 978, 979, 980, 981, 982, 983, 984, 985, 986, 987, 988, 989, 990, 991, 992, 993, 994, 995, 996, 997, 998, 999, 1000, 1001, 1002, 1003, 1004, 1005, 1006, 1007, 1008, 1009, 1010, 1011, 1012, 1013, 1014, 1015, 1016],
      "AcquisitionTime": ["133446.310000", "133446.770000", "133447.230000", "133447.690000", "133448.150000", "133448.610000", "133449.070000", "133449.530000", "133449.990000", "133450.450000", "133450.910000", "133451.370000", "133451.830000", "133452.290000", "133452.750000", "133453.210000", "133453.670000", "133454.130000", "133454.590000", "133455.050000", "133455.510000", "133455.970000", "133456.430000", "133456.890000", "133457.350000", "133457.810000", "133458.270000", "133458.730000", "133459.190000", "133459.650000", "133500.110000", "133500.570000", "133501.030000", "133501.490000", "133501.950000", "133502.410000", "133502.870000", "133503.330000", "133503.790000", "133504.250000", "133504.710000", "133505.170000", "133505.630000", "133506.090000", "133506.550000", "133507.010000", "133507.470000", "133507.930000", "133508.390000", "133508.850000", "133509.310000", "133509.770000", "133510.230000", "133510.690000", "133511.150000", "133511.610000", "133512.070000", "133512.530000", "133512.990000", "133513.450000", "133513.910000", "133514.370000", "133514.830000", "133515.290000", "133515.750000", "133516.210000", "133516.670000", "133517.130000", "133517.590000", "133518.050000", "133518.510000", "133518.970000", "133519.430000", "133519.890000", "133520.350000", "133520.810000", "133521.270000", "133521.730000", "133522.190000", "133522.650000", "133523.110000", "133523.570000", "133524.030000", "133524.490000", "133524.950000", "133525.410000", "133525.870000", "133526.330000", "133526.790000", "133527.250000", "133527.710000", "133528.170000", "133528.630000", "133529.090000", "133529.550000", "133530.010000", "133530.470000", "133530.930000", "133531.390000", "133531.850000", "133532.310000", "133532.770000", "133533.230000", "133533.690000", "133534.150000", "133534.610000", "133535.070000", "133535.530000", "133535.990000", "133536.450000", "133536.910000", "133537.370000", "133537.830000", "133538.290000", "133538.750000", "133539.210000", "133539.670000", "133540.130000", "133540.590000", "133541.050000", "133541.510000", "133541.970000", "133542.430000", "133542.890000", "133543.350000", "133543.810000", "133544.270000", "133544.730000", "133545.190000", "133545.650000", "133546.110000", "133546.570000", "133547.030000", "133547.490000", "133547.950000", "133548.410000", "133548.870000", "133549.330000", "133549.790000", "133550.250000", "133550.710000", "133551.170000", "133551.630000", "133552.090000", "133552.550000", "133553.010000", "133553.470000", "133553.930000", "133554.390000", "133554.850000", "133555.310000", "133555.770000", "133556.230000", "133556.690000", "133557.150000", "133557.610000", "133558.070000", "133558.530000", "133558.990000", "133559.450000", "133559.910000", "133600.370000", "133600.830000", "133601.290000", "133601.750000", "133602.210000", "133602.670000", "133603.130000", "133603.590000", "133604.050000", "133604.510000", "133604.970000", "133605.430000", "133605.890000", "133606.350000", "133606.810000", "133607.270000", "133607.730000", "133608.190000", "133608.650000", "133609.110000", "133609.570000", "133610.030000", "133610.490000", "133610.950000", "133611.410000", "133611.870000", "133612.330000", "133612.790000", "133613.250000", "133613.710000", "133614.170000", "133614.630000", "133615.090000", "133615.550000", "133616.010000", "133616.470000", "133616.930000", "133617.390000", "133617.850000", "133618.310000", "133618.770000", "133619.230000", "133619.690000", "133620.150000", "133620.610000", "133621.070000", "133621.530000", "133621.990000", "133622.450000", "133622.910000", "133623.370000", "133623.830000", "133624.290000", "133624.750000", "133625.210000", "133625.670000", "133626.130000", "133626.590000", "133627.050000", "133627.510000", "133627.970000", "133628.430000", "133628.890000", "133629.350000", "133629.810000", "133630.270000", "133630.730000", "133631.190000", "133631.650000", "133632.110000", "133632.570000", "133633.030000", "133633.490000", "133633.950000", "133634.410000", "133634.870000", "133635.330000", "133635.790000", "133636.250000", "133636.710000", "133637.170000", "133637.630000", "133638.090000", "133638.550000", "133639.010000", "133639.470000", "133639.930000", "133640.390000", "133640.850000", "133641.310000", "133641.770000", "133642.230000", "133642.690000", "133643.150000", "133643.610000", "133644.070000", "133644.530000", "133644.990000", "133645.450000", "133645.910000", "133646.370000", "133646.830000", "133647.290000", "133647.750000", "133648.210000", "133648.670000", "133649.130000", "133649.590000", "133650.050000", "133650.510000", "133650.970000", "133651.430000", "133651.890000", "133652.350000", "133652.810000", "133653.270000", "133653.730000", "133654.190000", "133654.650000", "133655.110000", "133655.570000", "133656.030000", "133656.490000", "133656.950000", "133657.410000", "133657.870000", "133658.330000", "133658.790000", "133659.250000", "133659.710000", "133700.170000", "133700.630000", "133701.090000", "133701.550000", "133702.010000", "133702.470000", "133702.930000", "133703.390000", "133703.850000", "133704.310000", "133704.770000", "133705.230000", "133705.690000", "133706.150000", "133706.610000", "133707.070000", "133707.530000", "133707.990000", "133708.450000", "133708.910000", "133709.370000", "133709.830000", "133710.290000", "133710.750000", "133711.210000", "133711.670000", "133712.130000", "133712.590000", "133713.050000", "133713.510000", "133713.970000", "133714.430000", "133714.890000", "133715.350000", "133715.810000", "133716.270000", "133716.730000", "133717.190000", "133717.650000", "133718.110000", "133718.570000", "133719.030000", "133719.490000", "133719.950000", "133720.410000", "133720.870000", "133721.330000", "133721.790000", "133722.250000", "133722.710000", "133723.170000", "133723.630000", "133724.090000", "133724.550000", "133725.010000", "133725.470000", "133725.930000", "133726.390000", "133726.850000", "133727.310000", "133727.770000", "133728.230000", "133728.690000", "133729.150000", "133729.610000", "133730.070000", "133730.530000", "133730.990000", "133731.450000", "133731.910000", "133732.370000", "133732.830000", "133733.290000", "133733.750000", "133734.210000", "133734.670000", "133735.130000", "133735.590000", "133736.050000", "133736.510000", "133736.970000", "133737.430000", "133737.890000", "133738.350000", "133738.810000", "133739.270000", "133739.730000", "133740.190000", "133740.650000", "133741.110000", "133741.570000", "133742.030000", "133742.490000", "133742.950000", "133743.410000", "133743.870000", "133744.330000", "133744.790000", "133745.250000", "133745.710000", "133746.170000", "133746.630000", "133747.090000", "133747.550000", "133748.010000", "133748.470000", "133748.930000", "133749.390000", "133749.850000", "133750.310000", "133750.770000", "133751.230000", "133751.690000", "133752.150000", "133752.610000", "133753.070000", "133753.530000", "133753.990000", "133754.450000", "133754.910000", "133755.370000", "133755.830000", "133756.290000", "133756.750000", "133757.210000", "133757.670000", "133758.130000", "133758.590000", "133759.050000", "133759.510000", "133759.970000", "133800.430000", "133800.890000", "133801.350000", "133801.810000", "133802.270000", "133802.730000", "133803.190000", "133803.650000", "133804.110000", "133804.570000", "133805.030000", "133805.490000", "133805.950000", "133806.410000", "133806.870000", "133807.330000", "133807.790000", "133808.250000", "133808.710000", "133809.170000", "133809.630000", "133810.090000", "133810.550000", "133811.010000", "133811.470000", "133811.930000", "133812.390000", "133812.850000", "133813.310000", "133813.770000", "133814.230000", "133814.690000", "133815.150000", "133815.610000", "133816.070000", "133816.530000", "133816.990000", "133817.450000", "133817.910000", "133818.370000", "133818.830000", "133819.290000", "133819.750000", "133820.210000", "133820.670000", "133821.130000", "133821.590000", "133822.050000", "133822.510000", "133822.970000", "133823.430000", "133823.890000", "133824.350000", "133824.810000", "133825.270000", "133825.730000", "133826.190000", "133826.650000", "133827.110000", "133827.570000", "133828.030000", "133828.490000", "133828.950000", "133829.410000", "133829.870000", "133830.330000", "133830.790000", "133831.250000", "133831.710000", "133832.170000", "133832.630000", "133833.090000", "133833.550000", "133834.010000", "133834.470000", "133834.930000", "133835.390000", "133835.850000", "133836.310000", "133836.770000", "133837.230000", "133837.690000", "133838.150000", "133838.610000", "133839.070000", "133839.530000", "133839.990000", "133840.450000", "133840.910000", "133841.370000", "133841.830000", "133842.290000", "133842.750000", "133843.210000", "133843.670000", "133844.130000", "133844.590000", "133845.050000", "133845.510000", "133845.970000", "133846.430000", "133846.890000", "133847.350000", "133847.810000", "133848.270000", "133848.730000", "133849.190000", "133849.650000", "133850.110000", "133850.570000", "133851.030000", "133851.490000", "133851.950000", "133852.410000", "133852.870000", "133853.330000", "133853.790000", "133854.250000", "133854.710000", "133855.170000", "133855.630000", "133856.090000", "133856.550000", "133857.010000", "133857.470000", "133857.930000", "133858.390000", "133858.850000", "133859.310000", "133859.770000", "133900.230000", "133900.690000", "133901.150000", "133901.610000", "133902.070000", "133902.530000", "133902.990000", "133903.450000", "133903.910000", "133904.370000", "133904.830000", "133905.290000", "133905.750000", "133906.210000", "133906.670000", "133907.130000", "133907.590000", "133908.050000", "133908.510000", "133908.970000", "133909.430000", "133909.890000", "133910.350000", "133910.810000", "133911.270000", "133911.730000", "133912.190000", "133912.650000", "133913.110000", "133913.570000", "133914.030000", "133914.490000", "133914.950000", "133915.410000", "133915.870000", "133916.330000", "133916.790000", "133917.250000", "133917.710000", "133918.170000", "133918.630000", "133919.090000", "133919.550000", "133920.010000", "133920.470000", "133920.930000", "133921.390000", "133921.850000", "133922.310000", "133922.770000", "133923.230000", "133923.690000", "133924.150000", "133924.610000", "133925.070000", "133925.530000", "133925.990000", "133926.450000", "133926.910000", "133927.370000", "133927.830000", "133928.290000", "133928.750000", "133929.210000", "133929.670000", "133930.130000", "133930.590000", "133931.050000", "133931.510000", "133931.970000", "133932.430000", "133932.890000", "133933.350000", "133933.810000", "133934.270000", "133934.730000", "133935.190000", "133935.650000", "133936.110000", "133936.570000", "133937.030000", "133937.490000", "133937.950000", "133938.410000", "133938.870000", "133939.330000", "133939.790000", "133940.250000", "133940.710000", "133941.170000", "133941.630000", "133942.090000", "133942.550000", "133943.010000", "133943.470000", "133943.930000", "133944.390000", "133944.850000", "133945.310000", "133945.770000", "133946.230000", "133946.690000", "133947.150000", "133947.610000", "133948.070000", "133948.530000", "133948.990000", "133949.450000", "133949.910000", "133950.370000", "133950.830000", "133951.290000", "133951.750000", "133952.210000", "133952.670000", "133953.130000", "133953.590000", "133954.050000", "133954.510000", "133954.970000", "133955.430000", "133955.890000", "133956.350000", "133956.810000", "133957.270000", "133957.730000", "133958.190000", "133958.650000", "133959.110000", "133959.570000", "134000.030000", "134000.490000", "134000.950000", "134001.410000", "134001.870000", "134002.330000", "134002.790000", "134003.250000", "134003.710000", "134004.170000", "134004.630000", "134005.090000", "134005.550000", "134006.010000", "134006.470000", "134006.930000", "134007.390000", "134007.850000", "134008.310000", "134008.770000", "134009.230000", "134009.690000", "134010.150000", "134010.610000", "134011.070000", "134011.530000", "134011.990000", "134012.450000", "134012.910000", "134013.370000", "134013.830000", "134014.290000", "134014.750000", "134015.210000", "134015.670000", "134016.130000", "134016.590000", "134017.050000", "134017.510000", "134017.970000", "134018.430000", "134018.890000", "134019.350000", "134019.810000", "134020.270000", "134020.730000", "134021.190000", "134021.650000", "134022.110000", "134022.570000", "134023.030000", "134023.490000", "134023.950000", "134024.410000", "134024.870000", "134025.330000", "134025.790000", "134026.250000", "134026.710000", "134027.170000", "134027.630000", "134028.090000", "134028.550000", "134029.010000", "134029.470000", "134029.930000", "134030.390000", "134030.850000", "134031.310000", "134031.770000", "134032.230000", "134032.690000", "134033.150000", "134033.610000", "134034.070000", "134034.530000", "134034.990000", "134035.450000", "134035.910000", "134036.370000", "134036.830000", "134037.290000", "134037.750000", "134038.210000", "134038.670000", "134039.130000", "134039.590000", "134040.050000", "134040.510000", "134040.970000", "134041.430000", "134041.890000", "134042.350000", "134042.810000", "134043.270000", "134043.730000", "134044.190000", "134044.650000", "134045.110000", "134045.570000", "134046.030000", "134046.490000", "134046.950000", "134047.410000", "134047.870000", "134048.330000", "134048.790000", "134049.250000", "134049.710000", "134050.170000", "134050.630000", "134051.090000", "134051.550000", "134052.010000", "134052.470000", "134052.930000", "134053.390000", "134053.850000", "134054.310000", "134054.770000", "134055.230000", "134055.690000", "134056.150000", "134056.610000", "134057.070000", "134057.530000", "134057.990000", "134058.450000", "134058.910000", "134059.370000", "134059.830000", "134100.290000", "134100.750000", "134101.210000", "134101.670000", "134102.130000", "134102.590000", "134103.050000", "134103.510000", "134103.970000", "134104.430000", "134104.890000", "134105.350000", "134105.810000", "134106.270000", "134106.730000", "134107.190000", "134107.650000", "134108.110000", "134108.570000", "134109.030000", "134109.490000", "134109.950000", "134110.410000", "134110.870000", "134111.330000", "134111.790000", "134112.250000", "134112.710000", "134113.170000", "134113.630000", "134114.090000", "134114.550000", "134115.010000", "134115.470000", "134115.930000", "134116.390000", "134116.850000", "134117.310000", "134117.770000", "134118.230000", "134118.690000", "134119.150000", "134119.610000", "134120.070000", "134120.530000", "134120.990000", "134121.450000", "134121.910000", "134122.370000", "134122.830000", "134123.290000", "134123.750000", "134124.210000", "134124.670000", "134125.130000", "134125.590000", "134126.050000", "134126.510000", "134126.970000", "134127.430000", "134127.890000", "134128.350000", "134128.810000", "134129.270000", "134129.730000", "134130.190000", "134130.650000", "134131.110000", "134131.570000", "134132.030000", "134132.490000", "134132.950000", "134133.410000", "134133.870000", "134134.330000", "134134.790000", "134135.250000", "134135.710000", "134136.170000", "134136.630000", "134137.090000", "134137.550000", "134138.010000", "134138.470000", "134138.930000", "134139.390000", "134139.850000", "134140.310000", "134140.770000", "134141.230000", "134141.690000", "134142.150000", "134142.610000", "134143.070000", "134143.530000", "134143.990000", "134144.450000", "134144.910000", "134145.370000", "134145.830000", "134146.290000", "134146.750000", "134147.210000", "134147.670000", "134148.130000", "134148.590000", "134149.050000", "134149.510000", "134149.970000", "134150.430000", "134150.890000", "134151.350000", "134151.810000", "134152.270000", "134152.730000", "134153.190000", "134153.650000", "134154.110000", "134154.570000", "134155.030000", "134155.490000", "134155.950000", "134156.410000", "134156.870000", "134157.330000", "134157.790000", "134158.250000", "134158.710000", "134159.170000", "134159.630000", "134200.090000", "134200.550000", "134201.010000", "134201.470000", "134201.930000", "134202.390000", "134202.850000", "134203.310000", "134203.770000", "134204.230000", "134204.690000", "134205.150000", "134205.610000", "134206.070000", "134206.530000", "134206.990000", "134207.450000", "134207.910000", "134208.370000", "134208.830000", "134209.290000", "134209.750000", "134210.210000", "134210.670000", "134211.130000", "134211.590000", "134212.050000", "134212.510000", "134212.970000", "134213.430000", "134213.890000", "134214.350000", "134214.810000", "134215.270000", "134215.730000", "134216.190000", "134216.650000", "134217.110000", "134217.570000", "134218.030000", "134218.490000", "134218.950000", "134219.410000", "134219.870000", "134220.330000", "134220.790000", "134221.250000", "134221.710000", "134222.170000", "134222.630000", "134223.090000", "134223.550000", "134224.010000", "134224.470000", "134224.930000", "134225.390000", "134225.850000", "134226.310000", "134226.770000", "134227.230000", "134227.690000", "134228.150000", "134228.610000", "134229.070000", "134229.530000", "134229.990000", "134230.450000", "134230.910000", "134231.370000", "134231.830000", "134232.290000", "134232.750000", "134233.210000"],
