{
  "AcquisitionMatrixPE": 82,
  "AcquisitionNumber": 1,
  "AcquisitionTime": "12:27:8.135000",
  "BandwidthPerPixelPhaseEncode": 24.888,
  "BaseResolution": 82,
  "BodyPartExamined": "BRAIN",
  "ConsistencyInfo": "N4_VE11E_LATEST_20181129",
  "ConversionSoftware": "dcm2niix",
  "ConversionSoftwareVersion": "v1.0.20201102",
  "DerivedVendorReportedEchoSpacing": 0.00049,
  "DeviceSerialNumber": "66112",
  "DwellTime": 2e-06,
  "EchoTime": 0.0272,
  "EchoTrainLength": 82,
  "EffectiveEchoSpacing": 0.00049,
  "FlipAngle": 44,
  "ImageComments": "Unaliased MB8/PE3",
  "ImageOrientationPatientDICOM": [0.999433, 0.0134801, -0.0308404, -0.0137812, 0.999859, -0.00957185],
  "ImageType": [
    "ORIGINAL",
    "PRIMARY",
    "M",
    "MB",
    "ND",
    "NORM",
    "MOSAIC"
],
  "ImagingFrequency": 123.259,
  "InPlanePhaseEncodingDirectionDICOM": "COL",
  "InstitutionAddress": "Maynard 3,Hanover,NH,US,03755",
  "InstitutionName": "Dartmouth College - PBS",
  "InstitutionalDepartmentName": "Department",
  "MRAcquisitionType": "2D",
  "MagneticFieldStrength": 3,
  "Manufacturer": "Siemens",
  "ManufacturersModelName": "Prisma",
  "Modality": "MR",
  "MultibandAccelerationFactor": 8,
  "PartialFourier": 1,
  "PatientPosition": "HFS",
  "PercentPhaseFOV": 100,
  "PercentSampling": 100,
  "PhaseEncodingDirection": "j-",
  "PhaseEncodingSteps": 82,
  "PhaseResolution": 1,
  "PixelBandwidth": 3050,
  "ProcedureStepDescription": "Wager_Wager^1076_spacetop",
  "ProtocolName": "func_run-01_task-social_acq-ap-mb8",
  "PulseSequenceDetails": "%CustomerSeq%\\cmrr_mbep2d_bold",
  "ReceiveCoilActiveElements": "HEA;HEP",
  "ReceiveCoilName": "Head_32",
  "ReconMatrixPE": 82,
  "RepetitionTime": 0.46,
  "SAR": 0.11234,
  "ScanOptions": "FS",
  "ScanningSequence": "EP",
  "SequenceName": "epfid2d1_82",
  "SequenceVariant": "SK\\SS",
  "SeriesDescription": "func_run-01_task-social_acq-ap-mb8",
  "SeriesNumber": 12,
  "ShimSetting": [4223, -7754, -7260, 114, -102, -38, 62, 131],
  "SliceThickness": 2.7,
  "SliceTiming": [0, 0.25, 0.0625, 0.315, 0.125, 0.3775, 0.1875, 0, 0.25, 0.0625, 0.315, 0.125, 0.3775, 0.1875, 0, 0.25, 0.0625, 0.315, 0.125, 0.3775, 0.1875, 0, 0.25, 0.0625, 0.315, 0.125, 0.3775, 0.1875, 0, 0.25, 0.0625, 0.315, 0.125, 0.3775, 0.1875, 0, 0.25, 0.0625, 0.315, 0.125, 0.3775, 0.1875, 0, 0.25, 0.0625, 0.315, 0.125, 0.3775, 0.1875, 0, 0.25, 0.0625, 0.315, 0.125, 0.3775, 0.1875],
  "SoftwareVersions": "syngo MR E11",
  "SpacingBetweenSlices": 2.7,
  "StationName": "AWP66112",
  "TaskName": "social",
  "TotalReadoutTime": 0.03969,
  "TxRefAmp": 248.67,
  "WipMemBlock": "d6142188-330a-4c3b-ac58-e73b8c81d40a||Sequence: R016 ve11e/master r/434b28f1; Aug  7 2019 18:53:46 by eja",
  "dcmmeta_affine": [
    [-2.6814067363739014, -0.03697394207119942, -0.08290902525186539, 116.07263946533203],
    [-0.03616608679294586, 2.682549238204956, -0.02697690576314926, -92.38004302978516],
    [-0.0827425867319107, 0.025680579245090485, 2.698591947555542, -75.21609497070312],
    [0.0, 0.0, 0.0, 1.0]
],
  "dcmmeta_reorient_transform": [
    [0.0, -1.0, 0.0, 81.0],
    [1.0, 0.0, 0.0, 0.0],
    [0.0, 0.0, 1.0, 0.0],
    [0.0, 0.0, 0.0, 1.0]
],
  "dcmmeta_shape": [82, 82, 56, 872],
  "dcmmeta_slice_dim": 2,
  "dcmmeta_version": 0.6,
  "global": {
    "const": {
      "AccessionNumber": "A004806",
      "AcquisitionMatrix": [82, 0, 0, 82],
      "AngioFlag": "N",
      "BitsAllocated": 16,
      "BitsStored": 16,
      "BodyPartExamined": "BRAIN",
      "Columns": 656,
      "EchoNumbers": 1,
      "EchoTime": 27.2,
      "EchoTrainLength": 82,
      "FlipAngle": 44.0,
      "HighBit": 15,
      "ImageOrientationPatient": [0.9994334174034, 0.0134800861461, -0.0308404191746, -0.0137811965278, 0.99985921922472, -0.0095718521506],
      "ImagePositionPatient": [-872.02997947916, -905.17772741867, -42.018522102204],
      "ImageType": [
        "ORIGINAL",
        "PRIMARY",
        "M",
        "MB",
        "ND",
        "NORM",
        "MOSAIC"
],
      "ImagedNucleus": "1H",
      "ImagingFrequency": 123.259069,
      "InPlanePhaseEncodingDirection": "COL",
      "MRAcquisitionType": "2D",
      "MagneticFieldStrength": 3.0,
      "Manufacturer": "SIEMENS",
      "ManufacturerModelName": "Prisma",
      "Modality": "MR",
      "NumberOfAverages": 1.0,
      "NumberOfPhaseEncodingSteps": 82,
      "PercentPhaseFieldOfView": 100.0,
      "PercentSampling": 100.0,
      "PerformedProcedureStepStartTime": "113728.177000",
      "PhotometricInterpretation": "MONOCHROME2",
      "PixelBandwidth": 3050.0,
      "PixelRepresentation": 0,
      "PixelSpacing": [2.6829268932343, 2.6829268932343],
      "ProtocolName": "func_run-01_task-social_acq-ap-mb8",
      "RepetitionTime": 460.0,
      "Rows": 656,
      "SAR": 0.11233970467009,
      "SamplesPerPixel": 1,
      "ScanOptions": "FS",
      "ScanningSequence": "EP",
      "SequenceName": "epfid2d1_82",
      "SequenceVariant": [
        "SK",
        "SS"
],
      "SeriesDescription": "func_run-01_task-social_acq-ap-mb8",
      "SeriesNumber": 12,
      "SeriesTime": "122723.725000",
      "SliceLocation": -77.8181105128,
      "SliceThickness": 2.7000000476837,
      "SmallestImagePixelValue": 0,
      "SoftwareVersions": "syngo MR E11",
      "SpacingBetweenSlices": 2.6999999730563,
      "SpecificCharacterSet": "ISO_IR 100",
      "StudyID": "1",
      "StudyTime": "113728.078000",
      "TransmitCoilName": "Body",
      "VariableFlipAngleFlag": "N",
      "WindowCenterWidthExplanation": "Algo1"
    },
    "slices": {}
  },
  "time": {
    "samples": {
      "AcquisitionNumber": [1, 2, 3, 4, 5, 6, 7, 8, 9, 10, 11, 12, 13, 14, 15, 16, 17, 18, 19, 20, 21, 22, 23, 24, 25, 26, 27, 28, 29, 30, 31, 32, 33, 34, 35, 36, 37, 38, 39, 40, 41, 42, 43, 44, 45, 46, 47, 48, 49, 50, 51, 52, 53, 54, 55, 56, 57, 58, 59, 60, 61, 62, 63, 64, 65, 66, 67, 68, 69, 70, 71, 72, 73, 74, 75, 76, 77, 78, 79, 80, 81, 82, 83, 84, 85, 86, 87, 88, 89, 90, 91, 92, 93, 94, 95, 96, 97, 98, 99, 100, 101, 102, 103, 104, 105, 106, 107, 108, 109, 110, 111, 112, 113, 114, 115, 116, 117, 118, 119, 120, 121, 122, 123, 124, 125, 126, 127, 128, 129, 130, 131, 132, 133, 134, 135, 136, 137, 138, 139, 140, 141, 142, 143, 144, 145, 146, 147, 148, 149, 150, 151, 152, 153, 154, 155, 156, 157, 158, 159, 160, 161, 162, 163, 164, 165, 166, 167, 168, 169, 170, 171, 172, 173, 174, 175, 176, 177, 178, 179, 180, 181, 182, 183, 184, 185, 186, 187, 188, 189, 190, 191, 192, 193, 194, 195, 196, 197, 198, 199, 200, 201, 202, 203, 204, 205, 206, 207, 208, 209, 210, 211, 212, 213, 214, 215, 216, 217, 218, 219, 220, 221, 222, 223, 224, 225, 226, 227, 228, 229, 230, 231, 232, 233, 234, 235, 236, 237, 238, 239, 240, 241, 242, 243, 244, 245, 246, 247, 248, 249, 250, 251, 252, 253, 254, 255, 256, 257, 258, 259, 260, 261, 262, 263, 264, 265, 266, 267, 268, 269, 270, 271, 272, 273, 274, 275, 276, 277, 278, 279, 280, 281, 282, 283, 284, 285, 286, 287, 288, 289, 290, 291, 292, 293, 294, 295, 296, 297, 298, 299, 300, 301, 302, 303, 304, 305, 306, 307, 308, 309, 310, 311, 312, 313, 314, 315, 316, 317, 318, 319, 320, 321, 322, 323, 324, 325, 326, 327, 328, 329, 330, 331, 332, 333, 334, 335, 336, 337, 338, 339, 340, 341, 342, 343, 344, 345, 346, 347, 348, 349, 350, 351, 352, 353, 354, 355, 356, 357, 358, 359, 360, 361, 362, 363, 364, 365, 366, 367, 368, 369, 370, 371, 372, 373, 374, 375, 376, 377, 378, 379, 380, 381, 382, 383, 384, 385, 386, 387, 388, 389, 390, 391, 392, 393, 394, 395, 396, 397, 398, 399, 400, 401, 402, 403, 404, 405, 406, 407, 408, 409, 410, 411, 412, 413, 414, 415, 416, 417, 418, 419, 420, 421, 422, 423, 424, 425, 426, 427, 428, 429, 430, 431, 432, 433, 434, 435, 436, 437, 438, 439, 440, 441, 442, 443, 444, 445, 446, 447, 448, 449, 450, 451, 452, 453, 454, 455, 456, 457, 458, 459, 460, 461, 462, 463, 464, 465, 466, 467, 468, 469, 470, 471, 472, 473, 474, 475, 476, 477, 478, 479, 480, 481, 482, 483, 484, 485, 486, 487, 488, 489, 490, 491, 492, 493, 494, 495, 496, 497, 498, 499, 500, 501, 502, 503, 504, 505, 506, 507, 508, 509, 510, 511, 512, 513, 514, 515, 516, 517, 518, 519, 520, 521, 522, 523, 524, 525, 526, 527, 528, 529, 530, 531, 532, 533, 534, 535, 536, 537, 538, 539, 540, 541, 542, 543, 544, 545, 546, 547, 548, 549, 550, 551, 552, 553, 554, 555, 556, 557, 558, 559, 560, 561, 562, 563, 564, 565, 566, 567, 568, 569, 570, 571, 572, 573, 574, 575, 576, 577, 578, 579, 580, 581, 582, 583, 584, 585, 586, 587, 588, 589, 590, 591, 592, 593, 594, 595, 596, 597, 598, 599, 600, 601, 602, 603, 604, 605, 606, 607, 608, 609, 610, 611, 612, 613, 614, 615, 616, 617, 618, 619, 620, 621, 622, 623, 624, 625, 626, 627, 628, 629, 630, 631, 632, 633, 634, 635, 636, 637, 638, 639, 640, 641, 642, 643, 644, 645, 646, 647, 648, 649, 650, 651, 652, 653, 654, 655, 656, 657, 658, 659, 660, 661, 662, 663, 664, 665, 666, 667, 668, 669, 670, 671, 672, 673, 674, 675, 676, 677, 678, 679, 680, 681, 682, 683, 684, 685, 686, 687, 688, 689, 690, 691, 692, 693, 694, 695, 696, 697, 698, 699, 700, 701, 702, 703, 704, 705, 706, 707, 708, 709, 710, 711, 712, 713, 714, 715, 716, 717, 718, 719, 720, 721, 722, 723, 724, 725, 726, 727, 728, 729, 730, 731, 732, 733, 734, 735, 736, 737, 738, 739, 740, 741, 742, 743, 744, 745, 746, 747, 748, 749, 750, 751, 752, 753, 754, 755, 756, 757, 758, 759, 760, 761, 762, 763, 764, 765, 766, 767, 768, 769, 770, 771, 772, 773, 774, 775, 776, 777, 778, 779, 780, 781, 782, 783, 784, 785, 786, 787, 788, 789, 790, 791, 792, 793, 794, 795, 796, 797, 798, 799, 800, 801, 802, 803, 804, 805, 806, 807, 808, 809, 810, 811, 812, 813, 814, 815, 816, 817, 818, 819, 820, 821, 822, 823, 824, 825, 826, 827, 828, 829, 830, 831, 832, 833, 834, 835, 836, 837, 838, 839, 840, 841, 842, 843, 844, 845, 846, 847, 848, 849, 850, 851, 852, 853, 854, 855, 856, 857, 858, 859, 860, 861, 862, 863, 864, 865, 866, 867, 868, 869, 870, 871, 872],
      "AcquisitionTime": ["122708.135000", "122708.595000", "122709.055000", "122709.515000", "122709.975000", "122710.435000", "122710.895000", "122711.355000", "122711.815000", "122712.275000", "122712.735000", "122713.195000", "122713.655000", "122714.115000", "122714.575000", "122715.035000", "122715.495000", "122715.955000", "122716.415000", "122716.875000", "122717.335000", "122717.795000", "122718.255000", "122718.715000", "122719.175000", "122719.635000", "122720.095000", "122720.555000", "122721.015000", "122721.475000", "122721.935000", "122722.395000", "122722.855000", "122723.315000", "122723.775000", "122724.235000", "122724.695000", "122725.155000", "122725.615000", "122726.075000", "122726.535000", "122726.995000", "122727.455000", "122727.915000", "122728.375000", "122728.835000", "122729.295000", "122729.755000", "122730.215000", "122730.675000", "122731.135000", "122731.595000", "122732.055000", "122732.515000", "122732.975000", "122733.435000", "122733.895000", "122734.355000", "122734.815000", "122735.275000", "122735.735000", "122736.195000", "122736.655000", "122737.115000", "122737.575000", "122738.035000", "122738.495000", "122738.955000", "122739.415000", "122739.875000", "122740.335000", "122740.795000", "122741.255000", "122741.715000", "122742.175000", "122742.635000", "122743.095000", "122743.555000", "122744.015000", "122744.475000", "122744.935000", "122745.395000", "122745.855000", "122746.315000", "122746.775000", "122747.235000", "122747.695000", "122748.155000", "122748.615000", "122749.075000", "122749.535000", "122749.995000", "122750.455000", "122750.915000", "122751.375000", "122751.835000", "122752.295000", "122752.755000", "122753.215000", "122753.675000", "122754.135000", "122754.595000", "122755.055000", "122755.515000", "122755.975000", "122756.435000", "122756.895000", "122757.355000", "122757.815000", "122758.275000", "122758.735000", "122759.195000", "122759.655000", "122800.115000", "122800.575000", "122801.035000", "122801.495000", "122801.955000", "122802.415000", "122802.875000", "122803.335000", "122803.795000", "122804.255000", "122804.715000", "122805.175000", "122805.635000", "122806.095000", "122806.555000", "122807.015000", "122807.475000", "122807.935000", "122808.395000", "122808.855000", "122809.315000", "122809.775000", "122810.235000", "122810.695000", "122811.155000", "122811.615000", "122812.075000", "122812.535000", "122812.995000", "122813.455000", "122813.915000", "122814.375000", "122814.835000", "122815.295000", "122815.755000", "122816.215000", "122816.675000", "122817.135000", "122817.595000", "122818.055000", "122818.515000", "122818.975000", "122819.435000", "122819.895000", "122820.355000", "122820.815000", "122821.275000", "122821.735000", "122822.195000", "122822.655000", "122823.115000", "122823.575000", "122824.035000", "122824.495000", "122824.955000", "122825.415000", "122825.875000", "122826.335000", "122826.795000", "122827.255000", "122827.715000", "122828.175000", "122828.635000", "122829.095000", "122829.555000", "122830.015000", "122830.475000", "122830.935000", "122831.395000", "122831.855000", "122832.315000", "122832.775000", "122833.235000", "122833.695000", "122834.155000", "122834.615000", "122835.075000", "122835.535000", "122835.995000", "122836.455000", "122836.915000", "122837.375000", "122837.835000", "122838.295000", "122838.755000", "122839.215000", "122839.675000", "122840.135000", "122840.595000", "122841.055000", "122841.515000", "122841.975000", "122842.435000", "122842.895000", "122843.355000", "122843.815000", "122844.275000", "122844.735000", "122845.195000", "122845.655000", "122846.115000", "122846.575000", "122847.035000", "122847.495000", "122847.955000", "122848.415000", "122848.875000", "122849.335000", "122849.795000", "122850.255000", "122850.715000", "122851.175000", "122851.635000", "122852.095000", "122852.555000", "122853.015000", "122853.475000", "122853.935000", "122854.395000", "122854.855000", "122855.315000", "122855.775000", "122856.235000", "122856.695000", "122857.155000", "122857.615000", "122858.075000", "122858.535000", "122858.995000", "122859.455000", "122859.915000", "122900.375000", "122900.835000", "122901.295000", "122901.755000", "122902.215000", "122902.675000", "122903.135000", "122903.595000", "122904.055000", "122904.515000", "122904.975000", "122905.435000", "122905.895000", "122906.355000", "122906.815000", "122907.275000", "122907.735000", "122908.195000", "122908.655000", "122909.115000", "122909.575000", "122910.035000", "122910.495000", "122910.955000", "122911.415000", "122911.875000", "122912.335000", "122912.795000", "122913.255000", "122913.715000", "122914.175000", "122914.635000", "122915.095000", "122915.555000", "122916.015000", "122916.475000", "122916.935000", "122917.395000", "122917.855000", "122918.315000", "122918.775000", "122919.235000", "122919.695000", "122920.155000", "122920.615000", "122921.075000", "122921.535000", "122921.995000", "122922.455000", "122922.915000", "122923.375000", "122923.835000", "122924.295000", "122924.755000", "122925.215000", "122925.675000", "122926.135000", "122926.595000", "122927.055000", "122927.515000", "122927.975000", "122928.435000", "122928.895000", "122929.355000", "122929.815000", "122930.275000", "122930.735000", "122931.195000", "122931.655000", "122932.115000", "122932.575000", "122933.035000", "122933.495000", "122933.955000", "122934.415000", "122934.875000", "122935.335000", "122935.795000", "122936.255000", "122936.715000", "122937.175000", "122937.635000", "122938.095000", "122938.555000", "122939.015000", "122939.475000", "122939.935000", "122940.395000", "122940.855000", "122941.315000", "122941.775000", "122942.235000", "122942.695000", "122943.155000", "122943.615000", "122944.075000", "122944.535000", "122944.995000", "122945.455000", "122945.915000", "122946.375000", "122946.835000", "122947.295000", "122947.755000", "122948.215000", "122948.675000", "122949.135000", "122949.595000", "122950.055000", "122950.515000", "122950.975000", "122951.435000", "122951.895000", "122952.355000", "122952.815000", "122953.275000", "122953.735000", "122954.195000", "122954.655000", "122955.115000", "122955.575000", "122956.035000", "122956.495000", "122956.955000", "122957.415000", "122957.875000", "122958.335000", "122958.795000", "122959.255000", "122959.715000", "123000.175000", "123000.635000", "123001.095000", "123001.555000", "123002.015000", "123002.475000", "123002.935000", "123003.395000", "123003.855000", "123004.315000", "123004.775000", "123005.235000", "123005.695000", "123006.155000", "123006.615000", "123007.075000", "123007.535000", "123007.995000", "123008.455000", "123008.915000", "123009.375000", "123009.835000", "123010.295000", "123010.755000", "123011.215000", "123011.675000", "123012.135000", "123012.595000", "123013.055000", "123013.515000", "123013.975000", "123014.435000", "123014.895000", "123015.355000", "123015.815000", "123016.275000", "123016.735000", "123017.195000", "123017.655000", "123018.115000", "123018.575000", "123019.035000", "123019.495000", "123019.955000", "123020.415000", "123020.875000", "123021.335000", "123021.795000", "123022.255000", "123022.715000", "123023.175000", "123023.635000", "123024.095000", "123024.555000", "123025.015000", "123025.475000", "123025.935000", "123026.395000", "123026.855000", "123027.315000", "123027.775000", "123028.235000", "123028.695000", "123029.155000", "123029.615000", "123030.075000", "123030.535000", "123030.995000", "123031.455000", "123031.915000", "123032.375000", "123032.835000", "123033.295000", "123033.755000", "123034.215000", "123034.675000", "123035.135000", "123035.595000", "123036.055000", "123036.515000", "123036.975000", "123037.435000", "123037.895000", "123038.355000", "123038.815000", "123039.275000", "123039.735000", "123040.195000", "123040.655000", "123041.115000", "123041.575000", "123042.035000", "123042.495000", "123042.955000", "123043.415000", "123043.875000", "123044.335000", "123044.795000", "123045.255000", "123045.715000", "123046.175000", "123046.635000", "123047.095000", "123047.555000", "123048.015000", "123048.475000", "123048.935000", "123049.395000", "123049.855000", "123050.315000", "123050.775000", "123051.235000", "123051.695000", "123052.155000", "123052.615000", "123053.075000", "123053.535000", "123053.995000", "123054.455000", "123054.915000", "123055.375000", "123055.835000", "123056.295000", "123056.755000", "123057.215000", "123057.675000", "123058.135000", "123058.595000", "123059.055000", "123059.515000", "123059.975000", "123100.435000", "123100.895000", "123101.355000", "123101.815000", "123102.275000", "123102.735000", "123103.195000", "123103.655000", "123104.115000", "123104.575000", "123105.035000", "123105.495000", "123105.955000", "123106.415000", "123106.875000", "123107.335000", "123107.795000", "123108.255000", "123108.715000", "123109.175000", "123109.635000", "123110.095000", "123110.555000", "123111.015000", "123111.475000", "123111.935000", "123112.395000", "123112.855000", "123113.315000", "123113.775000", "123114.235000", "123114.695000", "123115.155000", "123115.615000", "123116.075000", "123116.535000", "123116.995000", "123117.455000", "123117.915000", "123118.375000", "123118.835000", "123119.295000", "123119.755000", "123120.215000", "123120.675000", "123121.135000", "123121.595000", "123122.055000", "123122.515000", "123122.975000", "123123.435000", "123123.895000", "123124.355000", "123124.815000", "123125.275000", "123125.735000", "123126.195000", "123126.655000", "123127.115000", "123127.575000", "123128.035000", "123128.495000", "123128.955000", "123129.415000", "123129.875000", "123130.335000", "123130.795000", "123131.255000", "123131.715000", "123132.175000", "123132.635000", "123133.095000", "123133.555000", "123134.015000", "123134.475000", "123134.935000", "123135.395000", "123135.855000", "123136.315000", "123136.775000", "123137.235000", "123137.695000", "123138.155000", "123138.615000", "123139.075000", "123139.535000", "123139.995000", "123140.455000", "123140.915000", "123141.375000", "123141.835000", "123142.295000", "123142.755000", "123143.215000", "123143.675000", "123144.135000", "123144.595000", "123145.055000", "123145.515000", "123145.975000", "123146.435000", "123146.895000", "123147.355000", "123147.815000", "123148.275000", "123148.735000", "123149.195000", "123149.655000", "123150.115000", "123150.575000", "123151.035000", "123151.495000", "123151.955000", "123152.415000", "123152.875000", "123153.335000", "123153.795000", "123154.255000", "123154.715000", "123155.175000", "123155.635000", "123156.095000", "123156.555000", "123157.015000", "123157.475000", "123157.935000", "123158.395000", "123158.855000", "123159.315000", "123159.775000", "123200.235000", "123200.695000", "123201.155000", "123201.615000", "123202.075000", "123202.535000", "123202.995000", "123203.455000", "123203.915000", "123204.375000", "123204.835000", "123205.295000", "123205.755000", "123206.215000", "123206.675000", "123207.135000", "123207.595000", "123208.055000", "123208.515000", "123208.975000", "123209.435000", "123209.895000", "123210.355000", "123210.815000", "123211.275000", "123211.735000", "123212.195000", "123212.655000", "123213.115000", "123213.575000", "123214.035000", "123214.495000", "123214.955000", "123215.415000", "123215.875000", "123216.335000", "123216.795000", "123217.255000", "123217.715000", "123218.175000", "123218.635000", "123219.095000", "123219.555000", "123220.015000", "123220.475000", "123220.935000", "123221.395000", "123221.855000", "123222.315000", "123222.775000", "123223.235000", "123223.695000", "123224.155000", "123224.615000", "123225.075000", "123225.535000", "123225.995000", "123226.455000", "123226.915000", "123227.375000", "123227.835000", "123228.295000", "123228.755000", "123229.215000", "123229.675000", "123230.135000", "123230.595000", "123231.055000", "123231.515000", "123231.975000", "123232.435000", "123232.895000", "123233.355000", "123233.815000", "123234.275000", "123234.735000", "123235.195000", "123235.655000", "123236.115000", "123236.575000", "123237.035000", "123237.495000", "123237.955000", "123238.415000", "123238.875000", "123239.335000", "123239.795000", "123240.255000", "123240.715000", "123241.175000", "123241.635000", "123242.095000", "123242.555000", "123243.015000", "123243.475000", "123243.935000", "123244.395000", "123244.855000", "123245.315000", "123245.775000", "123246.235000", "123246.695000", "123247.155000", "123247.615000", "123248.075000", "123248.535000", "123248.995000", "123249.455000", "123249.915000", "123250.375000", "123250.835000", "123251.295000", "123251.755000", "123252.215000", "123252.675000", "123253.135000", "123253.595000", "123254.055000", "123254.515000", "123254.975000", "123255.435000", "123255.895000", "123256.355000", "123256.815000", "123257.275000", "123257.735000", "123258.195000", "123258.655000", "123259.115000", "123259.575000", "123300.035000", "123300.495000", "123300.955000", "123301.415000", "123301.875000", "123302.335000", "123302.795000", "123303.255000", "123303.715000", "123304.175000", "123304.635000", "123305.095000", "123305.555000", "123306.015000", "123306.475000", "123306.935000", "123307.395000", "123307.855000", "123308.315000", "123308.775000", "123309.235000", "123309.695000", "123310.155000", "123310.615000", "123311.075000", "123311.535000", "123311.995000", "123312.455000", "123312.915000", "123313.375000", "123313.835000", "123314.295000", "123314.755000", "123315.215000", "123315.675000", "123316.135000", "123316.595000", "123317.055000", "123317.515000", "123317.975000", "123318.435000", "123318.895000", "123319.355000", "123319.815000", "123320.275000", "123320.735000", "123321.195000", "123321.655000", "123322.115000", "123322.575000", "123323.035000", "123323.495000", "123323.955000", "123324.415000", "123324.875000", "123325.335000", "123325.795000", "123326.255000", "123326.715000", "123327.175000", "123327.635000", "123328.095000", "123328.555000", "123329.015000", "123329.475000", "123329.935000", "123330.395000", "123330.855000", "123331.315000", "123331.775000", "123332.235000", "123332.695000", "123333.155000", "123333.615000", "123334.075000", "123334.535000", "123334.995000", "123335.455000", "123335.915000", "123336.375000", "123336.835000", "123337.295000", "123337.755000", "123338.215000", "123338.675000", "123339.135000", "123339.595000", "123340.055000", "123340.515000", "123340.975000", "123341.435000", "123341.895000", "123342.355000", "123342.815000", "123343.275000", "123343.735000", "123344.195000", "123344.655000", "123345.115000", "123345.575000", "123346.035000", "123346.495000", "123346.955000", "123347.415000", "123347.875000", "123348.335000", "123348.795000"],
