{
  "AcquisitionMatrixPE": 82,
  "AcquisitionNumber": 1,
  "AcquisitionTime": "12:50:10.987500",
  "BandwidthPerPixelPhaseEncode": 24.888,
  "BaseResolution": 82,
  "BodyPartExamined": "BRAIN",
  "ConsistencyInfo": "N4_VE11E_LATEST_20181129",
  "ConversionSoftware": "dcm2niix",
  "ConversionSoftwareVersion": "v1.0.20201102",
  "DerivedVendorReportedEchoSpacing": 0.00049,
  "DeviceSerialNumber": "66112",
  "DwellTime": 2e-06,
  "EchoTime": 0.0272,
  "EchoTrainLength": 82,
  "EffectiveEchoSpacing": 0.00049,
  "FlipAngle": 44,
  "ImageComments": "Unaliased MB8/PE3",
  "ImageOrientationPatientDICOM": [0.999433, 0.0134801, -0.0308404, -0.0137812, 0.999859, -0.00957185],
  "ImageType": [
    "ORIGINAL",
    "PRIMARY",
    "M",
    "MB",
    "ND",
    "NORM",
    "MOSAIC"
],
  "ImagingFrequency": 123.259,
  "InPlanePhaseEncodingDirectionDICOM": "COL",
  "InstitutionAddress": "Maynard 3,Hanover,NH,US,03755",
  "InstitutionName": "Dartmouth College - PBS",
  "InstitutionalDepartmentName": "Department",
  "MRAcquisitionType": "2D",
  "MagneticFieldStrength": 3,
  "Manufacturer": "Siemens",
  "ManufacturersModelName": "Prisma",
  "Modality": "MR",
  "MultibandAccelerationFactor": 8,
  "PartialFourier": 1,
  "PatientPosition": "HFS",
  "PercentPhaseFOV": 100,
  "PercentSampling": 100,
  "PhaseEncodingDirection": "j-",
  "PhaseEncodingSteps": 82,
  "PhaseResolution": 1,
  "PixelBandwidth": 3050,
  "ProcedureStepDescription": "Wager_Wager^1076_spacetop",
  "ProtocolName": "func_run-04_task-social_acq-ap-mb8",
  "PulseSequenceDetails": "%CustomerSeq%\\cmrr_mbep2d_bold",
  "ReceiveCoilActiveElements": "HEA;HEP",
  "ReceiveCoilName": "Head_32",
  "ReconMatrixPE": 82,
  "RepetitionTime": 0.46,
  "SAR": 0.11234,
  "ScanOptions": "FS",
  "ScanningSequence": "EP",
  "SequenceName": "epfid2d1_82",
  "SequenceVariant": "SK\\SS",
  "SeriesDescription": "func_run-04_task-social_acq-ap-mb8",
  "SeriesNumber": 18,
  "ShimSetting": [4223, -7754, -7260, 114, -102, -38, 62, 131],
  "SliceThickness": 2.7,
  "SliceTiming": [0, 0.25, 0.0625, 0.3125, 0.125, 0.375, 0.1875, 0, 0.25, 0.0625, 0.3125, 0.125, 0.375, 0.1875, 0, 0.25, 0.0625, 0.3125, 0.125, 0.375, 0.1875, 0, 0.25, 0.0625, 0.3125, 0.125, 0.375, 0.1875, 0, 0.25, 0.0625, 0.3125, 0.125, 0.375, 0.1875, 0, 0.25, 0.0625, 0.3125, 0.125, 0.375, 0.1875, 0, 0.25, 0.0625, 0.3125, 0.125, 0.375, 0.1875, 0, 0.25, 0.0625, 0.3125, 0.125, 0.375, 0.1875],
  "SoftwareVersions": "syngo MR E11",
  "SpacingBetweenSlices": 2.7,
  "StationName": "AWP66112",
  "TaskName": "social",
  "TotalReadoutTime": 0.03969,
  "TxRefAmp": 248.67,
  "WipMemBlock": "0489a4d1-6257-4a55-8c18-143d5a47458a||Sequence: R016 ve11e/master r/434b28f1; Aug  7 2019 18:53:46 by eja",
  "dcmmeta_affine": [
    [-2.6814067363739014, -0.03697394207119942, -0.08290902525186539, 116.07263946533203],
    [-0.03616608679294586, 2.682549238204956, -0.02697690576314926, -92.38004302978516],
    [-0.0827425867319107, 0.025680579245090485, 2.698591947555542, -75.21609497070312],
    [0.0, 0.0, 0.0, 1.0]
],
  "dcmmeta_reorient_transform": [
    [0.0, -1.0, 0.0, 81.0],
    [1.0, 0.0, 0.0, 0.0],
    [0.0, 0.0, 1.0, 0.0],
    [0.0, 0.0, 0.0, 1.0]
],
  "dcmmeta_shape": [82, 82, 56, 872],
  "dcmmeta_slice_dim": 2,
  "dcmmeta_version": 0.6,
  "global": {
    "const": {
      "AccessionNumber": "A004806",
      "AcquisitionMatrix": [82, 0, 0, 82],
      "AngioFlag": "N",
      "BitsAllocated": 16,
      "BitsStored": 16,
      "BodyPartExamined": "BRAIN",
      "Columns": 656,
      "EchoNumbers": 1,
      "EchoTime": 27.2,
      "EchoTrainLength": 82,
      "FlipAngle": 44.0,
      "HighBit": 15,
      "ImageOrientationPatient": [0.9994334174034, 0.0134800861461, -0.0308404191746, -0.0137811965278, 0.99985921922472, -0.0095718521506],
      "ImagePositionPatient": [-872.02997947916, -905.17772741867, -42.018522102204],
      "ImageType": [
        "ORIGINAL",
        "PRIMARY",
        "M",
        "MB",
        "ND",
        "NORM",
        "MOSAIC"
],
      "ImagedNucleus": "1H",
      "ImagingFrequency": 123.259081,
      "InPlanePhaseEncodingDirection": "COL",
      "MRAcquisitionType": "2D",
      "MagneticFieldStrength": 3.0,
      "Manufacturer": "SIEMENS",
      "ManufacturerModelName": "Prisma",
      "Modality": "MR",
      "NumberOfAverages": 1.0,
      "NumberOfPhaseEncodingSteps": 82,
      "PercentPhaseFieldOfView": 100.0,
      "PercentSampling": 100.0,
      "PerformedProcedureStepStartTime": "113728.177000",
      "PhotometricInterpretation": "MONOCHROME2",
      "PixelBandwidth": 3050.0,
      "PixelRepresentation": 0,
      "PixelSpacing": [2.6829268932343, 2.6829268932343],
      "ProtocolName": "func_run-04_task-social_acq-ap-mb8",
      "RepetitionTime": 460.0,
      "Rows": 656,
      "SAR": 0.11233970467009,
      "SamplesPerPixel": 1,
      "ScanOptions": "FS",
      "ScanningSequence": "EP",
      "SequenceName": "epfid2d1_82",
      "SequenceVariant": [
        "SK",
        "SS"
],
      "SeriesDescription": "func_run-04_task-social_acq-ap-mb8",
      "SeriesNumber": 18,
      "SeriesTime": "125023.745000",
      "SliceLocation": -77.8181105128,
      "SliceThickness": 2.7000000476837,
      "SmallestImagePixelValue": 0,
      "SoftwareVersions": "syngo MR E11",
      "SpacingBetweenSlices": 2.6999999730563,
      "SpecificCharacterSet": "ISO_IR 100",
      "StudyID": "1",
      "StudyTime": "113728.078000",
      "TransmitCoilName": "Body",
      "VariableFlipAngleFlag": "N",
      "WindowCenterWidthExplanation": "Algo1"
    },
    "slices": {}
  },
  "time": {
    "samples": {
      "AcquisitionNumber": [1, 2, 3, 4, 5, 6, 7, 8, 9, 10, 11, 12, 13, 14, 15, 16, 17, 18, 19, 20, 21, 22, 23, 24, 25, 26, 27, 28, 29, 30, 31, 32, 33, 34, 35, 36, 37, 38, 39, 40, 41, 42, 43, 44, 45, 46, 47, 48, 49, 50, 51, 52, 53, 54, 55, 56, 57, 58, 59, 60, 61, 62, 63, 64, 65, 66, 67, 68, 69, 70, 71, 72, 73, 74, 75, 76, 77, 78, 79, 80, 81, 82, 83, 84, 85, 86, 87, 88, 89, 90, 91, 92, 93, 94, 95, 96, 97, 98, 99, 100, 101, 102, 103, 104, 105, 106, 107, 108, 109, 110, 111, 112, 113, 114, 115, 116, 117, 118, 119, 120, 121, 122, 123, 124, 125, 126, 127, 128, 129, 130, 131, 132, 133, 134, 135, 136, 137, 138, 139, 140, 141, 142, 143, 144, 145, 146, 147, 148, 149, 150, 151, 152, 153, 154, 155, 156, 157, 158, 159, 160, 161, 162, 163, 164, 165, 166, 167, 168, 169, 170, 171, 172, 173, 174, 175, 176, 177, 178, 179, 180, 181, 182, 183, 184, 185, 186, 187, 188, 189, 190, 191, 192, 193, 194, 195, 196, 197, 198, 199, 200, 201, 202, 203, 204, 205, 206, 207, 208, 209, 210, 211, 212, 213, 214, 215, 216, 217, 218, 219, 220, 221, 222, 223, 224, 225, 226, 227, 228, 229, 230, 231, 232, 233, 234, 235, 236, 237, 238, 239, 240, 241, 242, 243, 244, 245, 246, 247, 248, 249, 250, 251, 252, 253, 254, 255, 256, 257, 258, 259, 260, 261, 262, 263, 264, 265, 266, 267, 268, 269, 270, 271, 272, 273, 274, 275, 276, 277, 278, 279, 280, 281, 282, 283, 284, 285, 286, 287, 288, 289, 290, 291, 292, 293, 294, 295, 296, 297, 298, 299, 300, 301, 302, 303, 304, 305, 306, 307, 308, 309, 310, 311, 312, 313, 314, 315, 316, 317, 318, 319, 320, 321, 322, 323, 324, 325, 326, 327, 328, 329, 330, 331, 332, 333, 334, 335, 336, 337, 338, 339, 340, 341, 342, 343, 344, 345, 346, 347, 348, 349, 350, 351, 352, 353, 354, 355, 356, 357, 358, 359, 360, 361, 362, 363, 364, 365, 366, 367, 368, 369, 370, 371, 372, 373, 374, 375, 376, 377, 378, 379, 380, 381, 382, 383, 384, 385, 386, 387, 388, 389, 390, 391, 392, 393, 394, 395, 396, 397, 398, 399, 400, 401, 402, 403, 404, 405, 406, 407, 408, 409, 410, 411, 412, 413, 414, 415, 416, 417, 418, 419, 420, 421, 422, 423, 424, 425, 426, 427, 428, 429, 430, 431, 432, 433, 434, 435, 436, 437, 438, 439, 440, 441, 442, 443, 444, 445, 446, 447, 448, 449, 450, 451, 452, 453, 454, 455, 456, 457, 458, 459, 460, 461, 462, 463, 464, 465, 466, 467, 468, 469, 470, 471, 472, 473, 474, 475, 476, 477, 478, 479, 480, 481, 482, 483, 484, 485, 486, 487, 488, 489, 490, 491, 492, 493, 494, 495, 496, 497, 498, 499, 500, 501, 502, 503, 504, 505, 506, 507, 508, 509, 510, 511, 512, 513, 514, 515, 516, 517, 518, 519, 520, 521, 522, 523, 524, 525, 526, 527, 528, 529, 530, 531, 532, 533, 534, 535, 536, 537, 538, 539, 540, 541, 542, 543, 544, 545, 546, 547, 548, 549, 550, 551, 552, 553, 554, 555, 556, 557, 558, 559, 560, 561, 562, 563, 564, 565, 566, 567, 568, 569, 570, 571, 572, 573, 574, 575, 576, 577, 578, 579, 580, 581, 582, 583, 584, 585, 586, 587, 588, 589, 590, 591, 592, 593, 594, 595, 596, 597, 598, 599, 600, 601, 602, 603, 604, 605, 606, 607, 608, 609, 610, 611, 612, 613, 614, 615, 616, 617, 618, 619, 620, 621, 622, 623, 624, 625, 626, 627, 628, 629, 630, 631, 632, 633, 634, 635, 636, 637, 638, 639, 640, 641, 642, 643, 644, 645, 646, 647, 648, 649, 650, 651, 652, 653, 654, 655, 656, 657, 658, 659, 660, 661, 662, 663, 664, 665, 666, 667, 668, 669, 670, 671, 672, 673, 674, 675, 676, 677, 678, 679, 680, 681, 682, 683, 684, 685, 686, 687, 688, 689, 690, 691, 692, 693, 694, 695, 696, 697, 698, 699, 700, 701, 702, 703, 704, 705, 706, 707, 708, 709, 710, 711, 712, 713, 714, 715, 716, 717, 718, 719, 720, 721, 722, 723, 724, 725, 726, 727, 728, 729, 730, 731, 732, 733, 734, 735, 736, 737, 738, 739, 740, 741, 742, 743, 744, 745, 746, 747, 748, 749, 750, 751, 752, 753, 754, 755, 756, 757, 758, 759, 760, 761, 762, 763, 764, 765, 766, 767, 768, 769, 770, 771, 772, 773, 774, 775, 776, 777, 778, 779, 780, 781, 782, 783, 784, 785, 786, 787, 788, 789, 790, 791, 792, 793, 794, 795, 796, 797, 798, 799, 800, 801, 802, 803, 804, 805, 806, 807, 808, 809, 810, 811, 812, 813, 814, 815, 816, 817, 818, 819, 820, 821, 822, 823, 824, 825, 826, 827, 828, 829, 830, 831, 832, 833, 834, 835, 836, 837, 838, 839, 840, 841, 842, 843, 844, 845, 846, 847, 848, 849, 850, 851, 852, 853, 854, 855, 856, 857, 858, 859, 860, 861, 862, 863, 864, 865, 866, 867, 868, 869, 870, 871, 872],
      "AcquisitionTime": ["125010.987500", "125011.447500", "125011.907500", "125012.367500", "125012.827500", "125013.287500", "125013.747500", "125014.207500", "125014.667500", "125015.127500", "125015.587500", "125016.047500", "125016.507500", "125016.967500", "125017.427500", "125017.887500", "125018.347500", "125018.807500", "125019.267500", "125019.727500", "125020.187500", "125020.647500", "125021.107500", "125021.567500", "125022.027500", "125022.487500", "125022.947500", "125023.407500", "125023.867500", "125024.327500", "125024.787500", "125025.247500", "125025.707500", "125026.167500", "125026.627500", "125027.087500", "125027.547500", "125028.007500", "125028.467500", "125028.927500", "125029.387500", "125029.847500", "125030.307500", "125030.767500", "125031.227500", "125031.687500", "125032.147500", "125032.607500", "125033.067500", "125033.527500", "125033.987500", "125034.447500", "125034.907500", "125035.367500", "125035.827500", "125036.287500", "125036.747500", "125037.207500", "125037.667500", "125038.127500", "125038.587500", "125039.047500", "125039.507500", "125039.967500", "125040.427500", "125040.887500", "125041.347500", "125041.807500", "125042.267500", "125042.727500", "125043.187500", "125043.647500", "125044.107500", "125044.567500", "125045.027500", "125045.487500", "125045.947500", "125046.407500", "125046.867500", "125047.327500", "125047.787500", "125048.247500", "125048.707500", "125049.167500", "125049.627500", "125050.087500", "125050.547500", "125051.007500", "125051.467500", "125051.927500", "125052.387500", "125052.847500", "125053.307500", "125053.767500", "125054.227500", "125054.687500", "125055.147500", "125055.607500", "125056.067500", "125056.527500", "125056.987500", "125057.447500", "125057.907500", "125058.367500", "125058.827500", "125059.287500", "125059.747500", "125100.207500", "125100.667500", "125101.127500", "125101.587500", "125102.047500", "125102.507500", "125102.967500", "125103.427500", "125103.887500", "125104.347500", "125104.807500", "125105.267500", "125105.727500", "125106.187500", "125106.647500", "125107.107500", "125107.567500", "125108.027500", "125108.487500", "125108.947500", "125109.407500", "125109.867500", "125110.327500", "125110.787500", "125111.247500", "125111.707500", "125112.167500", "125112.627500", "125113.087500", "125113.547500", "125114.007500", "125114.467500", "125114.927500", "125115.387500", "125115.847500", "125116.307500", "125116.767500", "125117.227500", "125117.687500", "125118.147500", "125118.607500", "125119.067500", "125119.527500", "125119.987500", "125120.447500", "125120.907500", "125121.367500", "125121.827500", "125122.287500", "125122.747500", "125123.207500", "125123.667500", "125124.127500", "125124.587500", "125125.047500", "125125.507500", "125125.967500", "125126.427500", "125126.887500", "125127.347500", "125127.807500", "125128.267500", "125128.727500", "125129.187500", "125129.647500", "125130.107500", "125130.567500", "125131.027500", "125131.487500", "125131.947500", "125132.407500", "125132.867500", "125133.327500", "125133.787500", "125134.247500", "125134.707500", "125135.167500", "125135.627500", "125136.087500", "125136.547500", "125137.007500", "125137.467500", "125137.927500", "125138.387500", "125138.847500", "125139.307500", "125139.767500", "125140.227500", "125140.687500", "125141.147500", "125141.607500", "125142.067500", "125142.527500", "125142.987500", "125143.447500", "125143.907500", "125144.367500", "125144.827500", "125145.287500", "125145.747500", "125146.207500", "125146.667500", "125147.127500", "125147.587500", "125148.047500", "125148.507500", "125148.967500", "125149.427500", "125149.887500", "125150.347500", "125150.807500", "125151.267500", "125151.727500", "125152.187500", "125152.647500", "125153.107500", "125153.567500", "125154.027500", "125154.487500", "125154.947500", "125155.407500", "125155.867500", "125156.327500", "125156.787500", "125157.247500", "125157.707500", "125158.167500", "125158.627500", "125159.087500", "125159.547500", "125200.007500", "125200.467500", "125200.927500", "125201.387500", "125201.847500", "125202.307500", "125202.767500", "125203.227500", "125203.687500", "125204.147500", "125204.607500", "125205.067500", "125205.527500", "125205.987500", "125206.447500", "125206.907500", "125207.367500", "125207.827500", "125208.287500", "125208.747500", "125209.207500", "125209.667500", "125210.127500", "125210.587500", "125211.047500", "125211.507500", "125211.967500", "125212.427500", "125212.887500", "125213.347500", "125213.807500", "125214.267500", "125214.727500", "125215.187500", "125215.647500", "125216.107500", "125216.567500", "125217.027500", "125217.487500", "125217.947500", "125218.407500", "125218.867500", "125219.327500", "125219.787500", "125220.247500", "125220.707500", "125221.167500", "125221.627500", "125222.087500", "125222.547500", "125223.007500", "125223.467500", "125223.927500", "125224.387500", "125224.847500", "125225.307500", "125225.767500", "125226.227500", "125226.687500", "125227.147500", "125227.607500", "125228.067500", "125228.527500", "125228.987500", "125229.447500", "125229.907500", "125230.367500", "125230.827500", "125231.287500", "125231.747500", "125232.207500", "125232.667500", "125233.127500", "125233.587500", "125234.047500", "125234.507500", "125234.967500", "125235.427500", "125235.887500", "125236.347500", "125236.807500", "125237.267500", "125237.727500", "125238.187500", "125238.647500", "125239.107500", "125239.567500", "125240.027500", "125240.487500", "125240.947500", "125241.407500", "125241.867500", "125242.327500", "125242.787500", "125243.247500", "125243.707500", "125244.167500", "125244.627500", "125245.087500", "125245.547500", "125246.007500", "125246.467500", "125246.927500", "125247.387500", "125247.847500", "125248.307500", "125248.767500", "125249.227500", "125249.687500", "125250.147500", "125250.607500", "125251.067500", "125251.527500", "125251.987500", "125252.447500", "125252.907500", "125253.367500", "125253.827500", "125254.287500", "125254.747500", "125255.207500", "125255.667500", "125256.127500", "125256.587500", "125257.047500", "125257.507500", "125257.967500", "125258.427500", "125258.887500", "125259.347500", "125259.807500", "125300.267500", "125300.727500", "125301.187500", "125301.647500", "125302.107500", "125302.567500", "125303.027500", "125303.487500", "125303.947500", "125304.407500", "125304.867500", "125305.327500", "125305.787500", "125306.247500", "125306.707500", "125307.167500", "125307.627500", "125308.087500", "125308.547500", "125309.007500", "125309.467500", "125309.927500", "125310.387500", "125310.847500", "125311.307500", "125311.767500", "125312.227500", "125312.687500", "125313.147500", "125313.607500", "125314.067500", "125314.527500", "125314.987500", "125315.447500", "125315.907500", "125316.367500", "125316.827500", "125317.287500", "125317.747500", "125318.207500", "125318.667500", "125319.127500", "125319.587500", "125320.047500", "125320.507500", "125320.967500", "125321.427500", "125321.887500", "125322.347500", "125322.807500", "125323.267500", "125323.727500", "125324.187500", "125324.647500", "125325.107500", "125325.567500", "125326.027500", "125326.487500", "125326.947500", "125327.407500", "125327.867500", "125328.327500", "125328.787500", "125329.247500", "125329.707500", "125330.167500", "125330.627500", "125331.087500", "125331.547500", "125332.007500", "125332.467500", "125332.927500", "125333.387500", "125333.847500", "125334.307500", "125334.767500", "125335.227500", "125335.687500", "125336.147500", "125336.607500", "125337.067500", "125337.527500", "125337.987500", "125338.447500", "125338.907500", "125339.367500", "125339.827500", "125340.287500", "125340.747500", "125341.207500", "125341.667500", "125342.127500", "125342.587500", "125343.047500", "125343.507500", "125343.967500", "125344.427500", "125344.887500", "125345.347500", "125345.807500", "125346.267500", "125346.727500", "125347.187500", "125347.647500", "125348.107500", "125348.567500", "125349.027500", "125349.487500", "125349.947500", "125350.407500", "125350.867500", "125351.327500", "125351.787500", "125352.247500", "125352.707500", "125353.167500", "125353.627500", "125354.087500", "125354.547500", "125355.007500", "125355.467500", "125355.927500", "125356.387500", "125356.847500", "125357.307500", "125357.767500", "125358.227500", "125358.687500", "125359.147500", "125359.607500", "125400.067500", "125400.527500", "125400.987500", "125401.447500", "125401.907500", "125402.367500", "125402.827500", "125403.287500", "125403.747500", "125404.207500", "125404.667500", "125405.127500", "125405.587500", "125406.047500", "125406.507500", "125406.967500", "125407.427500", "125407.887500", "125408.347500", "125408.807500", "125409.267500", "125409.727500", "125410.187500", "125410.647500", "125411.107500", "125411.567500", "125412.027500", "125412.487500", "125412.947500", "125413.407500", "125413.867500", "125414.327500", "125414.787500", "125415.247500", "125415.707500", "125416.167500", "125416.627500", "125417.087500", "125417.547500", "125418.007500", "125418.467500", "125418.927500", "125419.387500", "125419.847500", "125420.307500", "125420.767500", "125421.227500", "125421.687500", "125422.147500", "125422.607500", "125423.067500", "125423.527500", "125423.987500", "125424.447500", "125424.907500", "125425.367500", "125425.827500", "125426.287500", "125426.747500", "125427.207500", "125427.667500", "125428.127500", "125428.587500", "125429.047500", "125429.507500", "125429.967500", "125430.427500", "125430.887500", "125431.347500", "125431.807500", "125432.267500", "125432.727500", "125433.187500", "125433.647500", "125434.107500", "125434.567500", "125435.027500", "125435.487500", "125435.947500", "125436.407500", "125436.867500", "125437.327500", "125437.787500", "125438.247500", "125438.707500", "125439.167500", "125439.627500", "125440.087500", "125440.547500", "125441.007500", "125441.467500", "125441.927500", "125442.387500", "125442.847500", "125443.307500", "125443.767500", "125444.227500", "125444.687500", "125445.147500", "125445.607500", "125446.067500", "125446.527500", "125446.987500", "125447.447500", "125447.907500", "125448.367500", "125448.827500", "125449.287500", "125449.747500", "125450.207500", "125450.667500", "125451.127500", "125451.587500", "125452.047500", "125452.507500", "125452.967500", "125453.427500", "125453.887500", "125454.347500", "125454.807500", "125455.267500", "125455.727500", "125456.187500", "125456.647500", "125457.107500", "125457.567500", "125458.027500", "125458.487500", "125458.947500", "125459.407500", "125459.867500", "125500.327500", "125500.787500", "125501.247500", "125501.707500", "125502.167500", "125502.627500", "125503.087500", "125503.547500", "125504.007500", "125504.467500", "125504.927500", "125505.387500", "125505.847500", "125506.307500", "125506.767500", "125507.227500", "125507.687500", "125508.147500", "125508.607500", "125509.067500", "125509.527500", "125509.987500", "125510.447500", "125510.907500", "125511.367500", "125511.827500", "125512.287500", "125512.747500", "125513.207500", "125513.667500", "125514.127500", "125514.587500", "125515.047500", "125515.507500", "125515.967500", "125516.427500", "125516.887500", "125517.347500", "125517.807500", "125518.267500", "125518.727500", "125519.187500", "125519.647500", "125520.107500", "125520.567500", "125521.027500", "125521.487500", "125521.947500", "125522.407500", "125522.867500", "125523.327500", "125523.787500", "125524.247500", "125524.707500", "125525.167500", "125525.627500", "125526.087500", "125526.547500", "125527.007500", "125527.467500", "125527.927500", "125528.387500", "125528.847500", "125529.307500", "125529.767500", "125530.227500", "125530.687500", "125531.147500", "125531.607500", "125532.067500", "125532.527500", "125532.987500", "125533.447500", "125533.907500", "125534.367500", "125534.827500", "125535.287500", "125535.747500", "125536.207500", "125536.667500", "125537.127500", "125537.587500", "125538.047500", "125538.507500", "125538.967500", "125539.427500", "125539.887500", "125540.347500", "125540.807500", "125541.267500", "125541.727500", "125542.187500", "125542.647500", "125543.107500", "125543.567500", "125544.027500", "125544.487500", "125544.947500", "125545.407500", "125545.867500", "125546.327500", "125546.787500", "125547.247500", "125547.707500", "125548.167500", "125548.627500", "125549.087500", "125549.547500", "125550.007500", "125550.467500", "125550.927500", "125551.387500", "125551.847500", "125552.307500", "125552.767500", "125553.227500", "125553.687500", "125554.147500", "125554.607500", "125555.067500", "125555.527500", "125555.987500", "125556.447500", "125556.907500", "125557.367500", "125557.827500", "125558.287500", "125558.747500", "125559.207500", "125559.667500", "125600.127500", "125600.587500", "125601.047500", "125601.507500", "125601.967500", "125602.427500", "125602.887500", "125603.347500", "125603.807500", "125604.267500", "125604.727500", "125605.187500", "125605.647500", "125606.107500", "125606.567500", "125607.027500", "125607.487500", "125607.947500", "125608.407500", "125608.867500", "125609.327500", "125609.787500", "125610.247500", "125610.707500", "125611.167500", "125611.627500", "125612.087500", "125612.547500", "125613.007500", "125613.467500", "125613.927500", "125614.387500", "125614.847500", "125615.307500", "125615.767500", "125616.227500", "125616.687500", "125617.147500", "125617.607500", "125618.067500", "125618.527500", "125618.987500", "125619.447500", "125619.907500", "125620.367500", "125620.827500", "125621.287500", "125621.747500", "125622.207500", "125622.667500", "125623.127500", "125623.587500", "125624.047500", "125624.507500", "125624.967500", "125625.427500", "125625.887500", "125626.347500", "125626.807500", "125627.267500", "125627.727500", "125628.187500", "125628.647500", "125629.107500", "125629.567500", "125630.027500", "125630.487500", "125630.947500", "125631.407500", "125631.867500", "125632.327500", "125632.787500", "125633.247500", "125633.707500", "125634.167500", "125634.627500", "125635.087500", "125635.547500", "125636.007500", "125636.467500", "125636.927500", "125637.387500", "125637.847500", "125638.307500", "125638.767500", "125639.227500", "125639.687500", "125640.147500", "125640.607500", "125641.067500", "125641.527500", "125641.987500", "125642.447500", "125642.907500", "125643.367500", "125643.827500", "125644.287500", "125644.747500", "125645.207500", "125645.667500", "125646.127500", "125646.587500", "125647.047500", "125647.507500", "125647.967500", "125648.427500", "125648.887500", "125649.347500", "125649.807500", "125650.267500", "125650.727500", "125651.187500", "125651.647500"],
