{
  "AcquisitionMatrixPE": 82,
  "AcquisitionNumber": 1,
  "AcquisitionTime": "12:34:17.245000",
  "BandwidthPerPixelPhaseEncode": 24.888,
  "BaseResolution": 82,
  "BodyPartExamined": "BRAIN",
  "ConsistencyInfo": "N4_VE11E_LATEST_20181129",
  "ConversionSoftware": "dcm2niix",
  "ConversionSoftwareVersion": "v1.0.20201102",
  "DerivedVendorReportedEchoSpacing": 0.00049,
  "DeviceSerialNumber": "66112",
  "DwellTime": 2e-06,
  "EchoTime": 0.0272,
  "EchoTrainLength": 82,
  "EffectiveEchoSpacing": 0.00049,
  "FlipAngle": 44,
  "ImageComments": "Unaliased MB8/PE3",
  "ImageOrientationPatientDICOM": [0.999433, 0.0134801, -0.0308404, -0.0137812, 0.999859, -0.00957185],
  "ImageType": [
    "ORIGINAL",
    "PRIMARY",
    "M",
    "MB",
    "ND",
    "NORM",
    "MOSAIC"
],
  "ImagingFrequency": 123.259,
  "InPlanePhaseEncodingDirectionDICOM": "COL",
  "InstitutionAddress": "Maynard 3,Hanover,NH,US,03755",
  "InstitutionName": "Dartmouth College - PBS",
  "InstitutionalDepartmentName": "Department",
  "MRAcquisitionType": "2D",
  "MagneticFieldStrength": 3,
  "Manufacturer": "Siemens",
  "ManufacturersModelName": "Prisma",
  "Modality": "MR",
  "MultibandAccelerationFactor": 8,
  "PartialFourier": 1,
  "PatientPosition": "HFS",
  "PercentPhaseFOV": 100,
  "PercentSampling": 100,
  "PhaseEncodingDirection": "j-",
  "PhaseEncodingSteps": 82,
  "PhaseResolution": 1,
  "PixelBandwidth": 3050,
  "ProcedureStepDescription": "Wager_Wager^1076_spacetop",
  "ProtocolName": "func_run-02_task-social_acq-ap-mb8",
  "PulseSequenceDetails": "%CustomerSeq%\\cmrr_mbep2d_bold",
  "ReceiveCoilActiveElements": "HEA;HEP",
  "ReceiveCoilName": "Head_32",
  "ReconMatrixPE": 82,
  "RepetitionTime": 0.46,
  "SAR": 0.11234,
  "ScanOptions": "FS",
  "ScanningSequence": "EP",
  "SequenceName": "epfid2d1_82",
  "SequenceVariant": "SK\\SS",
  "SeriesDescription": "func_run-02_task-social_acq-ap-mb8",
  "SeriesNumber": 14,
  "ShimSetting": [4223, -7754, -7260, 114, -102, -38, 62, 131],
  "SliceThickness": 2.7,
  "SliceTiming": [0, 0.25, 0.0625, 0.3125, 0.125, 0.3775, 0.1875, 0, 0.25, 0.0625, 0.3125, 0.125, 0.3775, 0.1875, 0, 0.25, 0.0625, 0.3125, 0.125, 0.3775, 0.1875, 0, 0.25, 0.0625, 0.3125, 0.125, 0.3775, 0.1875, 0, 0.25, 0.0625, 0.3125, 0.125, 0.3775, 0.1875, 0, 0.25, 0.0625, 0.3125, 0.125, 0.3775, 0.1875, 0, 0.25, 0.0625, 0.3125, 0.125, 0.3775, 0.1875, 0, 0.25, 0.0625, 0.3125, 0.125, 0.3775, 0.1875],
  "SoftwareVersions": "syngo MR E11",
  "SpacingBetweenSlices": 2.7,
  "StationName": "AWP66112",
  "TaskName": "social",
  "TotalReadoutTime": 0.03969,
  "TxRefAmp": 248.67,
  "WipMemBlock": "69f9d4da-0622-42dc-88c3-7a031e6dad9a||Sequence: R016 ve11e/master r/434b28f1; Aug  7 2019 18:53:46 by eja",
  "dcmmeta_affine": [
    [-2.6814067363739014, -0.03697394207119942, -0.08290902525186539, 116.07263946533203],
    [-0.03616608679294586, 2.682549238204956, -0.02697690576314926, -92.38004302978516],
    [-0.0827425867319107, 0.025680579245090485, 2.698591947555542, -75.21609497070312],
    [0.0, 0.0, 0.0, 1.0]
],
  "dcmmeta_reorient_transform": [
    [0.0, -1.0, 0.0, 81.0],
    [1.0, 0.0, 0.0, 0.0],
    [0.0, 0.0, 1.0, 0.0],
    [0.0, 0.0, 0.0, 1.0]
],
  "dcmmeta_shape": [82, 82, 56, 872],
  "dcmmeta_slice_dim": 2,
  "dcmmeta_version": 0.6,
  "global": {
    "const": {
      "AccessionNumber": "A004806",
      "AcquisitionMatrix": [82, 0, 0, 82],
      "AngioFlag": "N",
      "BitsAllocated": 16,
      "BitsStored": 16,
      "BodyPartExamined": "BRAIN",
      "Columns": 656,
      "EchoNumbers": 1,
      "EchoTime": 27.2,
      "EchoTrainLength": 82,
      "FlipAngle": 44.0,
      "HighBit": 15,
      "ImageOrientationPatient": [0.9994334174034, 0.0134800861461, -0.0308404191746, -0.0137811965278, 0.99985921922472, -0.0095718521506],
      "ImagePositionPatient": [-872.02997947916, -905.17772741867, -42.018522102204],
      "ImageType": [
        "ORIGINAL",
        "PRIMARY",
        "M",
        "MB",
        "ND",
        "NORM",
        "MOSAIC"
],
      "ImagedNucleus": "1H",
      "ImagingFrequency": 123.259075,
      "InPlanePhaseEncodingDirection": "COL",
      "MRAcquisitionType": "2D",
      "MagneticFieldStrength": 3.0,
      "Manufacturer": "SIEMENS",
      "ManufacturerModelName": "Prisma",
      "Modality": "MR",
      "NumberOfAverages": 1.0,
      "NumberOfPhaseEncodingSteps": 82,
      "PercentPhaseFieldOfView": 100.0,
      "PercentSampling": 100.0,
      "PerformedProcedureStepStartTime": "113728.177000",
      "PhotometricInterpretation": "MONOCHROME2",
      "PixelBandwidth": 3050.0,
      "PixelRepresentation": 0,
      "PixelSpacing": [2.6829268932343, 2.6829268932343],
      "ProtocolName": "func_run-02_task-social_acq-ap-mb8",
      "RepetitionTime": 460.0,
      "Rows": 656,
      "SAR": 0.11233970467009,
      "SamplesPerPixel": 1,
      "ScanOptions": "FS",
      "ScanningSequence": "EP",
      "SequenceName": "epfid2d1_82",
      "SequenceVariant": [
        "SK",
        "SS"
],
      "SeriesDescription": "func_run-02_task-social_acq-ap-mb8",
      "SeriesNumber": 14,
      "SeriesTime": "123443.827000",
      "SliceLocation": -77.8181105128,
      "SliceThickness": 2.7000000476837,
      "SmallestImagePixelValue": 0,
      "SoftwareVersions": "syngo MR E11",
      "SpacingBetweenSlices": 2.6999999730563,
      "SpecificCharacterSet": "ISO_IR 100",
      "StudyID": "1",
      "StudyTime": "113728.078000",
      "TransmitCoilName": "Body",
      "VariableFlipAngleFlag": "N",
      "WindowCenterWidthExplanation": "Algo1"
    },
    "slices": {}
  },
  "time": {
    "samples": {
      "AcquisitionNumber": [1, 2, 3, 4, 5, 6, 7, 8, 9, 10, 11, 12, 13, 14, 15, 16, 17, 18, 19, 20, 21, 22, 23, 24, 25, 26, 27, 28, 29, 30, 31, 32, 33, 34, 35, 36, 37, 38, 39, 40, 41, 42, 43, 44, 45, 46, 47, 48, 49, 50, 51, 52, 53, 54, 55, 56, 57, 58, 59, 60, 61, 62, 63, 64, 65, 66, 67, 68, 69, 70, 71, 72, 73, 74, 75, 76, 77, 78, 79, 80, 81, 82, 83, 84, 85, 86, 87, 88, 89, 90, 91, 92, 93, 94, 95, 96, 97, 98, 99, 100, 101, 102, 103, 104, 105, 106, 107, 108, 109, 110, 111, 112, 113, 114, 115, 116, 117, 118, 119, 120, 121, 122, 123, 124, 125, 126, 127, 128, 129, 130, 131, 132, 133, 134, 135, 136, 137, 138, 139, 140, 141, 142, 143, 144, 145, 146, 147, 148, 149, 150, 151, 152, 153, 154, 155, 156, 157, 158, 159, 160, 161, 162, 163, 164, 165, 166, 167, 168, 169, 170, 171, 172, 173, 174, 175, 176, 177, 178, 179, 180, 181, 182, 183, 184, 185, 186, 187, 188, 189, 190, 191, 192, 193, 194, 195, 196, 197, 198, 199, 200, 201, 202, 203, 204, 205, 206, 207, 208, 209, 210, 211, 212, 213, 214, 215, 216, 217, 218, 219, 220, 221, 222, 223, 224, 225, 226, 227, 228, 229, 230, 231, 232, 233, 234, 235, 236, 237, 238, 239, 240, 241, 242, 243, 244, 245, 246, 247, 248, 249, 250, 251, 252, 253, 254, 255, 256, 257, 258, 259, 260, 261, 262, 263, 264, 265, 266, 267, 268, 269, 270, 271, 272, 273, 274, 275, 276, 277, 278, 279, 280, 281, 282, 283, 284, 285, 286, 287, 288, 289, 290, 291, 292, 293, 294, 295, 296, 297, 298, 299, 300, 301, 302, 303, 304, 305, 306, 307, 308, 309, 310, 311, 312, 313, 314, 315, 316, 317, 318, 319, 320, 321, 322, 323, 324, 325, 326, 327, 328, 329, 330, 331, 332, 333, 334, 335, 336, 337, 338, 339, 340, 341, 342, 343, 344, 345, 346, 347, 348, 349, 350, 351, 352, 353, 354, 355, 356, 357, 358, 359, 360, 361, 362, 363, 364, 365, 366, 367, 368, 369, 370, 371, 372, 373, 374, 375, 376, 377, 378, 379, 380, 381, 382, 383, 384, 385, 386, 387, 388, 389, 390, 391, 392, 393, 394, 395, 396, 397, 398, 399, 400, 401, 402, 403, 404, 405, 406, 407, 408, 409, 410, 411, 412, 413, 414, 415, 416, 417, 418, 419, 420, 421, 422, 423, 424, 425, 426, 427, 428, 429, 430, 431, 432, 433, 434, 435, 436, 437, 438, 439, 440, 441, 442, 443, 444, 445, 446, 447, 448, 449, 450, 451, 452, 453, 454, 455, 456, 457, 458, 459, 460, 461, 462, 463, 464, 465, 466, 467, 468, 469, 470, 471, 472, 473, 474, 475, 476, 477, 478, 479, 480, 481, 482, 483, 484, 485, 486, 487, 488, 489, 490, 491, 492, 493, 494, 495, 496, 497, 498, 499, 500, 501, 502, 503, 504, 505, 506, 507, 508, 509, 510, 511, 512, 513, 514, 515, 516, 517, 518, 519, 520, 521, 522, 523, 524, 525, 526, 527, 528, 529, 530, 531, 532, 533, 534, 535, 536, 537, 538, 539, 540, 541, 542, 543, 544, 545, 546, 547, 548, 549, 550, 551, 552, 553, 554, 555, 556, 557, 558, 559, 560, 561, 562, 563, 564, 565, 566, 567, 568, 569, 570, 571, 572, 573, 574, 575, 576, 577, 578, 579, 580, 581, 582, 583, 584, 585, 586, 587, 588, 589, 590, 591, 592, 593, 594, 595, 596, 597, 598, 599, 600, 601, 602, 603, 604, 605, 606, 607, 608, 609, 610, 611, 612, 613, 614, 615, 616, 617, 618, 619, 620, 621, 622, 623, 624, 625, 626, 627, 628, 629, 630, 631, 632, 633, 634, 635, 636, 637, 638, 639, 640, 641, 642, 643, 644, 645, 646, 647, 648, 649, 650, 651, 652, 653, 654, 655, 656, 657, 658, 659, 660, 661, 662, 663, 664, 665, 666, 667, 668, 669, 670, 671, 672, 673, 674, 675, 676, 677, 678, 679, 680, 681, 682, 683, 684, 685, 686, 687, 688, 689, 690, 691, 692, 693, 694, 695, 696, 697, 698, 699, 700, 701, 702, 703, 704, 705, 706, 707, 708, 709, 710, 711, 712, 713, 714, 715, 716, 717, 718, 719, 720, 721, 722, 723, 724, 725, 726, 727, 728, 729, 730, 731, 732, 733, 734, 735, 736, 737, 738, 739, 740, 741, 742, 743, 744, 745, 746, 747, 748, 749, 750, 751, 752, 753, 754, 755, 756, 757, 758, 759, 760, 761, 762, 763, 764, 765, 766, 767, 768, 769, 770, 771, 772, 773, 774, 775, 776, 777, 778, 779, 780, 781, 782, 783, 784, 785, 786, 787, 788, 789, 790, 791, 792, 793, 794, 795, 796, 797, 798, 799, 800, 801, 802, 803, 804, 805, 806, 807, 808, 809, 810, 811, 812, 813, 814, 815, 816, 817, 818, 819, 820, 821, 822, 823, 824, 825, 826, 827, 828, 829, 830, 831, 832, 833, 834, 835, 836, 837, 838, 839, 840, 841, 842, 843, 844, 845, 846, 847, 848, 849, 850, 851, 852, 853, 854, 855, 856, 857, 858, 859, 860, 861, 862, 863, 864, 865, 866, 867, 868, 869, 870, 871, 872],
      "AcquisitionTime": ["123417.245000", "123417.705000", "123418.165000", "123418.625000", "123419.085000", "123419.545000", "123420.005000", "123420.465000", "123420.925000", "123421.385000", "123421.845000", "123422.305000", "123422.765000", "123423.225000", "123423.685000", "123424.145000", "123424.605000", "123425.065000", "123425.525000", "123425.985000", "123426.445000", "123426.905000", "123427.365000", "123427.825000", "123428.285000", "123428.745000", "123429.205000", "123429.665000", "123430.125000", "123430.585000", "123431.045000", "123431.505000", "123431.965000", "123432.425000", "123432.885000", "123433.345000", "123433.805000", "123434.265000", "123434.725000", "123435.185000", "123435.645000", "123436.105000", "123436.565000", "123437.025000", "123437.485000", "123437.945000", "123438.405000", "123438.865000", "123439.325000", "123439.785000", "123440.245000", "123440.705000", "123441.165000", "123441.625000", "123442.085000", "123442.545000", "123443.005000", "123443.465000", "123443.925000", "123444.385000", "123444.845000", "123445.305000", "123445.765000", "123446.225000", "123446.685000", "123447.145000", "123447.605000", "123448.065000", "123448.525000", "123448.985000", "123449.445000", "123449.905000", "123450.365000", "123450.825000", "123451.285000", "123451.745000", "123452.205000", "123452.665000", "123453.125000", "123453.585000", "123454.045000", "123454.505000", "123454.965000", "123455.425000", "123455.885000", "123456.345000", "123456.805000", "123457.265000", "123457.725000", "123458.185000", "123458.645000", "123459.105000", "123459.565000", "123500.025000", "123500.485000", "123500.945000", "123501.405000", "123501.865000", "123502.325000", "123502.785000", "123503.245000", "123503.705000", "123504.165000", "123504.625000", "123505.085000", "123505.545000", "123506.005000", "123506.465000", "123506.925000", "123507.385000", "123507.845000", "123508.305000", "123508.765000", "123509.225000", "123509.685000", "123510.145000", "123510.605000", "123511.065000", "123511.525000", "123511.985000", "123512.445000", "123512.905000", "123513.365000", "123513.825000", "123514.285000", "123514.745000", "123515.205000", "123515.665000", "123516.125000", "123516.585000", "123517.045000", "123517.505000", "123517.965000", "123518.425000", "123518.885000", "123519.345000", "123519.805000", "123520.265000", "123520.725000", "123521.185000", "123521.645000", "123522.105000", "123522.565000", "123523.025000", "123523.485000", "123523.945000", "123524.405000", "123524.865000", "123525.325000", "123525.785000", "123526.245000", "123526.705000", "123527.165000", "123527.625000", "123528.085000", "123528.545000", "123529.005000", "123529.465000", "123529.925000", "123530.385000", "123530.845000", "123531.305000", "123531.765000", "123532.225000", "123532.685000", "123533.145000", "123533.605000", "123534.065000", "123534.525000", "123534.985000", "123535.445000", "123535.905000", "123536.365000", "123536.825000", "123537.285000", "123537.745000", "123538.205000", "123538.665000", "123539.125000", "123539.585000", "123540.045000", "123540.505000", "123540.965000", "123541.425000", "123541.885000", "123542.345000", "123542.805000", "123543.265000", "123543.725000", "123544.185000", "123544.645000", "123545.105000", "123545.565000", "123546.025000", "123546.485000", "123546.945000", "123547.405000", "123547.865000", "123548.325000", "123548.785000", "123549.245000", "123549.705000", "123550.165000", "123550.625000", "123551.085000", "123551.545000", "123552.005000", "123552.465000", "123552.925000", "123553.385000", "123553.845000", "123554.305000", "123554.765000", "123555.225000", "123555.685000", "123556.145000", "123556.605000", "123557.065000", "123557.525000", "123557.985000", "123558.445000", "123558.905000", "123559.365000", "123559.825000", "123600.285000", "123600.745000", "123601.205000", "123601.665000", "123602.125000", "123602.585000", "123603.045000", "123603.505000", "123603.965000", "123604.425000", "123604.885000", "123605.345000", "123605.805000", "123606.265000", "123606.725000", "123607.185000", "123607.645000", "123608.105000", "123608.565000", "123609.025000", "123609.485000", "123609.945000", "123610.405000", "123610.865000", "123611.325000", "123611.785000", "123612.245000", "123612.705000", "123613.165000", "123613.625000", "123614.085000", "123614.545000", "123615.005000", "123615.465000", "123615.925000", "123616.385000", "123616.845000", "123617.305000", "123617.765000", "123618.225000", "123618.685000", "123619.145000", "123619.605000", "123620.065000", "123620.525000", "123620.985000", "123621.445000", "123621.905000", "123622.365000", "123622.825000", "123623.285000", "123623.745000", "123624.205000", "123624.665000", "123625.125000", "123625.585000", "123626.045000", "123626.505000", "123626.965000", "123627.425000", "123627.885000", "123628.345000", "123628.805000", "123629.265000", "123629.725000", "123630.185000", "123630.645000", "123631.105000", "123631.565000", "123632.025000", "123632.485000", "123632.945000", "123633.405000", "123633.865000", "123634.325000", "123634.785000", "123635.245000", "123635.705000", "123636.165000", "123636.625000", "123637.085000", "123637.545000", "123638.005000", "123638.465000", "123638.925000", "123639.385000", "123639.845000", "123640.305000", "123640.765000", "123641.225000", "123641.685000", "123642.145000", "123642.605000", "123643.065000", "123643.525000", "123643.985000", "123644.445000", "123644.905000", "123645.365000", "123645.825000", "123646.285000", "123646.745000", "123647.205000", "123647.665000", "123648.125000", "123648.585000", "123649.045000", "123649.505000", "123649.965000", "123650.425000", "123650.885000", "123651.345000", "123651.805000", "123652.265000", "123652.725000", "123653.185000", "123653.645000", "123654.105000", "123654.565000", "123655.025000", "123655.485000", "123655.945000", "123656.405000", "123656.865000", "123657.325000", "123657.785000", "123658.245000", "123658.705000", "123659.165000", "123659.625000", "123700.085000", "123700.545000", "123701.005000", "123701.465000", "123701.925000", "123702.385000", "123702.845000", "123703.305000", "123703.765000", "123704.225000", "123704.685000", "123705.145000", "123705.605000", "123706.065000", "123706.525000", "123706.985000", "123707.445000", "123707.905000", "123708.365000", "123708.825000", "123709.285000", "123709.745000", "123710.205000", "123710.665000", "123711.125000", "123711.585000", "123712.045000", "123712.505000", "123712.965000", "123713.425000", "123713.885000", "123714.345000", "123714.805000", "123715.265000", "123715.725000", "123716.185000", "123716.645000", "123717.105000", "123717.565000", "123718.025000", "123718.485000", "123718.945000", "123719.405000", "123719.865000", "123720.325000", "123720.785000", "123721.245000", "123721.705000", "123722.165000", "123722.625000", "123723.085000", "123723.545000", "123724.005000", "123724.465000", "123724.925000", "123725.385000", "123725.845000", "123726.305000", "123726.765000", "123727.225000", "123727.685000", "123728.145000", "123728.605000", "123729.065000", "123729.525000", "123729.985000", "123730.445000", "123730.905000", "123731.365000", "123731.825000", "123732.285000", "123732.745000", "123733.205000", "123733.665000", "123734.125000", "123734.585000", "123735.045000", "123735.505000", "123735.965000", "123736.425000", "123736.885000", "123737.345000", "123737.805000", "123738.265000", "123738.725000", "123739.185000", "123739.645000", "123740.105000", "123740.565000", "123741.025000", "123741.485000", "123741.945000", "123742.405000", "123742.865000", "123743.325000", "123743.785000", "123744.245000", "123744.705000", "123745.165000", "123745.625000", "123746.085000", "123746.545000", "123747.005000", "123747.465000", "123747.925000", "123748.385000", "123748.845000", "123749.305000", "123749.765000", "123750.225000", "123750.685000", "123751.145000", "123751.605000", "123752.065000", "123752.525000", "123752.985000", "123753.445000", "123753.905000", "123754.365000", "123754.825000", "123755.285000", "123755.745000", "123756.205000", "123756.665000", "123757.125000", "123757.585000", "123758.045000", "123758.505000", "123758.965000", "123759.425000", "123759.885000", "123800.345000", "123800.805000", "123801.265000", "123801.725000", "123802.185000", "123802.645000", "123803.105000", "123803.565000", "123804.025000", "123804.485000", "123804.945000", "123805.405000", "123805.865000", "123806.325000", "123806.785000", "123807.245000", "123807.705000", "123808.165000", "123808.625000", "123809.085000", "123809.545000", "123810.005000", "123810.465000", "123810.925000", "123811.385000", "123811.845000", "123812.305000", "123812.765000", "123813.225000", "123813.685000", "123814.145000", "123814.605000", "123815.065000", "123815.525000", "123815.985000", "123816.445000", "123816.905000", "123817.365000", "123817.825000", "123818.285000", "123818.745000", "123819.205000", "123819.665000", "123820.125000", "123820.585000", "123821.045000", "123821.505000", "123821.965000", "123822.425000", "123822.885000", "123823.345000", "123823.805000", "123824.265000", "123824.725000", "123825.185000", "123825.645000", "123826.105000", "123826.565000", "123827.025000", "123827.485000", "123827.945000", "123828.405000", "123828.865000", "123829.325000", "123829.785000", "123830.245000", "123830.705000", "123831.165000", "123831.625000", "123832.085000", "123832.545000", "123833.005000", "123833.465000", "123833.925000", "123834.385000", "123834.845000", "123835.305000", "123835.765000", "123836.225000", "123836.685000", "123837.145000", "123837.605000", "123838.065000", "123838.525000", "123838.985000", "123839.445000", "123839.905000", "123840.365000", "123840.825000", "123841.285000", "123841.745000", "123842.205000", "123842.665000", "123843.125000", "123843.585000", "123844.045000", "123844.505000", "123844.965000", "123845.425000", "123845.885000", "123846.345000", "123846.805000", "123847.265000", "123847.725000", "123848.185000", "123848.645000", "123849.105000", "123849.565000", "123850.025000", "123850.485000", "123850.945000", "123851.405000", "123851.865000", "123852.325000", "123852.785000", "123853.245000", "123853.705000", "123854.165000", "123854.625000", "123855.085000", "123855.545000", "123856.005000", "123856.465000", "123856.925000", "123857.385000", "123857.845000", "123858.305000", "123858.765000", "123859.225000", "123859.685000", "123900.145000", "123900.605000", "123901.065000", "123901.525000", "123901.985000", "123902.445000", "123902.905000", "123903.365000", "123903.825000", "123904.285000", "123904.745000", "123905.205000", "123905.665000", "123906.125000", "123906.585000", "123907.045000", "123907.505000", "123907.965000", "123908.425000", "123908.885000", "123909.345000", "123909.805000", "123910.265000", "123910.725000", "123911.185000", "123911.645000", "123912.105000", "123912.565000", "123913.025000", "123913.485000", "123913.945000", "123914.405000", "123914.865000", "123915.325000", "123915.785000", "123916.245000", "123916.705000", "123917.165000", "123917.625000", "123918.085000", "123918.545000", "123919.005000", "123919.465000", "123919.925000", "123920.385000", "123920.845000", "123921.305000", "123921.765000", "123922.225000", "123922.685000", "123923.145000", "123923.605000", "123924.065000", "123924.525000", "123924.985000", "123925.445000", "123925.905000", "123926.365000", "123926.825000", "123927.285000", "123927.745000", "123928.205000", "123928.665000", "123929.125000", "123929.585000", "123930.045000", "123930.505000", "123930.965000", "123931.425000", "123931.885000", "123932.345000", "123932.805000", "123933.265000", "123933.725000", "123934.185000", "123934.645000", "123935.105000", "123935.565000", "123936.025000", "123936.485000", "123936.945000", "123937.405000", "123937.865000", "123938.325000", "123938.785000", "123939.245000", "123939.705000", "123940.165000", "123940.625000", "123941.085000", "123941.545000", "123942.005000", "123942.465000", "123942.925000", "123943.385000", "123943.845000", "123944.305000", "123944.765000", "123945.225000", "123945.685000", "123946.145000", "123946.605000", "123947.065000", "123947.525000", "123947.985000", "123948.445000", "123948.905000", "123949.365000", "123949.825000", "123950.285000", "123950.745000", "123951.205000", "123951.665000", "123952.125000", "123952.585000", "123953.045000", "123953.505000", "123953.965000", "123954.425000", "123954.885000", "123955.345000", "123955.805000", "123956.265000", "123956.725000", "123957.185000", "123957.645000", "123958.105000", "123958.565000", "123959.025000", "123959.485000", "123959.945000", "124000.405000", "124000.865000", "124001.325000", "124001.785000", "124002.245000", "124002.705000", "124003.165000", "124003.625000", "124004.085000", "124004.545000", "124005.005000", "124005.465000", "124005.925000", "124006.385000", "124006.845000", "124007.305000", "124007.765000", "124008.225000", "124008.685000", "124009.145000", "124009.605000", "124010.065000", "124010.525000", "124010.985000", "124011.445000", "124011.905000", "124012.365000", "124012.825000", "124013.285000", "124013.745000", "124014.205000", "124014.665000", "124015.125000", "124015.585000", "124016.045000", "124016.505000", "124016.965000", "124017.425000", "124017.885000", "124018.345000", "124018.805000", "124019.265000", "124019.725000", "124020.185000", "124020.645000", "124021.105000", "124021.565000", "124022.025000", "124022.485000", "124022.945000", "124023.405000", "124023.865000", "124024.325000", "124024.785000", "124025.245000", "124025.705000", "124026.165000", "124026.625000", "124027.085000", "124027.545000", "124028.005000", "124028.465000", "124028.925000", "124029.385000", "124029.845000", "124030.305000", "124030.765000", "124031.225000", "124031.685000", "124032.145000", "124032.605000", "124033.065000", "124033.525000", "124033.985000", "124034.445000", "124034.905000", "124035.365000", "124035.825000", "124036.285000", "124036.745000", "124037.205000", "124037.665000", "124038.125000", "124038.585000", "124039.045000", "124039.505000", "124039.965000", "124040.425000", "124040.885000", "124041.345000", "124041.805000", "124042.265000", "124042.725000", "124043.185000", "124043.645000", "124044.105000", "124044.565000", "124045.025000", "124045.485000", "124045.945000", "124046.405000", "124046.865000", "124047.325000", "124047.785000", "124048.245000", "124048.705000", "124049.165000", "124049.625000", "124050.085000", "124050.545000", "124051.005000", "124051.465000", "124051.925000", "124052.385000", "124052.845000", "124053.305000", "124053.765000", "124054.225000", "124054.685000", "124055.145000", "124055.605000", "124056.065000", "124056.525000", "124056.985000", "124057.445000", "124057.905000"],
