{
  "AcquisitionMatrixPE": 82,
  "AcquisitionNumber": 1,
  "AcquisitionTime": "12:17:28.677500",
  "BandwidthPerPixelPhaseEncode": 24.888,
  "BaseResolution": 82,
  "BodyPartExamined": "BRAIN",
  "ConsistencyInfo": "N4_VE11E_LATEST_20181129",
  "ConversionSoftware": "dcm2niix",
  "ConversionSoftwareVersion": "v1.0.20201102",
  "DerivedVendorReportedEchoSpacing": 0.00049,
  "DeviceSerialNumber": "66112",
  "DwellTime": 2e-06,
  "EchoTime": 0.0272,
  "EchoTrainLength": 82,
  "EffectiveEchoSpacing": 0.00049,
  "FlipAngle": 44,
  "ImageComments": "Unaliased MB8/PE3",
  "ImageOrientationPatientDICOM": [0.999008, 0.0185474, -0.0404729, -0.0127289, 0.990133, 0.139553],
  "ImageType": [
    "ORIGINAL",
    "PRIMARY",
    "M",
    "MB",
    "ND",
    "NORM",
    "MOSAIC"
],
  "ImagingFrequency": 123.252,
  "InPlanePhaseEncodingDirectionDICOM": "COL",
  "InstitutionAddress": "Maynard 3,Hanover,NH,US,03755",
  "InstitutionName": "Dartmouth College - PBS",
  "InstitutionalDepartmentName": "Department",
  "MRAcquisitionType": "2D",
  "MagneticFieldStrength": 3,
  "Manufacturer": "Siemens",
  "ManufacturersModelName": "Prisma",
  "Modality": "MR",
  "MultibandAccelerationFactor": 8,
  "PartialFourier": 1,
  "PatientPosition": "HFS",
  "PercentPhaseFOV": 100,
  "PercentSampling": 100,
  "PhaseEncodingDirection": "j-",
  "PhaseEncodingSteps": 82,
  "PhaseResolution": 1,
  "PixelBandwidth": 3050,
  "ProcedureStepDescription": "Wager_Wager^1076_spacetop",
  "ProtocolName": "func_run-02_task-alignvideo_acq-ap-mb8",
  "PulseSequenceDetails": "%CustomerSeq%\\cmrr_mbep2d_bold",
  "ReceiveCoilActiveElements": "HEA;HEP",
  "ReceiveCoilName": "Head_32",
  "ReconMatrixPE": 82,
  "RepetitionTime": 0.46,
  "SAR": 0.110531,
  "ScanOptions": "FS",
  "ScanningSequence": "EP",
  "SequenceName": "epfid2d1_82",
  "SequenceVariant": "SK\\SS",
  "SeriesDescription": "func_run-02_task-alignvideo_acq-ap-mb8",
  "SeriesNumber": 34,
  "ShimSetting": [4143, -7770, -7244, 634, -48, -72, 102, 64],
  "SliceThickness": 2.7,
  "SliceTiming": [0, 0.2525, 0.0625, 0.315, 0.1275, 0.3775, 0.19, 0, 0.2525, 0.0625, 0.315, 0.1275, 0.3775, 0.19, 0, 0.2525, 0.0625, 0.315, 0.1275, 0.3775, 0.19, 0, 0.2525, 0.0625, 0.315, 0.1275, 0.3775, 0.19, 0, 0.2525, 0.0625, 0.315, 0.1275, 0.3775, 0.19, 0, 0.2525, 0.0625, 0.315, 0.1275, 0.3775, 0.19, 0, 0.2525, 0.0625, 0.315, 0.1275, 0.3775, 0.19, 0, 0.2525, 0.0625, 0.315, 0.1275, 0.3775, 0.19],
  "SoftwareVersions": "syngo MR E11",
  "SpacingBetweenSlices": 2.7,
  "StationName": "AWP66112",
  "TaskName": "alignvideo",
  "TotalReadoutTime": 0.03969,
  "TxRefAmp": 267.882,
  "WipMemBlock": "279229ac-f5f8-4926-bd77-eaa77e621079||Sequence: R016 ve11e/master r/434b28f1; Aug  7 2019 18:53:46 by eja",
  "dcmmeta_affine": [
    [-2.6802666187286377, -0.034150779247283936, -0.11518701165914536, 117.1865463256836],
    [-0.049761366099119186, 2.656453847885132, 0.37502798438072205, -97.72846221923828],
    [-0.10858573764562607, -0.3744099736213684, 2.6713452339172363, -48.40052032470703],
    [0.0, 0.0, 0.0, 1.0]
],
  "dcmmeta_reorient_transform": [
    [0.0, -1.0, 0.0, 81.0],
    [1.0, 0.0, 0.0, 0.0],
    [0.0, 0.0, 1.0, 0.0],
    [0.0, 0.0, 0.0, 1.0]
],
  "dcmmeta_shape": [82, 82, 56, 926],
  "dcmmeta_slice_dim": 2,
  "dcmmeta_version": 0.6,
  "global": {
    "const": {
      "AccessionNumber": "A004211",
      "AcquisitionMatrix": [82, 0, 0, 82],
      "AngioFlag": "N",
      "BitsAllocated": 16,
      "BitsStored": 16,
      "BodyPartExamined": "BRAIN",
      "Columns": 656,
      "EchoNumbers": 1,
      "EchoTime": 27.2,
      "EchoTrainLength": 82,
      "FlipAngle": 44.0,
      "HighBit": 15,
      "ImageOrientationPatient": [0.99900847866351, 0.01854741762102, -0.0404728657006, -0.0127289259976, 0.99013281428064, 0.13955280193409],
      "ImagePositionPatient": [-873.85560343588, -894.12810144033, -155.01927968005],
      "ImageType": [
        "ORIGINAL",
        "PRIMARY",
        "M",
        "MB",
        "ND",
        "NORM",
        "MOSAIC"
],
      "ImagedNucleus": "1H",
      "ImagingFrequency": 123.252192,
      "InPlanePhaseEncodingDirection": "COL",
      "MRAcquisitionType": "2D",
      "MagneticFieldStrength": 3.0,
      "Manufacturer": "SIEMENS",
      "ManufacturerModelName": "Prisma",
      "Modality": "MR",
      "NumberOfAverages": 1.0,
      "NumberOfPhaseEncodingSteps": 82,
      "PercentPhaseFieldOfView": 100.0,
      "PercentSampling": 100.0,
      "PerformedProcedureStepStartTime": "104206.678000",
      "PhotometricInterpretation": "MONOCHROME2",
      "PixelBandwidth": 3050.0,
      "PixelRepresentation": 0,
      "PixelSpacing": [2.6829268932343, 2.6829268932343],
      "ProtocolName": "func_run-02_task-alignvideo_acq-ap-mb8",
      "RepetitionTime": 460.0,
      "Rows": 656,
      "SAR": 0.11053071304606,
      "SamplesPerPixel": 1,
      "ScanOptions": "FS",
      "ScanningSequence": "EP",
      "SequenceName": "epfid2d1_82",
      "SequenceVariant": [
        "SK",
        "SS"
],
      "SeriesDescription": "func_run-02_task-alignvideo_acq-ap-mb8",
      "SeriesNumber": 34,
      "SeriesTime": "121754.746000",
      "SliceLocation": -66.460659765311,
      "SliceThickness": 2.7000000476837,
      "SmallestImagePixelValue": 0,
      "SoftwareVersions": "syngo MR E11",
      "SpacingBetweenSlices": 2.6999998999545,
      "SpecificCharacterSet": "ISO_IR 100",
      "StudyID": "1",
      "StudyTime": "104206.627000",
      "TransmitCoilName": "Body",
      "VariableFlipAngleFlag": "N",
      "WindowCenterWidthExplanation": "Algo1"
    },
    "slices": {}
  },
  "time": {
    "samples": {
      "AcquisitionNumber": [1, 2, 3, 4, 5, 6, 7, 8, 9, 10, 11, 12, 13, 14, 15, 16, 17, 18, 19, 20, 21, 22, 23, 24, 25, 26, 27, 28, 29, 30, 31, 32, 33, 34, 35, 36, 37, 38, 39, 40, 41, 42, 43, 44, 45, 46, 47, 48, 49, 50, 51, 52, 53, 54, 55, 56, 57, 58, 59, 60, 61, 62, 63, 64, 65, 66, 67, 68, 69, 70, 71, 72, 73, 74, 75, 76, 77, 78, 79, 80, 81, 82, 83, 84, 85, 86, 87, 88, 89, 90, 91, 92, 93, 94, 95, 96, 97, 98, 99, 100, 101, 102, 103, 104, 105, 106, 107, 108, 109, 110, 111, 112, 113, 114, 115, 116, 117, 118, 119, 120, 121, 122, 123, 124, 125, 126, 127, 128, 129, 130, 131, 132, 133, 134, 135, 136, 137, 138, 139, 140, 141, 142, 143, 144, 145, 146, 147, 148, 149, 150, 151, 152, 153, 154, 155, 156, 157, 158, 159, 160, 161, 162, 163, 164, 165, 166, 167, 168, 169, 170, 171, 172, 173, 174, 175, 176, 177, 178, 179, 180, 181, 182, 183, 184, 185, 186, 187, 188, 189, 190, 191, 192, 193, 194, 195, 196, 197, 198, 199, 200, 201, 202, 203, 204, 205, 206, 207, 208, 209, 210, 211, 212, 213, 214, 215, 216, 217, 218, 219, 220, 221, 222, 223, 224, 225, 226, 227, 228, 229, 230, 231, 232, 233, 234, 235, 236, 237, 238, 239, 240, 241, 242, 243, 244, 245, 246, 247, 248, 249, 250, 251, 252, 253, 254, 255, 256, 257, 258, 259, 260, 261, 262, 263, 264, 265, 266, 267, 268, 269, 270, 271, 272, 273, 274, 275, 276, 277, 278, 279, 280, 281, 282, 283, 284, 285, 286, 287, 288, 289, 290, 291, 292, 293, 294, 295, 296, 297, 298, 299, 300, 301, 302, 303, 304, 305, 306, 307, 308, 309, 310, 311, 312, 313, 314, 315, 316, 317, 318, 319, 320, 321, 322, 323, 324, 325, 326, 327, 328, 329, 330, 331, 332, 333, 334, 335, 336, 337, 338, 339, 340, 341, 342, 343, 344, 345, 346, 347, 348, 349, 350, 351, 352, 353, 354, 355, 356, 357, 358, 359, 360, 361, 362, 363, 364, 365, 366, 367, 368, 369, 370, 371, 372, 373, 374, 375, 376, 377, 378, 379, 380, 381, 382, 383, 384, 385, 386, 387, 388, 389, 390, 391, 392, 393, 394, 395, 396, 397, 398, 399, 400, 401, 402, 403, 404, 405, 406, 407, 408, 409, 410, 411, 412, 413, 414, 415, 416, 417, 418, 419, 420, 421, 422, 423, 424, 425, 426, 427, 428, 429, 430, 431, 432, 433, 434, 435, 436, 437, 438, 439, 440, 441, 442, 443, 444, 445, 446, 447, 448, 449, 450, 451, 452, 453, 454, 455, 456, 457, 458, 459, 460, 461, 462, 463, 464, 465, 466, 467, 468, 469, 470, 471, 472, 473, 474, 475, 476, 477, 478, 479, 480, 481, 482, 483, 484, 485, 486, 487, 488, 489, 490, 491, 492, 493, 494, 495, 496, 497, 498, 499, 500, 501, 502, 503, 504, 505, 506, 507, 508, 509, 510, 511, 512, 513, 514, 515, 516, 517, 518, 519, 520, 521, 522, 523, 524, 525, 526, 527, 528, 529, 530, 531, 532, 533, 534, 535, 536, 537, 538, 539, 540, 541, 542, 543, 544, 545, 546, 547, 548, 549, 550, 551, 552, 553, 554, 555, 556, 557, 558, 559, 560, 561, 562, 563, 564, 565, 566, 567, 568, 569, 570, 571, 572, 573, 574, 575, 576, 577, 578, 579, 580, 581, 582, 583, 584, 585, 586, 587, 588, 589, 590, 591, 592, 593, 594, 595, 596, 597, 598, 599, 600, 601, 602, 603, 604, 605, 606, 607, 608, 609, 610, 611, 612, 613, 614, 615, 616, 617, 618, 619, 620, 621, 622, 623, 624, 625, 626, 627, 628, 629, 630, 631, 632, 633, 634, 635, 636, 637, 638, 639, 640, 641, 642, 643, 644, 645, 646, 647, 648, 649, 650, 651, 652, 653, 654, 655, 656, 657, 658, 659, 660, 661, 662, 663, 664, 665, 666, 667, 668, 669, 670, 671, 672, 673, 674, 675, 676, 677, 678, 679, 680, 681, 682, 683, 684, 685, 686, 687, 688, 689, 690, 691, 692, 693, 694, 695, 696, 697, 698, 699, 700, 701, 702, 703, 704, 705, 706, 707, 708, 709, 710, 711, 712, 713, 714, 715, 716, 717, 718, 719, 720, 721, 722, 723, 724, 725, 726, 727, 728, 729, 730, 731, 732, 733, 734, 735, 736, 737, 738, 739, 740, 741, 742, 743, 744, 745, 746, 747, 748, 749, 750, 751, 752, 753, 754, 755, 756, 757, 758, 759, 760, 761, 762, 763, 764, 765, 766, 767, 768, 769, 770, 771, 772, 773, 774, 775, 776, 777, 778, 779, 780, 781, 782, 783, 784, 785, 786, 787, 788, 789, 790, 791, 792, 793, 794, 795, 796, 797, 798, 799, 800, 801, 802, 803, 804, 805, 806, 807, 808, 809, 810, 811, 812, 813, 814, 815, 816, 817, 818, 819, 820, 821, 822, 823, 824, 825, 826, 827, 828, 829, 830, 831, 832, 833, 834, 835, 836, 837, 838, 839, 840, 841, 842, 843, 844, 845, 846, 847, 848, 849, 850, 851, 852, 853, 854, 855, 856, 857, 858, 859, 860, 861, 862, 863, 864, 865, 866, 867, 868, 869, 870, 871, 872, 873, 874, 875, 876, 877, 878, 879, 880, 881, 882, 883, 884, 885, 886, 887, 888, 889, 890, 891, 892, 893, 894, 895, 896, 897, 898, 899, 900, 901, 902, 903, 904, 905, 906, 907, 908, 909, 910, 911, 912, 913, 914, 915, 916, 917, 918, 919, 920, 921, 922, 923, 924, 925, 926],
      "AcquisitionTime": ["121728.677500", "121729.137500", "121729.597500", "121730.057500", "121730.517500", "121730.977500", "121731.437500", "121731.897500", "121732.357500", "121732.817500", "121733.277500", "121733.737500", "121734.197500", "121734.657500", "121735.117500", "121735.577500", "121736.037500", "121736.497500", "121736.957500", "121737.417500", "121737.877500", "121738.337500", "121738.797500", "121739.257500", "121739.717500", "121740.177500", "121740.637500", "121741.097500", "121741.557500", "121742.017500", "121742.477500", "121742.937500", "121743.397500", "121743.857500", "121744.317500", "121744.777500", "121745.237500", "121745.697500", "121746.157500", "121746.617500", "121747.077500", "121747.537500", "121747.997500", "121748.457500", "121748.917500", "121749.377500", "121749.837500", "121750.297500", "121750.757500", "121751.217500", "121751.677500", "121752.137500", "121752.597500", "121753.057500", "121753.517500", "121753.977500", "121754.437500", "121754.897500", "121755.357500", "121755.817500", "121756.277500", "121756.737500", "121757.197500", "121757.657500", "121758.117500", "121758.577500", "121759.037500", "121759.497500", "121759.957500", "121800.417500", "121800.877500", "121801.337500", "121801.797500", "121802.257500", "121802.717500", "121803.177500", "121803.637500", "121804.097500", "121804.557500", "121805.017500", "121805.477500", "121805.937500", "121806.397500", "121806.857500", "121807.317500", "121807.777500", "121808.237500", "121808.697500", "121809.157500", "121809.617500", "121810.077500", "121810.537500", "121810.997500", "121811.457500", "121811.917500", "121812.377500", "121812.837500", "121813.297500", "121813.757500", "121814.217500", "121814.677500", "121815.137500", "121815.597500", "121816.057500", "121816.517500", "121816.977500", "121817.437500", "121817.897500", "121818.357500", "121818.817500", "121819.277500", "121819.737500", "121820.197500", "121820.657500", "121821.117500", "121821.577500", "121822.037500", "121822.497500", "121822.957500", "121823.417500", "121823.877500", "121824.337500", "121824.797500", "121825.257500", "121825.717500", "121826.177500", "121826.637500", "121827.097500", "121827.557500", "121828.017500", "121828.477500", "121828.937500", "121829.397500", "121829.857500", "121830.317500", "121830.777500", "121831.237500", "121831.697500", "121832.157500", "121832.617500", "121833.077500", "121833.537500", "121833.997500", "121834.457500", "121834.917500", "121835.377500", "121835.837500", "121836.297500", "121836.757500", "121837.217500", "121837.677500", "121838.137500", "121838.597500", "121839.057500", "121839.517500", "121839.977500", "121840.437500", "121840.897500", "121841.357500", "121841.817500", "121842.277500", "121842.737500", "121843.197500", "121843.657500", "121844.117500", "121844.577500", "121845.037500", "121845.497500", "121845.957500", "121846.417500", "121846.877500", "121847.337500", "121847.797500", "121848.257500", "121848.717500", "121849.177500", "121849.637500", "121850.097500", "121850.557500", "121851.017500", "121851.477500", "121851.937500", "121852.397500", "121852.857500", "121853.317500", "121853.777500", "121854.237500", "121854.697500", "121855.157500", "121855.617500", "121856.077500", "121856.537500", "121856.997500", "121857.457500", "121857.917500", "121858.377500", "121858.837500", "121859.297500", "121859.757500", "121900.217500", "121900.677500", "121901.137500", "121901.597500", "121902.057500", "121902.517500", "121902.977500", "121903.437500", "121903.897500", "121904.357500", "121904.817500", "121905.277500", "121905.737500", "121906.197500", "121906.657500", "121907.117500", "121907.577500", "121908.037500", "121908.497500", "121908.957500", "121909.417500", "121909.877500", "121910.337500", "121910.797500", "121911.257500", "121911.717500", "121912.177500", "121912.637500", "121913.097500", "121913.557500", "121914.017500", "121914.477500", "121914.937500", "121915.397500", "121915.857500", "121916.317500", "121916.777500", "121917.237500", "121917.697500", "121918.157500", "121918.617500", "121919.077500", "121919.537500", "121919.997500", "121920.457500", "121920.917500", "121921.377500", "121921.837500", "121922.297500", "121922.757500", "121923.217500", "121923.677500", "121924.137500", "121924.597500", "121925.057500", "121925.517500", "121925.977500", "121926.437500", "121926.897500", "121927.357500", "121927.817500", "121928.277500", "121928.737500", "121929.197500", "121929.657500", "121930.117500", "121930.577500", "121931.037500", "121931.497500", "121931.957500", "121932.417500", "121932.877500", "121933.337500", "121933.797500", "121934.257500", "121934.717500", "121935.177500", "121935.637500", "121936.097500", "121936.557500", "121937.017500", "121937.477500", "121937.937500", "121938.397500", "121938.857500", "121939.317500", "121939.777500", "121940.237500", "121940.697500", "121941.157500", "121941.617500", "121942.077500", "121942.537500", "121942.997500", "121943.457500", "121943.917500", "121944.377500", "121944.837500", "121945.297500", "121945.757500", "121946.217500", "121946.677500", "121947.137500", "121947.597500", "121948.057500", "121948.517500", "121948.977500", "121949.437500", "121949.897500", "121950.357500", "121950.817500", "121951.277500", "121951.737500", "121952.197500", "121952.657500", "121953.117500", "121953.577500", "121954.037500", "121954.497500", "121954.957500", "121955.417500", "121955.877500", "121956.337500", "121956.797500", "121957.257500", "121957.717500", "121958.177500", "121958.637500", "121959.097500", "121959.557500", "122000.017500", "122000.477500", "122000.937500", "122001.397500", "122001.857500", "122002.317500", "122002.777500", "122003.237500", "122003.697500", "122004.157500", "122004.617500", "122005.077500", "122005.537500", "122005.997500", "122006.457500", "122006.917500", "122007.377500", "122007.837500", "122008.297500", "122008.757500", "122009.217500", "122009.677500", "122010.137500", "122010.597500", "122011.057500", "122011.517500", "122011.977500", "122012.437500", "122012.897500", "122013.357500", "122013.817500", "122014.277500", "122014.737500", "122015.197500", "122015.657500", "122016.117500", "122016.577500", "122017.037500", "122017.497500", "122017.957500", "122018.417500", "122018.877500", "122019.337500", "122019.797500", "122020.257500", "122020.717500", "122021.177500", "122021.637500", "122022.097500", "122022.557500", "122023.017500", "122023.477500", "122023.937500", "122024.397500", "122024.857500", "122025.317500", "122025.777500", "122026.237500", "122026.697500", "122027.157500", "122027.617500", "122028.077500", "122028.537500", "122028.997500", "122029.457500", "122029.917500", "122030.377500", "122030.837500", "122031.297500", "122031.757500", "122032.217500", "122032.677500", "122033.137500", "122033.597500", "122034.057500", "122034.517500", "122034.977500", "122035.437500", "122035.897500", "122036.357500", "122036.817500", "122037.277500", "122037.737500", "122038.197500", "122038.657500", "122039.117500", "122039.577500", "122040.037500", "122040.497500", "122040.957500", "122041.417500", "122041.877500", "122042.337500", "122042.797500", "122043.257500", "122043.717500", "122044.177500", "122044.637500", "122045.097500", "122045.557500", "122046.017500", "122046.477500", "122046.937500", "122047.397500", "122047.857500", "122048.317500", "122048.777500", "122049.237500", "122049.697500", "122050.157500", "122050.617500", "122051.077500", "122051.537500", "122051.997500", "122052.457500", "122052.917500", "122053.377500", "122053.837500", "122054.297500", "122054.757500", "122055.217500", "122055.677500", "122056.137500", "122056.597500", "122057.057500", "122057.517500", "122057.977500", "122058.437500", "122058.897500", "122059.357500", "122059.817500", "122100.277500", "122100.737500", "122101.197500", "122101.657500", "122102.117500", "122102.577500", "122103.037500", "122103.497500", "122103.957500", "122104.417500", "122104.877500", "122105.337500", "122105.797500", "122106.257500", "122106.717500", "122107.177500", "122107.637500", "122108.097500", "122108.557500", "122109.017500", "122109.477500", "122109.937500", "122110.397500", "122110.857500", "122111.317500", "122111.777500", "122112.237500", "122112.697500", "122113.157500", "122113.617500", "122114.077500", "122114.537500", "122114.997500", "122115.457500", "122115.917500", "122116.377500", "122116.837500", "122117.297500", "122117.757500", "122118.217500", "122118.677500", "122119.137500", "122119.597500", "122120.057500", "122120.517500", "122120.977500", "122121.437500", "122121.897500", "122122.357500", "122122.817500", "122123.277500", "122123.737500", "122124.197500", "122124.657500", "122125.117500", "122125.577500", "122126.037500", "122126.497500", "122126.957500", "122127.417500", "122127.877500", "122128.337500", "122128.797500", "122129.257500", "122129.717500", "122130.177500", "122130.637500", "122131.097500", "122131.557500", "122132.017500", "122132.477500", "122132.937500", "122133.397500", "122133.857500", "122134.317500", "122134.777500", "122135.237500", "122135.697500", "122136.157500", "122136.617500", "122137.077500", "122137.537500", "122137.997500", "122138.457500", "122138.917500", "122139.377500", "122139.837500", "122140.297500", "122140.757500", "122141.217500", "122141.677500", "122142.137500", "122142.597500", "122143.057500", "122143.517500", "122143.977500", "122144.437500", "122144.897500", "122145.357500", "122145.817500", "122146.277500", "122146.737500", "122147.197500", "122147.657500", "122148.117500", "122148.577500", "122149.037500", "122149.497500", "122149.957500", "122150.417500", "122150.877500", "122151.337500", "122151.797500", "122152.257500", "122152.717500", "122153.177500", "122153.637500", "122154.097500", "122154.557500", "122155.017500", "122155.477500", "122155.937500", "122156.397500", "122156.857500", "122157.317500", "122157.777500", "122158.237500", "122158.697500", "122159.157500", "122159.617500", "122200.077500", "122200.537500", "122200.997500", "122201.457500", "122201.917500", "122202.377500", "122202.837500", "122203.297500", "122203.757500", "122204.217500", "122204.677500", "122205.137500", "122205.597500", "122206.057500", "122206.517500", "122206.977500", "122207.437500", "122207.897500", "122208.357500", "122208.817500", "122209.277500", "122209.737500", "122210.197500", "122210.657500", "122211.117500", "122211.577500", "122212.037500", "122212.497500", "122212.957500", "122213.417500", "122213.877500", "122214.337500", "122214.797500", "122215.257500", "122215.717500", "122216.177500", "122216.637500", "122217.097500", "122217.557500", "122218.017500", "122218.477500", "122218.937500", "122219.397500", "122219.857500", "122220.317500", "122220.777500", "122221.237500", "122221.697500", "122222.157500", "122222.617500", "122223.077500", "122223.537500", "122223.997500", "122224.457500", "122224.917500", "122225.377500", "122225.837500", "122226.297500", "122226.757500", "122227.217500", "122227.677500", "122228.137500", "122228.597500", "122229.057500", "122229.517500", "122229.977500", "122230.437500", "122230.897500", "122231.357500", "122231.817500", "122232.277500", "122232.737500", "122233.197500", "122233.657500", "122234.117500", "122234.577500", "122235.037500", "122235.497500", "122235.957500", "122236.417500", "122236.877500", "122237.337500", "122237.797500", "122238.257500", "122238.717500", "122239.177500", "122239.637500", "122240.097500", "122240.557500", "122241.017500", "122241.477500", "122241.937500", "122242.397500", "122242.857500", "122243.317500", "122243.777500", "122244.237500", "122244.697500", "122245.157500", "122245.617500", "122246.077500", "122246.537500", "122246.997500", "122247.457500", "122247.917500", "122248.377500", "122248.837500", "122249.297500", "122249.757500", "122250.217500", "122250.677500", "122251.137500", "122251.597500", "122252.057500", "122252.517500", "122252.977500", "122253.437500", "122253.897500", "122254.357500", "122254.817500", "122255.277500", "122255.737500", "122256.197500", "122256.657500", "122257.117500", "122257.577500", "122258.037500", "122258.497500", "122258.957500", "122259.417500", "122259.877500", "122300.337500", "122300.797500", "122301.257500", "122301.717500", "122302.177500", "122302.637500", "122303.097500", "122303.557500", "122304.017500", "122304.477500", "122304.937500", "122305.397500", "122305.857500", "122306.317500", "122306.777500", "122307.237500", "122307.697500", "122308.157500", "122308.617500", "122309.077500", "122309.537500", "122309.997500", "122310.457500", "122310.917500", "122311.377500", "122311.837500", "122312.297500", "122312.757500", "122313.217500", "122313.677500", "122314.137500", "122314.597500", "122315.057500", "122315.517500", "122315.977500", "122316.437500", "122316.897500", "122317.357500", "122317.817500", "122318.277500", "122318.737500", "122319.197500", "122319.657500", "122320.117500", "122320.577500", "122321.037500", "122321.497500", "122321.957500", "122322.417500", "122322.877500", "122323.337500", "122323.797500", "122324.257500", "122324.717500", "122325.177500", "122325.637500", "122326.097500", "122326.557500", "122327.017500", "122327.477500", "122327.937500", "122328.397500", "122328.857500", "122329.317500", "122329.777500", "122330.237500", "122330.697500", "122331.157500", "122331.617500", "122332.077500", "122332.537500", "122332.997500", "122333.457500", "122333.917500", "122334.377500", "122334.837500", "122335.297500", "122335.757500", "122336.217500", "122336.677500", "122337.137500", "122337.597500", "122338.057500", "122338.517500", "122338.977500", "122339.437500", "122339.897500", "122340.357500", "122340.817500", "122341.277500", "122341.737500", "122342.197500", "122342.657500", "122343.117500", "122343.577500", "122344.037500", "122344.497500", "122344.957500", "122345.417500", "122345.877500", "122346.337500", "122346.797500", "122347.257500", "122347.717500", "122348.177500", "122348.637500", "122349.097500", "122349.557500", "122350.017500", "122350.477500", "122350.937500", "122351.397500", "122351.857500", "122352.317500", "122352.777500", "122353.237500", "122353.697500", "122354.157500", "122354.617500", "122355.077500", "122355.537500", "122355.997500", "122356.457500", "122356.917500", "122357.377500", "122357.837500", "122358.297500", "122358.757500", "122359.217500", "122359.677500", "122400.137500", "122400.597500", "122401.057500", "122401.517500", "122401.977500", "122402.437500", "122402.897500", "122403.357500", "122403.817500", "122404.277500", "122404.737500", "122405.197500", "122405.657500", "122406.117500", "122406.577500", "122407.037500", "122407.497500", "122407.957500", "122408.417500", "122408.877500", "122409.337500", "122409.797500", "122410.257500", "122410.717500", "122411.177500", "122411.637500", "122412.097500", "122412.557500", "122413.017500", "122413.477500", "122413.937500", "122414.397500", "122414.857500", "122415.317500", "122415.777500", "122416.237500", "122416.697500", "122417.157500", "122417.617500", "122418.077500", "122418.537500", "122418.997500", "122419.457500", "122419.917500", "122420.377500", "122420.837500", "122421.297500", "122421.757500", "122422.217500", "122422.677500", "122423.137500", "122423.597500", "122424.057500", "122424.517500", "122424.977500", "122425.437500", "122425.897500", "122426.357500", "122426.817500", "122427.277500", "122427.737500", "122428.197500", "122428.657500", "122429.117500", "122429.577500", "122430.037500", "122430.497500", "122430.957500", "122431.417500", "122431.877500", "122432.337500", "122432.797500", "122433.257500", "122433.717500", "122434.177500"],
