{
  "AcquisitionMatrixPE": 82,
  "AcquisitionNumber": 1,
  "AcquisitionTime": "11:47:51.697500",
  "BandwidthPerPixelPhaseEncode": 24.888,
  "BaseResolution": 82,
  "BodyPartExamined": "BRAIN",
  "ConsistencyInfo": "N4_VE11E_LATEST_20181129",
  "ConversionSoftware": "dcm2niix",
  "ConversionSoftwareVersion": "v1.0.20201102",
  "DerivedVendorReportedEchoSpacing": 0.00049,
  "DeviceSerialNumber": "66112",
  "DwellTime": 2e-06,
  "EchoTime": 0.0272,
  "EchoTrainLength": 82,
  "EffectiveEchoSpacing": 0.00049,
  "FlipAngle": 44,
  "ImageComments": "Unaliased MB8/PE3",
  "ImageOrientationPatientDICOM": [0.999536, 0.0128812, -0.0275963, -0.0071527, 0.980093, 0.198409],
  "ImageType": [
    "ORIGINAL",
    "PRIMARY",
    "M",
    "MB",
    "ND",
    "NORM",
    "MOSAIC"
],
  "ImagingFrequency": 123.252,
  "InPlanePhaseEncodingDirectionDICOM": "COL",
  "InstitutionAddress": "Maynard 3,Hanover,NH,US,03755",
  "InstitutionName": "Dartmouth College - PBS",
  "InstitutionalDepartmentName": "Department",
  "MRAcquisitionType": "2D",
  "MagneticFieldStrength": 3,
  "Manufacturer": "Siemens",
  "ManufacturersModelName": "Prisma",
  "Modality": "MR",
  "MultibandAccelerationFactor": 8,
  "PartialFourier": 1,
  "PatientPosition": "HFS",
  "PercentPhaseFOV": 100,
  "PercentSampling": 100,
  "PhaseEncodingDirection": "j-",
  "PhaseEncodingSteps": 82,
  "PhaseResolution": 1,
  "PixelBandwidth": 3050,
  "ProcedureStepDescription": "Wager_Wager^1076_spacetop",
  "ProtocolName": "func_run-05_task-social_acq-ap-mb8",
  "PulseSequenceDetails": "%CustomerSeq%\\cmrr_mbep2d_bold",
  "ReceiveCoilActiveElements": "HEA;HEP",
  "ReceiveCoilName": "Head_32",
  "ReconMatrixPE": 82,
  "RepetitionTime": 0.46,
  "SAR": 0.110491,
  "ScanOptions": "FS",
  "ScanningSequence": "EP",
  "SequenceName": "epfid2d1_82",
  "SequenceVariant": "SK\\SS",
  "SeriesDescription": "func_run-05_task-social_acq-ap-mb8",
  "SeriesNumber": 20,
  "ShimSetting": [4144, -7769, -7245, 599, -45, -65, 110, 63],
  "SliceThickness": 2.7,
  "SliceTiming": [0, 0.2525, 0.0625, 0.315, 0.1275, 0.3775, 0.19, 0, 0.2525, 0.0625, 0.315, 0.1275, 0.3775, 0.19, 0, 0.2525, 0.0625, 0.315, 0.1275, 0.3775, 0.19, 0, 0.2525, 0.0625, 0.315, 0.1275, 0.3775, 0.19, 0, 0.2525, 0.0625, 0.315, 0.1275, 0.3775, 0.19, 0, 0.2525, 0.0625, 0.315, 0.1275, 0.3775, 0.19, 0, 0.2525, 0.0625, 0.315, 0.1275, 0.3775, 0.19, 0, 0.2525, 0.0625, 0.315, 0.1275, 0.3775, 0.19],
  "SoftwareVersions": "syngo MR E11",
  "SpacingBetweenSlices": 2.7,
  "StationName": "AWP66112",
  "TaskName": "social",
  "TotalReadoutTime": 0.03969,
  "TxRefAmp": 267.882,
  "WipMemBlock": "e73eb6c1-aaf7-4d6a-806a-ab0261eedf21||Sequence: R016 ve11e/master r/434b28f1; Aug  7 2019 18:53:46 by eja",
  "dcmmeta_affine": [
    [-2.6816823482513428, -0.01919017918407917, -0.07992730289697647, 114.74190521240234],
    [-0.034559208899736404, 2.629518508911133, 0.534922182559967, -102.1881332397461],
    [-0.07403892278671265, -0.5323161482810974, 2.645273208618164, -40.68381118774414],
    [0.0, 0.0, 0.0, 1.0]
],
  "dcmmeta_reorient_transform": [
    [0.0, -1.0, 0.0, 81.0],
    [1.0, 0.0, 0.0, 0.0],
    [0.0, 0.0, 1.0, 0.0],
    [0.0, 0.0, 0.0, 1.0]
],
  "dcmmeta_shape": [82, 82, 56, 872],
  "dcmmeta_slice_dim": 2,
  "dcmmeta_version": 0.6,
  "global": {
    "const": {
      "AccessionNumber": "A004211",
      "AcquisitionMatrix": [82, 0, 0, 82],
      "AngioFlag": "N",
      "BitsAllocated": 16,
      "BitsStored": 16,
      "BodyPartExamined": "BRAIN",
      "Columns": 656,
      "EchoNumbers": 1,
      "EchoTime": 27.2,
      "EchoTrainLength": 82,
      "FlipAngle": 44.0,
      "HighBit": 15,
      "ImageOrientationPatient": [0.99953615175136, 0.01288115904324, -0.0275963237369, -0.0071527031418, 0.9800932660294, 0.19840874154528],
      "ImagePositionPatient": [-877.32277517367, -875.39319777585, -215.32698569852],
      "ImageType": [
        "ORIGINAL",
        "PRIMARY",
        "M",
        "MB",
        "ND",
        "NORM",
        "MOSAIC"
],
      "ImagedNucleus": "1H",
      "ImagingFrequency": 123.25219,
      "InPlanePhaseEncodingDirection": "COL",
      "MRAcquisitionType": "2D",
      "MagneticFieldStrength": 3.0,
      "Manufacturer": "SIEMENS",
      "ManufacturerModelName": "Prisma",
      "Modality": "MR",
      "NumberOfAverages": 1.0,
      "NumberOfPhaseEncodingSteps": 82,
      "PercentPhaseFieldOfView": 100.0,
      "PercentSampling": 100.0,
      "PerformedProcedureStepStartTime": "104206.678000",
      "PhotometricInterpretation": "MONOCHROME2",
      "PixelBandwidth": 3050.0,
      "PixelRepresentation": 0,
      "PixelSpacing": [2.6829268932343, 2.6829268932343],
      "ProtocolName": "func_run-05_task-social_acq-ap-mb8",
      "RepetitionTime": 460.0,
      "Rows": 656,
      "SAR": 0.11049068522609,
      "SamplesPerPixel": 1,
      "ScanOptions": "FS",
      "ScanningSequence": "EP",
      "SequenceName": "epfid2d1_82",
      "SequenceVariant": [
        "SK",
        "SS"
],
      "SeriesDescription": "func_run-05_task-social_acq-ap-mb8",
      "SeriesNumber": 20,
      "SeriesTime": "114814.642000",
      "SliceLocation": -63.501298365054,
      "SliceThickness": 2.7000000476837,
      "SmallestImagePixelValue": 0,
      "SoftwareVersions": "syngo MR E11",
      "SpacingBetweenSlices": 2.6999999763392,
      "SpecificCharacterSet": "ISO_IR 100",
      "StudyID": "1",
      "StudyTime": "104206.627000",
      "TransmitCoilName": "Body",
      "VariableFlipAngleFlag": "N",
      "WindowCenterWidthExplanation": "Algo1"
    },
    "slices": {}
  },
  "time": {
    "samples": {
      "AcquisitionNumber": [1, 2, 3, 4, 5, 6, 7, 8, 9, 10, 11, 12, 13, 14, 15, 16, 17, 18, 19, 20, 21, 22, 23, 24, 25, 26, 27, 28, 29, 30, 31, 32, 33, 34, 35, 36, 37, 38, 39, 40, 41, 42, 43, 44, 45, 46, 47, 48, 49, 50, 51, 52, 53, 54, 55, 56, 57, 58, 59, 60, 61, 62, 63, 64, 65, 66, 67, 68, 69, 70, 71, 72, 73, 74, 75, 76, 77, 78, 79, 80, 81, 82, 83, 84, 85, 86, 87, 88, 89, 90, 91, 92, 93, 94, 95, 96, 97, 98, 99, 100, 101, 102, 103, 104, 105, 106, 107, 108, 109, 110, 111, 112, 113, 114, 115, 116, 117, 118, 119, 120, 121, 122, 123, 124, 125, 126, 127, 128, 129, 130, 131, 132, 133, 134, 135, 136, 137, 138, 139, 140, 141, 142, 143, 144, 145, 146, 147, 148, 149, 150, 151, 152, 153, 154, 155, 156, 157, 158, 159, 160, 161, 162, 163, 164, 165, 166, 167, 168, 169, 170, 171, 172, 173, 174, 175, 176, 177, 178, 179, 180, 181, 182, 183, 184, 185, 186, 187, 188, 189, 190, 191, 192, 193, 194, 195, 196, 197, 198, 199, 200, 201, 202, 203, 204, 205, 206, 207, 208, 209, 210, 211, 212, 213, 214, 215, 216, 217, 218, 219, 220, 221, 222, 223, 224, 225, 226, 227, 228, 229, 230, 231, 232, 233, 234, 235, 236, 237, 238, 239, 240, 241, 242, 243, 244, 245, 246, 247, 248, 249, 250, 251, 252, 253, 254, 255, 256, 257, 258, 259, 260, 261, 262, 263, 264, 265, 266, 267, 268, 269, 270, 271, 272, 273, 274, 275, 276, 277, 278, 279, 280, 281, 282, 283, 284, 285, 286, 287, 288, 289, 290, 291, 292, 293, 294, 295, 296, 297, 298, 299, 300, 301, 302, 303, 304, 305, 306, 307, 308, 309, 310, 311, 312, 313, 314, 315, 316, 317, 318, 319, 320, 321, 322, 323, 324, 325, 326, 327, 328, 329, 330, 331, 332, 333, 334, 335, 336, 337, 338, 339, 340, 341, 342, 343, 344, 345, 346, 347, 348, 349, 350, 351, 352, 353, 354, 355, 356, 357, 358, 359, 360, 361, 362, 363, 364, 365, 366, 367, 368, 369, 370, 371, 372, 373, 374, 375, 376, 377, 378, 379, 380, 381, 382, 383, 384, 385, 386, 387, 388, 389, 390, 391, 392, 393, 394, 395, 396, 397, 398, 399, 400, 401, 402, 403, 404, 405, 406, 407, 408, 409, 410, 411, 412, 413, 414, 415, 416, 417, 418, 419, 420, 421, 422, 423, 424, 425, 426, 427, 428, 429, 430, 431, 432, 433, 434, 435, 436, 437, 438, 439, 440, 441, 442, 443, 444, 445, 446, 447, 448, 449, 450, 451, 452, 453, 454, 455, 456, 457, 458, 459, 460, 461, 462, 463, 464, 465, 466, 467, 468, 469, 470, 471, 472, 473, 474, 475, 476, 477, 478, 479, 480, 481, 482, 483, 484, 485, 486, 487, 488, 489, 490, 491, 492, 493, 494, 495, 496, 497, 498, 499, 500, 501, 502, 503, 504, 505, 506, 507, 508, 509, 510, 511, 512, 513, 514, 515, 516, 517, 518, 519, 520, 521, 522, 523, 524, 525, 526, 527, 528, 529, 530, 531, 532, 533, 534, 535, 536, 537, 538, 539, 540, 541, 542, 543, 544, 545, 546, 547, 548, 549, 550, 551, 552, 553, 554, 555, 556, 557, 558, 559, 560, 561, 562, 563, 564, 565, 566, 567, 568, 569, 570, 571, 572, 573, 574, 575, 576, 577, 578, 579, 580, 581, 582, 583, 584, 585, 586, 587, 588, 589, 590, 591, 592, 593, 594, 595, 596, 597, 598, 599, 600, 601, 602, 603, 604, 605, 606, 607, 608, 609, 610, 611, 612, 613, 614, 615, 616, 617, 618, 619, 620, 621, 622, 623, 624, 625, 626, 627, 628, 629, 630, 631, 632, 633, 634, 635, 636, 637, 638, 639, 640, 641, 642, 643, 644, 645, 646, 647, 648, 649, 650, 651, 652, 653, 654, 655, 656, 657, 658, 659, 660, 661, 662, 663, 664, 665, 666, 667, 668, 669, 670, 671, 672, 673, 674, 675, 676, 677, 678, 679, 680, 681, 682, 683, 684, 685, 686, 687, 688, 689, 690, 691, 692, 693, 694, 695, 696, 697, 698, 699, 700, 701, 702, 703, 704, 705, 706, 707, 708, 709, 710, 711, 712, 713, 714, 715, 716, 717, 718, 719, 720, 721, 722, 723, 724, 725, 726, 727, 728, 729, 730, 731, 732, 733, 734, 735, 736, 737, 738, 739, 740, 741, 742, 743, 744, 745, 746, 747, 748, 749, 750, 751, 752, 753, 754, 755, 756, 757, 758, 759, 760, 761, 762, 763, 764, 765, 766, 767, 768, 769, 770, 771, 772, 773, 774, 775, 776, 777, 778, 779, 780, 781, 782, 783, 784, 785, 786, 787, 788, 789, 790, 791, 792, 793, 794, 795, 796, 797, 798, 799, 800, 801, 802, 803, 804, 805, 806, 807, 808, 809, 810, 811, 812, 813, 814, 815, 816, 817, 818, 819, 820, 821, 822, 823, 824, 825, 826, 827, 828, 829, 830, 831, 832, 833, 834, 835, 836, 837, 838, 839, 840, 841, 842, 843, 844, 845, 846, 847, 848, 849, 850, 851, 852, 853, 854, 855, 856, 857, 858, 859, 860, 861, 862, 863, 864, 865, 866, 867, 868, 869, 870, 871, 872],
      "AcquisitionTime": ["114751.697500", "114752.157500", "114752.617500", "114753.077500", "114753.537500", "114753.997500", "114754.457500", "114754.917500", "114755.377500", "114755.837500", "114756.297500", "114756.757500", "114757.217500", "114757.677500", "114758.137500", "114758.597500", "114759.057500", "114759.517500", "114759.977500", "114800.437500", "114800.897500", "114801.357500", "114801.817500", "114802.277500", "114802.737500", "114803.197500", "114803.657500", "114804.117500", "114804.577500", "114805.037500", "114805.497500", "114805.957500", "114806.417500", "114806.877500", "114807.337500", "114807.797500", "114808.257500", "114808.717500", "114809.177500", "114809.637500", "114810.097500", "114810.557500", "114811.017500", "114811.477500", "114811.937500", "114812.397500", "114812.857500", "114813.317500", "114813.777500", "114814.237500", "114814.697500", "114815.157500", "114815.617500", "114816.077500", "114816.537500", "114816.997500", "114817.457500", "114817.917500", "114818.377500", "114818.837500", "114819.297500", "114819.757500", "114820.217500", "114820.677500", "114821.137500", "114821.597500", "114822.057500", "114822.517500", "114822.977500", "114823.437500", "114823.897500", "114824.357500", "114824.817500", "114825.277500", "114825.737500", "114826.197500", "114826.657500", "114827.117500", "114827.577500", "114828.037500", "114828.497500", "114828.957500", "114829.417500", "114829.877500", "114830.337500", "114830.797500", "114831.257500", "114831.717500", "114832.177500", "114832.637500", "114833.097500", "114833.557500", "114834.017500", "114834.477500", "114834.937500", "114835.397500", "114835.857500", "114836.317500", "114836.777500", "114837.237500", "114837.697500", "114838.157500", "114838.617500", "114839.077500", "114839.537500", "114839.997500", "114840.457500", "114840.917500", "114841.377500", "114841.837500", "114842.297500", "114842.757500", "114843.217500", "114843.677500", "114844.137500", "114844.597500", "114845.057500", "114845.517500", "114845.977500", "114846.437500", "114846.897500", "114847.357500", "114847.817500", "114848.277500", "114848.737500", "114849.197500", "114849.657500", "114850.117500", "114850.577500", "114851.037500", "114851.497500", "114851.957500", "114852.417500", "114852.877500", "114853.337500", "114853.797500", "114854.257500", "114854.717500", "114855.177500", "114855.637500", "114856.097500", "114856.557500", "114857.017500", "114857.477500", "114857.937500", "114858.397500", "114858.857500", "114859.317500", "114859.777500", "114900.237500", "114900.697500", "114901.157500", "114901.617500", "114902.077500", "114902.537500", "114902.997500", "114903.457500", "114903.917500", "114904.377500", "114904.837500", "114905.297500", "114905.757500", "114906.217500", "114906.677500", "114907.137500", "114907.597500", "114908.057500", "114908.517500", "114908.977500", "114909.437500", "114909.897500", "114910.357500", "114910.817500", "114911.277500", "114911.737500", "114912.197500", "114912.657500", "114913.117500", "114913.577500", "114914.037500", "114914.497500", "114914.957500", "114915.417500", "114915.877500", "114916.337500", "114916.797500", "114917.257500", "114917.717500", "114918.177500", "114918.637500", "114919.097500", "114919.557500", "114920.017500", "114920.477500", "114920.937500", "114921.397500", "114921.857500", "114922.317500", "114922.777500", "114923.237500", "114923.697500", "114924.157500", "114924.617500", "114925.077500", "114925.537500", "114925.997500", "114926.457500", "114926.917500", "114927.377500", "114927.837500", "114928.297500", "114928.757500", "114929.217500", "114929.677500", "114930.137500", "114930.597500", "114931.057500", "114931.517500", "114931.977500", "114932.437500", "114932.897500", "114933.357500", "114933.817500", "114934.277500", "114934.737500", "114935.197500", "114935.657500", "114936.117500", "114936.577500", "114937.037500", "114937.497500", "114937.957500", "114938.417500", "114938.877500", "114939.337500", "114939.797500", "114940.257500", "114940.717500", "114941.177500", "114941.637500", "114942.097500", "114942.557500", "114943.017500", "114943.477500", "114943.937500", "114944.397500", "114944.857500", "114945.317500", "114945.777500", "114946.237500", "114946.697500", "114947.157500", "114947.617500", "114948.077500", "114948.537500", "114948.997500", "114949.457500", "114949.917500", "114950.377500", "114950.837500", "114951.297500", "114951.757500", "114952.217500", "114952.677500", "114953.137500", "114953.597500", "114954.057500", "114954.517500", "114954.977500", "114955.437500", "114955.897500", "114956.357500", "114956.817500", "114957.277500", "114957.737500", "114958.197500", "114958.657500", "114959.117500", "114959.577500", "115000.037500", "115000.497500", "115000.957500", "115001.417500", "115001.877500", "115002.337500", "115002.797500", "115003.257500", "115003.717500", "115004.177500", "115004.637500", "115005.097500", "115005.557500", "115006.017500", "115006.477500", "115006.937500", "115007.397500", "115007.857500", "115008.317500", "115008.777500", "115009.237500", "115009.697500", "115010.157500", "115010.617500", "115011.077500", "115011.537500", "115011.997500", "115012.457500", "115012.917500", "115013.377500", "115013.837500", "115014.297500", "115014.757500", "115015.217500", "115015.677500", "115016.137500", "115016.597500", "115017.057500", "115017.517500", "115017.977500", "115018.437500", "115018.897500", "115019.357500", "115019.817500", "115020.277500", "115020.737500", "115021.197500", "115021.657500", "115022.117500", "115022.577500", "115023.037500", "115023.497500", "115023.957500", "115024.417500", "115024.877500", "115025.337500", "115025.797500", "115026.257500", "115026.717500", "115027.177500", "115027.637500", "115028.097500", "115028.557500", "115029.017500", "115029.477500", "115029.937500", "115030.397500", "115030.857500", "115031.317500", "115031.777500", "115032.237500", "115032.697500", "115033.157500", "115033.617500", "115034.077500", "115034.537500", "115034.997500", "115035.457500", "115035.917500", "115036.377500", "115036.837500", "115037.297500", "115037.757500", "115038.217500", "115038.677500", "115039.137500", "115039.597500", "115040.057500", "115040.517500", "115040.977500", "115041.437500", "115041.897500", "115042.357500", "115042.817500", "115043.277500", "115043.737500", "115044.197500", "115044.657500", "115045.117500", "115045.577500", "115046.037500", "115046.497500", "115046.957500", "115047.417500", "115047.877500", "115048.337500", "115048.797500", "115049.257500", "115049.717500", "115050.177500", "115050.637500", "115051.097500", "115051.557500", "115052.017500", "115052.477500", "115052.937500", "115053.397500", "115053.857500", "115054.317500", "115054.777500", "115055.237500", "115055.697500", "115056.157500", "115056.617500", "115057.077500", "115057.537500", "115057.997500", "115058.457500", "115058.917500", "115059.377500", "115059.837500", "115100.297500", "115100.757500", "115101.217500", "115101.677500", "115102.137500", "115102.597500", "115103.057500", "115103.517500", "115103.977500", "115104.437500", "115104.897500", "115105.357500", "115105.817500", "115106.277500", "115106.737500", "115107.197500", "115107.657500", "115108.117500", "115108.577500", "115109.037500", "115109.497500", "115109.957500", "115110.417500", "115110.877500", "115111.337500", "115111.797500", "115112.257500", "115112.717500", "115113.177500", "115113.637500", "115114.097500", "115114.557500", "115115.017500", "115115.477500", "115115.937500", "115116.397500", "115116.857500", "115117.317500", "115117.777500", "115118.237500", "115118.697500", "115119.157500", "115119.617500", "115120.077500", "115120.537500", "115120.997500", "115121.457500", "115121.917500", "115122.377500", "115122.837500", "115123.297500", "115123.757500", "115124.217500", "115124.677500", "115125.137500", "115125.597500", "115126.057500", "115126.517500", "115126.977500", "115127.437500", "115127.897500", "115128.357500", "115128.817500", "115129.277500", "115129.737500", "115130.197500", "115130.657500", "115131.117500", "115131.577500", "115132.037500", "115132.497500", "115132.957500", "115133.417500", "115133.877500", "115134.337500", "115134.797500", "115135.257500", "115135.717500", "115136.177500", "115136.637500", "115137.097500", "115137.557500", "115138.017500", "115138.477500", "115138.937500", "115139.397500", "115139.857500", "115140.317500", "115140.777500", "115141.237500", "115141.697500", "115142.157500", "115142.617500", "115143.077500", "115143.537500", "115143.997500", "115144.457500", "115144.917500", "115145.377500", "115145.837500", "115146.297500", "115146.757500", "115147.217500", "115147.677500", "115148.137500", "115148.597500", "115149.057500", "115149.517500", "115149.977500", "115150.437500", "115150.897500", "115151.357500", "115151.817500", "115152.277500", "115152.737500", "115153.197500", "115153.657500", "115154.117500", "115154.577500", "115155.037500", "115155.497500", "115155.957500", "115156.417500", "115156.877500", "115157.337500", "115157.797500", "115158.257500", "115158.717500", "115159.177500", "115159.637500", "115200.097500", "115200.557500", "115201.017500", "115201.477500", "115201.937500", "115202.397500", "115202.857500", "115203.317500", "115203.777500", "115204.237500", "115204.697500", "115205.157500", "115205.617500", "115206.077500", "115206.537500", "115206.997500", "115207.457500", "115207.917500", "115208.377500", "115208.837500", "115209.297500", "115209.757500", "115210.217500", "115210.677500", "115211.137500", "115211.597500", "115212.057500", "115212.517500", "115212.977500", "115213.437500", "115213.897500", "115214.357500", "115214.817500", "115215.277500", "115215.737500", "115216.197500", "115216.657500", "115217.117500", "115217.577500", "115218.037500", "115218.497500", "115218.957500", "115219.417500", "115219.877500", "115220.337500", "115220.797500", "115221.257500", "115221.717500", "115222.177500", "115222.637500", "115223.097500", "115223.557500", "115224.017500", "115224.477500", "115224.937500", "115225.397500", "115225.857500", "115226.317500", "115226.777500", "115227.237500", "115227.697500", "115228.157500", "115228.617500", "115229.077500", "115229.537500", "115229.997500", "115230.457500", "115230.917500", "115231.377500", "115231.837500", "115232.297500", "115232.757500", "115233.217500", "115233.677500", "115234.137500", "115234.597500", "115235.057500", "115235.517500", "115235.977500", "115236.437500", "115236.897500", "115237.357500", "115237.817500", "115238.277500", "115238.737500", "115239.197500", "115239.657500", "115240.117500", "115240.577500", "115241.037500", "115241.497500", "115241.957500", "115242.417500", "115242.877500", "115243.337500", "115243.797500", "115244.257500", "115244.717500", "115245.177500", "115245.637500", "115246.097500", "115246.557500", "115247.017500", "115247.477500", "115247.937500", "115248.397500", "115248.857500", "115249.317500", "115249.777500", "115250.237500", "115250.697500", "115251.157500", "115251.617500", "115252.077500", "115252.537500", "115252.997500", "115253.457500", "115253.917500", "115254.377500", "115254.837500", "115255.297500", "115255.757500", "115256.217500", "115256.677500", "115257.137500", "115257.597500", "115258.057500", "115258.517500", "115258.977500", "115259.437500", "115259.897500", "115300.357500", "115300.817500", "115301.277500", "115301.737500", "115302.197500", "115302.657500", "115303.117500", "115303.577500", "115304.037500", "115304.497500", "115304.957500", "115305.417500", "115305.877500", "115306.337500", "115306.797500", "115307.257500", "115307.717500", "115308.177500", "115308.637500", "115309.097500", "115309.557500", "115310.017500", "115310.477500", "115310.937500", "115311.397500", "115311.857500", "115312.317500", "115312.777500", "115313.237500", "115313.697500", "115314.157500", "115314.617500", "115315.077500", "115315.537500", "115315.997500", "115316.457500", "115316.917500", "115317.377500", "115317.837500", "115318.297500", "115318.757500", "115319.217500", "115319.677500", "115320.137500", "115320.597500", "115321.057500", "115321.517500", "115321.977500", "115322.437500", "115322.897500", "115323.357500", "115323.817500", "115324.277500", "115324.737500", "115325.197500", "115325.657500", "115326.117500", "115326.577500", "115327.037500", "115327.497500", "115327.957500", "115328.417500", "115328.877500", "115329.337500", "115329.797500", "115330.257500", "115330.717500", "115331.177500", "115331.637500", "115332.097500", "115332.557500", "115333.017500", "115333.477500", "115333.937500", "115334.397500", "115334.857500", "115335.317500", "115335.777500", "115336.237500", "115336.697500", "115337.157500", "115337.617500", "115338.077500", "115338.537500", "115338.997500", "115339.457500", "115339.917500", "115340.377500", "115340.837500", "115341.297500", "115341.757500", "115342.217500", "115342.677500", "115343.137500", "115343.597500", "115344.057500", "115344.517500", "115344.977500", "115345.437500", "115345.897500", "115346.357500", "115346.817500", "115347.277500", "115347.737500", "115348.197500", "115348.657500", "115349.117500", "115349.577500", "115350.037500", "115350.497500", "115350.957500", "115351.417500", "115351.877500", "115352.337500", "115352.797500", "115353.257500", "115353.717500", "115354.177500", "115354.637500", "115355.097500", "115355.557500", "115356.017500", "115356.477500", "115356.937500", "115357.397500", "115357.857500", "115358.317500", "115358.777500", "115359.237500", "115359.697500", "115400.157500", "115400.617500", "115401.077500", "115401.537500", "115401.997500", "115402.457500", "115402.917500", "115403.377500", "115403.837500", "115404.297500", "115404.757500", "115405.217500", "115405.677500", "115406.137500", "115406.597500", "115407.057500", "115407.517500", "115407.977500", "115408.437500", "115408.897500", "115409.357500", "115409.817500", "115410.277500", "115410.737500", "115411.197500", "115411.657500", "115412.117500", "115412.577500", "115413.037500", "115413.497500", "115413.957500", "115414.417500", "115414.877500", "115415.337500", "115415.797500", "115416.257500", "115416.717500", "115417.177500", "115417.637500", "115418.097500", "115418.557500", "115419.017500", "115419.477500", "115419.937500", "115420.397500", "115420.857500", "115421.317500", "115421.777500", "115422.237500", "115422.697500", "115423.157500", "115423.617500", "115424.077500", "115424.537500", "115424.997500", "115425.457500", "115425.917500", "115426.377500", "115426.837500", "115427.297500", "115427.757500", "115428.217500", "115428.677500", "115429.137500", "115429.597500", "115430.057500", "115430.517500", "115430.977500", "115431.437500", "115431.897500", "115432.357500"],
