{
  "AcquisitionMatrixPE": 82,
  "AcquisitionNumber": 1,
  "AcquisitionTime": "11:17:3.830000",
  "BandwidthPerPixelPhaseEncode": 24.888,
  "BaseResolution": 82,
  "BodyPartExamined": "BRAIN",
  "ConsistencyInfo": "N4_VE11E_LATEST_20181129",
  "ConversionSoftware": "dcm2niix",
  "ConversionSoftwareVersion": "v1.0.20201102",
  "DerivedVendorReportedEchoSpacing": 0.00049,
  "DeviceSerialNumber": "66112",
  "DwellTime": 2e-06,
  "EchoTime": 0.0272,
  "EchoTrainLength": 82,
  "EffectiveEchoSpacing": 0.00049,
  "FlipAngle": 44,
  "ImageComments": "Unaliased MB8/PE3",
  "ImageOrientationPatientDICOM": [0.999536, 0.0128812, -0.0275963, -0.0071527, 0.980093, 0.198409],
  "ImageType": [
    "ORIGINAL",
    "PRIMARY",
    "M",
    "MB",
    "ND",
    "NORM",
    "MOSAIC"
],
  "ImagingFrequency": 123.252,
  "InPlanePhaseEncodingDirectionDICOM": "COL",
  "InstitutionAddress": "Maynard 3,Hanover,NH,US,03755",
  "InstitutionName": "Dartmouth College - PBS",
  "InstitutionalDepartmentName": "Department",
  "MRAcquisitionType": "2D",
  "MagneticFieldStrength": 3,
  "Manufacturer": "Siemens",
  "ManufacturersModelName": "Prisma",
  "Modality": "MR",
  "MultibandAccelerationFactor": 8,
  "PartialFourier": 1,
  "PatientPosition": "HFS",
  "PercentPhaseFOV": 100,
  "PercentSampling": 100,
  "PhaseEncodingDirection": "j-",
  "PhaseEncodingSteps": 82,
  "PhaseResolution": 1,
  "PixelBandwidth": 3050,
  "ProcedureStepDescription": "Wager_Wager^1076_spacetop",
  "ProtocolName": "func_run-01_task-social_acq-ap-mb8",
  "PulseSequenceDetails": "%CustomerSeq%\\cmrr_mbep2d_bold",
  "ReceiveCoilActiveElements": "HEA;HEP",
  "ReceiveCoilName": "Head_32",
  "ReconMatrixPE": 82,
  "RepetitionTime": 0.46,
  "SAR": 0.110491,
  "ScanOptions": "FS",
  "ScanningSequence": "EP",
  "SequenceName": "epfid2d1_82",
  "SequenceVariant": "SK\\SS",
  "SeriesDescription": "func_run-01_task-social_acq-ap-mb8",
  "SeriesNumber": 12,
  "ShimSetting": [4144, -7769, -7245, 599, -45, -65, 110, 63],
  "SliceThickness": 2.7,
  "SliceTiming": [0, 0.25, 0.0625, 0.3125, 0.125, 0.375, 0.1875, 0, 0.25, 0.0625, 0.3125, 0.125, 0.375, 0.1875, 0, 0.25, 0.0625, 0.3125, 0.125, 0.375, 0.1875, 0, 0.25, 0.0625, 0.3125, 0.125, 0.375, 0.1875, 0, 0.25, 0.0625, 0.3125, 0.125, 0.375, 0.1875, 0, 0.25, 0.0625, 0.3125, 0.125, 0.375, 0.1875, 0, 0.25, 0.0625, 0.3125, 0.125, 0.375, 0.1875, 0, 0.25, 0.0625, 0.3125, 0.125, 0.375, 0.1875],
  "SoftwareVersions": "syngo MR E11",
  "SpacingBetweenSlices": 2.7,
  "StationName": "AWP66112",
  "TaskName": "social",
  "TotalReadoutTime": 0.03969,
  "TxRefAmp": 267.882,
  "WipMemBlock": "24aec329-52d7-46e7-aeb0-4366826ef945||Sequence: R016 ve11e/master r/434b28f1; Aug  7 2019 18:53:46 by eja",
  "dcmmeta_affine": [
    [-2.6816823482513428, -0.01919017918407917, -0.07992730289697647, 114.74190521240234],
    [-0.034559208899736404, 2.629518508911133, 0.534922182559967, -102.1881332397461],
    [-0.07403892278671265, -0.5323161482810974, 2.645273208618164, -40.68381118774414],
    [0.0, 0.0, 0.0, 1.0]
],
  "dcmmeta_reorient_transform": [
    [0.0, -1.0, 0.0, 81.0],
    [1.0, 0.0, 0.0, 0.0],
    [0.0, 0.0, 1.0, 0.0],
    [0.0, 0.0, 0.0, 1.0]
],
  "dcmmeta_shape": [82, 82, 56, 872],
  "dcmmeta_slice_dim": 2,
  "dcmmeta_version": 0.6,
  "global": {
    "const": {
      "AccessionNumber": "A004211",
      "AcquisitionMatrix": [82, 0, 0, 82],
      "AngioFlag": "N",
      "BitsAllocated": 16,
      "BitsStored": 16,
      "BodyPartExamined": "BRAIN",
      "Columns": 656,
      "EchoNumbers": 1,
      "EchoTime": 27.2,
      "EchoTrainLength": 82,
      "FlipAngle": 44.0,
      "HighBit": 15,
      "ImageOrientationPatient": [0.99953615175136, 0.01288115904324, -0.0275963237369, -0.0071527031418, 0.9800932660294, 0.19840874154528],
      "ImagePositionPatient": [-877.32277517367, -875.39319777585, -215.32698569852],
      "ImageType": [
        "ORIGINAL",
        "PRIMARY",
        "M",
        "MB",
        "ND",
        "NORM",
        "MOSAIC"
],
      "ImagedNucleus": "1H",
      "ImagingFrequency": 123.252184,
      "InPlanePhaseEncodingDirection": "COL",
      "MRAcquisitionType": "2D",
      "MagneticFieldStrength": 3.0,
      "Manufacturer": "SIEMENS",
      "ManufacturerModelName": "Prisma",
      "Modality": "MR",
      "NumberOfAverages": 1.0,
      "NumberOfPhaseEncodingSteps": 82,
      "PercentPhaseFieldOfView": 100.0,
      "PercentSampling": 100.0,
      "PerformedProcedureStepStartTime": "104206.678000",
      "PhotometricInterpretation": "MONOCHROME2",
      "PixelBandwidth": 3050.0,
      "PixelRepresentation": 0,
      "PixelSpacing": [2.6829268932343, 2.6829268932343],
      "ProtocolName": "func_run-01_task-social_acq-ap-mb8",
      "RepetitionTime": 460.0,
      "Rows": 656,
      "SAR": 0.11049068522609,
      "SamplesPerPixel": 1,
      "ScanOptions": "FS",
      "ScanningSequence": "EP",
      "SequenceName": "epfid2d1_82",
      "SequenceVariant": [
        "SK",
        "SS"
],
      "SeriesDescription": "func_run-01_task-social_acq-ap-mb8",
      "SeriesNumber": 12,
      "SeriesTime": "111714.575000",
      "SliceLocation": -63.501298365054,
      "SliceThickness": 2.7000000476837,
      "SmallestImagePixelValue": 0,
      "SoftwareVersions": "syngo MR E11",
      "SpacingBetweenSlices": 2.6999999763392,
      "SpecificCharacterSet": "ISO_IR 100",
      "StudyID": "1",
      "StudyTime": "104206.627000",
      "TransmitCoilName": "Body",
      "VariableFlipAngleFlag": "N",
      "WindowCenterWidthExplanation": "Algo1"
    },
    "slices": {}
  },
  "time": {
    "samples": {
      "AcquisitionNumber": [1, 2, 3, 4, 5, 6, 7, 8, 9, 10, 11, 12, 13, 14, 15, 16, 17, 18, 19, 20, 21, 22, 23, 24, 25, 26, 27, 28, 29, 30, 31, 32, 33, 34, 35, 36, 37, 38, 39, 40, 41, 42, 43, 44, 45, 46, 47, 48, 49, 50, 51, 52, 53, 54, 55, 56, 57, 58, 59, 60, 61, 62, 63, 64, 65, 66, 67, 68, 69, 70, 71, 72, 73, 74, 75, 76, 77, 78, 79, 80, 81, 82, 83, 84, 85, 86, 87, 88, 89, 90, 91, 92, 93, 94, 95, 96, 97, 98, 99, 100, 101, 102, 103, 104, 105, 106, 107, 108, 109, 110, 111, 112, 113, 114, 115, 116, 117, 118, 119, 120, 121, 122, 123, 124, 125, 126, 127, 128, 129, 130, 131, 132, 133, 134, 135, 136, 137, 138, 139, 140, 141, 142, 143, 144, 145, 146, 147, 148, 149, 150, 151, 152, 153, 154, 155, 156, 157, 158, 159, 160, 161, 162, 163, 164, 165, 166, 167, 168, 169, 170, 171, 172, 173, 174, 175, 176, 177, 178, 179, 180, 181, 182, 183, 184, 185, 186, 187, 188, 189, 190, 191, 192, 193, 194, 195, 196, 197, 198, 199, 200, 201, 202, 203, 204, 205, 206, 207, 208, 209, 210, 211, 212, 213, 214, 215, 216, 217, 218, 219, 220, 221, 222, 223, 224, 225, 226, 227, 228, 229, 230, 231, 232, 233, 234, 235, 236, 237, 238, 239, 240, 241, 242, 243, 244, 245, 246, 247, 248, 249, 250, 251, 252, 253, 254, 255, 256, 257, 258, 259, 260, 261, 262, 263, 264, 265, 266, 267, 268, 269, 270, 271, 272, 273, 274, 275, 276, 277, 278, 279, 280, 281, 282, 283, 284, 285, 286, 287, 288, 289, 290, 291, 292, 293, 294, 295, 296, 297, 298, 299, 300, 301, 302, 303, 304, 305, 306, 307, 308, 309, 310, 311, 312, 313, 314, 315, 316, 317, 318, 319, 320, 321, 322, 323, 324, 325, 326, 327, 328, 329, 330, 331, 332, 333, 334, 335, 336, 337, 338, 339, 340, 341, 342, 343, 344, 345, 346, 347, 348, 349, 350, 351, 352, 353, 354, 355, 356, 357, 358, 359, 360, 361, 362, 363, 364, 365, 366, 367, 368, 369, 370, 371, 372, 373, 374, 375, 376, 377, 378, 379, 380, 381, 382, 383, 384, 385, 386, 387, 388, 389, 390, 391, 392, 393, 394, 395, 396, 397, 398, 399, 400, 401, 402, 403, 404, 405, 406, 407, 408, 409, 410, 411, 412, 413, 414, 415, 416, 417, 418, 419, 420, 421, 422, 423, 424, 425, 426, 427, 428, 429, 430, 431, 432, 433, 434, 435, 436, 437, 438, 439, 440, 441, 442, 443, 444, 445, 446, 447, 448, 449, 450, 451, 452, 453, 454, 455, 456, 457, 458, 459, 460, 461, 462, 463, 464, 465, 466, 467, 468, 469, 470, 471, 472, 473, 474, 475, 476, 477, 478, 479, 480, 481, 482, 483, 484, 485, 486, 487, 488, 489, 490, 491, 492, 493, 494, 495, 496, 497, 498, 499, 500, 501, 502, 503, 504, 505, 506, 507, 508, 509, 510, 511, 512, 513, 514, 515, 516, 517, 518, 519, 520, 521, 522, 523, 524, 525, 526, 527, 528, 529, 530, 531, 532, 533, 534, 535, 536, 537, 538, 539, 540, 541, 542, 543, 544, 545, 546, 547, 548, 549, 550, 551, 552, 553, 554, 555, 556, 557, 558, 559, 560, 561, 562, 563, 564, 565, 566, 567, 568, 569, 570, 571, 572, 573, 574, 575, 576, 577, 578, 579, 580, 581, 582, 583, 584, 585, 586, 587, 588, 589, 590, 591, 592, 593, 594, 595, 596, 597, 598, 599, 600, 601, 602, 603, 604, 605, 606, 607, 608, 609, 610, 611, 612, 613, 614, 615, 616, 617, 618, 619, 620, 621, 622, 623, 624, 625, 626, 627, 628, 629, 630, 631, 632, 633, 634, 635, 636, 637, 638, 639, 640, 641, 642, 643, 644, 645, 646, 647, 648, 649, 650, 651, 652, 653, 654, 655, 656, 657, 658, 659, 660, 661, 662, 663, 664, 665, 666, 667, 668, 669, 670, 671, 672, 673, 674, 675, 676, 677, 678, 679, 680, 681, 682, 683, 684, 685, 686, 687, 688, 689, 690, 691, 692, 693, 694, 695, 696, 697, 698, 699, 700, 701, 702, 703, 704, 705, 706, 707, 708, 709, 710, 711, 712, 713, 714, 715, 716, 717, 718, 719, 720, 721, 722, 723, 724, 725, 726, 727, 728, 729, 730, 731, 732, 733, 734, 735, 736, 737, 738, 739, 740, 741, 742, 743, 744, 745, 746, 747, 748, 749, 750, 751, 752, 753, 754, 755, 756, 757, 758, 759, 760, 761, 762, 763, 764, 765, 766, 767, 768, 769, 770, 771, 772, 773, 774, 775, 776, 777, 778, 779, 780, 781, 782, 783, 784, 785, 786, 787, 788, 789, 790, 791, 792, 793, 794, 795, 796, 797, 798, 799, 800, 801, 802, 803, 804, 805, 806, 807, 808, 809, 810, 811, 812, 813, 814, 815, 816, 817, 818, 819, 820, 821, 822, 823, 824, 825, 826, 827, 828, 829, 830, 831, 832, 833, 834, 835, 836, 837, 838, 839, 840, 841, 842, 843, 844, 845, 846, 847, 848, 849, 850, 851, 852, 853, 854, 855, 856, 857, 858, 859, 860, 861, 862, 863, 864, 865, 866, 867, 868, 869, 870, 871, 872],
      "AcquisitionTime": ["111703.830000", "111704.290000", "111704.750000", "111705.210000", "111705.670000", "111706.130000", "111706.590000", "111707.050000", "111707.510000", "111707.970000", "111708.430000", "111708.890000", "111709.350000", "111709.810000", "111710.270000", "111710.730000", "111711.190000", "111711.650000", "111712.110000", "111712.570000", "111713.030000", "111713.490000", "111713.950000", "111714.410000", "111714.870000", "111715.330000", "111715.790000", "111716.250000", "111716.710000", "111717.170000", "111717.630000", "111718.090000", "111718.550000", "111719.010000", "111719.470000", "111719.930000", "111720.390000", "111720.850000", "111721.310000", "111721.770000", "111722.230000", "111722.690000", "111723.150000", "111723.610000", "111724.070000", "111724.530000", "111724.990000", "111725.450000", "111725.910000", "111726.370000", "111726.830000", "111727.290000", "111727.750000", "111728.210000", "111728.670000", "111729.130000", "111729.590000", "111730.050000", "111730.510000", "111730.970000", "111731.430000", "111731.890000", "111732.350000", "111732.810000", "111733.270000", "111733.730000", "111734.190000", "111734.650000", "111735.110000", "111735.570000", "111736.030000", "111736.490000", "111736.950000", "111737.410000", "111737.870000", "111738.330000", "111738.790000", "111739.250000", "111739.710000", "111740.170000", "111740.630000", "111741.090000", "111741.550000", "111742.010000", "111742.470000", "111742.930000", "111743.390000", "111743.850000", "111744.310000", "111744.770000", "111745.230000", "111745.690000", "111746.150000", "111746.610000", "111747.070000", "111747.530000", "111747.990000", "111748.450000", "111748.910000", "111749.370000", "111749.830000", "111750.290000", "111750.750000", "111751.210000", "111751.670000", "111752.130000", "111752.590000", "111753.050000", "111753.510000", "111753.970000", "111754.430000", "111754.890000", "111755.350000", "111755.810000", "111756.270000", "111756.730000", "111757.190000", "111757.650000", "111758.110000", "111758.570000", "111759.030000", "111759.490000", "111759.950000", "111800.410000", "111800.870000", "111801.330000", "111801.790000", "111802.250000", "111802.710000", "111803.170000", "111803.630000", "111804.090000", "111804.550000", "111805.010000", "111805.470000", "111805.930000", "111806.390000", "111806.850000", "111807.310000", "111807.770000", "111808.230000", "111808.690000", "111809.150000", "111809.610000", "111810.070000", "111810.530000", "111810.990000", "111811.450000", "111811.910000", "111812.370000", "111812.830000", "111813.290000", "111813.750000", "111814.210000", "111814.670000", "111815.130000", "111815.590000", "111816.050000", "111816.510000", "111816.970000", "111817.430000", "111817.890000", "111818.350000", "111818.810000", "111819.270000", "111819.730000", "111820.190000", "111820.650000", "111821.110000", "111821.570000", "111822.030000", "111822.490000", "111822.950000", "111823.410000", "111823.870000", "111824.330000", "111824.790000", "111825.250000", "111825.710000", "111826.170000", "111826.630000", "111827.090000", "111827.550000", "111828.010000", "111828.470000", "111828.930000", "111829.390000", "111829.850000", "111830.310000", "111830.770000", "111831.230000", "111831.690000", "111832.150000", "111832.610000", "111833.070000", "111833.530000", "111833.990000", "111834.450000", "111834.910000", "111835.370000", "111835.830000", "111836.290000", "111836.750000", "111837.210000", "111837.670000", "111838.130000", "111838.590000", "111839.050000", "111839.510000", "111839.970000", "111840.430000", "111840.890000", "111841.350000", "111841.810000", "111842.270000", "111842.730000", "111843.190000", "111843.650000", "111844.110000", "111844.570000", "111845.030000", "111845.490000", "111845.950000", "111846.410000", "111846.870000", "111847.330000", "111847.790000", "111848.250000", "111848.710000", "111849.170000", "111849.630000", "111850.090000", "111850.550000", "111851.010000", "111851.470000", "111851.930000", "111852.390000", "111852.850000", "111853.310000", "111853.770000", "111854.230000", "111854.690000", "111855.150000", "111855.610000", "111856.070000", "111856.530000", "111856.990000", "111857.450000", "111857.910000", "111858.370000", "111858.830000", "111859.290000", "111859.750000", "111900.210000", "111900.670000", "111901.130000", "111901.590000", "111902.050000", "111902.510000", "111902.970000", "111903.430000", "111903.890000", "111904.350000", "111904.810000", "111905.270000", "111905.730000", "111906.190000", "111906.650000", "111907.110000", "111907.570000", "111908.030000", "111908.490000", "111908.950000", "111909.410000", "111909.870000", "111910.330000", "111910.790000", "111911.250000", "111911.710000", "111912.170000", "111912.630000", "111913.090000", "111913.550000", "111914.010000", "111914.470000", "111914.930000", "111915.390000", "111915.850000", "111916.310000", "111916.770000", "111917.230000", "111917.690000", "111918.150000", "111918.610000", "111919.070000", "111919.530000", "111919.990000", "111920.450000", "111920.910000", "111921.370000", "111921.830000", "111922.290000", "111922.750000", "111923.210000", "111923.670000", "111924.130000", "111924.590000", "111925.050000", "111925.510000", "111925.970000", "111926.430000", "111926.890000", "111927.350000", "111927.810000", "111928.270000", "111928.730000", "111929.190000", "111929.650000", "111930.110000", "111930.570000", "111931.030000", "111931.490000", "111931.950000", "111932.410000", "111932.870000", "111933.330000", "111933.790000", "111934.250000", "111934.710000", "111935.170000", "111935.630000", "111936.090000", "111936.550000", "111937.010000", "111937.470000", "111937.930000", "111938.390000", "111938.850000", "111939.310000", "111939.770000", "111940.230000", "111940.690000", "111941.150000", "111941.610000", "111942.070000", "111942.530000", "111942.990000", "111943.450000", "111943.910000", "111944.370000", "111944.830000", "111945.290000", "111945.750000", "111946.210000", "111946.670000", "111947.130000", "111947.590000", "111948.050000", "111948.510000", "111948.970000", "111949.430000", "111949.890000", "111950.350000", "111950.810000", "111951.270000", "111951.730000", "111952.190000", "111952.650000", "111953.110000", "111953.570000", "111954.030000", "111954.490000", "111954.950000", "111955.410000", "111955.870000", "111956.330000", "111956.790000", "111957.250000", "111957.710000", "111958.170000", "111958.630000", "111959.090000", "111959.550000", "112000.010000", "112000.470000", "112000.930000", "112001.390000", "112001.850000", "112002.310000", "112002.770000", "112003.230000", "112003.690000", "112004.150000", "112004.610000", "112005.070000", "112005.530000", "112005.990000", "112006.450000", "112006.910000", "112007.370000", "112007.830000", "112008.290000", "112008.750000", "112009.210000", "112009.670000", "112010.130000", "112010.590000", "112011.050000", "112011.510000", "112011.970000", "112012.430000", "112012.890000", "112013.350000", "112013.810000", "112014.270000", "112014.730000", "112015.190000", "112015.650000", "112016.110000", "112016.570000", "112017.030000", "112017.490000", "112017.950000", "112018.410000", "112018.870000", "112019.330000", "112019.790000", "112020.250000", "112020.710000", "112021.170000", "112021.630000", "112022.090000", "112022.550000", "112023.010000", "112023.470000", "112023.930000", "112024.390000", "112024.850000", "112025.310000", "112025.770000", "112026.230000", "112026.690000", "112027.150000", "112027.610000", "112028.070000", "112028.530000", "112028.990000", "112029.450000", "112029.910000", "112030.370000", "112030.830000", "112031.290000", "112031.750000", "112032.210000", "112032.670000", "112033.130000", "112033.590000", "112034.050000", "112034.510000", "112034.970000", "112035.430000", "112035.890000", "112036.350000", "112036.810000", "112037.270000", "112037.730000", "112038.190000", "112038.650000", "112039.110000", "112039.570000", "112040.030000", "112040.490000", "112040.950000", "112041.410000", "112041.870000", "112042.330000", "112042.790000", "112043.250000", "112043.710000", "112044.170000", "112044.630000", "112045.090000", "112045.550000", "112046.010000", "112046.470000", "112046.930000", "112047.390000", "112047.850000", "112048.310000", "112048.770000", "112049.230000", "112049.690000", "112050.150000", "112050.610000", "112051.070000", "112051.530000", "112051.990000", "112052.450000", "112052.910000", "112053.370000", "112053.830000", "112054.290000", "112054.750000", "112055.210000", "112055.670000", "112056.130000", "112056.590000", "112057.050000", "112057.510000", "112057.970000", "112058.430000", "112058.890000", "112059.350000", "112059.810000", "112100.270000", "112100.730000", "112101.190000", "112101.650000", "112102.110000", "112102.570000", "112103.030000", "112103.490000", "112103.950000", "112104.410000", "112104.870000", "112105.330000", "112105.790000", "112106.250000", "112106.710000", "112107.170000", "112107.630000", "112108.090000", "112108.550000", "112109.010000", "112109.470000", "112109.930000", "112110.390000", "112110.850000", "112111.310000", "112111.770000", "112112.230000", "112112.690000", "112113.150000", "112113.610000", "112114.070000", "112114.530000", "112114.990000", "112115.450000", "112115.910000", "112116.370000", "112116.830000", "112117.290000", "112117.750000", "112118.210000", "112118.670000", "112119.130000", "112119.590000", "112120.050000", "112120.510000", "112120.970000", "112121.430000", "112121.890000", "112122.350000", "112122.810000", "112123.270000", "112123.730000", "112124.190000", "112124.650000", "112125.110000", "112125.570000", "112126.030000", "112126.490000", "112126.950000", "112127.410000", "112127.870000", "112128.330000", "112128.790000", "112129.250000", "112129.710000", "112130.170000", "112130.630000", "112131.090000", "112131.550000", "112132.010000", "112132.470000", "112132.930000", "112133.390000", "112133.850000", "112134.310000", "112134.770000", "112135.230000", "112135.690000", "112136.150000", "112136.610000", "112137.070000", "112137.530000", "112137.990000", "112138.450000", "112138.910000", "112139.370000", "112139.830000", "112140.290000", "112140.750000", "112141.210000", "112141.670000", "112142.130000", "112142.590000", "112143.050000", "112143.510000", "112143.970000", "112144.430000", "112144.890000", "112145.350000", "112145.810000", "112146.270000", "112146.730000", "112147.190000", "112147.650000", "112148.110000", "112148.570000", "112149.030000", "112149.490000", "112149.950000", "112150.410000", "112150.870000", "112151.330000", "112151.790000", "112152.250000", "112152.710000", "112153.170000", "112153.630000", "112154.090000", "112154.550000", "112155.010000", "112155.470000", "112155.930000", "112156.390000", "112156.850000", "112157.310000", "112157.770000", "112158.230000", "112158.690000", "112159.150000", "112159.610000", "112200.070000", "112200.530000", "112200.990000", "112201.450000", "112201.910000", "112202.370000", "112202.830000", "112203.290000", "112203.750000", "112204.210000", "112204.670000", "112205.130000", "112205.590000", "112206.050000", "112206.510000", "112206.970000", "112207.430000", "112207.890000", "112208.350000", "112208.810000", "112209.270000", "112209.730000", "112210.190000", "112210.650000", "112211.110000", "112211.570000", "112212.030000", "112212.490000", "112212.950000", "112213.410000", "112213.870000", "112214.330000", "112214.790000", "112215.250000", "112215.710000", "112216.170000", "112216.630000", "112217.090000", "112217.550000", "112218.010000", "112218.470000", "112218.930000", "112219.390000", "112219.850000", "112220.310000", "112220.770000", "112221.230000", "112221.690000", "112222.150000", "112222.610000", "112223.070000", "112223.530000", "112223.990000", "112224.450000", "112224.910000", "112225.370000", "112225.830000", "112226.290000", "112226.750000", "112227.210000", "112227.670000", "112228.130000", "112228.590000", "112229.050000", "112229.510000", "112229.970000", "112230.430000", "112230.890000", "112231.350000", "112231.810000", "112232.270000", "112232.730000", "112233.190000", "112233.650000", "112234.110000", "112234.570000", "112235.030000", "112235.490000", "112235.950000", "112236.410000", "112236.870000", "112237.330000", "112237.790000", "112238.250000", "112238.710000", "112239.170000", "112239.630000", "112240.090000", "112240.550000", "112241.010000", "112241.470000", "112241.930000", "112242.390000", "112242.850000", "112243.310000", "112243.770000", "112244.230000", "112244.690000", "112245.150000", "112245.610000", "112246.070000", "112246.530000", "112246.990000", "112247.450000", "112247.910000", "112248.370000", "112248.830000", "112249.290000", "112249.750000", "112250.210000", "112250.670000", "112251.130000", "112251.590000", "112252.050000", "112252.510000", "112252.970000", "112253.430000", "112253.890000", "112254.350000", "112254.810000", "112255.270000", "112255.730000", "112256.190000", "112256.650000", "112257.110000", "112257.570000", "112258.030000", "112258.490000", "112258.950000", "112259.410000", "112259.870000", "112300.330000", "112300.790000", "112301.250000", "112301.710000", "112302.170000", "112302.630000", "112303.090000", "112303.550000", "112304.010000", "112304.470000", "112304.930000", "112305.390000", "112305.850000", "112306.310000", "112306.770000", "112307.230000", "112307.690000", "112308.150000", "112308.610000", "112309.070000", "112309.530000", "112309.990000", "112310.450000", "112310.910000", "112311.370000", "112311.830000", "112312.290000", "112312.750000", "112313.210000", "112313.670000", "112314.130000", "112314.590000", "112315.050000", "112315.510000", "112315.970000", "112316.430000", "112316.890000", "112317.350000", "112317.810000", "112318.270000", "112318.730000", "112319.190000", "112319.650000", "112320.110000", "112320.570000", "112321.030000", "112321.490000", "112321.950000", "112322.410000", "112322.870000", "112323.330000", "112323.790000", "112324.250000", "112324.710000", "112325.170000", "112325.630000", "112326.090000", "112326.550000", "112327.010000", "112327.470000", "112327.930000", "112328.390000", "112328.850000", "112329.310000", "112329.770000", "112330.230000", "112330.690000", "112331.150000", "112331.610000", "112332.070000", "112332.530000", "112332.990000", "112333.450000", "112333.910000", "112334.370000", "112334.830000", "112335.290000", "112335.750000", "112336.210000", "112336.670000", "112337.130000", "112337.590000", "112338.050000", "112338.510000", "112338.970000", "112339.430000", "112339.890000", "112340.350000", "112340.810000", "112341.270000", "112341.730000", "112342.190000", "112342.650000", "112343.110000", "112343.570000", "112344.030000", "112344.490000"],
