{
  "AcquisitionMatrixPE": 82,
  "AcquisitionNumber": 1,
  "AcquisitionTime": "13:37:14.912500",
  "BandwidthPerPixelPhaseEncode": 24.888,
  "BaseResolution": 82,
  "BodyPartExamined": "BRAIN",
  "ConsistencyInfo": "N4_VE11E_LATEST_20181129",
  "ConversionSoftware": "dcm2niix",
  "ConversionSoftwareVersion": "v1.0.20201102",
  "DerivedVendorReportedEchoSpacing": 0.00049,
  "DeviceSerialNumber": "66112",
  "DwellTime": 2e-06,
  "EchoTime": 0.0272,
  "EchoTrainLength": 82,
  "EffectiveEchoSpacing": 0.00049,
  "FlipAngle": 44,
  "ImageComments": "Unaliased MB8/PE3",
  "ImageOrientationPatientDICOM": [0.999029, 0.0372372, 0.0235633, -0.0420464, 0.965547, 0.25681],
  "ImageType": [
    "ORIGINAL",
    "PRIMARY",
    "M",
    "MB",
    "ND",
    "NORM",
    "MOSAIC"
],
  "ImagingFrequency": 123.252,
  "InPlanePhaseEncodingDirectionDICOM": "COL",
  "InstitutionAddress": "Maynard 3,Hanover,NH,US,03755",
  "InstitutionName": "Dartmouth College - PBS",
  "InstitutionalDepartmentName": "Department",
  "MRAcquisitionType": "2D",
  "MagneticFieldStrength": 3,
  "Manufacturer": "Siemens",
  "ManufacturersModelName": "Prisma",
  "Modality": "MR",
  "MultibandAccelerationFactor": 8,
  "PartialFourier": 1,
  "PatientPosition": "HFS",
  "PercentPhaseFOV": 100,
  "PercentSampling": 100,
  "PhaseEncodingDirection": "j-",
  "PhaseEncodingSteps": 82,
  "PhaseResolution": 1,
  "PixelBandwidth": 3050,
  "ProcedureStepDescription": "Wager_Wager^1076_spacetop",
  "ProtocolName": "func_run-04_task-social_acq-ap-mb8",
  "PulseSequenceDetails": "%CustomerSeq%\\cmrr_mbep2d_bold",
  "ReceiveCoilActiveElements": "HEA;HEP",
  "ReceiveCoilName": "Head_32",
  "ReconMatrixPE": 82,
  "RepetitionTime": 0.46,
  "SAR": 0.101901,
  "ScanOptions": "FS",
  "ScanningSequence": "EP",
  "SequenceName": "epfid2d1_82",
  "SequenceVariant": "SK\\SS",
  "SeriesDescription": "func_run-04_task-social_acq-ap-mb8",
  "SeriesNumber": 14,
  "ShimSetting": [4137, -7804, -7254, 618, -102, -145, 36, 104],
  "SliceThickness": 2.7,
  "SliceTiming": [0, 0.2525, 0.0625, 0.315, 0.1275, 0.3775, 0.19, 0, 0.2525, 0.0625, 0.315, 0.1275, 0.3775, 0.19, 0, 0.2525, 0.0625, 0.315, 0.1275, 0.3775, 0.19, 0, 0.2525, 0.0625, 0.315, 0.1275, 0.3775, 0.19, 0, 0.2525, 0.0625, 0.315, 0.1275, 0.3775, 0.19, 0, 0.2525, 0.0625, 0.315, 0.1275, 0.3775, 0.19, 0, 0.2525, 0.0625, 0.315, 0.1275, 0.3775, 0.19, 0, 0.2525, 0.0625, 0.315, 0.1275, 0.3775, 0.19],
  "SoftwareVersions": "syngo MR E11",
  "SpacingBetweenSlices": 2.7,
  "StationName": "AWP66112",
  "TaskName": "social",
  "TotalReadoutTime": 0.03969,
  "TxRefAmp": 252.789,
  "WipMemBlock": "249f6fec-da5b-4784-8a59-8272137c465c||Sequence: R016 ve11e/master r/434b28f1; Aug  7 2019 18:53:46 by eja",
  "dcmmeta_affine": [
    [-2.6803207397460938, -0.11280731111764908, 0.03560922294855118, 116.3833999633789],
    [-0.0999046042561531, 2.590491771697998, 0.695387601852417, -98.19359588623047],
    [0.0632186010479927, -0.6890016198158264, 2.6086716651916504, -36.97489547729492],
    [0.0, 0.0, 0.0, 1.0]
],
  "dcmmeta_reorient_transform": [
    [0.0, -1.0, 0.0, 81.0],
    [1.0, 0.0, 0.0, 0.0],
    [0.0, 0.0, 1.0, 0.0],
    [0.0, 0.0, 0.0, 1.0]
],
  "dcmmeta_shape": [82, 82, 56, 872],
  "dcmmeta_slice_dim": 2,
  "dcmmeta_version": 0.6,
  "global": {
    "const": {
      "AccessionNumber": "A003932",
      "AcquisitionMatrix": [82, 0, 0, 82],
      "AngioFlag": "N",
      "BitsAllocated": 16,
      "BitsStored": 16,
      "BodyPartExamined": "BRAIN",
      "Columns": 656,
      "EchoNumbers": 1,
      "EchoTime": 27.2,
      "EchoTrainLength": 82,
      "FlipAngle": 44.0,
      "HighBit": 15,
      "ImageOrientationPatient": [0.99902861032554, 0.03723717024961, 0.02356329566965, -0.0420463616429, 0.96554693793894, 0.2568096846097],
      "ImagePositionPatient": [-844.12235330672, -883.7800223406, -308.67122550704],
      "ImageType": [
        "ORIGINAL",
        "PRIMARY",
        "M",
        "MB",
        "ND",
        "NORM",
        "MOSAIC"
],
      "ImagedNucleus": "1H",
      "ImagingFrequency": 123.252177,
      "InPlanePhaseEncodingDirection": "COL",
      "MRAcquisitionType": "2D",
      "MagneticFieldStrength": 3.0,
      "Manufacturer": "SIEMENS",
      "ManufacturerModelName": "Prisma",
      "Modality": "MR",
      "NumberOfAverages": 1.0,
      "NumberOfPhaseEncodingSteps": 82,
      "PercentPhaseFieldOfView": 100.0,
      "PercentSampling": 100.0,
      "PerformedProcedureStepStartTime": "130600.122000",
      "PhotometricInterpretation": "MONOCHROME2",
      "PixelBandwidth": 3050.0,
      "PixelRepresentation": 0,
      "PixelSpacing": [2.6829268932343, 2.6829268932343],
      "ProtocolName": "func_run-04_task-social_acq-ap-mb8",
      "RepetitionTime": 460.0,
      "Rows": 656,
      "SAR": 0.1019008523611,
      "SamplesPerPixel": 1,
      "ScanOptions": "FS",
      "ScanningSequence": "EP",
      "SequenceName": "epfid2d1_82",
      "SequenceVariant": [
        "SK",
        "SS"
],
      "SeriesDescription": "func_run-04_task-social_acq-ap-mb8",
      "SeriesNumber": 14,
      "SeriesTime": "133736.797000",
      "SliceLocation": -59.479131051101,
      "SliceThickness": 2.7000000476837,
      "SmallestImagePixelValue": 0,
      "SoftwareVersions": "syngo MR E11",
      "SpacingBetweenSlices": 2.6999999417506,
      "SpecificCharacterSet": "ISO_IR 100",
      "StudyID": "2",
      "StudyTime": "130600.064000",
      "TransmitCoilName": "Body",
      "VariableFlipAngleFlag": "N",
      "WindowCenterWidthExplanation": "Algo1"
    },
    "slices": {}
  },
  "time": {
    "samples": {
      "AcquisitionNumber": [1, 2, 3, 4, 5, 6, 7, 8, 9, 10, 11, 12, 13, 14, 15, 16, 17, 18, 19, 20, 21, 22, 23, 24, 25, 26, 27, 28, 29, 30, 31, 32, 33, 34, 35, 36, 37, 38, 39, 40, 41, 42, 43, 44, 45, 46, 47, 48, 49, 50, 51, 52, 53, 54, 55, 56, 57, 58, 59, 60, 61, 62, 63, 64, 65, 66, 67, 68, 69, 70, 71, 72, 73, 74, 75, 76, 77, 78, 79, 80, 81, 82, 83, 84, 85, 86, 87, 88, 89, 90, 91, 92, 93, 94, 95, 96, 97, 98, 99, 100, 101, 102, 103, 104, 105, 106, 107, 108, 109, 110, 111, 112, 113, 114, 115, 116, 117, 118, 119, 120, 121, 122, 123, 124, 125, 126, 127, 128, 129, 130, 131, 132, 133, 134, 135, 136, 137, 138, 139, 140, 141, 142, 143, 144, 145, 146, 147, 148, 149, 150, 151, 152, 153, 154, 155, 156, 157, 158, 159, 160, 161, 162, 163, 164, 165, 166, 167, 168, 169, 170, 171, 172, 173, 174, 175, 176, 177, 178, 179, 180, 181, 182, 183, 184, 185, 186, 187, 188, 189, 190, 191, 192, 193, 194, 195, 196, 197, 198, 199, 200, 201, 202, 203, 204, 205, 206, 207, 208, 209, 210, 211, 212, 213, 214, 215, 216, 217, 218, 219, 220, 221, 222, 223, 224, 225, 226, 227, 228, 229, 230, 231, 232, 233, 234, 235, 236, 237, 238, 239, 240, 241, 242, 243, 244, 245, 246, 247, 248, 249, 250, 251, 252, 253, 254, 255, 256, 257, 258, 259, 260, 261, 262, 263, 264, 265, 266, 267, 268, 269, 270, 271, 272, 273, 274, 275, 276, 277, 278, 279, 280, 281, 282, 283, 284, 285, 286, 287, 288, 289, 290, 291, 292, 293, 294, 295, 296, 297, 298, 299, 300, 301, 302, 303, 304, 305, 306, 307, 308, 309, 310, 311, 312, 313, 314, 315, 316, 317, 318, 319, 320, 321, 322, 323, 324, 325, 326, 327, 328, 329, 330, 331, 332, 333, 334, 335, 336, 337, 338, 339, 340, 341, 342, 343, 344, 345, 346, 347, 348, 349, 350, 351, 352, 353, 354, 355, 356, 357, 358, 359, 360, 361, 362, 363, 364, 365, 366, 367, 368, 369, 370, 371, 372, 373, 374, 375, 376, 377, 378, 379, 380, 381, 382, 383, 384, 385, 386, 387, 388, 389, 390, 391, 392, 393, 394, 395, 396, 397, 398, 399, 400, 401, 402, 403, 404, 405, 406, 407, 408, 409, 410, 411, 412, 413, 414, 415, 416, 417, 418, 419, 420, 421, 422, 423, 424, 425, 426, 427, 428, 429, 430, 431, 432, 433, 434, 435, 436, 437, 438, 439, 440, 441, 442, 443, 444, 445, 446, 447, 448, 449, 450, 451, 452, 453, 454, 455, 456, 457, 458, 459, 460, 461, 462, 463, 464, 465, 466, 467, 468, 469, 470, 471, 472, 473, 474, 475, 476, 477, 478, 479, 480, 481, 482, 483, 484, 485, 486, 487, 488, 489, 490, 491, 492, 493, 494, 495, 496, 497, 498, 499, 500, 501, 502, 503, 504, 505, 506, 507, 508, 509, 510, 511, 512, 513, 514, 515, 516, 517, 518, 519, 520, 521, 522, 523, 524, 525, 526, 527, 528, 529, 530, 531, 532, 533, 534, 535, 536, 537, 538, 539, 540, 541, 542, 543, 544, 545, 546, 547, 548, 549, 550, 551, 552, 553, 554, 555, 556, 557, 558, 559, 560, 561, 562, 563, 564, 565, 566, 567, 568, 569, 570, 571, 572, 573, 574, 575, 576, 577, 578, 579, 580, 581, 582, 583, 584, 585, 586, 587, 588, 589, 590, 591, 592, 593, 594, 595, 596, 597, 598, 599, 600, 601, 602, 603, 604, 605, 606, 607, 608, 609, 610, 611, 612, 613, 614, 615, 616, 617, 618, 619, 620, 621, 622, 623, 624, 625, 626, 627, 628, 629, 630, 631, 632, 633, 634, 635, 636, 637, 638, 639, 640, 641, 642, 643, 644, 645, 646, 647, 648, 649, 650, 651, 652, 653, 654, 655, 656, 657, 658, 659, 660, 661, 662, 663, 664, 665, 666, 667, 668, 669, 670, 671, 672, 673, 674, 675, 676, 677, 678, 679, 680, 681, 682, 683, 684, 685, 686, 687, 688, 689, 690, 691, 692, 693, 694, 695, 696, 697, 698, 699, 700, 701, 702, 703, 704, 705, 706, 707, 708, 709, 710, 711, 712, 713, 714, 715, 716, 717, 718, 719, 720, 721, 722, 723, 724, 725, 726, 727, 728, 729, 730, 731, 732, 733, 734, 735, 736, 737, 738, 739, 740, 741, 742, 743, 744, 745, 746, 747, 748, 749, 750, 751, 752, 753, 754, 755, 756, 757, 758, 759, 760, 761, 762, 763, 764, 765, 766, 767, 768, 769, 770, 771, 772, 773, 774, 775, 776, 777, 778, 779, 780, 781, 782, 783, 784, 785, 786, 787, 788, 789, 790, 791, 792, 793, 794, 795, 796, 797, 798, 799, 800, 801, 802, 803, 804, 805, 806, 807, 808, 809, 810, 811, 812, 813, 814, 815, 816, 817, 818, 819, 820, 821, 822, 823, 824, 825, 826, 827, 828, 829, 830, 831, 832, 833, 834, 835, 836, 837, 838, 839, 840, 841, 842, 843, 844, 845, 846, 847, 848, 849, 850, 851, 852, 853, 854, 855, 856, 857, 858, 859, 860, 861, 862, 863, 864, 865, 866, 867, 868, 869, 870, 871, 872],
      "AcquisitionTime": ["133714.912500", "133715.372500", "133715.832500", "133716.292500", "133716.752500", "133717.212500", "133717.672500", "133718.132500", "133718.592500", "133719.052500", "133719.512500", "133719.972500", "133720.432500", "133720.892500", "133721.352500", "133721.812500", "133722.272500", "133722.732500", "133723.192500", "133723.652500", "133724.112500", "133724.572500", "133725.032500", "133725.492500", "133725.952500", "133726.412500", "133726.872500", "133727.332500", "133727.792500", "133728.252500", "133728.712500", "133729.172500", "133729.632500", "133730.092500", "133730.552500", "133731.012500", "133731.472500", "133731.932500", "133732.392500", "133732.852500", "133733.312500", "133733.772500", "133734.232500", "133734.692500", "133735.152500", "133735.612500", "133736.072500", "133736.532500", "133736.992500", "133737.452500", "133737.912500", "133738.372500", "133738.832500", "133739.292500", "133739.752500", "133740.212500", "133740.672500", "133741.132500", "133741.592500", "133742.052500", "133742.512500", "133742.972500", "133743.432500", "133743.892500", "133744.352500", "133744.812500", "133745.272500", "133745.732500", "133746.192500", "133746.652500", "133747.112500", "133747.572500", "133748.032500", "133748.492500", "133748.952500", "133749.412500", "133749.872500", "133750.332500", "133750.792500", "133751.252500", "133751.712500", "133752.172500", "133752.632500", "133753.092500", "133753.552500", "133754.012500", "133754.472500", "133754.932500", "133755.392500", "133755.852500", "133756.312500", "133756.772500", "133757.232500", "133757.692500", "133758.152500", "133758.612500", "133759.072500", "133759.532500", "133759.992500", "133800.452500", "133800.912500", "133801.372500", "133801.832500", "133802.292500", "133802.752500", "133803.212500", "133803.672500", "133804.132500", "133804.592500", "133805.052500", "133805.512500", "133805.972500", "133806.432500", "133806.892500", "133807.352500", "133807.812500", "133808.272500", "133808.732500", "133809.192500", "133809.652500", "133810.112500", "133810.572500", "133811.032500", "133811.492500", "133811.952500", "133812.412500", "133812.872500", "133813.332500", "133813.792500", "133814.252500", "133814.712500", "133815.172500", "133815.632500", "133816.092500", "133816.552500", "133817.012500", "133817.472500", "133817.932500", "133818.392500", "133818.852500", "133819.312500", "133819.772500", "133820.232500", "133820.692500", "133821.152500", "133821.612500", "133822.072500", "133822.532500", "133822.992500", "133823.452500", "133823.912500", "133824.372500", "133824.832500", "133825.292500", "133825.752500", "133826.212500", "133826.672500", "133827.132500", "133827.592500", "133828.052500", "133828.512500", "133828.972500", "133829.432500", "133829.892500", "133830.352500", "133830.812500", "133831.272500", "133831.732500", "133832.192500", "133832.652500", "133833.112500", "133833.572500", "133834.032500", "133834.492500", "133834.952500", "133835.412500", "133835.872500", "133836.332500", "133836.792500", "133837.252500", "133837.712500", "133838.172500", "133838.632500", "133839.092500", "133839.552500", "133840.012500", "133840.472500", "133840.932500", "133841.392500", "133841.852500", "133842.312500", "133842.772500", "133843.232500", "133843.692500", "133844.152500", "133844.612500", "133845.072500", "133845.532500", "133845.992500", "133846.452500", "133846.912500", "133847.372500", "133847.832500", "133848.292500", "133848.752500", "133849.212500", "133849.672500", "133850.132500", "133850.592500", "133851.052500", "133851.512500", "133851.972500", "133852.432500", "133852.892500", "133853.352500", "133853.812500", "133854.272500", "133854.732500", "133855.192500", "133855.652500", "133856.112500", "133856.572500", "133857.032500", "133857.492500", "133857.952500", "133858.412500", "133858.872500", "133859.332500", "133859.792500", "133900.252500", "133900.712500", "133901.172500", "133901.632500", "133902.092500", "133902.552500", "133903.012500", "133903.472500", "133903.932500", "133904.392500", "133904.852500", "133905.312500", "133905.772500", "133906.232500", "133906.692500", "133907.152500", "133907.612500", "133908.072500", "133908.532500", "133908.992500", "133909.452500", "133909.912500", "133910.372500", "133910.832500", "133911.292500", "133911.752500", "133912.212500", "133912.672500", "133913.132500", "133913.592500", "133914.052500", "133914.512500", "133914.972500", "133915.432500", "133915.892500", "133916.352500", "133916.812500", "133917.272500", "133917.732500", "133918.192500", "133918.652500", "133919.112500", "133919.572500", "133920.032500", "133920.492500", "133920.952500", "133921.412500", "133921.872500", "133922.332500", "133922.792500", "133923.252500", "133923.712500", "133924.172500", "133924.632500", "133925.092500", "133925.552500", "133926.012500", "133926.472500", "133926.932500", "133927.392500", "133927.852500", "133928.312500", "133928.772500", "133929.232500", "133929.692500", "133930.152500", "133930.612500", "133931.072500", "133931.532500", "133931.992500", "133932.452500", "133932.912500", "133933.372500", "133933.832500", "133934.292500", "133934.752500", "133935.212500", "133935.672500", "133936.132500", "133936.592500", "133937.052500", "133937.512500", "133937.972500", "133938.432500", "133938.892500", "133939.352500", "133939.812500", "133940.272500", "133940.732500", "133941.192500", "133941.652500", "133942.112500", "133942.572500", "133943.032500", "133943.492500", "133943.952500", "133944.412500", "133944.872500", "133945.332500", "133945.792500", "133946.252500", "133946.712500", "133947.172500", "133947.632500", "133948.092500", "133948.552500", "133949.012500", "133949.472500", "133949.932500", "133950.392500", "133950.852500", "133951.312500", "133951.772500", "133952.232500", "133952.692500", "133953.152500", "133953.612500", "133954.072500", "133954.532500", "133954.992500", "133955.452500", "133955.912500", "133956.372500", "133956.832500", "133957.292500", "133957.752500", "133958.212500", "133958.672500", "133959.132500", "133959.592500", "134000.052500", "134000.512500", "134000.972500", "134001.432500", "134001.892500", "134002.352500", "134002.812500", "134003.272500", "134003.732500", "134004.192500", "134004.652500", "134005.112500", "134005.572500", "134006.032500", "134006.492500", "134006.952500", "134007.412500", "134007.872500", "134008.332500", "134008.792500", "134009.252500", "134009.712500", "134010.172500", "134010.632500", "134011.092500", "134011.552500", "134012.012500", "134012.472500", "134012.932500", "134013.392500", "134013.852500", "134014.312500", "134014.772500", "134015.232500", "134015.692500", "134016.152500", "134016.612500", "134017.072500", "134017.532500", "134017.992500", "134018.452500", "134018.912500", "134019.372500", "134019.832500", "134020.292500", "134020.752500", "134021.212500", "134021.672500", "134022.132500", "134022.592500", "134023.052500", "134023.512500", "134023.972500", "134024.432500", "134024.892500", "134025.352500", "134025.812500", "134026.272500", "134026.732500", "134027.192500", "134027.652500", "134028.112500", "134028.572500", "134029.032500", "134029.492500", "134029.952500", "134030.412500", "134030.872500", "134031.332500", "134031.792500", "134032.252500", "134032.712500", "134033.172500", "134033.632500", "134034.092500", "134034.552500", "134035.012500", "134035.472500", "134035.932500", "134036.392500", "134036.852500", "134037.312500", "134037.772500", "134038.232500", "134038.692500", "134039.152500", "134039.612500", "134040.072500", "134040.532500", "134040.992500", "134041.452500", "134041.912500", "134042.372500", "134042.832500", "134043.292500", "134043.752500", "134044.212500", "134044.672500", "134045.132500", "134045.592500", "134046.052500", "134046.512500", "134046.972500", "134047.432500", "134047.892500", "134048.352500", "134048.812500", "134049.272500", "134049.732500", "134050.192500", "134050.652500", "134051.112500", "134051.572500", "134052.032500", "134052.492500", "134052.952500", "134053.412500", "134053.872500", "134054.332500", "134054.792500", "134055.252500", "134055.712500", "134056.172500", "134056.632500", "134057.092500", "134057.552500", "134058.012500", "134058.472500", "134058.932500", "134059.392500", "134059.852500", "134100.312500", "134100.772500", "134101.232500", "134101.692500", "134102.152500", "134102.612500", "134103.072500", "134103.532500", "134103.992500", "134104.452500", "134104.912500", "134105.372500", "134105.832500", "134106.292500", "134106.752500", "134107.212500", "134107.672500", "134108.132500", "134108.592500", "134109.052500", "134109.512500", "134109.972500", "134110.432500", "134110.892500", "134111.352500", "134111.812500", "134112.272500", "134112.732500", "134113.192500", "134113.652500", "134114.112500", "134114.572500", "134115.032500", "134115.492500", "134115.952500", "134116.412500", "134116.872500", "134117.332500", "134117.792500", "134118.252500", "134118.712500", "134119.172500", "134119.632500", "134120.092500", "134120.552500", "134121.012500", "134121.472500", "134121.932500", "134122.392500", "134122.852500", "134123.312500", "134123.772500", "134124.232500", "134124.692500", "134125.152500", "134125.612500", "134126.072500", "134126.532500", "134126.992500", "134127.452500", "134127.912500", "134128.372500", "134128.832500", "134129.292500", "134129.752500", "134130.212500", "134130.672500", "134131.132500", "134131.592500", "134132.052500", "134132.512500", "134132.972500", "134133.432500", "134133.892500", "134134.352500", "134134.812500", "134135.272500", "134135.732500", "134136.192500", "134136.652500", "134137.112500", "134137.572500", "134138.032500", "134138.492500", "134138.952500", "134139.412500", "134139.872500", "134140.332500", "134140.792500", "134141.252500", "134141.712500", "134142.172500", "134142.632500", "134143.092500", "134143.552500", "134144.012500", "134144.472500", "134144.932500", "134145.392500", "134145.852500", "134146.312500", "134146.772500", "134147.232500", "134147.692500", "134148.152500", "134148.612500", "134149.072500", "134149.532500", "134149.992500", "134150.452500", "134150.912500", "134151.372500", "134151.832500", "134152.292500", "134152.752500", "134153.212500", "134153.672500", "134154.132500", "134154.592500", "134155.052500", "134155.512500", "134155.972500", "134156.432500", "134156.892500", "134157.352500", "134157.812500", "134158.272500", "134158.732500", "134159.192500", "134159.652500", "134200.112500", "134200.572500", "134201.032500", "134201.492500", "134201.952500", "134202.412500", "134202.872500", "134203.332500", "134203.792500", "134204.252500", "134204.712500", "134205.172500", "134205.632500", "134206.092500", "134206.552500", "134207.012500", "134207.472500", "134207.932500", "134208.392500", "134208.852500", "134209.312500", "134209.772500", "134210.232500", "134210.692500", "134211.152500", "134211.612500", "134212.072500", "134212.532500", "134212.992500", "134213.452500", "134213.912500", "134214.372500", "134214.832500", "134215.292500", "134215.752500", "134216.212500", "134216.672500", "134217.132500", "134217.592500", "134218.052500", "134218.512500", "134218.972500", "134219.432500", "134219.892500", "134220.352500", "134220.812500", "134221.272500", "134221.732500", "134222.192500", "134222.652500", "134223.112500", "134223.572500", "134224.032500", "134224.492500", "134224.952500", "134225.412500", "134225.872500", "134226.332500", "134226.792500", "134227.252500", "134227.712500", "134228.172500", "134228.632500", "134229.092500", "134229.552500", "134230.012500", "134230.472500", "134230.932500", "134231.392500", "134231.852500", "134232.312500", "134232.772500", "134233.232500", "134233.692500", "134234.152500", "134234.612500", "134235.072500", "134235.532500", "134235.992500", "134236.452500", "134236.912500", "134237.372500", "134237.832500", "134238.292500", "134238.752500", "134239.212500", "134239.672500", "134240.132500", "134240.592500", "134241.052500", "134241.512500", "134241.972500", "134242.432500", "134242.892500", "134243.352500", "134243.812500", "134244.272500", "134244.732500", "134245.192500", "134245.652500", "134246.112500", "134246.572500", "134247.032500", "134247.492500", "134247.952500", "134248.412500", "134248.872500", "134249.332500", "134249.792500", "134250.252500", "134250.712500", "134251.172500", "134251.632500", "134252.092500", "134252.552500", "134253.012500", "134253.472500", "134253.932500", "134254.392500", "134254.852500", "134255.312500", "134255.772500", "134256.232500", "134256.692500", "134257.152500", "134257.612500", "134258.072500", "134258.532500", "134258.992500", "134259.452500", "134259.912500", "134300.372500", "134300.832500", "134301.292500", "134301.752500", "134302.212500", "134302.672500", "134303.132500", "134303.592500", "134304.052500", "134304.512500", "134304.972500", "134305.432500", "134305.892500", "134306.352500", "134306.812500", "134307.272500", "134307.732500", "134308.192500", "134308.652500", "134309.112500", "134309.572500", "134310.032500", "134310.492500", "134310.952500", "134311.412500", "134311.872500", "134312.332500", "134312.792500", "134313.252500", "134313.712500", "134314.172500", "134314.632500", "134315.092500", "134315.552500", "134316.012500", "134316.472500", "134316.932500", "134317.392500", "134317.852500", "134318.312500", "134318.772500", "134319.232500", "134319.692500", "134320.152500", "134320.612500", "134321.072500", "134321.532500", "134321.992500", "134322.452500", "134322.912500", "134323.372500", "134323.832500", "134324.292500", "134324.752500", "134325.212500", "134325.672500", "134326.132500", "134326.592500", "134327.052500", "134327.512500", "134327.972500", "134328.432500", "134328.892500", "134329.352500", "134329.812500", "134330.272500", "134330.732500", "134331.192500", "134331.652500", "134332.112500", "134332.572500", "134333.032500", "134333.492500", "134333.952500", "134334.412500", "134334.872500", "134335.332500", "134335.792500", "134336.252500", "134336.712500", "134337.172500", "134337.632500", "134338.092500", "134338.552500", "134339.012500", "134339.472500", "134339.932500", "134340.392500", "134340.852500", "134341.312500", "134341.772500", "134342.232500", "134342.692500", "134343.152500", "134343.612500", "134344.072500", "134344.532500", "134344.992500", "134345.452500", "134345.912500", "134346.372500", "134346.832500", "134347.292500", "134347.752500", "134348.212500", "134348.672500", "134349.132500", "134349.592500", "134350.052500", "134350.512500", "134350.972500", "134351.432500", "134351.892500", "134352.352500", "134352.812500", "134353.272500", "134353.732500", "134354.192500", "134354.652500", "134355.112500", "134355.572500"],
