{
  "AcquisitionMatrixPE": 82,
  "AcquisitionNumber": 1,
  "AcquisitionTime": "14:35:42.137500",
  "BandwidthPerPixelPhaseEncode": 24.888,
  "BaseResolution": 82,
  "BodyPartExamined": "BRAIN",
  "ConsistencyInfo": "N4_VE11E_LATEST_20181129",
  "ConversionSoftware": "dcm2niix",
  "ConversionSoftwareVersion": "v1.0.20201102",
  "DerivedVendorReportedEchoSpacing": 0.00049,
  "DeviceSerialNumber": "66112",
  "DwellTime": 2e-06,
  "EchoTime": 0.0272,
  "EchoTrainLength": 82,
  "EffectiveEchoSpacing": 0.00049,
  "FlipAngle": 44,
  "ImageComments": "Unaliased MB8/PE3",
  "ImageOrientationPatientDICOM": [0.999029, 0.0372372, 0.0235633, -0.0420464, 0.965547, 0.25681],
  "ImageType": [
    "ORIGINAL",
    "PRIMARY",
    "M",
    "MB",
    "ND",
    "NORM",
    "MOSAIC"
],
  "ImagingFrequency": 123.252,
  "InPlanePhaseEncodingDirectionDICOM": "COL",
  "InstitutionAddress": "Maynard 3,Hanover,NH,US,03755",
  "InstitutionName": "Dartmouth College - PBS",
  "InstitutionalDepartmentName": "Department",
  "MRAcquisitionType": "2D",
  "MagneticFieldStrength": 3,
  "Manufacturer": "Siemens",
  "ManufacturersModelName": "Prisma",
  "Modality": "MR",
  "MultibandAccelerationFactor": 8,
  "PartialFourier": 1,
  "PatientPosition": "HFS",
  "PercentPhaseFOV": 100,
  "PercentSampling": 100,
  "PhaseEncodingDirection": "j-",
  "PhaseEncodingSteps": 82,
  "PhaseResolution": 1,
  "PixelBandwidth": 3050,
  "ProcedureStepDescription": "Wager_Wager^1076_spacetop",
  "ProtocolName": "func_run-03_task-alignvideo_acq-ap-mb8",
  "PulseSequenceDetails": "%CustomerSeq%\\cmrr_mbep2d_bold",
  "ReceiveCoilActiveElements": "HEA;HEP",
  "ReceiveCoilName": "Head_32",
  "ReconMatrixPE": 82,
  "RepetitionTime": 0.46,
  "SAR": 0.102016,
  "ScanOptions": "FS",
  "ScanningSequence": "EP",
  "SequenceName": "epfid2d1_82",
  "SequenceVariant": "SK\\SS",
  "SeriesDescription": "func_run-03_task-alignvideo_acq-ap-mb8",
  "SeriesNumber": 32,
  "ShimSetting": [4136, -7803, -7252, 615, -105, -126, 39, 107],
  "SliceThickness": 2.7,
  "SliceTiming": [0, 0.2525, 0.0625, 0.315, 0.125, 0.3775, 0.1875, 0, 0.2525, 0.0625, 0.315, 0.125, 0.3775, 0.1875, 0, 0.2525, 0.0625, 0.315, 0.125, 0.3775, 0.1875, 0, 0.2525, 0.0625, 0.315, 0.125, 0.3775, 0.1875, 0, 0.2525, 0.0625, 0.315, 0.125, 0.3775, 0.1875, 0, 0.2525, 0.0625, 0.315, 0.125, 0.3775, 0.1875, 0, 0.2525, 0.0625, 0.315, 0.125, 0.3775, 0.1875, 0, 0.2525, 0.0625, 0.315, 0.125, 0.3775, 0.1875],
  "SoftwareVersions": "syngo MR E11",
  "SpacingBetweenSlices": 2.7,
  "StationName": "AWP66112",
  "TaskName": "alignvideo",
  "TotalReadoutTime": 0.03969,
  "TxRefAmp": 252.789,
  "WipMemBlock": "1f3d8260-bea0-4552-92e7-9f8a6261de0a||Sequence: R016 ve11e/master r/434b28f1; Aug  7 2019 18:53:46 by eja",
  "dcmmeta_affine": [
    [-2.6803207397460938, -0.11280731111764908, 0.035609226673841476, 116.64733123779297],
    [-0.0999046042561531, 2.590491771697998, 0.695387601852417, -102.7064208984375],
    [0.0632186010479927, -0.6890016198158264, 2.6086716651916504, -32.92164993286133],
    [0.0, 0.0, 0.0, 1.0]
],
  "dcmmeta_reorient_transform": [
    [0.0, -1.0, 0.0, 81.0],
    [1.0, 0.0, 0.0, 0.0],
    [0.0, 0.0, 1.0, 0.0],
    [0.0, 0.0, 0.0, 1.0]
],
  "dcmmeta_shape": [82, 82, 56, 1065],
  "dcmmeta_slice_dim": 2,
  "dcmmeta_version": 0.6,
  "global": {
    "const": {
      "AccessionNumber": "A003932",
      "AcquisitionMatrix": [82, 0, 0, 82],
      "AngioFlag": "N",
      "BitsAllocated": 16,
      "BitsStored": 16,
      "BodyPartExamined": "BRAIN",
      "Columns": 656,
      "EchoNumbers": 1,
      "EchoTime": 27.2,
      "EchoTrainLength": 82,
      "FlipAngle": 44.0,
      "HighBit": 15,
      "ImageOrientationPatient": [0.99902861032554, 0.03723717024961, 0.02356329566965, -0.0420463616429, 0.96554693793894, 0.2568096846097],
      "ImagePositionPatient": [-844.38628577322, -879.26720185834, -304.61797996261],
      "ImageType": [
        "ORIGINAL",
        "PRIMARY",
        "M",
        "MB",
        "ND",
        "NORM",
        "MOSAIC"
],
      "ImagedNucleus": "1H",
      "ImagingFrequency": 123.252184,
      "InPlanePhaseEncodingDirection": "COL",
      "MRAcquisitionType": "2D",
      "MagneticFieldStrength": 3.0,
      "Manufacturer": "SIEMENS",
      "ManufacturerModelName": "Prisma",
      "Modality": "MR",
      "NumberOfAverages": 1.0,
      "NumberOfPhaseEncodingSteps": 82,
      "PercentPhaseFieldOfView": 100.0,
      "PercentSampling": 100.0,
      "PerformedProcedureStepStartTime": "130600.122000",
      "PhotometricInterpretation": "MONOCHROME2",
      "PixelBandwidth": 3050.0,
      "PixelRepresentation": 0,
      "PixelSpacing": [2.6829268932343, 2.6829268932343],
      "ProtocolName": "func_run-03_task-alignvideo_acq-ap-mb8",
      "RepetitionTime": 460.0,
      "Rows": 656,
      "SAR": 0.10201580743049,
      "SamplesPerPixel": 1,
      "ScanOptions": "FS",
      "ScanningSequence": "EP",
      "SequenceName": "epfid2d1_82",
      "SequenceVariant": [
        "SK",
        "SS"
],
      "SeriesDescription": "func_run-03_task-alignvideo_acq-ap-mb8",
      "SeriesNumber": 32,
      "SeriesTime": "143556.816000",
      "SliceLocation": -56.721788147203,
      "SliceThickness": 2.7000000476837,
      "SmallestImagePixelValue": 0,
      "SoftwareVersions": "syngo MR E11",
      "SpacingBetweenSlices": 2.6999999562645,
      "SpecificCharacterSet": "ISO_IR 100",
      "StudyID": "2",
      "StudyTime": "130600.064000",
      "TransmitCoilName": "Body",
      "VariableFlipAngleFlag": "N",
      "WindowCenterWidthExplanation": "Algo1"
    },
    "slices": {}
  },
  "time": {
    "samples": {
      "AcquisitionNumber": [1, 2, 3, 4, 5, 6, 7, 8, 9, 10, 11, 12, 13, 14, 15, 16, 17, 18, 19, 20, 21, 22, 23, 24, 25, 26, 27, 28, 29, 30, 31, 32, 33, 34, 35, 36, 37, 38, 39, 40, 41, 42, 43, 44, 45, 46, 47, 48, 49, 50, 51, 52, 53, 54, 55, 56, 57, 58, 59, 60, 61, 62, 63, 64, 65, 66, 67, 68, 69, 70, 71, 72, 73, 74, 75, 76, 77, 78, 79, 80, 81, 82, 83, 84, 85, 86, 87, 88, 89, 90, 91, 92, 93, 94, 95, 96, 97, 98, 99, 100, 101, 102, 103, 104, 105, 106, 107, 108, 109, 110, 111, 112, 113, 114, 115, 116, 117, 118, 119, 120, 121, 122, 123, 124, 125, 126, 127, 128, 129, 130, 131, 132, 133, 134, 135, 136, 137, 138, 139, 140, 141, 142, 143, 144, 145, 146, 147, 148, 149, 150, 151, 152, 153, 154, 155, 156, 157, 158, 159, 160, 161, 162, 163, 164, 165, 166, 167, 168, 169, 170, 171, 172, 173, 174, 175, 176, 177, 178, 179, 180, 181, 182, 183, 184, 185, 186, 187, 188, 189, 190, 191, 192, 193, 194, 195, 196, 197, 198, 199, 200, 201, 202, 203, 204, 205, 206, 207, 208, 209, 210, 211, 212, 213, 214, 215, 216, 217, 218, 219, 220, 221, 222, 223, 224, 225, 226, 227, 228, 229, 230, 231, 232, 233, 234, 235, 236, 237, 238, 239, 240, 241, 242, 243, 244, 245, 246, 247, 248, 249, 250, 251, 252, 253, 254, 255, 256, 257, 258, 259, 260, 261, 262, 263, 264, 265, 266, 267, 268, 269, 270, 271, 272, 273, 274, 275, 276, 277, 278, 279, 280, 281, 282, 283, 284, 285, 286, 287, 288, 289, 290, 291, 292, 293, 294, 295, 296, 297, 298, 299, 300, 301, 302, 303, 304, 305, 306, 307, 308, 309, 310, 311, 312, 313, 314, 315, 316, 317, 318, 319, 320, 321, 322, 323, 324, 325, 326, 327, 328, 329, 330, 331, 332, 333, 334, 335, 336, 337, 338, 339, 340, 341, 342, 343, 344, 345, 346, 347, 348, 349, 350, 351, 352, 353, 354, 355, 356, 357, 358, 359, 360, 361, 362, 363, 364, 365, 366, 367, 368, 369, 370, 371, 372, 373, 374, 375, 376, 377, 378, 379, 380, 381, 382, 383, 384, 385, 386, 387, 388, 389, 390, 391, 392, 393, 394, 395, 396, 397, 398, 399, 400, 401, 402, 403, 404, 405, 406, 407, 408, 409, 410, 411, 412, 413, 414, 415, 416, 417, 418, 419, 420, 421, 422, 423, 424, 425, 426, 427, 428, 429, 430, 431, 432, 433, 434, 435, 436, 437, 438, 439, 440, 441, 442, 443, 444, 445, 446, 447, 448, 449, 450, 451, 452, 453, 454, 455, 456, 457, 458, 459, 460, 461, 462, 463, 464, 465, 466, 467, 468, 469, 470, 471, 472, 473, 474, 475, 476, 477, 478, 479, 480, 481, 482, 483, 484, 485, 486, 487, 488, 489, 490, 491, 492, 493, 494, 495, 496, 497, 498, 499, 500, 501, 502, 503, 504, 505, 506, 507, 508, 509, 510, 511, 512, 513, 514, 515, 516, 517, 518, 519, 520, 521, 522, 523, 524, 525, 526, 527, 528, 529, 530, 531, 532, 533, 534, 535, 536, 537, 538, 539, 540, 541, 542, 543, 544, 545, 546, 547, 548, 549, 550, 551, 552, 553, 554, 555, 556, 557, 558, 559, 560, 561, 562, 563, 564, 565, 566, 567, 568, 569, 570, 571, 572, 573, 574, 575, 576, 577, 578, 579, 580, 581, 582, 583, 584, 585, 586, 587, 588, 589, 590, 591, 592, 593, 594, 595, 596, 597, 598, 599, 600, 601, 602, 603, 604, 605, 606, 607, 608, 609, 610, 611, 612, 613, 614, 615, 616, 617, 618, 619, 620, 621, 622, 623, 624, 625, 626, 627, 628, 629, 630, 631, 632, 633, 634, 635, 636, 637, 638, 639, 640, 641, 642, 643, 644, 645, 646, 647, 648, 649, 650, 651, 652, 653, 654, 655, 656, 657, 658, 659, 660, 661, 662, 663, 664, 665, 666, 667, 668, 669, 670, 671, 672, 673, 674, 675, 676, 677, 678, 679, 680, 681, 682, 683, 684, 685, 686, 687, 688, 689, 690, 691, 692, 693, 694, 695, 696, 697, 698, 699, 700, 701, 702, 703, 704, 705, 706, 707, 708, 709, 710, 711, 712, 713, 714, 715, 716, 717, 718, 719, 720, 721, 722, 723, 724, 725, 726, 727, 728, 729, 730, 731, 732, 733, 734, 735, 736, 737, 738, 739, 740, 741, 742, 743, 744, 745, 746, 747, 748, 749, 750, 751, 752, 753, 754, 755, 756, 757, 758, 759, 760, 761, 762, 763, 764, 765, 766, 767, 768, 769, 770, 771, 772, 773, 774, 775, 776, 777, 778, 779, 780, 781, 782, 783, 784, 785, 786, 787, 788, 789, 790, 791, 792, 793, 794, 795, 796, 797, 798, 799, 800, 801, 802, 803, 804, 805, 806, 807, 808, 809, 810, 811, 812, 813, 814, 815, 816, 817, 818, 819, 820, 821, 822, 823, 824, 825, 826, 827, 828, 829, 830, 831, 832, 833, 834, 835, 836, 837, 838, 839, 840, 841, 842, 843, 844, 845, 846, 847, 848, 849, 850, 851, 852, 853, 854, 855, 856, 857, 858, 859, 860, 861, 862, 863, 864, 865, 866, 867, 868, 869, 870, 871, 872, 873, 874, 875, 876, 877, 878, 879, 880, 881, 882, 883, 884, 885, 886, 887, 888, 889, 890, 891, 892, 893, 894, 895, 896, 897, 898, 899, 900, 901, 902, 903, 904, 905, 906, 907, 908, 909, 910, 911, 912, 913, 914, 915, 916, 917, 918, 919, 920, 921, 922, 923, 924, 925, 926, 927, 928, 929, 930, 931, 932, 933, 934, 935, 936, 937, 938, 939, 940, 941, 942, 943, 944, 945, 946, 947, 948, 949, 950, 951, 952, 953, 954, 955, 956, 957, 958, 959, 960, 961, 962, 963, 964, 965, 966, 967, 968, 969, 970, 971, 972, 973, 974, 975, 976, 977, 978, 979, 980, 981, 982, 983, 984, 985, 986, 987, 988, 989, 990, 991, 992, 993, 994, 995, 996, 997, 998, 999, 1000, 1001, 1002, 1003, 1004, 1005, 1006, 1007, 1008, 1009, 1010, 1011, 1012, 1013, 1014, 1015, 1016, 1017, 1018, 1019, 1020, 1021, 1022, 1023, 1024, 1025, 1026, 1027, 1028, 1029, 1030, 1031, 1032, 1033, 1034, 1035, 1036, 1037, 1038, 1039, 1040, 1041, 1042, 1043, 1044, 1045, 1046, 1047, 1048, 1049, 1050, 1051, 1052, 1053, 1054, 1055, 1056, 1057, 1058, 1059, 1060, 1061, 1062, 1063, 1064, 1065],
      "AcquisitionTime": ["143542.137500", "143542.597500", "143543.057500", "143543.517500", "143543.977500", "143544.437500", "143544.897500", "143545.357500", "143545.817500", "143546.277500", "143546.737500", "143547.197500", "143547.657500", "143548.117500", "143548.577500", "143549.037500", "143549.497500", "143549.957500", "143550.417500", "143550.877500", "143551.337500", "143551.797500", "143552.257500", "143552.717500", "143553.177500", "143553.637500", "143554.097500", "143554.557500", "143555.017500", "143555.477500", "143555.937500", "143556.397500", "143556.857500", "143557.317500", "143557.777500", "143558.237500", "143558.697500", "143559.157500", "143559.617500", "143600.077500", "143600.537500", "143600.997500", "143601.457500", "143601.917500", "143602.377500", "143602.837500", "143603.297500", "143603.757500", "143604.217500", "143604.677500", "143605.137500", "143605.597500", "143606.057500", "143606.517500", "143606.977500", "143607.437500", "143607.897500", "143608.357500", "143608.817500", "143609.277500", "143609.737500", "143610.197500", "143610.657500", "143611.117500", "143611.577500", "143612.037500", "143612.497500", "143612.957500", "143613.417500", "143613.877500", "143614.337500", "143614.797500", "143615.257500", "143615.717500", "143616.177500", "143616.637500", "143617.097500", "143617.557500", "143618.017500", "143618.477500", "143618.937500", "143619.397500", "143619.857500", "143620.317500", "143620.777500", "143621.237500", "143621.697500", "143622.157500", "143622.617500", "143623.077500", "143623.537500", "143623.997500", "143624.457500", "143624.917500", "143625.377500", "143625.837500", "143626.297500", "143626.757500", "143627.217500", "143627.677500", "143628.137500", "143628.597500", "143629.057500", "143629.517500", "143629.977500", "143630.437500", "143630.897500", "143631.357500", "143631.817500", "143632.277500", "143632.737500", "143633.197500", "143633.657500", "143634.117500", "143634.577500", "143635.037500", "143635.497500", "143635.957500", "143636.417500", "143636.877500", "143637.337500", "143637.797500", "143638.257500", "143638.717500", "143639.177500", "143639.637500", "143640.097500", "143640.557500", "143641.017500", "143641.477500", "143641.937500", "143642.397500", "143642.857500", "143643.317500", "143643.777500", "143644.237500", "143644.697500", "143645.157500", "143645.617500", "143646.077500", "143646.537500", "143646.997500", "143647.457500", "143647.917500", "143648.377500", "143648.837500", "143649.297500", "143649.757500", "143650.217500", "143650.677500", "143651.137500", "143651.597500", "143652.057500", "143652.517500", "143652.977500", "143653.437500", "143653.897500", "143654.357500", "143654.817500", "143655.277500", "143655.737500", "143656.197500", "143656.657500", "143657.117500", "143657.577500", "143658.037500", "143658.497500", "143658.957500", "143659.417500", "143659.877500", "143700.337500", "143700.797500", "143701.257500", "143701.717500", "143702.177500", "143702.637500", "143703.097500", "143703.557500", "143704.017500", "143704.477500", "143704.937500", "143705.397500", "143705.857500", "143706.317500", "143706.777500", "143707.237500", "143707.697500", "143708.157500", "143708.617500", "143709.077500", "143709.537500", "143709.997500", "143710.457500", "143710.917500", "143711.377500", "143711.837500", "143712.297500", "143712.757500", "143713.217500", "143713.677500", "143714.137500", "143714.597500", "143715.057500", "143715.517500", "143715.977500", "143716.437500", "143716.897500", "143717.357500", "143717.817500", "143718.277500", "143718.737500", "143719.197500", "143719.657500", "143720.117500", "143720.577500", "143721.037500", "143721.497500", "143721.957500", "143722.417500", "143722.877500", "143723.337500", "143723.797500", "143724.257500", "143724.717500", "143725.177500", "143725.637500", "143726.097500", "143726.557500", "143727.017500", "143727.477500", "143727.937500", "143728.397500", "143728.857500", "143729.317500", "143729.777500", "143730.237500", "143730.697500", "143731.157500", "143731.617500", "143732.077500", "143732.537500", "143732.997500", "143733.457500", "143733.917500", "143734.377500", "143734.837500", "143735.297500", "143735.757500", "143736.217500", "143736.677500", "143737.137500", "143737.597500", "143738.057500", "143738.517500", "143738.977500", "143739.437500", "143739.897500", "143740.357500", "143740.817500", "143741.277500", "143741.737500", "143742.197500", "143742.657500", "143743.117500", "143743.577500", "143744.037500", "143744.497500", "143744.957500", "143745.417500", "143745.877500", "143746.337500", "143746.797500", "143747.257500", "143747.717500", "143748.177500", "143748.637500", "143749.097500", "143749.557500", "143750.017500", "143750.477500", "143750.937500", "143751.397500", "143751.857500", "143752.317500", "143752.777500", "143753.237500", "143753.697500", "143754.157500", "143754.617500", "143755.077500", "143755.537500", "143755.997500", "143756.457500", "143756.917500", "143757.377500", "143757.837500", "143758.297500", "143758.757500", "143759.217500", "143759.677500", "143800.137500", "143800.597500", "143801.057500", "143801.517500", "143801.977500", "143802.437500", "143802.897500", "143803.357500", "143803.817500", "143804.277500", "143804.737500", "143805.197500", "143805.657500", "143806.117500", "143806.577500", "143807.037500", "143807.497500", "143807.957500", "143808.417500", "143808.877500", "143809.337500", "143809.797500", "143810.257500", "143810.717500", "143811.177500", "143811.637500", "143812.097500", "143812.557500", "143813.017500", "143813.477500", "143813.937500", "143814.397500", "143814.857500", "143815.317500", "143815.777500", "143816.237500", "143816.697500", "143817.157500", "143817.617500", "143818.077500", "143818.537500", "143818.997500", "143819.457500", "143819.917500", "143820.377500", "143820.837500", "143821.297500", "143821.757500", "143822.217500", "143822.677500", "143823.137500", "143823.597500", "143824.057500", "143824.517500", "143824.977500", "143825.437500", "143825.897500", "143826.357500", "143826.817500", "143827.277500", "143827.737500", "143828.197500", "143828.657500", "143829.117500", "143829.577500", "143830.037500", "143830.497500", "143830.957500", "143831.417500", "143831.877500", "143832.337500", "143832.797500", "143833.257500", "143833.717500", "143834.177500", "143834.637500", "143835.097500", "143835.557500", "143836.017500", "143836.477500", "143836.937500", "143837.397500", "143837.857500", "143838.317500", "143838.777500", "143839.237500", "143839.697500", "143840.157500", "143840.617500", "143841.077500", "143841.537500", "143841.997500", "143842.457500", "143842.917500", "143843.377500", "143843.837500", "143844.297500", "143844.757500", "143845.217500", "143845.677500", "143846.137500", "143846.597500", "143847.057500", "143847.517500", "143847.977500", "143848.437500", "143848.897500", "143849.357500", "143849.817500", "143850.277500", "143850.737500", "143851.197500", "143851.657500", "143852.117500", "143852.577500", "143853.037500", "143853.497500", "143853.957500", "143854.417500", "143854.877500", "143855.337500", "143855.797500", "143856.257500", "143856.717500", "143857.177500", "143857.637500", "143858.097500", "143858.557500", "143859.017500", "143859.477500", "143859.937500", "143900.397500", "143900.857500", "143901.317500", "143901.777500", "143902.237500", "143902.697500", "143903.157500", "143903.617500", "143904.077500", "143904.537500", "143904.997500", "143905.457500", "143905.917500", "143906.377500", "143906.837500", "143907.297500", "143907.757500", "143908.217500", "143908.677500", "143909.137500", "143909.597500", "143910.057500", "143910.517500", "143910.977500", "143911.437500", "143911.897500", "143912.357500", "143912.817500", "143913.277500", "143913.737500", "143914.197500", "143914.657500", "143915.117500", "143915.577500", "143916.037500", "143916.497500", "143916.957500", "143917.417500", "143917.877500", "143918.337500", "143918.797500", "143919.257500", "143919.717500", "143920.177500", "143920.637500", "143921.097500", "143921.557500", "143922.017500", "143922.477500", "143922.937500", "143923.397500", "143923.857500", "143924.317500", "143924.777500", "143925.237500", "143925.697500", "143926.157500", "143926.617500", "143927.077500", "143927.537500", "143927.997500", "143928.457500", "143928.917500", "143929.377500", "143929.837500", "143930.297500", "143930.757500", "143931.217500", "143931.677500", "143932.137500", "143932.597500", "143933.057500", "143933.517500", "143933.977500", "143934.437500", "143934.897500", "143935.357500", "143935.817500", "143936.277500", "143936.737500", "143937.197500", "143937.657500", "143938.117500", "143938.577500", "143939.037500", "143939.497500", "143939.957500", "143940.417500", "143940.877500", "143941.337500", "143941.797500", "143942.257500", "143942.717500", "143943.177500", "143943.637500", "143944.097500", "143944.557500", "143945.017500", "143945.477500", "143945.937500", "143946.397500", "143946.857500", "143947.317500", "143947.777500", "143948.237500", "143948.697500", "143949.157500", "143949.617500", "143950.077500", "143950.537500", "143950.997500", "143951.457500", "143951.917500", "143952.377500", "143952.837500", "143953.297500", "143953.757500", "143954.217500", "143954.677500", "143955.137500", "143955.597500", "143956.057500", "143956.517500", "143956.977500", "143957.437500", "143957.897500", "143958.357500", "143958.817500", "143959.277500", "143959.737500", "144000.197500", "144000.657500", "144001.117500", "144001.577500", "144002.037500", "144002.497500", "144002.957500", "144003.417500", "144003.877500", "144004.337500", "144004.797500", "144005.257500", "144005.717500", "144006.177500", "144006.637500", "144007.097500", "144007.557500", "144008.017500", "144008.477500", "144008.937500", "144009.397500", "144009.857500", "144010.317500", "144010.777500", "144011.237500", "144011.697500", "144012.157500", "144012.617500", "144013.077500", "144013.537500", "144013.997500", "144014.457500", "144014.917500", "144015.377500", "144015.837500", "144016.297500", "144016.757500", "144017.217500", "144017.677500", "144018.137500", "144018.597500", "144019.057500", "144019.517500", "144019.977500", "144020.437500", "144020.897500", "144021.357500", "144021.817500", "144022.277500", "144022.737500", "144023.197500", "144023.657500", "144024.117500", "144024.577500", "144025.037500", "144025.497500", "144025.957500", "144026.417500", "144026.877500", "144027.337500", "144027.797500", "144028.257500", "144028.717500", "144029.177500", "144029.637500", "144030.097500", "144030.557500", "144031.017500", "144031.477500", "144031.937500", "144032.397500", "144032.857500", "144033.317500", "144033.777500", "144034.237500", "144034.697500", "144035.157500", "144035.617500", "144036.077500", "144036.537500", "144036.997500", "144037.457500", "144037.917500", "144038.377500", "144038.837500", "144039.297500", "144039.757500", "144040.217500", "144040.677500", "144041.137500", "144041.597500", "144042.057500", "144042.517500", "144042.977500", "144043.437500", "144043.897500", "144044.357500", "144044.817500", "144045.277500", "144045.737500", "144046.197500", "144046.657500", "144047.117500", "144047.577500", "144048.037500", "144048.497500", "144048.957500", "144049.417500", "144049.877500", "144050.337500", "144050.797500", "144051.257500", "144051.717500", "144052.177500", "144052.637500", "144053.097500", "144053.557500", "144054.017500", "144054.477500", "144054.937500", "144055.397500", "144055.857500", "144056.317500", "144056.777500", "144057.237500", "144057.697500", "144058.157500", "144058.617500", "144059.077500", "144059.537500", "144059.997500", "144100.457500", "144100.917500", "144101.377500", "144101.837500", "144102.297500", "144102.757500", "144103.217500", "144103.677500", "144104.137500", "144104.597500", "144105.057500", "144105.517500", "144105.977500", "144106.437500", "144106.897500", "144107.357500", "144107.817500", "144108.277500", "144108.737500", "144109.197500", "144109.657500", "144110.117500", "144110.577500", "144111.037500", "144111.497500", "144111.957500", "144112.417500", "144112.877500", "144113.337500", "144113.797500", "144114.257500", "144114.717500", "144115.177500", "144115.637500", "144116.097500", "144116.557500", "144117.017500", "144117.477500", "144117.937500", "144118.397500", "144118.857500", "144119.317500", "144119.777500", "144120.237500", "144120.697500", "144121.157500", "144121.617500", "144122.077500", "144122.537500", "144122.997500", "144123.457500", "144123.917500", "144124.377500", "144124.837500", "144125.297500", "144125.757500", "144126.217500", "144126.677500", "144127.137500", "144127.597500", "144128.057500", "144128.517500", "144128.977500", "144129.437500", "144129.897500", "144130.357500", "144130.817500", "144131.277500", "144131.737500", "144132.197500", "144132.657500", "144133.117500", "144133.577500", "144134.037500", "144134.497500", "144134.957500", "144135.417500", "144135.877500", "144136.337500", "144136.797500", "144137.257500", "144137.717500", "144138.177500", "144138.637500", "144139.097500", "144139.557500", "144140.017500", "144140.477500", "144140.937500", "144141.397500", "144141.857500", "144142.317500", "144142.777500", "144143.237500", "144143.697500", "144144.157500", "144144.617500", "144145.077500", "144145.537500", "144145.997500", "144146.457500", "144146.917500", "144147.377500", "144147.837500", "144148.297500", "144148.757500", "144149.217500", "144149.677500", "144150.137500", "144150.597500", "144151.057500", "144151.517500", "144151.977500", "144152.437500", "144152.897500", "144153.357500", "144153.817500", "144154.277500", "144154.737500", "144155.197500", "144155.657500", "144156.117500", "144156.577500", "144157.037500", "144157.497500", "144157.957500", "144158.417500", "144158.877500", "144159.337500", "144159.797500", "144200.257500", "144200.717500", "144201.177500", "144201.637500", "144202.097500", "144202.557500", "144203.017500", "144203.477500", "144203.937500", "144204.397500", "144204.857500", "144205.317500", "144205.777500", "144206.237500", "144206.697500", "144207.157500", "144207.617500", "144208.077500", "144208.537500", "144208.997500", "144209.457500", "144209.917500", "144210.377500", "144210.837500", "144211.297500", "144211.757500", "144212.217500", "144212.677500", "144213.137500", "144213.597500", "144214.057500", "144214.517500", "144214.977500", "144215.437500", "144215.897500", "144216.357500", "144216.817500", "144217.277500", "144217.737500", "144218.197500", "144218.657500", "144219.117500", "144219.577500", "144220.037500", "144220.497500", "144220.957500", "144221.417500", "144221.877500", "144222.337500", "144222.797500", "144223.257500", "144223.717500", "144224.177500", "144224.637500", "144225.097500", "144225.557500", "144226.017500", "144226.477500", "144226.937500", "144227.397500", "144227.857500", "144228.317500", "144228.777500", "144229.237500", "144229.697500", "144230.157500", "144230.617500", "144231.077500", "144231.537500", "144231.997500", "144232.457500", "144232.917500", "144233.377500", "144233.837500", "144234.297500", "144234.757500", "144235.217500", "144235.677500", "144236.137500", "144236.597500", "144237.057500", "144237.517500", "144237.977500", "144238.437500", "144238.897500", "144239.357500", "144239.817500", "144240.277500", "144240.737500", "144241.197500", "144241.657500", "144242.117500", "144242.577500", "144243.037500", "144243.497500", "144243.957500", "144244.417500", "144244.877500", "144245.337500", "144245.797500", "144246.257500", "144246.717500", "144247.177500", "144247.637500", "144248.097500", "144248.557500", "144249.017500", "144249.477500", "144249.937500", "144250.397500", "144250.857500", "144251.317500", "144251.777500", "144252.237500", "144252.697500", "144253.157500", "144253.617500", "144254.077500", "144254.537500", "144254.997500", "144255.457500", "144255.917500", "144256.377500", "144256.837500", "144257.297500", "144257.757500", "144258.217500", "144258.677500", "144259.137500", "144259.597500", "144300.057500", "144300.517500", "144300.977500", "144301.437500", "144301.897500", "144302.357500", "144302.817500", "144303.277500", "144303.737500", "144304.197500", "144304.657500", "144305.117500", "144305.577500", "144306.037500", "144306.497500", "144306.957500", "144307.417500", "144307.877500", "144308.337500", "144308.797500", "144309.257500", "144309.717500", "144310.177500", "144310.637500", "144311.097500", "144311.557500", "144312.017500", "144312.477500", "144312.937500", "144313.397500", "144313.857500", "144314.317500", "144314.777500", "144315.237500", "144315.697500", "144316.157500", "144316.617500", "144317.077500", "144317.537500", "144317.997500", "144318.457500", "144318.917500", "144319.377500", "144319.837500", "144320.297500", "144320.757500", "144321.217500", "144321.677500", "144322.137500", "144322.597500", "144323.057500", "144323.517500", "144323.977500", "144324.437500", "144324.897500", "144325.357500", "144325.817500", "144326.277500", "144326.737500", "144327.197500", "144327.657500", "144328.117500", "144328.577500", "144329.037500", "144329.497500", "144329.957500", "144330.417500", "144330.877500", "144331.337500", "144331.797500", "144332.257500", "144332.717500", "144333.177500", "144333.637500", "144334.097500", "144334.557500", "144335.017500", "144335.477500", "144335.937500", "144336.397500", "144336.857500", "144337.317500", "144337.777500", "144338.237500", "144338.697500", "144339.157500", "144339.617500", "144340.077500", "144340.537500", "144340.997500", "144341.457500", "144341.917500", "144342.377500", "144342.837500", "144343.297500", "144343.757500", "144344.217500", "144344.677500", "144345.137500", "144345.597500", "144346.057500", "144346.517500", "144346.977500", "144347.437500", "144347.897500", "144348.357500", "144348.817500", "144349.277500", "144349.737500", "144350.197500", "144350.657500", "144351.117500", "144351.577500"],
