{
  "AcquisitionMatrixPE": 82,
  "AcquisitionNumber": 1,
  "AcquisitionTime": "13:29:6.037500",
  "BandwidthPerPixelPhaseEncode": 24.888,
  "BaseResolution": 82,
  "BodyPartExamined": "BRAIN",
  "ConsistencyInfo": "N4_VE11E_LATEST_20181129",
  "ConversionSoftware": "dcm2niix",
  "ConversionSoftwareVersion": "v1.0.20201102",
  "DerivedVendorReportedEchoSpacing": 0.00049,
  "DeviceSerialNumber": "66112",
  "DwellTime": 2e-06,
  "EchoTime": 0.0272,
  "EchoTrainLength": 82,
  "EffectiveEchoSpacing": 0.00049,
  "FlipAngle": 44,
  "ImageComments": "Unaliased MB8/PE3",
  "ImageOrientationPatientDICOM": [0.999029, 0.0372372, 0.0235633, -0.0420464, 0.965547, 0.25681],
  "ImageType": [
    "ORIGINAL",
    "PRIMARY",
    "M",
    "MB",
    "ND",
    "NORM",
    "MOSAIC"
],
  "ImagingFrequency": 123.252,
  "InPlanePhaseEncodingDirectionDICOM": "COL",
  "InstitutionAddress": "Maynard 3,Hanover,NH,US,03755",
  "InstitutionName": "Dartmouth College - PBS",
  "InstitutionalDepartmentName": "Department",
  "MRAcquisitionType": "2D",
  "MagneticFieldStrength": 3,
  "Manufacturer": "Siemens",
  "ManufacturersModelName": "Prisma",
  "Modality": "MR",
  "MultibandAccelerationFactor": 8,
  "PartialFourier": 1,
  "PatientPosition": "HFS",
  "PercentPhaseFOV": 100,
  "PercentSampling": 100,
  "PhaseEncodingDirection": "j-",
  "PhaseEncodingSteps": 82,
  "PhaseResolution": 1,
  "PixelBandwidth": 3050,
  "ProcedureStepDescription": "Wager_Wager^1076_spacetop",
  "ProtocolName": "func_run-03_task-social_acq-ap-mb8",
  "PulseSequenceDetails": "%CustomerSeq%\\cmrr_mbep2d_bold",
  "ReceiveCoilActiveElements": "HEA;HEP",
  "ReceiveCoilName": "Head_32",
  "ReconMatrixPE": 82,
  "RepetitionTime": 0.46,
  "SAR": 0.101901,
  "ScanOptions": "FS",
  "ScanningSequence": "EP",
  "SequenceName": "epfid2d1_82",
  "SequenceVariant": "SK\\SS",
  "SeriesDescription": "func_run-03_task-social_acq-ap-mb8",
  "SeriesNumber": 12,
  "ShimSetting": [4137, -7804, -7254, 618, -102, -145, 36, 104],
  "SliceThickness": 2.7,
  "SliceTiming": [0, 0.25, 0.0625, 0.3125, 0.125, 0.375, 0.1875, 0, 0.25, 0.0625, 0.3125, 0.125, 0.375, 0.1875, 0, 0.25, 0.0625, 0.3125, 0.125, 0.375, 0.1875, 0, 0.25, 0.0625, 0.3125, 0.125, 0.375, 0.1875, 0, 0.25, 0.0625, 0.3125, 0.125, 0.375, 0.1875, 0, 0.25, 0.0625, 0.3125, 0.125, 0.375, 0.1875, 0, 0.25, 0.0625, 0.3125, 0.125, 0.375, 0.1875, 0, 0.25, 0.0625, 0.3125, 0.125, 0.375, 0.1875],
  "SoftwareVersions": "syngo MR E11",
  "SpacingBetweenSlices": 2.7,
  "StationName": "AWP66112",
  "TaskName": "social",
  "TotalReadoutTime": 0.03969,
  "TxRefAmp": 252.789,
  "WipMemBlock": "947d6488-929e-446a-9c2d-8f2e161fc5a9||Sequence: R016 ve11e/master r/434b28f1; Aug  7 2019 18:53:46 by eja",
  "dcmmeta_affine": [
    [-2.6803207397460938, -0.11280731111764908, 0.03560922294855118, 116.3833999633789],
    [-0.0999046042561531, 2.590491771697998, 0.695387601852417, -98.19359588623047],
    [0.0632186010479927, -0.6890016198158264, 2.6086716651916504, -36.97489547729492],
    [0.0, 0.0, 0.0, 1.0]
],
  "dcmmeta_reorient_transform": [
    [0.0, -1.0, 0.0, 81.0],
    [1.0, 0.0, 0.0, 0.0],
    [0.0, 0.0, 1.0, 0.0],
    [0.0, 0.0, 0.0, 1.0]
],
  "dcmmeta_shape": [82, 82, 56, 872],
  "dcmmeta_slice_dim": 2,
  "dcmmeta_version": 0.6,
  "global": {
    "const": {
      "AccessionNumber": "A003932",
      "AcquisitionMatrix": [82, 0, 0, 82],
      "AngioFlag": "N",
      "BitsAllocated": 16,
      "BitsStored": 16,
      "BodyPartExamined": "BRAIN",
      "Columns": 656,
      "EchoNumbers": 1,
      "EchoTime": 27.2,
      "EchoTrainLength": 82,
      "FlipAngle": 44.0,
      "HighBit": 15,
      "ImageOrientationPatient": [0.99902861032554, 0.03723717024961, 0.02356329566965, -0.0420463616429, 0.96554693793894, 0.2568096846097],
      "ImagePositionPatient": [-844.12235330672, -883.7800223406, -308.67122550704],
      "ImageType": [
        "ORIGINAL",
        "PRIMARY",
        "M",
        "MB",
        "ND",
        "NORM",
        "MOSAIC"
],
      "ImagedNucleus": "1H",
      "ImagingFrequency": 123.252175,
      "InPlanePhaseEncodingDirection": "COL",
      "MRAcquisitionType": "2D",
      "MagneticFieldStrength": 3.0,
      "Manufacturer": "SIEMENS",
      "ManufacturerModelName": "Prisma",
      "Modality": "MR",
      "NumberOfAverages": 1.0,
      "NumberOfPhaseEncodingSteps": 82,
      "PercentPhaseFieldOfView": 100.0,
      "PercentSampling": 100.0,
      "PerformedProcedureStepStartTime": "130600.122000",
      "PhotometricInterpretation": "MONOCHROME2",
      "PixelBandwidth": 3050.0,
      "PixelRepresentation": 0,
      "PixelSpacing": [2.6829268932343, 2.6829268932343],
      "ProtocolName": "func_run-03_task-social_acq-ap-mb8",
      "RepetitionTime": 460.0,
      "Rows": 656,
      "SAR": 0.1019008523611,
      "SamplesPerPixel": 1,
      "ScanOptions": "FS",
      "ScanningSequence": "EP",
      "SequenceName": "epfid2d1_82",
      "SequenceVariant": [
        "SK",
        "SS"
],
      "SeriesDescription": "func_run-03_task-social_acq-ap-mb8",
      "SeriesNumber": 12,
      "SeriesTime": "132916.980000",
      "SliceLocation": -59.479131051101,
      "SliceThickness": 2.7000000476837,
      "SmallestImagePixelValue": 0,
      "SoftwareVersions": "syngo MR E11",
      "SpacingBetweenSlices": 2.6999999417506,
      "SpecificCharacterSet": "ISO_IR 100",
      "StudyID": "2",
      "StudyTime": "130600.064000",
      "TransmitCoilName": "Body",
      "VariableFlipAngleFlag": "N",
      "WindowCenterWidthExplanation": "Algo1"
    },
    "slices": {}
  },
  "time": {
    "samples": {
      "AcquisitionNumber": [1, 2, 3, 4, 5, 6, 7, 8, 9, 10, 11, 12, 13, 14, 15, 16, 17, 18, 19, 20, 21, 22, 23, 24, 25, 26, 27, 28, 29, 30, 31, 32, 33, 34, 35, 36, 37, 38, 39, 40, 41, 42, 43, 44, 45, 46, 47, 48, 49, 50, 51, 52, 53, 54, 55, 56, 57, 58, 59, 60, 61, 62, 63, 64, 65, 66, 67, 68, 69, 70, 71, 72, 73, 74, 75, 76, 77, 78, 79, 80, 81, 82, 83, 84, 85, 86, 87, 88, 89, 90, 91, 92, 93, 94, 95, 96, 97, 98, 99, 100, 101, 102, 103, 104, 105, 106, 107, 108, 109, 110, 111, 112, 113, 114, 115, 116, 117, 118, 119, 120, 121, 122, 123, 124, 125, 126, 127, 128, 129, 130, 131, 132, 133, 134, 135, 136, 137, 138, 139, 140, 141, 142, 143, 144, 145, 146, 147, 148, 149, 150, 151, 152, 153, 154, 155, 156, 157, 158, 159, 160, 161, 162, 163, 164, 165, 166, 167, 168, 169, 170, 171, 172, 173, 174, 175, 176, 177, 178, 179, 180, 181, 182, 183, 184, 185, 186, 187, 188, 189, 190, 191, 192, 193, 194, 195, 196, 197, 198, 199, 200, 201, 202, 203, 204, 205, 206, 207, 208, 209, 210, 211, 212, 213, 214, 215, 216, 217, 218, 219, 220, 221, 222, 223, 224, 225, 226, 227, 228, 229, 230, 231, 232, 233, 234, 235, 236, 237, 238, 239, 240, 241, 242, 243, 244, 245, 246, 247, 248, 249, 250, 251, 252, 253, 254, 255, 256, 257, 258, 259, 260, 261, 262, 263, 264, 265, 266, 267, 268, 269, 270, 271, 272, 273, 274, 275, 276, 277, 278, 279, 280, 281, 282, 283, 284, 285, 286, 287, 288, 289, 290, 291, 292, 293, 294, 295, 296, 297, 298, 299, 300, 301, 302, 303, 304, 305, 306, 307, 308, 309, 310, 311, 312, 313, 314, 315, 316, 317, 318, 319, 320, 321, 322, 323, 324, 325, 326, 327, 328, 329, 330, 331, 332, 333, 334, 335, 336, 337, 338, 339, 340, 341, 342, 343, 344, 345, 346, 347, 348, 349, 350, 351, 352, 353, 354, 355, 356, 357, 358, 359, 360, 361, 362, 363, 364, 365, 366, 367, 368, 369, 370, 371, 372, 373, 374, 375, 376, 377, 378, 379, 380, 381, 382, 383, 384, 385, 386, 387, 388, 389, 390, 391, 392, 393, 394, 395, 396, 397, 398, 399, 400, 401, 402, 403, 404, 405, 406, 407, 408, 409, 410, 411, 412, 413, 414, 415, 416, 417, 418, 419, 420, 421, 422, 423, 424, 425, 426, 427, 428, 429, 430, 431, 432, 433, 434, 435, 436, 437, 438, 439, 440, 441, 442, 443, 444, 445, 446, 447, 448, 449, 450, 451, 452, 453, 454, 455, 456, 457, 458, 459, 460, 461, 462, 463, 464, 465, 466, 467, 468, 469, 470, 471, 472, 473, 474, 475, 476, 477, 478, 479, 480, 481, 482, 483, 484, 485, 486, 487, 488, 489, 490, 491, 492, 493, 494, 495, 496, 497, 498, 499, 500, 501, 502, 503, 504, 505, 506, 507, 508, 509, 510, 511, 512, 513, 514, 515, 516, 517, 518, 519, 520, 521, 522, 523, 524, 525, 526, 527, 528, 529, 530, 531, 532, 533, 534, 535, 536, 537, 538, 539, 540, 541, 542, 543, 544, 545, 546, 547, 548, 549, 550, 551, 552, 553, 554, 555, 556, 557, 558, 559, 560, 561, 562, 563, 564, 565, 566, 567, 568, 569, 570, 571, 572, 573, 574, 575, 576, 577, 578, 579, 580, 581, 582, 583, 584, 585, 586, 587, 588, 589, 590, 591, 592, 593, 594, 595, 596, 597, 598, 599, 600, 601, 602, 603, 604, 605, 606, 607, 608, 609, 610, 611, 612, 613, 614, 615, 616, 617, 618, 619, 620, 621, 622, 623, 624, 625, 626, 627, 628, 629, 630, 631, 632, 633, 634, 635, 636, 637, 638, 639, 640, 641, 642, 643, 644, 645, 646, 647, 648, 649, 650, 651, 652, 653, 654, 655, 656, 657, 658, 659, 660, 661, 662, 663, 664, 665, 666, 667, 668, 669, 670, 671, 672, 673, 674, 675, 676, 677, 678, 679, 680, 681, 682, 683, 684, 685, 686, 687, 688, 689, 690, 691, 692, 693, 694, 695, 696, 697, 698, 699, 700, 701, 702, 703, 704, 705, 706, 707, 708, 709, 710, 711, 712, 713, 714, 715, 716, 717, 718, 719, 720, 721, 722, 723, 724, 725, 726, 727, 728, 729, 730, 731, 732, 733, 734, 735, 736, 737, 738, 739, 740, 741, 742, 743, 744, 745, 746, 747, 748, 749, 750, 751, 752, 753, 754, 755, 756, 757, 758, 759, 760, 761, 762, 763, 764, 765, 766, 767, 768, 769, 770, 771, 772, 773, 774, 775, 776, 777, 778, 779, 780, 781, 782, 783, 784, 785, 786, 787, 788, 789, 790, 791, 792, 793, 794, 795, 796, 797, 798, 799, 800, 801, 802, 803, 804, 805, 806, 807, 808, 809, 810, 811, 812, 813, 814, 815, 816, 817, 818, 819, 820, 821, 822, 823, 824, 825, 826, 827, 828, 829, 830, 831, 832, 833, 834, 835, 836, 837, 838, 839, 840, 841, 842, 843, 844, 845, 846, 847, 848, 849, 850, 851, 852, 853, 854, 855, 856, 857, 858, 859, 860, 861, 862, 863, 864, 865, 866, 867, 868, 869, 870, 871, 872],
      "AcquisitionTime": ["132906.037500", "132906.497500", "132906.957500", "132907.417500", "132907.877500", "132908.337500", "132908.797500", "132909.257500", "132909.717500", "132910.177500", "132910.637500", "132911.097500", "132911.557500", "132912.017500", "132912.477500", "132912.937500", "132913.397500", "132913.857500", "132914.317500", "132914.777500", "132915.237500", "132915.697500", "132916.157500", "132916.617500", "132917.077500", "132917.537500", "132917.997500", "132918.457500", "132918.917500", "132919.377500", "132919.837500", "132920.297500", "132920.757500", "132921.217500", "132921.677500", "132922.137500", "132922.597500", "132923.057500", "132923.517500", "132923.977500", "132924.437500", "132924.897500", "132925.357500", "132925.817500", "132926.277500", "132926.737500", "132927.197500", "132927.657500", "132928.117500", "132928.577500", "132929.037500", "132929.497500", "132929.957500", "132930.417500", "132930.877500", "132931.337500", "132931.797500", "132932.257500", "132932.717500", "132933.177500", "132933.637500", "132934.097500", "132934.557500", "132935.017500", "132935.477500", "132935.937500", "132936.397500", "132936.857500", "132937.317500", "132937.777500", "132938.237500", "132938.697500", "132939.157500", "132939.617500", "132940.077500", "132940.537500", "132940.997500", "132941.457500", "132941.917500", "132942.377500", "132942.837500", "132943.297500", "132943.757500", "132944.217500", "132944.677500", "132945.137500", "132945.597500", "132946.057500", "132946.517500", "132946.977500", "132947.437500", "132947.897500", "132948.357500", "132948.817500", "132949.277500", "132949.737500", "132950.197500", "132950.657500", "132951.117500", "132951.577500", "132952.037500", "132952.497500", "132952.957500", "132953.417500", "132953.877500", "132954.337500", "132954.797500", "132955.257500", "132955.717500", "132956.177500", "132956.637500", "132957.097500", "132957.557500", "132958.017500", "132958.477500", "132958.937500", "132959.397500", "132959.857500", "133000.317500", "133000.777500", "133001.237500", "133001.697500", "133002.157500", "133002.617500", "133003.077500", "133003.537500", "133003.997500", "133004.457500", "133004.917500", "133005.377500", "133005.837500", "133006.297500", "133006.757500", "133007.217500", "133007.677500", "133008.137500", "133008.597500", "133009.057500", "133009.517500", "133009.977500", "133010.437500", "133010.897500", "133011.357500", "133011.817500", "133012.277500", "133012.737500", "133013.197500", "133013.657500", "133014.117500", "133014.577500", "133015.037500", "133015.497500", "133015.957500", "133016.417500", "133016.877500", "133017.337500", "133017.797500", "133018.257500", "133018.717500", "133019.177500", "133019.637500", "133020.097500", "133020.557500", "133021.017500", "133021.477500", "133021.937500", "133022.397500", "133022.857500", "133023.317500", "133023.777500", "133024.237500", "133024.697500", "133025.157500", "133025.617500", "133026.077500", "133026.537500", "133026.997500", "133027.457500", "133027.917500", "133028.377500", "133028.837500", "133029.297500", "133029.757500", "133030.217500", "133030.677500", "133031.137500", "133031.597500", "133032.057500", "133032.517500", "133032.977500", "133033.437500", "133033.897500", "133034.357500", "133034.817500", "133035.277500", "133035.737500", "133036.197500", "133036.657500", "133037.117500", "133037.577500", "133038.037500", "133038.497500", "133038.957500", "133039.417500", "133039.877500", "133040.337500", "133040.797500", "133041.257500", "133041.717500", "133042.177500", "133042.637500", "133043.097500", "133043.557500", "133044.017500", "133044.477500", "133044.937500", "133045.397500", "133045.857500", "133046.317500", "133046.777500", "133047.237500", "133047.697500", "133048.157500", "133048.617500", "133049.077500", "133049.537500", "133049.997500", "133050.457500", "133050.917500", "133051.377500", "133051.837500", "133052.297500", "133052.757500", "133053.217500", "133053.677500", "133054.137500", "133054.597500", "133055.057500", "133055.517500", "133055.977500", "133056.437500", "133056.897500", "133057.357500", "133057.817500", "133058.277500", "133058.737500", "133059.197500", "133059.657500", "133100.117500", "133100.577500", "133101.037500", "133101.497500", "133101.957500", "133102.417500", "133102.877500", "133103.337500", "133103.797500", "133104.257500", "133104.717500", "133105.177500", "133105.637500", "133106.097500", "133106.557500", "133107.017500", "133107.477500", "133107.937500", "133108.397500", "133108.857500", "133109.317500", "133109.777500", "133110.237500", "133110.697500", "133111.157500", "133111.617500", "133112.077500", "133112.537500", "133112.997500", "133113.457500", "133113.917500", "133114.377500", "133114.837500", "133115.297500", "133115.757500", "133116.217500", "133116.677500", "133117.137500", "133117.597500", "133118.057500", "133118.517500", "133118.977500", "133119.437500", "133119.897500", "133120.357500", "133120.817500", "133121.277500", "133121.737500", "133122.197500", "133122.657500", "133123.117500", "133123.577500", "133124.037500", "133124.497500", "133124.957500", "133125.417500", "133125.877500", "133126.337500", "133126.797500", "133127.257500", "133127.717500", "133128.177500", "133128.637500", "133129.097500", "133129.557500", "133130.017500", "133130.477500", "133130.937500", "133131.397500", "133131.857500", "133132.317500", "133132.777500", "133133.237500", "133133.697500", "133134.157500", "133134.617500", "133135.077500", "133135.537500", "133135.997500", "133136.457500", "133136.917500", "133137.377500", "133137.837500", "133138.297500", "133138.757500", "133139.217500", "133139.677500", "133140.137500", "133140.597500", "133141.057500", "133141.517500", "133141.977500", "133142.437500", "133142.897500", "133143.357500", "133143.817500", "133144.277500", "133144.737500", "133145.197500", "133145.657500", "133146.117500", "133146.577500", "133147.037500", "133147.497500", "133147.957500", "133148.417500", "133148.877500", "133149.337500", "133149.797500", "133150.257500", "133150.717500", "133151.177500", "133151.637500", "133152.097500", "133152.557500", "133153.017500", "133153.477500", "133153.937500", "133154.397500", "133154.857500", "133155.317500", "133155.777500", "133156.237500", "133156.697500", "133157.157500", "133157.617500", "133158.077500", "133158.537500", "133158.997500", "133159.457500", "133159.917500", "133200.377500", "133200.837500", "133201.297500", "133201.757500", "133202.217500", "133202.677500", "133203.137500", "133203.597500", "133204.057500", "133204.517500", "133204.977500", "133205.437500", "133205.897500", "133206.357500", "133206.817500", "133207.277500", "133207.737500", "133208.197500", "133208.657500", "133209.117500", "133209.577500", "133210.037500", "133210.497500", "133210.957500", "133211.417500", "133211.877500", "133212.337500", "133212.797500", "133213.257500", "133213.717500", "133214.177500", "133214.637500", "133215.097500", "133215.557500", "133216.017500", "133216.477500", "133216.937500", "133217.397500", "133217.857500", "133218.317500", "133218.777500", "133219.237500", "133219.697500", "133220.157500", "133220.617500", "133221.077500", "133221.537500", "133221.997500", "133222.457500", "133222.917500", "133223.377500", "133223.837500", "133224.297500", "133224.757500", "133225.217500", "133225.677500", "133226.137500", "133226.597500", "133227.057500", "133227.517500", "133227.977500", "133228.437500", "133228.897500", "133229.357500", "133229.817500", "133230.277500", "133230.737500", "133231.197500", "133231.657500", "133232.117500", "133232.577500", "133233.037500", "133233.497500", "133233.957500", "133234.417500", "133234.877500", "133235.337500", "133235.797500", "133236.257500", "133236.717500", "133237.177500", "133237.637500", "133238.097500", "133238.557500", "133239.017500", "133239.477500", "133239.937500", "133240.397500", "133240.857500", "133241.317500", "133241.777500", "133242.237500", "133242.697500", "133243.157500", "133243.617500", "133244.077500", "133244.537500", "133244.997500", "133245.457500", "133245.917500", "133246.377500", "133246.837500", "133247.297500", "133247.757500", "133248.217500", "133248.677500", "133249.137500", "133249.597500", "133250.057500", "133250.517500", "133250.977500", "133251.437500", "133251.897500", "133252.357500", "133252.817500", "133253.277500", "133253.737500", "133254.197500", "133254.657500", "133255.117500", "133255.577500", "133256.037500", "133256.497500", "133256.957500", "133257.417500", "133257.877500", "133258.337500", "133258.797500", "133259.257500", "133259.717500", "133300.177500", "133300.637500", "133301.097500", "133301.557500", "133302.017500", "133302.477500", "133302.937500", "133303.397500", "133303.857500", "133304.317500", "133304.777500", "133305.237500", "133305.697500", "133306.157500", "133306.617500", "133307.077500", "133307.537500", "133307.997500", "133308.457500", "133308.917500", "133309.377500", "133309.837500", "133310.297500", "133310.757500", "133311.217500", "133311.677500", "133312.137500", "133312.597500", "133313.057500", "133313.517500", "133313.977500", "133314.437500", "133314.897500", "133315.357500", "133315.817500", "133316.277500", "133316.737500", "133317.197500", "133317.657500", "133318.117500", "133318.577500", "133319.037500", "133319.497500", "133319.957500", "133320.417500", "133320.877500", "133321.337500", "133321.797500", "133322.257500", "133322.717500", "133323.177500", "133323.637500", "133324.097500", "133324.557500", "133325.017500", "133325.477500", "133325.937500", "133326.397500", "133326.857500", "133327.317500", "133327.777500", "133328.237500", "133328.697500", "133329.157500", "133329.617500", "133330.077500", "133330.537500", "133330.997500", "133331.457500", "133331.917500", "133332.377500", "133332.837500", "133333.297500", "133333.757500", "133334.217500", "133334.677500", "133335.137500", "133335.597500", "133336.057500", "133336.517500", "133336.977500", "133337.437500", "133337.897500", "133338.357500", "133338.817500", "133339.277500", "133339.737500", "133340.197500", "133340.657500", "133341.117500", "133341.577500", "133342.037500", "133342.497500", "133342.957500", "133343.417500", "133343.877500", "133344.337500", "133344.797500", "133345.257500", "133345.717500", "133346.177500", "133346.637500", "133347.097500", "133347.557500", "133348.017500", "133348.477500", "133348.937500", "133349.397500", "133349.857500", "133350.317500", "133350.777500", "133351.237500", "133351.697500", "133352.157500", "133352.617500", "133353.077500", "133353.537500", "133353.997500", "133354.457500", "133354.917500", "133355.377500", "133355.837500", "133356.297500", "133356.757500", "133357.217500", "133357.677500", "133358.137500", "133358.597500", "133359.057500", "133359.517500", "133359.977500", "133400.437500", "133400.897500", "133401.357500", "133401.817500", "133402.277500", "133402.737500", "133403.197500", "133403.657500", "133404.117500", "133404.577500", "133405.037500", "133405.497500", "133405.957500", "133406.417500", "133406.877500", "133407.337500", "133407.797500", "133408.257500", "133408.717500", "133409.177500", "133409.637500", "133410.097500", "133410.557500", "133411.017500", "133411.477500", "133411.937500", "133412.397500", "133412.857500", "133413.317500", "133413.777500", "133414.237500", "133414.697500", "133415.157500", "133415.617500", "133416.077500", "133416.537500", "133416.997500", "133417.457500", "133417.917500", "133418.377500", "133418.837500", "133419.297500", "133419.757500", "133420.217500", "133420.677500", "133421.137500", "133421.597500", "133422.057500", "133422.517500", "133422.977500", "133423.437500", "133423.897500", "133424.357500", "133424.817500", "133425.277500", "133425.737500", "133426.197500", "133426.657500", "133427.117500", "133427.577500", "133428.037500", "133428.497500", "133428.957500", "133429.417500", "133429.877500", "133430.337500", "133430.797500", "133431.257500", "133431.717500", "133432.177500", "133432.637500", "133433.097500", "133433.557500", "133434.017500", "133434.477500", "133434.937500", "133435.397500", "133435.857500", "133436.317500", "133436.777500", "133437.237500", "133437.697500", "133438.157500", "133438.617500", "133439.077500", "133439.537500", "133439.997500", "133440.457500", "133440.917500", "133441.377500", "133441.837500", "133442.297500", "133442.757500", "133443.217500", "133443.677500", "133444.137500", "133444.597500", "133445.057500", "133445.517500", "133445.977500", "133446.437500", "133446.897500", "133447.357500", "133447.817500", "133448.277500", "133448.737500", "133449.197500", "133449.657500", "133450.117500", "133450.577500", "133451.037500", "133451.497500", "133451.957500", "133452.417500", "133452.877500", "133453.337500", "133453.797500", "133454.257500", "133454.717500", "133455.177500", "133455.637500", "133456.097500", "133456.557500", "133457.017500", "133457.477500", "133457.937500", "133458.397500", "133458.857500", "133459.317500", "133459.777500", "133500.237500", "133500.697500", "133501.157500", "133501.617500", "133502.077500", "133502.537500", "133502.997500", "133503.457500", "133503.917500", "133504.377500", "133504.837500", "133505.297500", "133505.757500", "133506.217500", "133506.677500", "133507.137500", "133507.597500", "133508.057500", "133508.517500", "133508.977500", "133509.437500", "133509.897500", "133510.357500", "133510.817500", "133511.277500", "133511.737500", "133512.197500", "133512.657500", "133513.117500", "133513.577500", "133514.037500", "133514.497500", "133514.957500", "133515.417500", "133515.877500", "133516.337500", "133516.797500", "133517.257500", "133517.717500", "133518.177500", "133518.637500", "133519.097500", "133519.557500", "133520.017500", "133520.477500", "133520.937500", "133521.397500", "133521.857500", "133522.317500", "133522.777500", "133523.237500", "133523.697500", "133524.157500", "133524.617500", "133525.077500", "133525.537500", "133525.997500", "133526.457500", "133526.917500", "133527.377500", "133527.837500", "133528.297500", "133528.757500", "133529.217500", "133529.677500", "133530.137500", "133530.597500", "133531.057500", "133531.517500", "133531.977500", "133532.437500", "133532.897500", "133533.357500", "133533.817500", "133534.277500", "133534.737500", "133535.197500", "133535.657500", "133536.117500", "133536.577500", "133537.037500", "133537.497500", "133537.957500", "133538.417500", "133538.877500", "133539.337500", "133539.797500", "133540.257500", "133540.717500", "133541.177500", "133541.637500", "133542.097500", "133542.557500", "133543.017500", "133543.477500", "133543.937500", "133544.397500", "133544.857500", "133545.317500", "133545.777500", "133546.237500", "133546.697500"],
