{
  "AcquisitionMatrixPE": 82,
  "AcquisitionNumber": 1,
  "AcquisitionTime": "13:52:15.882500",
  "BandwidthPerPixelPhaseEncode": 24.888,
  "BaseResolution": 82,
  "BodyPartExamined": "BRAIN",
  "ConsistencyInfo": "N4_VE11E_LATEST_20181129",
  "ConversionSoftware": "dcm2niix",
  "ConversionSoftwareVersion": "v1.0.20201102",
  "DerivedVendorReportedEchoSpacing": 0.00049,
  "DeviceSerialNumber": "66112",
  "DwellTime": 2e-06,
  "EchoTime": 0.0272,
  "EchoTrainLength": 82,
  "EffectiveEchoSpacing": 0.00049,
  "FlipAngle": 44,
  "ImageComments": "Unaliased MB8/PE3",
  "ImageOrientationPatientDICOM": [0.999029, 0.0372372, 0.0235633, -0.0420464, 0.965547, 0.25681],
  "ImageType": [
    "ORIGINAL",
    "PRIMARY",
    "M",
    "MB",
    "ND",
    "NORM",
    "MOSAIC"
],
  "ImagingFrequency": 123.252,
  "InPlanePhaseEncodingDirectionDICOM": "COL",
  "InstitutionAddress": "Maynard 3,Hanover,NH,US,03755",
  "InstitutionName": "Dartmouth College - PBS",
  "InstitutionalDepartmentName": "Department",
  "MRAcquisitionType": "2D",
  "MagneticFieldStrength": 3,
  "Manufacturer": "Siemens",
  "ManufacturersModelName": "Prisma",
  "Modality": "MR",
  "MultibandAccelerationFactor": 8,
  "PartialFourier": 1,
  "PatientPosition": "HFS",
  "PercentPhaseFOV": 100,
  "PercentSampling": 100,
  "PhaseEncodingDirection": "j-",
  "PhaseEncodingSteps": 82,
  "PhaseResolution": 1,
  "PixelBandwidth": 3050,
  "ProcedureStepDescription": "Wager_Wager^1076_spacetop",
  "ProtocolName": "func_run-06_task-social_acq-ap-mb8",
  "PulseSequenceDetails": "%CustomerSeq%\\cmrr_mbep2d_bold",
  "ReceiveCoilActiveElements": "HEA;HEP",
  "ReceiveCoilName": "Head_32",
  "ReconMatrixPE": 82,
  "RepetitionTime": 0.46,
  "SAR": 0.101901,
  "ScanOptions": "FS",
  "ScanningSequence": "EP",
  "SequenceName": "epfid2d1_82",
  "SequenceVariant": "SK\\SS",
  "SeriesDescription": "func_run-06_task-social_acq-ap-mb8",
  "SeriesNumber": 18,
  "ShimSetting": [4137, -7804, -7254, 618, -102, -145, 36, 104],
  "SliceThickness": 2.7,
  "SliceTiming": [0, 0.25, 0.0625, 0.315, 0.125, 0.3775, 0.1875, 0, 0.25, 0.0625, 0.315, 0.125, 0.3775, 0.1875, 0, 0.25, 0.0625, 0.315, 0.125, 0.3775, 0.1875, 0, 0.25, 0.0625, 0.315, 0.125, 0.3775, 0.1875, 0, 0.25, 0.0625, 0.315, 0.125, 0.3775, 0.1875, 0, 0.25, 0.0625, 0.315, 0.125, 0.3775, 0.1875, 0, 0.25, 0.0625, 0.315, 0.125, 0.3775, 0.1875, 0, 0.25, 0.0625, 0.315, 0.125, 0.3775, 0.1875],
  "SoftwareVersions": "syngo MR E11",
  "SpacingBetweenSlices": 2.7,
  "StationName": "AWP66112",
  "TaskName": "social",
  "TotalReadoutTime": 0.03969,
  "TxRefAmp": 252.789,
  "WipMemBlock": "cf9f35a1-5fb6-4ddb-8b9c-dc4a753b043f||Sequence: R016 ve11e/master r/434b28f1; Aug  7 2019 18:53:46 by eja",
  "dcmmeta_affine": [
    [-2.6803207397460938, -0.11280731111764908, 0.03560922294855118, 116.3833999633789],
    [-0.0999046042561531, 2.590491771697998, 0.695387601852417, -98.19359588623047],
    [0.0632186010479927, -0.6890016198158264, 2.6086716651916504, -36.97489547729492],
    [0.0, 0.0, 0.0, 1.0]
],
  "dcmmeta_reorient_transform": [
    [0.0, -1.0, 0.0, 81.0],
    [1.0, 0.0, 0.0, 0.0],
    [0.0, 0.0, 1.0, 0.0],
    [0.0, 0.0, 0.0, 1.0]
],
  "dcmmeta_shape": [82, 82, 56, 872],
  "dcmmeta_slice_dim": 2,
  "dcmmeta_version": 0.6,
  "global": {
    "const": {
      "AccessionNumber": "A003932",
      "AcquisitionMatrix": [82, 0, 0, 82],
      "AngioFlag": "N",
      "BitsAllocated": 16,
      "BitsStored": 16,
      "BodyPartExamined": "BRAIN",
      "Columns": 656,
      "EchoNumbers": 1,
      "EchoTime": 27.2,
      "EchoTrainLength": 82,
      "FlipAngle": 44.0,
      "HighBit": 15,
      "ImageOrientationPatient": [0.99902861032554, 0.03723717024961, 0.02356329566965, -0.0420463616429, 0.96554693793894, 0.2568096846097],
      "ImagePositionPatient": [-844.12235330672, -883.7800223406, -308.67122550704],
      "ImageType": [
        "ORIGINAL",
        "PRIMARY",
        "M",
        "MB",
        "ND",
        "NORM",
        "MOSAIC"
],
      "ImagedNucleus": "1H",
      "ImagingFrequency": 123.252178,
      "InPlanePhaseEncodingDirection": "COL",
      "MRAcquisitionType": "2D",
      "MagneticFieldStrength": 3.0,
      "Manufacturer": "SIEMENS",
      "ManufacturerModelName": "Prisma",
      "Modality": "MR",
      "NumberOfAverages": 1.0,
      "NumberOfPhaseEncodingSteps": 82,
      "PercentPhaseFieldOfView": 100.0,
      "PercentSampling": 100.0,
      "PerformedProcedureStepStartTime": "130600.122000",
      "PhotometricInterpretation": "MONOCHROME2",
      "PixelBandwidth": 3050.0,
      "PixelRepresentation": 0,
      "PixelSpacing": [2.6829268932343, 2.6829268932343],
      "ProtocolName": "func_run-06_task-social_acq-ap-mb8",
      "RepetitionTime": 460.0,
      "Rows": 656,
      "SAR": 0.1019008523611,
      "SamplesPerPixel": 1,
      "ScanOptions": "FS",
      "ScanningSequence": "EP",
      "SequenceName": "epfid2d1_82",
      "SequenceVariant": [
        "SK",
        "SS"
],
      "SeriesDescription": "func_run-06_task-social_acq-ap-mb8",
      "SeriesNumber": 18,
      "SeriesTime": "135236.985000",
      "SliceLocation": -59.479131051101,
      "SliceThickness": 2.7000000476837,
      "SmallestImagePixelValue": 0,
      "SoftwareVersions": "syngo MR E11",
      "SpacingBetweenSlices": 2.6999999417506,
      "SpecificCharacterSet": "ISO_IR 100",
      "StudyID": "2",
      "StudyTime": "130600.064000",
      "TransmitCoilName": "Body",
      "VariableFlipAngleFlag": "N",
      "WindowCenterWidthExplanation": "Algo1"
    },
    "slices": {}
  },
  "time": {
    "samples": {
      "AcquisitionNumber": [1, 2, 3, 4, 5, 6, 7, 8, 9, 10, 11, 12, 13, 14, 15, 16, 17, 18, 19, 20, 21, 22, 23, 24, 25, 26, 27, 28, 29, 30, 31, 32, 33, 34, 35, 36, 37, 38, 39, 40, 41, 42, 43, 44, 45, 46, 47, 48, 49, 50, 51, 52, 53, 54, 55, 56, 57, 58, 59, 60, 61, 62, 63, 64, 65, 66, 67, 68, 69, 70, 71, 72, 73, 74, 75, 76, 77, 78, 79, 80, 81, 82, 83, 84, 85, 86, 87, 88, 89, 90, 91, 92, 93, 94, 95, 96, 97, 98, 99, 100, 101, 102, 103, 104, 105, 106, 107, 108, 109, 110, 111, 112, 113, 114, 115, 116, 117, 118, 119, 120, 121, 122, 123, 124, 125, 126, 127, 128, 129, 130, 131, 132, 133, 134, 135, 136, 137, 138, 139, 140, 141, 142, 143, 144, 145, 146, 147, 148, 149, 150, 151, 152, 153, 154, 155, 156, 157, 158, 159, 160, 161, 162, 163, 164, 165, 166, 167, 168, 169, 170, 171, 172, 173, 174, 175, 176, 177, 178, 179, 180, 181, 182, 183, 184, 185, 186, 187, 188, 189, 190, 191, 192, 193, 194, 195, 196, 197, 198, 199, 200, 201, 202, 203, 204, 205, 206, 207, 208, 209, 210, 211, 212, 213, 214, 215, 216, 217, 218, 219, 220, 221, 222, 223, 224, 225, 226, 227, 228, 229, 230, 231, 232, 233, 234, 235, 236, 237, 238, 239, 240, 241, 242, 243, 244, 245, 246, 247, 248, 249, 250, 251, 252, 253, 254, 255, 256, 257, 258, 259, 260, 261, 262, 263, 264, 265, 266, 267, 268, 269, 270, 271, 272, 273, 274, 275, 276, 277, 278, 279, 280, 281, 282, 283, 284, 285, 286, 287, 288, 289, 290, 291, 292, 293, 294, 295, 296, 297, 298, 299, 300, 301, 302, 303, 304, 305, 306, 307, 308, 309, 310, 311, 312, 313, 314, 315, 316, 317, 318, 319, 320, 321, 322, 323, 324, 325, 326, 327, 328, 329, 330, 331, 332, 333, 334, 335, 336, 337, 338, 339, 340, 341, 342, 343, 344, 345, 346, 347, 348, 349, 350, 351, 352, 353, 354, 355, 356, 357, 358, 359, 360, 361, 362, 363, 364, 365, 366, 367, 368, 369, 370, 371, 372, 373, 374, 375, 376, 377, 378, 379, 380, 381, 382, 383, 384, 385, 386, 387, 388, 389, 390, 391, 392, 393, 394, 395, 396, 397, 398, 399, 400, 401, 402, 403, 404, 405, 406, 407, 408, 409, 410, 411, 412, 413, 414, 415, 416, 417, 418, 419, 420, 421, 422, 423, 424, 425, 426, 427, 428, 429, 430, 431, 432, 433, 434, 435, 436, 437, 438, 439, 440, 441, 442, 443, 444, 445, 446, 447, 448, 449, 450, 451, 452, 453, 454, 455, 456, 457, 458, 459, 460, 461, 462, 463, 464, 465, 466, 467, 468, 469, 470, 471, 472, 473, 474, 475, 476, 477, 478, 479, 480, 481, 482, 483, 484, 485, 486, 487, 488, 489, 490, 491, 492, 493, 494, 495, 496, 497, 498, 499, 500, 501, 502, 503, 504, 505, 506, 507, 508, 509, 510, 511, 512, 513, 514, 515, 516, 517, 518, 519, 520, 521, 522, 523, 524, 525, 526, 527, 528, 529, 530, 531, 532, 533, 534, 535, 536, 537, 538, 539, 540, 541, 542, 543, 544, 545, 546, 547, 548, 549, 550, 551, 552, 553, 554, 555, 556, 557, 558, 559, 560, 561, 562, 563, 564, 565, 566, 567, 568, 569, 570, 571, 572, 573, 574, 575, 576, 577, 578, 579, 580, 581, 582, 583, 584, 585, 586, 587, 588, 589, 590, 591, 592, 593, 594, 595, 596, 597, 598, 599, 600, 601, 602, 603, 604, 605, 606, 607, 608, 609, 610, 611, 612, 613, 614, 615, 616, 617, 618, 619, 620, 621, 622, 623, 624, 625, 626, 627, 628, 629, 630, 631, 632, 633, 634, 635, 636, 637, 638, 639, 640, 641, 642, 643, 644, 645, 646, 647, 648, 649, 650, 651, 652, 653, 654, 655, 656, 657, 658, 659, 660, 661, 662, 663, 664, 665, 666, 667, 668, 669, 670, 671, 672, 673, 674, 675, 676, 677, 678, 679, 680, 681, 682, 683, 684, 685, 686, 687, 688, 689, 690, 691, 692, 693, 694, 695, 696, 697, 698, 699, 700, 701, 702, 703, 704, 705, 706, 707, 708, 709, 710, 711, 712, 713, 714, 715, 716, 717, 718, 719, 720, 721, 722, 723, 724, 725, 726, 727, 728, 729, 730, 731, 732, 733, 734, 735, 736, 737, 738, 739, 740, 741, 742, 743, 744, 745, 746, 747, 748, 749, 750, 751, 752, 753, 754, 755, 756, 757, 758, 759, 760, 761, 762, 763, 764, 765, 766, 767, 768, 769, 770, 771, 772, 773, 774, 775, 776, 777, 778, 779, 780, 781, 782, 783, 784, 785, 786, 787, 788, 789, 790, 791, 792, 793, 794, 795, 796, 797, 798, 799, 800, 801, 802, 803, 804, 805, 806, 807, 808, 809, 810, 811, 812, 813, 814, 815, 816, 817, 818, 819, 820, 821, 822, 823, 824, 825, 826, 827, 828, 829, 830, 831, 832, 833, 834, 835, 836, 837, 838, 839, 840, 841, 842, 843, 844, 845, 846, 847, 848, 849, 850, 851, 852, 853, 854, 855, 856, 857, 858, 859, 860, 861, 862, 863, 864, 865, 866, 867, 868, 869, 870, 871, 872],
      "AcquisitionTime": ["135215.882500", "135216.342500", "135216.802500", "135217.262500", "135217.722500", "135218.182500", "135218.642500", "135219.102500", "135219.562500", "135220.022500", "135220.482500", "135220.942500", "135221.402500", "135221.862500", "135222.322500", "135222.782500", "135223.242500", "135223.702500", "135224.162500", "135224.622500", "135225.082500", "135225.542500", "135226.002500", "135226.462500", "135226.922500", "135227.382500", "135227.842500", "135228.302500", "135228.762500", "135229.222500", "135229.682500", "135230.142500", "135230.602500", "135231.062500", "135231.522500", "135231.982500", "135232.442500", "135232.902500", "135233.362500", "135233.822500", "135234.282500", "135234.742500", "135235.202500", "135235.662500", "135236.122500", "135236.582500", "135237.042500", "135237.502500", "135237.962500", "135238.422500", "135238.882500", "135239.342500", "135239.802500", "135240.262500", "135240.722500", "135241.182500", "135241.642500", "135242.102500", "135242.562500", "135243.022500", "135243.482500", "135243.942500", "135244.402500", "135244.862500", "135245.322500", "135245.782500", "135246.242500", "135246.702500", "135247.162500", "135247.622500", "135248.082500", "135248.542500", "135249.002500", "135249.462500", "135249.922500", "135250.382500", "135250.842500", "135251.302500", "135251.762500", "135252.222500", "135252.682500", "135253.142500", "135253.602500", "135254.062500", "135254.522500", "135254.982500", "135255.442500", "135255.902500", "135256.362500", "135256.822500", "135257.282500", "135257.742500", "135258.202500", "135258.662500", "135259.122500", "135259.582500", "135300.042500", "135300.502500", "135300.962500", "135301.422500", "135301.882500", "135302.342500", "135302.802500", "135303.262500", "135303.722500", "135304.182500", "135304.642500", "135305.102500", "135305.562500", "135306.022500", "135306.482500", "135306.942500", "135307.402500", "135307.862500", "135308.322500", "135308.782500", "135309.242500", "135309.702500", "135310.162500", "135310.622500", "135311.082500", "135311.542500", "135312.002500", "135312.462500", "135312.922500", "135313.382500", "135313.842500", "135314.302500", "135314.762500", "135315.222500", "135315.682500", "135316.142500", "135316.602500", "135317.062500", "135317.522500", "135317.982500", "135318.442500", "135318.902500", "135319.362500", "135319.822500", "135320.282500", "135320.742500", "135321.202500", "135321.662500", "135322.122500", "135322.582500", "135323.042500", "135323.502500", "135323.962500", "135324.422500", "135324.882500", "135325.342500", "135325.802500", "135326.262500", "135326.722500", "135327.182500", "135327.642500", "135328.102500", "135328.562500", "135329.022500", "135329.482500", "135329.942500", "135330.402500", "135330.862500", "135331.322500", "135331.782500", "135332.242500", "135332.702500", "135333.162500", "135333.622500", "135334.082500", "135334.542500", "135335.002500", "135335.462500", "135335.922500", "135336.382500", "135336.842500", "135337.302500", "135337.762500", "135338.222500", "135338.682500", "135339.142500", "135339.602500", "135340.062500", "135340.522500", "135340.982500", "135341.442500", "135341.902500", "135342.362500", "135342.822500", "135343.282500", "135343.742500", "135344.202500", "135344.662500", "135345.122500", "135345.582500", "135346.042500", "135346.502500", "135346.962500", "135347.422500", "135347.882500", "135348.342500", "135348.802500", "135349.262500", "135349.722500", "135350.182500", "135350.642500", "135351.102500", "135351.562500", "135352.022500", "135352.482500", "135352.942500", "135353.402500", "135353.862500", "135354.322500", "135354.782500", "135355.242500", "135355.702500", "135356.162500", "135356.622500", "135357.082500", "135357.542500", "135358.002500", "135358.462500", "135358.922500", "135359.382500", "135359.842500", "135400.302500", "135400.762500", "135401.222500", "135401.682500", "135402.142500", "135402.602500", "135403.062500", "135403.522500", "135403.982500", "135404.442500", "135404.902500", "135405.362500", "135405.822500", "135406.282500", "135406.742500", "135407.202500", "135407.662500", "135408.122500", "135408.582500", "135409.042500", "135409.502500", "135409.962500", "135410.422500", "135410.882500", "135411.342500", "135411.802500", "135412.262500", "135412.722500", "135413.182500", "135413.642500", "135414.102500", "135414.562500", "135415.022500", "135415.482500", "135415.942500", "135416.402500", "135416.862500", "135417.322500", "135417.782500", "135418.242500", "135418.702500", "135419.162500", "135419.622500", "135420.082500", "135420.542500", "135421.002500", "135421.462500", "135421.922500", "135422.382500", "135422.842500", "135423.302500", "135423.762500", "135424.222500", "135424.682500", "135425.142500", "135425.602500", "135426.062500", "135426.522500", "135426.982500", "135427.442500", "135427.902500", "135428.362500", "135428.822500", "135429.282500", "135429.742500", "135430.202500", "135430.662500", "135431.122500", "135431.582500", "135432.042500", "135432.502500", "135432.962500", "135433.422500", "135433.882500", "135434.342500", "135434.802500", "135435.262500", "135435.722500", "135436.182500", "135436.642500", "135437.102500", "135437.562500", "135438.022500", "135438.482500", "135438.942500", "135439.402500", "135439.862500", "135440.322500", "135440.782500", "135441.242500", "135441.702500", "135442.162500", "135442.622500", "135443.082500", "135443.542500", "135444.002500", "135444.462500", "135444.922500", "135445.382500", "135445.842500", "135446.302500", "135446.762500", "135447.222500", "135447.682500", "135448.142500", "135448.602500", "135449.062500", "135449.522500", "135449.982500", "135450.442500", "135450.902500", "135451.362500", "135451.822500", "135452.282500", "135452.742500", "135453.202500", "135453.662500", "135454.122500", "135454.582500", "135455.042500", "135455.502500", "135455.962500", "135456.422500", "135456.882500", "135457.342500", "135457.802500", "135458.262500", "135458.722500", "135459.182500", "135459.642500", "135500.102500", "135500.562500", "135501.022500", "135501.482500", "135501.942500", "135502.402500", "135502.862500", "135503.322500", "135503.782500", "135504.242500", "135504.702500", "135505.162500", "135505.622500", "135506.082500", "135506.542500", "135507.002500", "135507.462500", "135507.922500", "135508.382500", "135508.842500", "135509.302500", "135509.762500", "135510.222500", "135510.682500", "135511.142500", "135511.602500", "135512.062500", "135512.522500", "135512.982500", "135513.442500", "135513.902500", "135514.362500", "135514.822500", "135515.282500", "135515.742500", "135516.202500", "135516.662500", "135517.122500", "135517.582500", "135518.042500", "135518.502500", "135518.962500", "135519.422500", "135519.882500", "135520.342500", "135520.802500", "135521.262500", "135521.722500", "135522.182500", "135522.642500", "135523.102500", "135523.562500", "135524.022500", "135524.482500", "135524.942500", "135525.402500", "135525.862500", "135526.322500", "135526.782500", "135527.242500", "135527.702500", "135528.162500", "135528.622500", "135529.082500", "135529.542500", "135530.002500", "135530.462500", "135530.922500", "135531.382500", "135531.842500", "135532.302500", "135532.762500", "135533.222500", "135533.682500", "135534.142500", "135534.602500", "135535.062500", "135535.522500", "135535.982500", "135536.442500", "135536.902500", "135537.362500", "135537.822500", "135538.282500", "135538.742500", "135539.202500", "135539.662500", "135540.122500", "135540.582500", "135541.042500", "135541.502500", "135541.962500", "135542.422500", "135542.882500", "135543.342500", "135543.802500", "135544.262500", "135544.722500", "135545.182500", "135545.642500", "135546.102500", "135546.562500", "135547.022500", "135547.482500", "135547.942500", "135548.402500", "135548.862500", "135549.322500", "135549.782500", "135550.242500", "135550.702500", "135551.162500", "135551.622500", "135552.082500", "135552.542500", "135553.002500", "135553.462500", "135553.922500", "135554.382500", "135554.842500", "135555.302500", "135555.762500", "135556.222500", "135556.682500", "135557.142500", "135557.602500", "135558.062500", "135558.522500", "135558.982500", "135559.442500", "135559.902500", "135600.362500", "135600.822500", "135601.282500", "135601.742500", "135602.202500", "135602.662500", "135603.122500", "135603.582500", "135604.042500", "135604.502500", "135604.962500", "135605.422500", "135605.882500", "135606.342500", "135606.802500", "135607.262500", "135607.722500", "135608.182500", "135608.642500", "135609.102500", "135609.562500", "135610.022500", "135610.482500", "135610.942500", "135611.402500", "135611.862500", "135612.322500", "135612.782500", "135613.242500", "135613.702500", "135614.162500", "135614.622500", "135615.082500", "135615.542500", "135616.002500", "135616.462500", "135616.922500", "135617.382500", "135617.842500", "135618.302500", "135618.762500", "135619.222500", "135619.682500", "135620.142500", "135620.602500", "135621.062500", "135621.522500", "135621.982500", "135622.442500", "135622.902500", "135623.362500", "135623.822500", "135624.282500", "135624.742500", "135625.202500", "135625.662500", "135626.122500", "135626.582500", "135627.042500", "135627.502500", "135627.962500", "135628.422500", "135628.882500", "135629.342500", "135629.802500", "135630.262500", "135630.722500", "135631.182500", "135631.642500", "135632.102500", "135632.562500", "135633.022500", "135633.482500", "135633.942500", "135634.402500", "135634.862500", "135635.322500", "135635.782500", "135636.242500", "135636.702500", "135637.162500", "135637.622500", "135638.082500", "135638.542500", "135639.002500", "135639.462500", "135639.922500", "135640.382500", "135640.842500", "135641.302500", "135641.762500", "135642.222500", "135642.682500", "135643.142500", "135643.602500", "135644.062500", "135644.522500", "135644.982500", "135645.442500", "135645.902500", "135646.362500", "135646.822500", "135647.282500", "135647.742500", "135648.202500", "135648.662500", "135649.122500", "135649.582500", "135650.042500", "135650.502500", "135650.962500", "135651.422500", "135651.882500", "135652.342500", "135652.802500", "135653.262500", "135653.722500", "135654.182500", "135654.642500", "135655.102500", "135655.562500", "135656.022500", "135656.482500", "135656.942500", "135657.402500", "135657.862500", "135658.322500", "135658.782500", "135659.242500", "135659.702500", "135700.162500", "135700.622500", "135701.082500", "135701.542500", "135702.002500", "135702.462500", "135702.922500", "135703.382500", "135703.842500", "135704.302500", "135704.762500", "135705.222500", "135705.682500", "135706.142500", "135706.602500", "135707.062500", "135707.522500", "135707.982500", "135708.442500", "135708.902500", "135709.362500", "135709.822500", "135710.282500", "135710.742500", "135711.202500", "135711.662500", "135712.122500", "135712.582500", "135713.042500", "135713.502500", "135713.962500", "135714.422500", "135714.882500", "135715.342500", "135715.802500", "135716.262500", "135716.722500", "135717.182500", "135717.642500", "135718.102500", "135718.562500", "135719.022500", "135719.482500", "135719.942500", "135720.402500", "135720.862500", "135721.322500", "135721.782500", "135722.242500", "135722.702500", "135723.162500", "135723.622500", "135724.082500", "135724.542500", "135725.002500", "135725.462500", "135725.922500", "135726.382500", "135726.842500", "135727.302500", "135727.762500", "135728.222500", "135728.682500", "135729.142500", "135729.602500", "135730.062500", "135730.522500", "135730.982500", "135731.442500", "135731.902500", "135732.362500", "135732.822500", "135733.282500", "135733.742500", "135734.202500", "135734.662500", "135735.122500", "135735.582500", "135736.042500", "135736.502500", "135736.962500", "135737.422500", "135737.882500", "135738.342500", "135738.802500", "135739.262500", "135739.722500", "135740.182500", "135740.642500", "135741.102500", "135741.562500", "135742.022500", "135742.482500", "135742.942500", "135743.402500", "135743.862500", "135744.322500", "135744.782500", "135745.242500", "135745.702500", "135746.162500", "135746.622500", "135747.082500", "135747.542500", "135748.002500", "135748.462500", "135748.922500", "135749.382500", "135749.842500", "135750.302500", "135750.762500", "135751.222500", "135751.682500", "135752.142500", "135752.602500", "135753.062500", "135753.522500", "135753.982500", "135754.442500", "135754.902500", "135755.362500", "135755.822500", "135756.282500", "135756.742500", "135757.202500", "135757.662500", "135758.122500", "135758.582500", "135759.042500", "135759.502500", "135759.962500", "135800.422500", "135800.882500", "135801.342500", "135801.802500", "135802.262500", "135802.722500", "135803.182500", "135803.642500", "135804.102500", "135804.562500", "135805.022500", "135805.482500", "135805.942500", "135806.402500", "135806.862500", "135807.322500", "135807.782500", "135808.242500", "135808.702500", "135809.162500", "135809.622500", "135810.082500", "135810.542500", "135811.002500", "135811.462500", "135811.922500", "135812.382500", "135812.842500", "135813.302500", "135813.762500", "135814.222500", "135814.682500", "135815.142500", "135815.602500", "135816.062500", "135816.522500", "135816.982500", "135817.442500", "135817.902500", "135818.362500", "135818.822500", "135819.282500", "135819.742500", "135820.202500", "135820.662500", "135821.122500", "135821.582500", "135822.042500", "135822.502500", "135822.962500", "135823.422500", "135823.882500", "135824.342500", "135824.802500", "135825.262500", "135825.722500", "135826.182500", "135826.642500", "135827.102500", "135827.562500", "135828.022500", "135828.482500", "135828.942500", "135829.402500", "135829.862500", "135830.322500", "135830.782500", "135831.242500", "135831.702500", "135832.162500", "135832.622500", "135833.082500", "135833.542500", "135834.002500", "135834.462500", "135834.922500", "135835.382500", "135835.842500", "135836.302500", "135836.762500", "135837.222500", "135837.682500", "135838.142500", "135838.602500", "135839.062500", "135839.522500", "135839.982500", "135840.442500", "135840.902500", "135841.362500", "135841.822500", "135842.282500", "135842.742500", "135843.202500", "135843.662500", "135844.122500", "135844.582500", "135845.042500", "135845.502500", "135845.962500", "135846.422500", "135846.882500", "135847.342500", "135847.802500", "135848.262500", "135848.722500", "135849.182500", "135849.642500", "135850.102500", "135850.562500", "135851.022500", "135851.482500", "135851.942500", "135852.402500", "135852.862500", "135853.322500", "135853.782500", "135854.242500", "135854.702500", "135855.162500", "135855.622500", "135856.082500", "135856.542500"],
