{
  "AcquisitionMatrixPE": 82,
  "AcquisitionNumber": 1,
  "AcquisitionTime": "13:14:40.532500",
  "BandwidthPerPixelPhaseEncode": 24.888,
  "BaseResolution": 82,
  "BodyPartExamined": "BRAIN",
  "ConsistencyInfo": "N4_VE11E_LATEST_20181129",
  "ConversionSoftware": "dcm2niix",
  "ConversionSoftwareVersion": "v1.0.20201102",
  "DerivedVendorReportedEchoSpacing": 0.00049,
  "DeviceSerialNumber": "66112",
  "DwellTime": 2e-06,
  "EchoTime": 0.0272,
  "EchoTrainLength": 82,
  "EffectiveEchoSpacing": 0.00049,
  "FlipAngle": 44,
  "ImageComments": "Unaliased MB8/PE3",
  "ImageOrientationPatientDICOM": [0.999029, 0.0372372, 0.0235633, -0.0420464, 0.965547, 0.25681],
  "ImageType": [
    "ORIGINAL",
    "PRIMARY",
    "M",
    "MB",
    "ND",
    "NORM",
    "MOSAIC"
],
  "ImagingFrequency": 123.252,
  "InPlanePhaseEncodingDirectionDICOM": "COL",
  "InstitutionAddress": "Maynard 3,Hanover,NH,US,03755",
  "InstitutionName": "Dartmouth College - PBS",
  "InstitutionalDepartmentName": "Department",
  "MRAcquisitionType": "2D",
  "MagneticFieldStrength": 3,
  "Manufacturer": "Siemens",
  "ManufacturersModelName": "Prisma",
  "Modality": "MR",
  "MultibandAccelerationFactor": 8,
  "PartialFourier": 1,
  "PatientPosition": "HFS",
  "PercentPhaseFOV": 100,
  "PercentSampling": 100,
  "PhaseEncodingDirection": "j-",
  "PhaseEncodingSteps": 82,
  "PhaseResolution": 1,
  "PixelBandwidth": 3050,
  "ProcedureStepDescription": "Wager_Wager^1076_spacetop",
  "ProtocolName": "func_run-01_task-social_acq-ap-mb8",
  "PulseSequenceDetails": "%CustomerSeq%\\cmrr_mbep2d_bold",
  "ReceiveCoilActiveElements": "HEA;HEP",
  "ReceiveCoilName": "Head_32",
  "ReconMatrixPE": 82,
  "RepetitionTime": 0.46,
  "SAR": 0.101901,
  "ScanOptions": "FS",
  "ScanningSequence": "EP",
  "SequenceName": "epfid2d1_82",
  "SequenceVariant": "SK\\SS",
  "SeriesDescription": "func_run-01_task-social_acq-ap-mb8",
  "SeriesNumber": 8,
  "ShimSetting": [4137, -7804, -7254, 618, -102, -145, 36, 104],
  "SliceThickness": 2.7,
  "SliceTiming": [0, 0.2525, 0.0625, 0.315, 0.125, 0.3775, 0.19, 0, 0.2525, 0.0625, 0.315, 0.125, 0.3775, 0.19, 0, 0.2525, 0.0625, 0.315, 0.125, 0.3775, 0.19, 0, 0.2525, 0.0625, 0.315, 0.125, 0.3775, 0.19, 0, 0.2525, 0.0625, 0.315, 0.125, 0.3775, 0.19, 0, 0.2525, 0.0625, 0.315, 0.125, 0.3775, 0.19, 0, 0.2525, 0.0625, 0.315, 0.125, 0.3775, 0.19, 0, 0.2525, 0.0625, 0.315, 0.125, 0.3775, 0.19],
  "SoftwareVersions": "syngo MR E11",
  "SpacingBetweenSlices": 2.7,
  "StationName": "AWP66112",
  "TaskName": "social",
  "TotalReadoutTime": 0.03969,
  "TxRefAmp": 252.789,
  "WipMemBlock": "73e4a3ff-981c-45ba-8371-bf8df1ba87db||Sequence: R016 ve11e/master r/434b28f1; Aug  7 2019 18:53:46 by eja",
  "dcmmeta_affine": [
    [-2.6803207397460938, -0.11280731111764908, 0.03560922294855118, 116.3833999633789],
    [-0.0999046042561531, 2.590491771697998, 0.695387601852417, -98.19359588623047],
    [0.0632186010479927, -0.6890016198158264, 2.6086716651916504, -36.97489547729492],
    [0.0, 0.0, 0.0, 1.0]
],
  "dcmmeta_reorient_transform": [
    [0.0, -1.0, 0.0, 81.0],
    [1.0, 0.0, 0.0, 0.0],
    [0.0, 0.0, 1.0, 0.0],
    [0.0, 0.0, 0.0, 1.0]
],
  "dcmmeta_shape": [82, 82, 56, 872],
  "dcmmeta_slice_dim": 2,
  "dcmmeta_version": 0.6,
  "global": {
    "const": {
      "AccessionNumber": "A003932",
      "AcquisitionMatrix": [82, 0, 0, 82],
      "AngioFlag": "N",
      "BitsAllocated": 16,
      "BitsStored": 16,
      "BodyPartExamined": "BRAIN",
      "Columns": 656,
      "EchoNumbers": 1,
      "EchoTime": 27.2,
      "EchoTrainLength": 82,
      "FlipAngle": 44.0,
      "HighBit": 15,
      "ImageOrientationPatient": [0.99902861032554, 0.03723717024961, 0.02356329566965, -0.0420463616429, 0.96554693793894, 0.2568096846097],
      "ImagePositionPatient": [-844.12235330672, -883.7800223406, -308.67122550704],
      "ImageType": [
        "ORIGINAL",
        "PRIMARY",
        "M",
        "MB",
        "ND",
        "NORM",
        "MOSAIC"
],
      "ImagedNucleus": "1H",
      "ImagingFrequency": 123.252169,
      "InPlanePhaseEncodingDirection": "COL",
      "MRAcquisitionType": "2D",
      "MagneticFieldStrength": 3.0,
      "Manufacturer": "SIEMENS",
      "ManufacturerModelName": "Prisma",
      "Modality": "MR",
      "NumberOfAverages": 1.0,
      "NumberOfPhaseEncodingSteps": 82,
      "PercentPhaseFieldOfView": 100.0,
      "PercentSampling": 100.0,
      "PerformedProcedureStepStartTime": "130600.122000",
      "PhotometricInterpretation": "MONOCHROME2",
      "PixelBandwidth": 3050.0,
      "PixelRepresentation": 0,
      "PixelSpacing": [2.6829268932343, 2.6829268932343],
      "ProtocolName": "func_run-01_task-social_acq-ap-mb8",
      "RepetitionTime": 460.0,
      "Rows": 656,
      "SAR": 0.1019008523611,
      "SamplesPerPixel": 1,
      "ScanOptions": "FS",
      "ScanningSequence": "EP",
      "SequenceName": "epfid2d1_82",
      "SequenceVariant": [
        "SK",
        "SS"
],
      "SeriesDescription": "func_run-01_task-social_acq-ap-mb8",
      "SeriesNumber": 8,
      "SeriesTime": "131456.835000",
      "SliceLocation": -59.479131051101,
      "SliceThickness": 2.7000000476837,
      "SmallestImagePixelValue": 0,
      "SoftwareVersions": "syngo MR E11",
      "SpacingBetweenSlices": 2.6999999417506,
      "SpecificCharacterSet": "ISO_IR 100",
      "StudyID": "2",
      "StudyTime": "130600.064000",
      "TransmitCoilName": "Body",
      "VariableFlipAngleFlag": "N",
      "WindowCenterWidthExplanation": "Algo1"
    },
    "slices": {}
  },
  "time": {
    "samples": {
      "AcquisitionNumber": [1, 2, 3, 4, 5, 6, 7, 8, 9, 10, 11, 12, 13, 14, 15, 16, 17, 18, 19, 20, 21, 22, 23, 24, 25, 26, 27, 28, 29, 30, 31, 32, 33, 34, 35, 36, 37, 38, 39, 40, 41, 42, 43, 44, 45, 46, 47, 48, 49, 50, 51, 52, 53, 54, 55, 56, 57, 58, 59, 60, 61, 62, 63, 64, 65, 66, 67, 68, 69, 70, 71, 72, 73, 74, 75, 76, 77, 78, 79, 80, 81, 82, 83, 84, 85, 86, 87, 88, 89, 90, 91, 92, 93, 94, 95, 96, 97, 98, 99, 100, 101, 102, 103, 104, 105, 106, 107, 108, 109, 110, 111, 112, 113, 114, 115, 116, 117, 118, 119, 120, 121, 122, 123, 124, 125, 126, 127, 128, 129, 130, 131, 132, 133, 134, 135, 136, 137, 138, 139, 140, 141, 142, 143, 144, 145, 146, 147, 148, 149, 150, 151, 152, 153, 154, 155, 156, 157, 158, 159, 160, 161, 162, 163, 164, 165, 166, 167, 168, 169, 170, 171, 172, 173, 174, 175, 176, 177, 178, 179, 180, 181, 182, 183, 184, 185, 186, 187, 188, 189, 190, 191, 192, 193, 194, 195, 196, 197, 198, 199, 200, 201, 202, 203, 204, 205, 206, 207, 208, 209, 210, 211, 212, 213, 214, 215, 216, 217, 218, 219, 220, 221, 222, 223, 224, 225, 226, 227, 228, 229, 230, 231, 232, 233, 234, 235, 236, 237, 238, 239, 240, 241, 242, 243, 244, 245, 246, 247, 248, 249, 250, 251, 252, 253, 254, 255, 256, 257, 258, 259, 260, 261, 262, 263, 264, 265, 266, 267, 268, 269, 270, 271, 272, 273, 274, 275, 276, 277, 278, 279, 280, 281, 282, 283, 284, 285, 286, 287, 288, 289, 290, 291, 292, 293, 294, 295, 296, 297, 298, 299, 300, 301, 302, 303, 304, 305, 306, 307, 308, 309, 310, 311, 312, 313, 314, 315, 316, 317, 318, 319, 320, 321, 322, 323, 324, 325, 326, 327, 328, 329, 330, 331, 332, 333, 334, 335, 336, 337, 338, 339, 340, 341, 342, 343, 344, 345, 346, 347, 348, 349, 350, 351, 352, 353, 354, 355, 356, 357, 358, 359, 360, 361, 362, 363, 364, 365, 366, 367, 368, 369, 370, 371, 372, 373, 374, 375, 376, 377, 378, 379, 380, 381, 382, 383, 384, 385, 386, 387, 388, 389, 390, 391, 392, 393, 394, 395, 396, 397, 398, 399, 400, 401, 402, 403, 404, 405, 406, 407, 408, 409, 410, 411, 412, 413, 414, 415, 416, 417, 418, 419, 420, 421, 422, 423, 424, 425, 426, 427, 428, 429, 430, 431, 432, 433, 434, 435, 436, 437, 438, 439, 440, 441, 442, 443, 444, 445, 446, 447, 448, 449, 450, 451, 452, 453, 454, 455, 456, 457, 458, 459, 460, 461, 462, 463, 464, 465, 466, 467, 468, 469, 470, 471, 472, 473, 474, 475, 476, 477, 478, 479, 480, 481, 482, 483, 484, 485, 486, 487, 488, 489, 490, 491, 492, 493, 494, 495, 496, 497, 498, 499, 500, 501, 502, 503, 504, 505, 506, 507, 508, 509, 510, 511, 512, 513, 514, 515, 516, 517, 518, 519, 520, 521, 522, 523, 524, 525, 526, 527, 528, 529, 530, 531, 532, 533, 534, 535, 536, 537, 538, 539, 540, 541, 542, 543, 544, 545, 546, 547, 548, 549, 550, 551, 552, 553, 554, 555, 556, 557, 558, 559, 560, 561, 562, 563, 564, 565, 566, 567, 568, 569, 570, 571, 572, 573, 574, 575, 576, 577, 578, 579, 580, 581, 582, 583, 584, 585, 586, 587, 588, 589, 590, 591, 592, 593, 594, 595, 596, 597, 598, 599, 600, 601, 602, 603, 604, 605, 606, 607, 608, 609, 610, 611, 612, 613, 614, 615, 616, 617, 618, 619, 620, 621, 622, 623, 624, 625, 626, 627, 628, 629, 630, 631, 632, 633, 634, 635, 636, 637, 638, 639, 640, 641, 642, 643, 644, 645, 646, 647, 648, 649, 650, 651, 652, 653, 654, 655, 656, 657, 658, 659, 660, 661, 662, 663, 664, 665, 666, 667, 668, 669, 670, 671, 672, 673, 674, 675, 676, 677, 678, 679, 680, 681, 682, 683, 684, 685, 686, 687, 688, 689, 690, 691, 692, 693, 694, 695, 696, 697, 698, 699, 700, 701, 702, 703, 704, 705, 706, 707, 708, 709, 710, 711, 712, 713, 714, 715, 716, 717, 718, 719, 720, 721, 722, 723, 724, 725, 726, 727, 728, 729, 730, 731, 732, 733, 734, 735, 736, 737, 738, 739, 740, 741, 742, 743, 744, 745, 746, 747, 748, 749, 750, 751, 752, 753, 754, 755, 756, 757, 758, 759, 760, 761, 762, 763, 764, 765, 766, 767, 768, 769, 770, 771, 772, 773, 774, 775, 776, 777, 778, 779, 780, 781, 782, 783, 784, 785, 786, 787, 788, 789, 790, 791, 792, 793, 794, 795, 796, 797, 798, 799, 800, 801, 802, 803, 804, 805, 806, 807, 808, 809, 810, 811, 812, 813, 814, 815, 816, 817, 818, 819, 820, 821, 822, 823, 824, 825, 826, 827, 828, 829, 830, 831, 832, 833, 834, 835, 836, 837, 838, 839, 840, 841, 842, 843, 844, 845, 846, 847, 848, 849, 850, 851, 852, 853, 854, 855, 856, 857, 858, 859, 860, 861, 862, 863, 864, 865, 866, 867, 868, 869, 870, 871, 872],
      "AcquisitionTime": ["131440.532500", "131440.992500", "131441.452500", "131441.912500", "131442.372500", "131442.832500", "131443.292500", "131443.752500", "131444.212500", "131444.672500", "131445.132500", "131445.592500", "131446.052500", "131446.512500", "131446.972500", "131447.432500", "131447.892500", "131448.352500", "131448.812500", "131449.272500", "131449.732500", "131450.192500", "131450.652500", "131451.112500", "131451.572500", "131452.032500", "131452.492500", "131452.952500", "131453.412500", "131453.872500", "131454.332500", "131454.792500", "131455.252500", "131455.712500", "131456.172500", "131456.632500", "131457.092500", "131457.552500", "131458.012500", "131458.472500", "131458.932500", "131459.392500", "131459.852500", "131500.312500", "131500.772500", "131501.232500", "131501.692500", "131502.152500", "131502.612500", "131503.072500", "131503.532500", "131503.992500", "131504.452500", "131504.912500", "131505.372500", "131505.832500", "131506.292500", "131506.752500", "131507.212500", "131507.672500", "131508.132500", "131508.592500", "131509.052500", "131509.512500", "131509.972500", "131510.432500", "131510.892500", "131511.352500", "131511.812500", "131512.272500", "131512.732500", "131513.192500", "131513.652500", "131514.112500", "131514.572500", "131515.032500", "131515.492500", "131515.952500", "131516.412500", "131516.872500", "131517.332500", "131517.792500", "131518.252500", "131518.712500", "131519.172500", "131519.632500", "131520.092500", "131520.552500", "131521.012500", "131521.472500", "131521.932500", "131522.392500", "131522.852500", "131523.312500", "131523.772500", "131524.232500", "131524.692500", "131525.152500", "131525.612500", "131526.072500", "131526.532500", "131526.992500", "131527.452500", "131527.912500", "131528.372500", "131528.832500", "131529.292500", "131529.752500", "131530.212500", "131530.672500", "131531.132500", "131531.592500", "131532.052500", "131532.512500", "131532.972500", "131533.432500", "131533.892500", "131534.352500", "131534.812500", "131535.272500", "131535.732500", "131536.192500", "131536.652500", "131537.112500", "131537.572500", "131538.032500", "131538.492500", "131538.952500", "131539.412500", "131539.872500", "131540.332500", "131540.792500", "131541.252500", "131541.712500", "131542.172500", "131542.632500", "131543.092500", "131543.552500", "131544.012500", "131544.472500", "131544.932500", "131545.392500", "131545.852500", "131546.312500", "131546.772500", "131547.232500", "131547.692500", "131548.152500", "131548.612500", "131549.072500", "131549.532500", "131549.992500", "131550.452500", "131550.912500", "131551.372500", "131551.832500", "131552.292500", "131552.752500", "131553.212500", "131553.672500", "131554.132500", "131554.592500", "131555.052500", "131555.512500", "131555.972500", "131556.432500", "131556.892500", "131557.352500", "131557.812500", "131558.272500", "131558.732500", "131559.192500", "131559.652500", "131600.112500", "131600.572500", "131601.032500", "131601.492500", "131601.952500", "131602.412500", "131602.872500", "131603.332500", "131603.792500", "131604.252500", "131604.712500", "131605.172500", "131605.632500", "131606.092500", "131606.552500", "131607.012500", "131607.472500", "131607.932500", "131608.392500", "131608.852500", "131609.312500", "131609.772500", "131610.232500", "131610.692500", "131611.152500", "131611.612500", "131612.072500", "131612.532500", "131612.992500", "131613.452500", "131613.912500", "131614.372500", "131614.832500", "131615.292500", "131615.752500", "131616.212500", "131616.672500", "131617.132500", "131617.592500", "131618.052500", "131618.512500", "131618.972500", "131619.432500", "131619.892500", "131620.352500", "131620.812500", "131621.272500", "131621.732500", "131622.192500", "131622.652500", "131623.112500", "131623.572500", "131624.032500", "131624.492500", "131624.952500", "131625.412500", "131625.872500", "131626.332500", "131626.792500", "131627.252500", "131627.712500", "131628.172500", "131628.632500", "131629.092500", "131629.552500", "131630.012500", "131630.472500", "131630.932500", "131631.392500", "131631.852500", "131632.312500", "131632.772500", "131633.232500", "131633.692500", "131634.152500", "131634.612500", "131635.072500", "131635.532500", "131635.992500", "131636.452500", "131636.912500", "131637.372500", "131637.832500", "131638.292500", "131638.752500", "131639.212500", "131639.672500", "131640.132500", "131640.592500", "131641.052500", "131641.512500", "131641.972500", "131642.432500", "131642.892500", "131643.352500", "131643.812500", "131644.272500", "131644.732500", "131645.192500", "131645.652500", "131646.112500", "131646.572500", "131647.032500", "131647.492500", "131647.952500", "131648.412500", "131648.872500", "131649.332500", "131649.792500", "131650.252500", "131650.712500", "131651.172500", "131651.632500", "131652.092500", "131652.552500", "131653.012500", "131653.472500", "131653.932500", "131654.392500", "131654.852500", "131655.312500", "131655.772500", "131656.232500", "131656.692500", "131657.152500", "131657.612500", "131658.072500", "131658.532500", "131658.992500", "131659.452500", "131659.912500", "131700.372500", "131700.832500", "131701.292500", "131701.752500", "131702.212500", "131702.672500", "131703.132500", "131703.592500", "131704.052500", "131704.512500", "131704.972500", "131705.432500", "131705.892500", "131706.352500", "131706.812500", "131707.272500", "131707.732500", "131708.192500", "131708.652500", "131709.112500", "131709.572500", "131710.032500", "131710.492500", "131710.952500", "131711.412500", "131711.872500", "131712.332500", "131712.792500", "131713.252500", "131713.712500", "131714.172500", "131714.632500", "131715.092500", "131715.552500", "131716.012500", "131716.472500", "131716.932500", "131717.392500", "131717.852500", "131718.312500", "131718.772500", "131719.232500", "131719.692500", "131720.152500", "131720.612500", "131721.072500", "131721.532500", "131721.992500", "131722.452500", "131722.912500", "131723.372500", "131723.832500", "131724.292500", "131724.752500", "131725.212500", "131725.672500", "131726.132500", "131726.592500", "131727.052500", "131727.512500", "131727.972500", "131728.432500", "131728.892500", "131729.352500", "131729.812500", "131730.272500", "131730.732500", "131731.192500", "131731.652500", "131732.112500", "131732.572500", "131733.032500", "131733.492500", "131733.952500", "131734.412500", "131734.872500", "131735.332500", "131735.792500", "131736.252500", "131736.712500", "131737.172500", "131737.632500", "131738.092500", "131738.552500", "131739.012500", "131739.472500", "131739.932500", "131740.392500", "131740.852500", "131741.312500", "131741.772500", "131742.232500", "131742.692500", "131743.152500", "131743.612500", "131744.072500", "131744.532500", "131744.992500", "131745.452500", "131745.912500", "131746.372500", "131746.832500", "131747.292500", "131747.752500", "131748.212500", "131748.672500", "131749.132500", "131749.592500", "131750.052500", "131750.512500", "131750.972500", "131751.432500", "131751.892500", "131752.352500", "131752.812500", "131753.272500", "131753.732500", "131754.192500", "131754.652500", "131755.112500", "131755.572500", "131756.032500", "131756.492500", "131756.952500", "131757.412500", "131757.872500", "131758.332500", "131758.792500", "131759.252500", "131759.712500", "131800.172500", "131800.632500", "131801.092500", "131801.552500", "131802.012500", "131802.472500", "131802.932500", "131803.392500", "131803.852500", "131804.312500", "131804.772500", "131805.232500", "131805.692500", "131806.152500", "131806.612500", "131807.072500", "131807.532500", "131807.992500", "131808.452500", "131808.912500", "131809.372500", "131809.832500", "131810.292500", "131810.752500", "131811.212500", "131811.672500", "131812.132500", "131812.592500", "131813.052500", "131813.512500", "131813.972500", "131814.432500", "131814.892500", "131815.352500", "131815.812500", "131816.272500", "131816.732500", "131817.192500", "131817.652500", "131818.112500", "131818.572500", "131819.032500", "131819.492500", "131819.952500", "131820.412500", "131820.872500", "131821.332500", "131821.792500", "131822.252500", "131822.712500", "131823.172500", "131823.632500", "131824.092500", "131824.552500", "131825.012500", "131825.472500", "131825.932500", "131826.392500", "131826.852500", "131827.312500", "131827.772500", "131828.232500", "131828.692500", "131829.152500", "131829.612500", "131830.072500", "131830.532500", "131830.992500", "131831.452500", "131831.912500", "131832.372500", "131832.832500", "131833.292500", "131833.752500", "131834.212500", "131834.672500", "131835.132500", "131835.592500", "131836.052500", "131836.512500", "131836.972500", "131837.432500", "131837.892500", "131838.352500", "131838.812500", "131839.272500", "131839.732500", "131840.192500", "131840.652500", "131841.112500", "131841.572500", "131842.032500", "131842.492500", "131842.952500", "131843.412500", "131843.872500", "131844.332500", "131844.792500", "131845.252500", "131845.712500", "131846.172500", "131846.632500", "131847.092500", "131847.552500", "131848.012500", "131848.472500", "131848.932500", "131849.392500", "131849.852500", "131850.312500", "131850.772500", "131851.232500", "131851.692500", "131852.152500", "131852.612500", "131853.072500", "131853.532500", "131853.992500", "131854.452500", "131854.912500", "131855.372500", "131855.832500", "131856.292500", "131856.752500", "131857.212500", "131857.672500", "131858.132500", "131858.592500", "131859.052500", "131859.512500", "131859.972500", "131900.432500", "131900.892500", "131901.352500", "131901.812500", "131902.272500", "131902.732500", "131903.192500", "131903.652500", "131904.112500", "131904.572500", "131905.032500", "131905.492500", "131905.952500", "131906.412500", "131906.872500", "131907.332500", "131907.792500", "131908.252500", "131908.712500", "131909.172500", "131909.632500", "131910.092500", "131910.552500", "131911.012500", "131911.472500", "131911.932500", "131912.392500", "131912.852500", "131913.312500", "131913.772500", "131914.232500", "131914.692500", "131915.152500", "131915.612500", "131916.072500", "131916.532500", "131916.992500", "131917.452500", "131917.912500", "131918.372500", "131918.832500", "131919.292500", "131919.752500", "131920.212500", "131920.672500", "131921.132500", "131921.592500", "131922.052500", "131922.512500", "131922.972500", "131923.432500", "131923.892500", "131924.352500", "131924.812500", "131925.272500", "131925.732500", "131926.192500", "131926.652500", "131927.112500", "131927.572500", "131928.032500", "131928.492500", "131928.952500", "131929.412500", "131929.872500", "131930.332500", "131930.792500", "131931.252500", "131931.712500", "131932.172500", "131932.632500", "131933.092500", "131933.552500", "131934.012500", "131934.472500", "131934.932500", "131935.392500", "131935.852500", "131936.312500", "131936.772500", "131937.232500", "131937.692500", "131938.152500", "131938.612500", "131939.072500", "131939.532500", "131939.992500", "131940.452500", "131940.912500", "131941.372500", "131941.832500", "131942.292500", "131942.752500", "131943.212500", "131943.672500", "131944.132500", "131944.592500", "131945.052500", "131945.512500", "131945.972500", "131946.432500", "131946.892500", "131947.352500", "131947.812500", "131948.272500", "131948.732500", "131949.192500", "131949.652500", "131950.112500", "131950.572500", "131951.032500", "131951.492500", "131951.952500", "131952.412500", "131952.872500", "131953.332500", "131953.792500", "131954.252500", "131954.712500", "131955.172500", "131955.632500", "131956.092500", "131956.552500", "131957.012500", "131957.472500", "131957.932500", "131958.392500", "131958.852500", "131959.312500", "131959.772500", "132000.232500", "132000.692500", "132001.152500", "132001.612500", "132002.072500", "132002.532500", "132002.992500", "132003.452500", "132003.912500", "132004.372500", "132004.832500", "132005.292500", "132005.752500", "132006.212500", "132006.672500", "132007.132500", "132007.592500", "132008.052500", "132008.512500", "132008.972500", "132009.432500", "132009.892500", "132010.352500", "132010.812500", "132011.272500", "132011.732500", "132012.192500", "132012.652500", "132013.112500", "132013.572500", "132014.032500", "132014.492500", "132014.952500", "132015.412500", "132015.872500", "132016.332500", "132016.792500", "132017.252500", "132017.712500", "132018.172500", "132018.632500", "132019.092500", "132019.552500", "132020.012500", "132020.472500", "132020.932500", "132021.392500", "132021.852500", "132022.312500", "132022.772500", "132023.232500", "132023.692500", "132024.152500", "132024.612500", "132025.072500", "132025.532500", "132025.992500", "132026.452500", "132026.912500", "132027.372500", "132027.832500", "132028.292500", "132028.752500", "132029.212500", "132029.672500", "132030.132500", "132030.592500", "132031.052500", "132031.512500", "132031.972500", "132032.432500", "132032.892500", "132033.352500", "132033.812500", "132034.272500", "132034.732500", "132035.192500", "132035.652500", "132036.112500", "132036.572500", "132037.032500", "132037.492500", "132037.952500", "132038.412500", "132038.872500", "132039.332500", "132039.792500", "132040.252500", "132040.712500", "132041.172500", "132041.632500", "132042.092500", "132042.552500", "132043.012500", "132043.472500", "132043.932500", "132044.392500", "132044.852500", "132045.312500", "132045.772500", "132046.232500", "132046.692500", "132047.152500", "132047.612500", "132048.072500", "132048.532500", "132048.992500", "132049.452500", "132049.912500", "132050.372500", "132050.832500", "132051.292500", "132051.752500", "132052.212500", "132052.672500", "132053.132500", "132053.592500", "132054.052500", "132054.512500", "132054.972500", "132055.432500", "132055.892500", "132056.352500", "132056.812500", "132057.272500", "132057.732500", "132058.192500", "132058.652500", "132059.112500", "132059.572500", "132100.032500", "132100.492500", "132100.952500", "132101.412500", "132101.872500", "132102.332500", "132102.792500", "132103.252500", "132103.712500", "132104.172500", "132104.632500", "132105.092500", "132105.552500", "132106.012500", "132106.472500", "132106.932500", "132107.392500", "132107.852500", "132108.312500", "132108.772500", "132109.232500", "132109.692500", "132110.152500", "132110.612500", "132111.072500", "132111.532500", "132111.992500", "132112.452500", "132112.912500", "132113.372500", "132113.832500", "132114.292500", "132114.752500", "132115.212500", "132115.672500", "132116.132500", "132116.592500", "132117.052500", "132117.512500", "132117.972500", "132118.432500", "132118.892500", "132119.352500", "132119.812500", "132120.272500", "132120.732500", "132121.192500"],
