{
  "AcquisitionMatrixPE": 140,
  "AcquisitionNumber": 1,
  "AcquisitionTime": "20:42:18.047500",
  "BandwidthPerPixelPhaseEncode": 10.352,
  "BaseResolution": 140,
  "BodyPartExamined": "BRAIN",
  "ConsistencyInfo": "N4_VE11E_LATEST_20181129",
  "ConversionSoftware": "dcm2niix",
  "ConversionSoftwareVersion": "v1.0.20201102",
  "DerivedVendorReportedEchoSpacing": 0.000689998,
  "DeviceSerialNumber": "66112",
  "DiffusionScheme": "Monopolar",
  "DwellTime": 2.1e-06,
  "EchoTime": 0.0884,
  "EchoTrainLength": 105,
  "EffectiveEchoSpacing": 0.000689998,
  "FlipAngle": 90,
  "ImageComments": "Unaliased MB3/PE3 SENSE1",
  "ImageOrientationPatientDICOM": [0.993324, 0.113999, -0.0176408, -0.109488, 0.979861, 0.166989],
  "ImageType": [
    "ORIGINAL",
    "PRIMARY",
    "DIFFUSION",
    "NONE",
    "MB",
    "ND",
    "MOSAIC"
],
  "ImagingFrequency": 123.252,
  "InPlanePhaseEncodingDirectionDICOM": "COL",
  "InstitutionAddress": "Maynard 3,Hanover,NH,US,03755",
  "InstitutionName": "Dartmouth College - PBS",
  "InstitutionalDepartmentName": "Department",
  "MRAcquisitionType": "2D",
  "MagneticFieldStrength": 3,
  "Manufacturer": "Siemens",
  "ManufacturersModelName": "Prisma",
  "Modality": "MR",
  "MultibandAccelerationFactor": 3,
  "PartialFourier": 0.75,
  "PatientPosition": "HFS",
  "PercentPhaseFOV": 100,
  "PercentSampling": 100,
  "PhaseEncodingDirection": "j-",
  "PhaseEncodingSteps": 105,
  "PhaseResolution": 1,
  "PixelBandwidth": 1700,
  "ProcedureStepDescription": "Wager_Wager^1076_spacetop",
  "ProtocolName": "dwi_acq-96dir-6b0-mb",
  "PulseSequenceDetails": "%CustomerSeq%\\cmrr_mbep2d_diff",
  "ReceiveCoilActiveElements": "HEA;HEP",
  "ReceiveCoilName": "Head_32",
  "ReconMatrixPE": 140,
  "RepetitionTime": 4.11,
  "SAR": 0.200062,
  "ScanOptions": "PFP\\FS",
  "ScanningSequence": "EP",
  "SequenceName": "ep_b5#1",
  "SequenceVariant": "SK\\SS",
  "SeriesDescription": "dwi_acq-96dir-6b0-mb",
  "SeriesNumber": 8,
  "ShimSetting": [4144, -7749, -7334, 823, -79, -210, -75, 133],
  "SliceThickness": 1.7,
  "SliceTiming": [0, 2.1225, 0.1525, 2.2725, 0.305, 2.425, 0.455, 2.5775, 0.6075, 2.7275, 0.7575, 2.88, 0.91, 3.03, 1.0625, 3.1825, 1.2125, 3.335, 1.365, 3.485, 1.515, 3.6375, 1.6675, 3.7875, 1.82, 3.94, 1.97, 0, 2.1225, 0.1525, 2.2725, 0.305, 2.425, 0.455, 2.5775, 0.6075, 2.7275, 0.7575, 2.88, 0.91, 3.03, 1.0625, 3.1825, 1.2125, 3.335, 1.365, 3.485, 1.515, 3.6375, 1.6675, 3.7875, 1.82, 3.94, 1.97, 0, 2.1225, 0.1525, 2.2725, 0.305, 2.425, 0.455, 2.5775, 0.6075, 2.7275, 0.7575, 2.88, 0.91, 3.03, 1.0625, 3.1825, 1.2125, 3.335, 1.365, 3.485, 1.515, 3.6375, 1.6675, 3.7875, 1.82, 3.94, 1.97],
  "SoftwareVersions": "syngo MR E11",
  "SpacingBetweenSlices": 1.7,
  "StationName": "AWP66112",
  "TotalReadoutTime": 0.0959097,
  "TxRefAmp": 234.052,
  "WipMemBlock": "4804190f-8cb7-42f8-9aa3-c585f1332419||Sequence: R016 ve11e/master r/434b28f1; Aug  7 2019 19:06:17 by eja",
  "dcmmeta_affine": [
    [-1.7028415203094482, -0.1876945048570633, -0.061747752130031586, 133.93283081054688],
    [-0.19542726874351501, 1.6797611713409424, 0.2787030339241028, -106.4056396484375],
    [-0.030241435393691063, -0.2862672209739685, 1.6758615970611572, -60.83020782470703],
    [0.0, 0.0, 0.0, 1.0]
],
  "dcmmeta_reorient_transform": [
    [0.0, -1.0, 0.0, 139.0],
    [1.0, 0.0, 0.0, 0.0],
    [0.0, 0.0, 1.0, 0.0],
    [0.0, 0.0, 0.0, 1.0]
],
  "dcmmeta_shape": [140, 140, 81, 103],
  "dcmmeta_slice_dim": 2,
  "dcmmeta_version": 0.6,
  "global": {
    "const": {
      "AccessionNumber": "A004045",
      "AcquisitionMatrix": [140, 0, 0, 140],
      "AngioFlag": "N",
      "BitsAllocated": 16,
      "BitsStored": 16,
      "BodyPartExamined": "BRAIN",
      "Columns": 1260,
      "EchoNumbers": 1,
      "EchoTime": 88.4,
      "EchoTrainLength": 105,
      "FlipAngle": 90.0,
      "HighBit": 15,
      "ImageOrientationPatient": [0.99332420370976, 0.11399924204374, -0.0176408372199, -0.1094884637483, 0.97986064275748, 0.16698921246874],
      "ImagePositionPatient": [-956.32561805079, -1177.1866585507, -243.99579368506],
      "ImageType": [
        "ORIGINAL",
        "PRIMARY",
        "DIFFUSION",
        "NONE",
        "MB",
        "ND",
        "MOSAIC"
],
      "ImagedNucleus": "1H",
      "ImagingFrequency": 123.252225,
      "InPlanePhaseEncodingDirection": "COL",
      "MRAcquisitionType": "2D",
      "MagneticFieldStrength": 3.0,
      "Manufacturer": "SIEMENS",
      "ManufacturerModelName": "Prisma",
      "Modality": "MR",
      "NumberOfAverages": 1.0,
      "NumberOfPhaseEncodingSteps": 105,
      "PercentPhaseFieldOfView": 100.0,
      "PercentSampling": 100.0,
      "PerformedProcedureStepStartTime": "202754.427000",
      "PhotometricInterpretation": "MONOCHROME2",
      "PixelBandwidth": 1700.0,
      "PixelRepresentation": 0,
      "PixelSpacing": [1.7142857313156, 1.7142857313156],
      "ProtocolName": "dwi_acq-96dir-6b0-mb",
      "RepetitionTime": 4110.0,
      "Rows": 1260,
      "SAR": 0.20006202374524,
      "SamplesPerPixel": 1,
      "ScanOptions": [
        "PFP",
        "FS"
],
      "ScanningSequence": "EP",
      "SequenceVariant": [
        "SK",
        "SS"
],
      "SeriesDescription": "dwi_acq-96dir-6b0-mb",
      "SeriesNumber": 8,
      "SeriesTime": "204352.681000",
      "SliceLocation": -82.275664234795,
      "SliceThickness": 1.7000000476837,
      "SmallestImagePixelValue": 0,
      "SoftwareVersions": "syngo MR E11",
      "SpacingBetweenSlices": 1.700000025227,
      "SpecificCharacterSet": "ISO_IR 100",
      "StudyID": "1",
      "StudyTime": "202754.374000",
      "TransmitCoilName": "Body",
      "VariableFlipAngleFlag": "N",
      "WindowCenterWidthExplanation": "Algo1"
    },
    "slices": {}
  },
  "time": {
    "samples": {
      "AcquisitionNumber": [1, 2, 3, 4, 5, 6, 7, 8, 9, 10, 11, 12, 13, 14, 15, 16, 17, 18, 19, 20, 21, 22, 23, 24, 25, 26, 27, 28, 29, 30, 31, 32, 33, 34, 35, 36, 37, 38, 39, 40, 41, 42, 43, 44, 45, 46, 47, 48, 49, 50, 51, 52, 53, 54, 55, 56, 57, 58, 59, 60, 61, 62, 63, 64, 65, 66, 67, 68, 69, 70, 71, 72, 73, 74, 75, 76, 77, 78, 79, 80, 81, 82, 83, 84, 85, 86, 87, 88, 89, 90, 91, 92, 93, 94, 95, 96, 97, 98, 99, 100, 101, 102, 103],
      "AcquisitionTime": ["204218.047500", "204222.157500", "204226.267500", "204230.377500", "204234.487500", "204238.597500", "204242.707500", "204246.817500", "204250.927500", "204255.037500", "204259.147500", "204303.257500", "204307.367500", "204311.477500", "204315.587500", "204319.697500", "204323.807500", "204327.917500", "204332.027500", "204336.137500", "204340.247500", "204344.357500", "204348.467500", "204352.577500", "204356.687500", "204400.797500", "204404.907500", "204409.017500", "204413.127500", "204417.237500", "204421.347500", "204425.457500", "204429.567500", "204433.677500", "204437.787500", "204441.897500", "204446.007500", "204450.117500", "204454.227500", "204458.337500", "204502.447500", "204506.557500", "204510.667500", "204514.777500", "204518.887500", "204522.997500", "204527.107500", "204531.217500", "204535.327500", "204539.437500", "204543.547500", "204547.657500", "204551.767500", "204555.877500", "204559.987500", "204604.097500", "204608.207500", "204612.317500", "204616.427500", "204620.537500", "204624.647500", "204628.757500", "204632.867500", "204636.977500", "204641.087500", "204645.197500", "204649.307500", "204653.417500", "204657.527500", "204701.637500", "204705.747500", "204709.857500", "204713.967500", "204718.077500", "204722.187500", "204726.297500", "204730.407500", "204734.517500", "204738.627500", "204742.737500", "204746.847500", "204750.957500", "204755.067500", "204759.177500", "204803.287500", "204807.397500", "204811.507500", "204815.617500", "204819.727500", "204823.837500", "204827.947500", "204832.057500", "204836.167500", "204840.277500", "204844.387500", "204848.497500", "204852.607500", "204856.717500", "204900.827500", "204904.937500", "204909.047500", "204913.157500", "204917.267500"],
      "ContentTime": ["204352.685000", "204352.689000", "204352.693000", "204352.702000", "204352.705000", "204352.708000", "204352.718000", "204352.721000", "204352.724000", "204352.727000", "204352.730000", "204352.733000", "204352.736000", "204352.739000", "204352.742000", "204352.745000", "204352.748000", "204352.751000", "204352.754000", "204352.757000", "204352.760000", "204352.764000", "204512.681000", "204512.684000", "204512.687000", "204512.690000", "204512.693000", "204512.696000", "204512.699000", "204512.702000", "204512.705000", "204512.708000", "204512.711000", "204512.715000", "204512.718000", "204512.721000", "204512.724000", "204512.727000", "204512.730000", "204512.733000", "204512.736000", "204512.739000", "204652.681000", "204652.684000", "204652.687000", "204652.691000", "204652.694000", "204652.697000", "204652.700000", "204652.703000", "204652.706000", "204652.715000", "204652.718000", "204652.721000", "204652.724000", "204652.727000", "204652.730000", "204652.733000", "204652.736000", "204652.739000", "204652.742000", "204652.745000", "204652.748000", "204652.751000", "204652.754000", "204652.757000", "204812.682000", "204812.685000", "204812.688000", "204812.691000", "204812.694000", "204812.697000", "204812.700000", "204812.704000", "204812.707000", "204812.710000", "204812.713000", "204812.716000", "204812.719000", "204812.722000", "204812.725000", "204812.728000", "204812.731000", "204812.734000", "204812.737000", "204812.740000", "204921.994000", "204921.998000", "204922.002000", "204922.005000", "204922.008000", "204922.012000", "204922.027000", "204922.030000", "204922.033000", "204922.036000", "204922.039000", "204922.042000", "204922.045000", "204922.048000", "204922.051000", "204922.054000", "204922.057000"],
      "InstanceCreationTime": ["204352.685000", "204352.689000", "204352.693000", "204352.702000", "204352.705000", "204352.708000", "204352.718000", "204352.721000", "204352.724000", "204352.727000", "204352.730000", "204352.733000", "204352.736000", "204352.739000", "204352.742000", "204352.745000", "204352.748000", "204352.751000", "204352.754000", "204352.757000", "204352.760000", "204352.764000", "204512.681000", "204512.684000", "204512.687000", "204512.690000", "204512.693000", "204512.696000", "204512.699000", "204512.702000", "204512.705000", "204512.708000", "204512.711000", "204512.715000", "204512.718000", "204512.721000", "204512.724000", "204512.727000", "204512.730000", "204512.733000", "204512.736000", "204512.739000", "204652.681000", "204652.684000", "204652.687000", "204652.691000", "204652.694000", "204652.697000", "204652.700000", "204652.703000", "204652.706000", "204652.715000", "204652.718000", "204652.721000", "204652.724000", "204652.727000", "204652.730000", "204652.733000", "204652.736000", "204652.739000", "204652.742000", "204652.745000", "204652.748000", "204652.751000", "204652.754000", "204652.757000", "204812.682000", "204812.685000", "204812.688000", "204812.691000", "204812.694000", "204812.697000", "204812.700000", "204812.704000", "204812.707000", "204812.710000", "204812.713000", "204812.716000", "204812.719000", "204812.722000", "204812.725000", "204812.728000", "204812.731000", "204812.734000", "204812.737000", "204812.740000", "204921.994000", "204921.998000", "204922.002000", "204922.005000", "204922.008000", "204922.012000", "204922.027000", "204922.030000", "204922.033000", "204922.036000", "204922.039000", "204922.042000", "204922.045000", "204922.048000", "204922.051000", "204922.054000", "204922.057000"],
      "InstanceNumber": [1, 2, 3, 4, 5, 6, 7, 8, 9, 10, 11, 12, 13, 14, 15, 16, 17, 18, 19, 20, 21, 22, 23, 24, 25, 26, 27, 28, 29, 30, 31, 32, 33, 34, 35, 36, 37, 38, 39, 40, 41, 42, 43, 44, 45, 46, 47, 48, 49, 50, 51, 52, 53, 54, 55, 56, 57, 58, 59, 60, 61, 62, 63, 64, 65, 66, 67, 68, 69, 70, 71, 72, 73, 74, 75, 76, 77, 78, 79, 80, 81, 82, 83, 84, 85, 86, 87, 88, 89, 90, 91, 92, 93, 94, 95, 96, 97, 98, 99, 100, 101, 102, 103],
      "LargestImagePixelValue": [65535, 65535, 48403, 50323, 49852, 52630, 50931, 52236, 65535, 33757, 38169, 34495, 35585, 36189, 35252, 36708, 36249, 34394, 36544, 34953, 33979, 34593, 36825, 35981, 65535, 16696, 17391, 20157, 17761, 20590, 21613, 17708, 20528, 16370, 18528, 20870, 19611, 18328, 18586, 17933, 65535, 13520, 12021, 16734, 14332, 10225, 10510, 13345, 11080, 10927, 13183, 13031, 12081, 15502, 13847, 10794, 13773, 10100, 13041, 15302, 10664, 15563, 10121, 10208, 10500, 10936, 10508, 9279, 17260, 13971, 13560, 10687, 11574, 65535, 12363, 10458, 11908, 9924, 12667, 10457, 10238, 15351, 11520, 11204, 12274, 11254, 12680, 12902, 13140, 12614, 18484, 10857, 13651, 13242, 15182, 17739, 10085, 10497, 15728, 10897, 12592, 10577, 65535],
      "SequenceName": [
 "ep_b5#1",
 "ep_b5#1",
 "ep_b500#2",
 "ep_b500#3",
 "ep_b500#4",
 "ep_b505#5",
 "ep_b495#6",
 "ep_b500#7",
 "ep_b5#8",
 "ep_b1000#9",
 "ep_b1005#10",
 "ep_b995#11",
 "ep_b1005#12",
 "ep_b995#13",
 "ep_b995#14",
 "ep_b1005#15",
 "ep_b1000#16",
 "ep_b1000#17",
 "ep_b995#18",
 "ep_b1000#19",
 "ep_b995#20",
 "ep_b1000#21",
 "ep_b1005#22",
 "ep_b1005#23",
 "ep_b5#24",
 "ep_b2000#25",
 "ep_b1995#26",
 "ep_b1995#27",
 "ep_b1995#28",
 "ep_b2005#29",
 "ep_b2010#30",
 "ep_b2005#31",
 "ep_b2005#32",
 "ep_b1995#33",
 "ep_b1990#34",
 "ep_b1995#35",
 "ep_b2005#36",
 "ep_b2000#37",
 "ep_b2010#38",
 "ep_b2000#39",
 "ep_b5#40",
 "ep_b3000#41",
 "ep_b3005#42",
 "ep_b3010#43",
 "ep_b3010#44",
 "ep_b3000#45",
 "ep_b3000#46",
 "ep_b2990#47",
 "ep_b3005#48",
 "ep_b3000#49",
 "ep_b2990#50",
 "ep_b2990#51",
 "ep_b2995#52",
 "ep_b2995#53",
 "ep_b3010#54",
 "ep_b3000#55",
 "ep_b2995#56",
 "ep_b3000#57",
 "ep_b2990#58",
 "ep_b2990#59",
 "ep_b3000#60",
 "ep_b2990#61",
 "ep_b2990#62",
 "ep_b2995#63",
 "ep_b3005#64",
 "ep_b3010#65",
 "ep_b3000#66",
 "ep_b3005#67",
 "ep_b3010#68",
 "ep_b3005#69",
 "ep_b3005#70",
 "ep_b3005#71",
 "ep_b2990#72",
 "ep_b5#73",
 "ep_b3010#74",
 "ep_b3000#75",
 "ep_b3005#76",
 "ep_b3005#77",
 "ep_b2995#78",
 "ep_b3005#79",
 "ep_b2995#80",
 "ep_b3010#81",
 "ep_b3010#82",
 "ep_b3005#83",
 "ep_b3000#84",
 "ep_b3005#85",
 "ep_b3010#86",
 "ep_b3010#87",
 "ep_b2990#88",
 "ep_b3010#89",
 "ep_b2995#90",
 "ep_b2995#91",
 "ep_b2990#92",
 "ep_b2995#93",
 "ep_b3005#94",
 "ep_b3005#95",
 "ep_b2995#96",
 "ep_b3000#97",
 "ep_b2990#98",
 "ep_b3000#99",
 "ep_b2995#100",
 "ep_b2995#101",
 "ep_b5#102"
],
      "WindowCenter": [10824.0, 10829.0, 7485.0, 7534.0, 7497.0, 7448.0, 7552.0, 7575.0, 10840.0, 5604.0, 5628.0, 5614.0, 5571.0, 5642.0, 5619.0, 5605.0, 5656.0, 5594.0, 5683.0, 5620.0, 5656.0, 5613.0, 5594.0, 5634.0, 10818.0, 3515.0, 3535.0, 3570.0, 3612.0, 3578.0, 3616.0, 3558.0, 3543.0, 3526.0, 3631.0, 3641.0, 3526.0, 3551.0, 3559.0, 3530.0, 10830.0, 2537.0, 2462.0, 2641.0, 2568.0, 2432.0, 2452.0, 2570.0, 2441.0, 2440.0, 2516.0, 2545.0, 2515.0, 2612.0, 2576.0, 2435.0, 2574.0, 2422.0, 2559.0, 2605.0, 2464.0, 2586.0, 2482.0, 2483.0, 2494.0, 2494.0, 2428.0, 2398.0, 2612.0, 2548.0, 2511.0, 2497.0, 2513.0, 10848.0, 2509.0, 2445.0, 2452.0, 2446.0, 2486.0, 2409.0, 2424.0, 2549.0, 2490.0, 2434.0, 2503.0, 2481.0, 2476.0, 2478.0, 2531.0, 2495.0, 2650.0, 2455.0, 2527.0, 2540.0, 2567.0, 2640.0, 2474.0, 2439.0, 2589.0, 2458.0, 2503.0, 2499.0, 10856.0],
      "WindowWidth": [24984.0, 25000.0, 15871.0, 15968.0, 15880.0, 15803.0, 16003.0, 16028.0, 25030.0, 12034.0, 12086.0, 12049.0, 11985.0, 12119.0, 12068.0, 12042.0, 12113.0, 12039.0, 12168.0, 12058.0, 12128.0, 12036.0, 12014.0, 12065.0, 24950.0, 8006.0, 8028.0, 8080.0, 8150.0, 8097.0, 8155.0, 8070.0, 8031.0, 8035.0, 8190.0, 8198.0, 7993.0, 8037.0, 8070.0, 8005.0, 24989.0, 6078.0, 5904.0, 6226.0, 6097.0, 5919.0, 5934.0, 6115.0, 5876.0, 5916.0, 5998.0, 6058.0, 6043.0, 6204.0, 6141.0, 5892.0, 6141.0, 5856.0, 6091.0, 6155.0, 5944.0, 6111.0, 5993.0, 6005.0, 6016.0, 6009.0, 5893.0, 5866.0, 6173.0, 6096.0, 6027.0, 6027.0, 6020.0, 25043.0, 6005.0, 5895.0, 5892.0, 5935.0, 5936.0, 5840.0, 5870.0, 6052.0, 6005.0, 5881.0, 6025.0, 5995.0, 5926.0, 5939.0, 6038.0, 5977.0, 6239.0, 5902.0, 6015.0, 6092.0, 6107.0, 6229.0, 5996.0, 5909.0, 6128.0, 5919.0, 6021.0, 6036.0, 25067.0]
    },
    "slices": {}
  }
}