{
  "AcquisitionMatrixPE": 82,
  "AcquisitionNumber": 1,
  "AcquisitionTime": "14:01:24.915000",
  "BandwidthPerPixelPhaseEncode": 24.888,
  "BaseResolution": 82,
  "BodyPartExamined": "BRAIN",
  "ConsistencyInfo": "N4_VE11E_LATEST_20181129",
  "ConversionSoftware": "dcm2niix",
  "ConversionSoftwareVersion": "v1.0.20201102",
  "DerivedVendorReportedEchoSpacing": 0.00049,
  "DeviceSerialNumber": "66112",
  "DwellTime": 2e-06,
  "EchoTime": 0.0272,
  "EchoTrainLength": 82,
  "EffectiveEchoSpacing": 0.00049,
  "FlipAngle": 44,
  "ImageComments": "Unaliased MB8/PE3",
  "ImageOrientationPatientDICOM": [0.998631, 0.051432, -0.00950169, -0.0518118, 0.997626, -0.0453599],
  "ImageType": [
    "ORIGINAL",
    "PRIMARY",
    "M",
    "MB",
    "ND",
    "NORM",
    "MOSAIC"
],
  "ImagingFrequency": 123.252,
  "InPlanePhaseEncodingDirectionDICOM": "COL",
  "InstitutionAddress": "Maynard 3,Hanover,NH,US,03755",
  "InstitutionName": "Dartmouth College - PBS",
  "InstitutionalDepartmentName": "Department",
  "MRAcquisitionType": "2D",
  "MagneticFieldStrength": 3,
  "Manufacturer": "Siemens",
  "ManufacturersModelName": "Prisma",
  "Modality": "MR",
  "MultibandAccelerationFactor": 8,
  "PartialFourier": 1,
  "PatientPosition": "HFS",
  "PercentPhaseFOV": 100,
  "PercentSampling": 100,
  "PhaseEncodingDirection": "j-",
  "PhaseEncodingSteps": 82,
  "PhaseResolution": 1,
  "PixelBandwidth": 3050,
  "ProcedureStepDescription": "Wager_Wager^1076_spacetop",
  "ProtocolName": "func_run-05_task-social_acq-ap-mb8",
  "PulseSequenceDetails": "%CustomerSeq%\\cmrr_mbep2d_bold",
  "ReceiveCoilActiveElements": "HEA;HEP",
  "ReceiveCoilName": "Head_32",
  "ReconMatrixPE": 82,
  "RepetitionTime": 0.46,
  "SAR": 0.100429,
  "ScanOptions": "FS",
  "ScanningSequence": "EP",
  "SequenceName": "epfid2d1_82",
  "SequenceVariant": "SK\\SS",
  "SeriesDescription": "func_run-05_task-social_acq-ap-mb8",
  "SeriesNumber": 28,
  "ShimSetting": [4127, -7728, -7267, 486, -72, -333, 47, 101],
  "SliceThickness": 2.7,
  "SliceTiming": [0, 0.25, 0.0625, 0.3125, 0.125, 0.375, 0.1875, 0, 0.25, 0.0625, 0.3125, 0.125, 0.375, 0.1875, 0, 0.25, 0.0625, 0.3125, 0.125, 0.375, 0.1875, 0, 0.25, 0.0625, 0.3125, 0.125, 0.375, 0.1875, 0, 0.25, 0.0625, 0.3125, 0.125, 0.375, 0.1875, 0, 0.25, 0.0625, 0.3125, 0.125, 0.375, 0.1875, 0, 0.25, 0.0625, 0.3125, 0.125, 0.375, 0.1875, 0, 0.25, 0.0625, 0.3125, 0.125, 0.375, 0.1875],
  "SoftwareVersions": "syngo MR E11",
  "SpacingBetweenSlices": 2.7,
  "StationName": "AWP66112",
  "TaskName": "social",
  "TotalReadoutTime": 0.03969,
  "TxRefAmp": 274.797,
  "WipMemBlock": "31e00034-e748-457c-815f-814caf2abe0f||Sequence: R016 ve11e/master r/434b28f1; Aug  7 2019 18:53:46 by eja",
  "dcmmeta_affine": [
    [-2.6792547702789307, -0.13900722563266754, -0.01929471455514431, 119.03520965576172],
    [-0.13798819482326508, 2.676558256149292, -0.12363330274820328, -87.7624282836914],
    [-0.02549234963953495, 0.12169728428125381, 2.697098970413208, -94.429931640625],
    [0.0, 0.0, 0.0, 1.0]
],
  "dcmmeta_reorient_transform": [
    [0.0, -1.0, 0.0, 81.0],
    [1.0, 0.0, 0.0, 0.0],
    [0.0, 0.0, 1.0, 0.0],
    [0.0, 0.0, 0.0, 1.0]
],
  "dcmmeta_shape": [82, 82, 56, 872],
  "dcmmeta_slice_dim": 2,
  "dcmmeta_version": 0.6,
  "global": {
    "const": {
      "AccessionNumber": "A004153",
      "AcquisitionMatrix": [82, 0, 0, 82],
      "AngioFlag": "N",
      "BitsAllocated": 16,
      "BitsStored": 16,
      "BodyPartExamined": "BRAIN",
      "Columns": 656,
      "EchoNumbers": 1,
      "EchoTime": 27.2,
      "EchoTrainLength": 82,
      "FlipAngle": 44.0,
      "HighBit": 15,
      "ImageOrientationPatient": [0.99863129877201, 0.05143196403367, -0.0095016939839, -0.0518117851193, 0.99762619193569, -0.0453598951348],
      "ImagePositionPatient": [-836.82666323297, -936.81358188492, -42.329023935216],
      "ImageType": [
        "ORIGINAL",
        "PRIMARY",
        "M",
        "MB",
        "ND",
        "NORM",
        "MOSAIC"
],
      "ImagedNucleus": "1H",
      "ImagingFrequency": 123.252191,
      "InPlanePhaseEncodingDirection": "COL",
      "MRAcquisitionType": "2D",
      "MagneticFieldStrength": 3.0,
      "Manufacturer": "SIEMENS",
      "ManufacturerModelName": "Prisma",
      "Modality": "MR",
      "NumberOfAverages": 1.0,
      "NumberOfPhaseEncodingSteps": 82,
      "PercentPhaseFieldOfView": 100.0,
      "PercentSampling": 100.0,
      "PerformedProcedureStepStartTime": "122242.430000",
      "PhotometricInterpretation": "MONOCHROME2",
      "PixelBandwidth": 3050.0,
      "PixelRepresentation": 0,
      "PixelSpacing": [2.6829268932343, 2.6829268932343],
      "ProtocolName": "func_run-05_task-social_acq-ap-mb8",
      "RepetitionTime": 460.0,
      "Rows": 656,
      "SAR": 0.10042914520521,
      "SamplesPerPixel": 1,
      "ScanOptions": "FS",
      "ScanningSequence": "EP",
      "SequenceName": "epfid2d1_82",
      "SequenceVariant": [
        "SK",
        "SS"
],
      "SeriesDescription": "func_run-05_task-social_acq-ap-mb8",
      "SeriesNumber": 28,
      "SeriesTime": "140144.773000",
      "SliceLocation": -91.160462526036,
      "SliceThickness": 2.7000000476837,
      "SmallestImagePixelValue": 0,
      "SoftwareVersions": "syngo MR E11",
      "SpacingBetweenSlices": 2.7000000493546,
      "SpecificCharacterSet": "ISO_IR 100",
      "StudyID": "2",
      "StudyTime": "122242.375000",
      "TransmitCoilName": "Body",
      "VariableFlipAngleFlag": "N",
      "WindowCenterWidthExplanation": "Algo1"
    },
    "slices": {}
  },
  "time": {
    "samples": {
      "AcquisitionNumber": [1, 2, 3, 4, 5, 6, 7, 8, 9, 10, 11, 12, 13, 14, 15, 16, 17, 18, 19, 20, 21, 22, 23, 24, 25, 26, 27, 28, 29, 30, 31, 32, 33, 34, 35, 36, 37, 38, 39, 40, 41, 42, 43, 44, 45, 46, 47, 48, 49, 50, 51, 52, 53, 54, 55, 56, 57, 58, 59, 60, 61, 62, 63, 64, 65, 66, 67, 68, 69, 70, 71, 72, 73, 74, 75, 76, 77, 78, 79, 80, 81, 82, 83, 84, 85, 86, 87, 88, 89, 90, 91, 92, 93, 94, 95, 96, 97, 98, 99, 100, 101, 102, 103, 104, 105, 106, 107, 108, 109, 110, 111, 112, 113, 114, 115, 116, 117, 118, 119, 120, 121, 122, 123, 124, 125, 126, 127, 128, 129, 130, 131, 132, 133, 134, 135, 136, 137, 138, 139, 140, 141, 142, 143, 144, 145, 146, 147, 148, 149, 150, 151, 152, 153, 154, 155, 156, 157, 158, 159, 160, 161, 162, 163, 164, 165, 166, 167, 168, 169, 170, 171, 172, 173, 174, 175, 176, 177, 178, 179, 180, 181, 182, 183, 184, 185, 186, 187, 188, 189, 190, 191, 192, 193, 194, 195, 196, 197, 198, 199, 200, 201, 202, 203, 204, 205, 206, 207, 208, 209, 210, 211, 212, 213, 214, 215, 216, 217, 218, 219, 220, 221, 222, 223, 224, 225, 226, 227, 228, 229, 230, 231, 232, 233, 234, 235, 236, 237, 238, 239, 240, 241, 242, 243, 244, 245, 246, 247, 248, 249, 250, 251, 252, 253, 254, 255, 256, 257, 258, 259, 260, 261, 262, 263, 264, 265, 266, 267, 268, 269, 270, 271, 272, 273, 274, 275, 276, 277, 278, 279, 280, 281, 282, 283, 284, 285, 286, 287, 288, 289, 290, 291, 292, 293, 294, 295, 296, 297, 298, 299, 300, 301, 302, 303, 304, 305, 306, 307, 308, 309, 310, 311, 312, 313, 314, 315, 316, 317, 318, 319, 320, 321, 322, 323, 324, 325, 326, 327, 328, 329, 330, 331, 332, 333, 334, 335, 336, 337, 338, 339, 340, 341, 342, 343, 344, 345, 346, 347, 348, 349, 350, 351, 352, 353, 354, 355, 356, 357, 358, 359, 360, 361, 362, 363, 364, 365, 366, 367, 368, 369, 370, 371, 372, 373, 374, 375, 376, 377, 378, 379, 380, 381, 382, 383, 384, 385, 386, 387, 388, 389, 390, 391, 392, 393, 394, 395, 396, 397, 398, 399, 400, 401, 402, 403, 404, 405, 406, 407, 408, 409, 410, 411, 412, 413, 414, 415, 416, 417, 418, 419, 420, 421, 422, 423, 424, 425, 426, 427, 428, 429, 430, 431, 432, 433, 434, 435, 436, 437, 438, 439, 440, 441, 442, 443, 444, 445, 446, 447, 448, 449, 450, 451, 452, 453, 454, 455, 456, 457, 458, 459, 460, 461, 462, 463, 464, 465, 466, 467, 468, 469, 470, 471, 472, 473, 474, 475, 476, 477, 478, 479, 480, 481, 482, 483, 484, 485, 486, 487, 488, 489, 490, 491, 492, 493, 494, 495, 496, 497, 498, 499, 500, 501, 502, 503, 504, 505, 506, 507, 508, 509, 510, 511, 512, 513, 514, 515, 516, 517, 518, 519, 520, 521, 522, 523, 524, 525, 526, 527, 528, 529, 530, 531, 532, 533, 534, 535, 536, 537, 538, 539, 540, 541, 542, 543, 544, 545, 546, 547, 548, 549, 550, 551, 552, 553, 554, 555, 556, 557, 558, 559, 560, 561, 562, 563, 564, 565, 566, 567, 568, 569, 570, 571, 572, 573, 574, 575, 576, 577, 578, 579, 580, 581, 582, 583, 584, 585, 586, 587, 588, 589, 590, 591, 592, 593, 594, 595, 596, 597, 598, 599, 600, 601, 602, 603, 604, 605, 606, 607, 608, 609, 610, 611, 612, 613, 614, 615, 616, 617, 618, 619, 620, 621, 622, 623, 624, 625, 626, 627, 628, 629, 630, 631, 632, 633, 634, 635, 636, 637, 638, 639, 640, 641, 642, 643, 644, 645, 646, 647, 648, 649, 650, 651, 652, 653, 654, 655, 656, 657, 658, 659, 660, 661, 662, 663, 664, 665, 666, 667, 668, 669, 670, 671, 672, 673, 674, 675, 676, 677, 678, 679, 680, 681, 682, 683, 684, 685, 686, 687, 688, 689, 690, 691, 692, 693, 694, 695, 696, 697, 698, 699, 700, 701, 702, 703, 704, 705, 706, 707, 708, 709, 710, 711, 712, 713, 714, 715, 716, 717, 718, 719, 720, 721, 722, 723, 724, 725, 726, 727, 728, 729, 730, 731, 732, 733, 734, 735, 736, 737, 738, 739, 740, 741, 742, 743, 744, 745, 746, 747, 748, 749, 750, 751, 752, 753, 754, 755, 756, 757, 758, 759, 760, 761, 762, 763, 764, 765, 766, 767, 768, 769, 770, 771, 772, 773, 774, 775, 776, 777, 778, 779, 780, 781, 782, 783, 784, 785, 786, 787, 788, 789, 790, 791, 792, 793, 794, 795, 796, 797, 798, 799, 800, 801, 802, 803, 804, 805, 806, 807, 808, 809, 810, 811, 812, 813, 814, 815, 816, 817, 818, 819, 820, 821, 822, 823, 824, 825, 826, 827, 828, 829, 830, 831, 832, 833, 834, 835, 836, 837, 838, 839, 840, 841, 842, 843, 844, 845, 846, 847, 848, 849, 850, 851, 852, 853, 854, 855, 856, 857, 858, 859, 860, 861, 862, 863, 864, 865, 866, 867, 868, 869, 870, 871, 872],
      "AcquisitionTime": ["140124.915000", "140125.375000", "140125.835000", "140126.295000", "140126.755000", "140127.215000", "140127.675000", "140128.135000", "140128.595000", "140129.055000", "140129.515000", "140129.975000", "140130.435000", "140130.895000", "140131.355000", "140131.815000", "140132.275000", "140132.735000", "140133.195000", "140133.655000", "140134.115000", "140134.575000", "140135.035000", "140135.495000", "140135.955000", "140136.415000", "140136.875000", "140137.335000", "140137.795000", "140138.255000", "140138.715000", "140139.175000", "140139.635000", "140140.095000", "140140.555000", "140141.015000", "140141.475000", "140141.935000", "140142.395000", "140142.855000", "140143.315000", "140143.775000", "140144.235000", "140144.695000", "140145.155000", "140145.615000", "140146.075000", "140146.535000", "140146.995000", "140147.455000", "140147.915000", "140148.375000", "140148.835000", "140149.295000", "140149.755000", "140150.215000", "140150.675000", "140151.135000", "140151.595000", "140152.055000", "140152.515000", "140152.975000", "140153.435000", "140153.895000", "140154.355000", "140154.815000", "140155.275000", "140155.735000", "140156.195000", "140156.655000", "140157.115000", "140157.575000", "140158.035000", "140158.495000", "140158.955000", "140159.415000", "140159.875000", "140200.335000", "140200.795000", "140201.255000", "140201.715000", "140202.175000", "140202.635000", "140203.095000", "140203.555000", "140204.015000", "140204.475000", "140204.935000", "140205.395000", "140205.855000", "140206.315000", "140206.775000", "140207.235000", "140207.695000", "140208.155000", "140208.615000", "140209.075000", "140209.535000", "140209.995000", "140210.455000", "140210.915000", "140211.375000", "140211.835000", "140212.295000", "140212.755000", "140213.215000", "140213.675000", "140214.135000", "140214.595000", "140215.055000", "140215.515000", "140215.975000", "140216.435000", "140216.895000", "140217.355000", "140217.815000", "140218.275000", "140218.735000", "140219.195000", "140219.655000", "140220.115000", "140220.575000", "140221.035000", "140221.495000", "140221.955000", "140222.415000", "140222.875000", "140223.335000", "140223.795000", "140224.255000", "140224.715000", "140225.175000", "140225.635000", "140226.095000", "140226.555000", "140227.015000", "140227.475000", "140227.935000", "140228.395000", "140228.855000", "140229.315000", "140229.775000", "140230.235000", "140230.695000", "140231.155000", "140231.615000", "140232.075000", "140232.535000", "140232.995000", "140233.455000", "140233.915000", "140234.375000", "140234.835000", "140235.295000", "140235.755000", "140236.215000", "140236.675000", "140237.135000", "140237.595000", "140238.055000", "140238.515000", "140238.975000", "140239.435000", "140239.895000", "140240.355000", "140240.815000", "140241.275000", "140241.735000", "140242.195000", "140242.655000", "140243.115000", "140243.575000", "140244.035000", "140244.495000", "140244.955000", "140245.415000", "140245.875000", "140246.335000", "140246.795000", "140247.255000", "140247.715000", "140248.175000", "140248.635000", "140249.095000", "140249.555000", "140250.015000", "140250.475000", "140250.935000", "140251.395000", "140251.855000", "140252.315000", "140252.775000", "140253.235000", "140253.695000", "140254.155000", "140254.615000", "140255.075000", "140255.535000", "140255.995000", "140256.455000", "140256.915000", "140257.375000", "140257.835000", "140258.295000", "140258.755000", "140259.215000", "140259.675000", "140300.135000", "140300.595000", "140301.055000", "140301.515000", "140301.975000", "140302.435000", "140302.895000", "140303.355000", "140303.815000", "140304.275000", "140304.735000", "140305.195000", "140305.655000", "140306.115000", "140306.575000", "140307.035000", "140307.495000", "140307.955000", "140308.415000", "140308.875000", "140309.335000", "140309.795000", "140310.255000", "140310.715000", "140311.175000", "140311.635000", "140312.095000", "140312.555000", "140313.015000", "140313.475000", "140313.935000", "140314.395000", "140314.855000", "140315.315000", "140315.775000", "140316.235000", "140316.695000", "140317.155000", "140317.615000", "140318.075000", "140318.535000", "140318.995000", "140319.455000", "140319.915000", "140320.375000", "140320.835000", "140321.295000", "140321.755000", "140322.215000", "140322.675000", "140323.135000", "140323.595000", "140324.055000", "140324.515000", "140324.975000", "140325.435000", "140325.895000", "140326.355000", "140326.815000", "140327.275000", "140327.735000", "140328.195000", "140328.655000", "140329.115000", "140329.575000", "140330.035000", "140330.495000", "140330.955000", "140331.415000", "140331.875000", "140332.335000", "140332.795000", "140333.255000", "140333.715000", "140334.175000", "140334.635000", "140335.095000", "140335.555000", "140336.015000", "140336.475000", "140336.935000", "140337.395000", "140337.855000", "140338.315000", "140338.775000", "140339.235000", "140339.695000", "140340.155000", "140340.615000", "140341.075000", "140341.535000", "140341.995000", "140342.455000", "140342.915000", "140343.375000", "140343.835000", "140344.295000", "140344.755000", "140345.215000", "140345.675000", "140346.135000", "140346.595000", "140347.055000", "140347.515000", "140347.975000", "140348.435000", "140348.895000", "140349.355000", "140349.815000", "140350.275000", "140350.735000", "140351.195000", "140351.655000", "140352.115000", "140352.575000", "140353.035000", "140353.495000", "140353.955000", "140354.415000", "140354.875000", "140355.335000", "140355.795000", "140356.255000", "140356.715000", "140357.175000", "140357.635000", "140358.095000", "140358.555000", "140359.015000", "140359.475000", "140359.935000", "140400.395000", "140400.855000", "140401.315000", "140401.775000", "140402.235000", "140402.695000", "140403.155000", "140403.615000", "140404.075000", "140404.535000", "140404.995000", "140405.455000", "140405.915000", "140406.375000", "140406.835000", "140407.295000", "140407.755000", "140408.215000", "140408.675000", "140409.135000", "140409.595000", "140410.055000", "140410.515000", "140410.975000", "140411.435000", "140411.895000", "140412.355000", "140412.815000", "140413.275000", "140413.735000", "140414.195000", "140414.655000", "140415.115000", "140415.575000", "140416.035000", "140416.495000", "140416.955000", "140417.415000", "140417.875000", "140418.335000", "140418.795000", "140419.255000", "140419.715000", "140420.175000", "140420.635000", "140421.095000", "140421.555000", "140422.015000", "140422.475000", "140422.935000", "140423.395000", "140423.855000", "140424.315000", "140424.775000", "140425.235000", "140425.695000", "140426.155000", "140426.615000", "140427.075000", "140427.535000", "140427.995000", "140428.455000", "140428.915000", "140429.375000", "140429.835000", "140430.295000", "140430.755000", "140431.215000", "140431.675000", "140432.135000", "140432.595000", "140433.055000", "140433.515000", "140433.975000", "140434.435000", "140434.895000", "140435.355000", "140435.815000", "140436.275000", "140436.735000", "140437.195000", "140437.655000", "140438.115000", "140438.575000", "140439.035000", "140439.495000", "140439.955000", "140440.415000", "140440.875000", "140441.335000", "140441.795000", "140442.255000", "140442.715000", "140443.175000", "140443.635000", "140444.095000", "140444.555000", "140445.015000", "140445.475000", "140445.935000", "140446.395000", "140446.855000", "140447.315000", "140447.775000", "140448.235000", "140448.695000", "140449.155000", "140449.615000", "140450.075000", "140450.535000", "140450.995000", "140451.455000", "140451.915000", "140452.375000", "140452.835000", "140453.295000", "140453.755000", "140454.215000", "140454.675000", "140455.135000", "140455.595000", "140456.055000", "140456.515000", "140456.975000", "140457.435000", "140457.895000", "140458.355000", "140458.815000", "140459.275000", "140459.735000", "140500.195000", "140500.655000", "140501.115000", "140501.575000", "140502.035000", "140502.495000", "140502.955000", "140503.415000", "140503.875000", "140504.335000", "140504.795000", "140505.255000", "140505.715000", "140506.175000", "140506.635000", "140507.095000", "140507.555000", "140508.015000", "140508.475000", "140508.935000", "140509.395000", "140509.855000", "140510.315000", "140510.775000", "140511.235000", "140511.695000", "140512.155000", "140512.615000", "140513.075000", "140513.535000", "140513.995000", "140514.455000", "140514.915000", "140515.375000", "140515.835000", "140516.295000", "140516.755000", "140517.215000", "140517.675000", "140518.135000", "140518.595000", "140519.055000", "140519.515000", "140519.975000", "140520.435000", "140520.895000", "140521.355000", "140521.815000", "140522.275000", "140522.735000", "140523.195000", "140523.655000", "140524.115000", "140524.575000", "140525.035000", "140525.495000", "140525.955000", "140526.415000", "140526.875000", "140527.335000", "140527.795000", "140528.255000", "140528.715000", "140529.175000", "140529.635000", "140530.095000", "140530.555000", "140531.015000", "140531.475000", "140531.935000", "140532.395000", "140532.855000", "140533.315000", "140533.775000", "140534.235000", "140534.695000", "140535.155000", "140535.615000", "140536.075000", "140536.535000", "140536.995000", "140537.455000", "140537.915000", "140538.375000", "140538.835000", "140539.295000", "140539.755000", "140540.215000", "140540.675000", "140541.135000", "140541.595000", "140542.055000", "140542.515000", "140542.975000", "140543.435000", "140543.895000", "140544.355000", "140544.815000", "140545.275000", "140545.735000", "140546.195000", "140546.655000", "140547.115000", "140547.575000", "140548.035000", "140548.495000", "140548.955000", "140549.415000", "140549.875000", "140550.335000", "140550.795000", "140551.255000", "140551.715000", "140552.175000", "140552.635000", "140553.095000", "140553.555000", "140554.015000", "140554.475000", "140554.935000", "140555.395000", "140555.855000", "140556.315000", "140556.775000", "140557.235000", "140557.695000", "140558.155000", "140558.615000", "140559.075000", "140559.535000", "140559.995000", "140600.455000", "140600.915000", "140601.375000", "140601.835000", "140602.295000", "140602.755000", "140603.215000", "140603.675000", "140604.135000", "140604.595000", "140605.055000", "140605.515000", "140605.975000", "140606.435000", "140606.895000", "140607.355000", "140607.815000", "140608.275000", "140608.735000", "140609.195000", "140609.655000", "140610.115000", "140610.575000", "140611.035000", "140611.495000", "140611.955000", "140612.415000", "140612.875000", "140613.335000", "140613.795000", "140614.255000", "140614.715000", "140615.175000", "140615.635000", "140616.095000", "140616.555000", "140617.015000", "140617.475000", "140617.935000", "140618.395000", "140618.855000", "140619.315000", "140619.775000", "140620.235000", "140620.695000", "140621.155000", "140621.615000", "140622.075000", "140622.535000", "140622.995000", "140623.455000", "140623.915000", "140624.375000", "140624.835000", "140625.295000", "140625.755000", "140626.215000", "140626.675000", "140627.135000", "140627.595000", "140628.055000", "140628.515000", "140628.975000", "140629.435000", "140629.895000", "140630.355000", "140630.815000", "140631.275000", "140631.735000", "140632.195000", "140632.655000", "140633.115000", "140633.575000", "140634.035000", "140634.495000", "140634.955000", "140635.415000", "140635.875000", "140636.335000", "140636.795000", "140637.255000", "140637.715000", "140638.175000", "140638.635000", "140639.095000", "140639.555000", "140640.015000", "140640.475000", "140640.935000", "140641.395000", "140641.855000", "140642.315000", "140642.775000", "140643.235000", "140643.695000", "140644.155000", "140644.615000", "140645.075000", "140645.535000", "140645.995000", "140646.455000", "140646.915000", "140647.375000", "140647.835000", "140648.295000", "140648.755000", "140649.215000", "140649.675000", "140650.135000", "140650.595000", "140651.055000", "140651.515000", "140651.975000", "140652.435000", "140652.895000", "140653.355000", "140653.815000", "140654.275000", "140654.735000", "140655.195000", "140655.655000", "140656.115000", "140656.575000", "140657.035000", "140657.495000", "140657.955000", "140658.415000", "140658.875000", "140659.335000", "140659.795000", "140700.255000", "140700.715000", "140701.175000", "140701.635000", "140702.095000", "140702.555000", "140703.015000", "140703.475000", "140703.935000", "140704.395000", "140704.855000", "140705.315000", "140705.775000", "140706.235000", "140706.695000", "140707.155000", "140707.615000", "140708.075000", "140708.535000", "140708.995000", "140709.455000", "140709.915000", "140710.375000", "140710.835000", "140711.295000", "140711.755000", "140712.215000", "140712.675000", "140713.135000", "140713.595000", "140714.055000", "140714.515000", "140714.975000", "140715.435000", "140715.895000", "140716.355000", "140716.815000", "140717.275000", "140717.735000", "140718.195000", "140718.655000", "140719.115000", "140719.575000", "140720.035000", "140720.495000", "140720.955000", "140721.415000", "140721.875000", "140722.335000", "140722.795000", "140723.255000", "140723.715000", "140724.175000", "140724.635000", "140725.095000", "140725.555000", "140726.015000", "140726.475000", "140726.935000", "140727.395000", "140727.855000", "140728.315000", "140728.775000", "140729.235000", "140729.695000", "140730.155000", "140730.615000", "140731.075000", "140731.535000", "140731.995000", "140732.455000", "140732.915000", "140733.375000", "140733.835000", "140734.295000", "140734.755000", "140735.215000", "140735.675000", "140736.135000", "140736.595000", "140737.055000", "140737.515000", "140737.975000", "140738.435000", "140738.895000", "140739.355000", "140739.815000", "140740.275000", "140740.735000", "140741.195000", "140741.655000", "140742.115000", "140742.575000", "140743.035000", "140743.495000", "140743.955000", "140744.415000", "140744.875000", "140745.335000", "140745.795000", "140746.255000", "140746.715000", "140747.175000", "140747.635000", "140748.095000", "140748.555000", "140749.015000", "140749.475000", "140749.935000", "140750.395000", "140750.855000", "140751.315000", "140751.775000", "140752.235000", "140752.695000", "140753.155000", "140753.615000", "140754.075000", "140754.535000", "140754.995000", "140755.455000", "140755.915000", "140756.375000", "140756.835000", "140757.295000", "140757.755000", "140758.215000", "140758.675000", "140759.135000", "140759.595000", "140800.055000", "140800.515000", "140800.975000", "140801.435000", "140801.895000", "140802.355000", "140802.815000", "140803.275000", "140803.735000", "140804.195000", "140804.655000", "140805.115000", "140805.575000"],
