{
  "AcquisitionMatrixPE": 82,
  "AcquisitionNumber": 1,
  "AcquisitionTime": "13:38:56.407500",
  "BandwidthPerPixelPhaseEncode": 24.888,
  "BaseResolution": 82,
  "BodyPartExamined": "BRAIN",
  "ConsistencyInfo": "N4_VE11E_LATEST_20181129",
  "ConversionSoftware": "dcm2niix",
  "ConversionSoftwareVersion": "v1.0.20201102",
  "DerivedVendorReportedEchoSpacing": 0.00049,
  "DeviceSerialNumber": "66112",
  "DwellTime": 2e-06,
  "EchoTime": 0.0272,
  "EchoTrainLength": 82,
  "EffectiveEchoSpacing": 0.00049,
  "FlipAngle": 44,
  "ImageComments": "Unaliased MB8/PE3",
  "ImageOrientationPatientDICOM": [0.998631, 0.051432, -0.00950169, -0.0518118, 0.997626, -0.0453599],
  "ImageType": [
    "ORIGINAL",
    "PRIMARY",
    "M",
    "MB",
    "ND",
    "NORM",
    "MOSAIC"
],
  "ImagingFrequency": 123.252,
  "InPlanePhaseEncodingDirectionDICOM": "COL",
  "InstitutionAddress": "Maynard 3,Hanover,NH,US,03755",
  "InstitutionName": "Dartmouth College - PBS",
  "InstitutionalDepartmentName": "Department",
  "MRAcquisitionType": "2D",
  "MagneticFieldStrength": 3,
  "Manufacturer": "Siemens",
  "ManufacturersModelName": "Prisma",
  "Modality": "MR",
  "MultibandAccelerationFactor": 8,
  "PartialFourier": 1,
  "PatientPosition": "HFS",
  "PercentPhaseFOV": 100,
  "PercentSampling": 100,
  "PhaseEncodingDirection": "j-",
  "PhaseEncodingSteps": 82,
  "PhaseResolution": 1,
  "PixelBandwidth": 3050,
  "ProcedureStepDescription": "Wager_Wager^1076_spacetop",
  "ProtocolName": "func_run-02_task-social_acq-ap-mb8",
  "PulseSequenceDetails": "%CustomerSeq%\\cmrr_mbep2d_bold",
  "ReceiveCoilActiveElements": "HEA;HEP",
  "ReceiveCoilName": "Head_32",
  "ReconMatrixPE": 82,
  "RepetitionTime": 0.46,
  "SAR": 0.100429,
  "ScanOptions": "FS",
  "ScanningSequence": "EP",
  "SequenceName": "epfid2d1_82",
  "SequenceVariant": "SK\\SS",
  "SeriesDescription": "func_run-02_task-social_acq-ap-mb8",
  "SeriesNumber": 22,
  "ShimSetting": [4127, -7728, -7267, 486, -72, -333, 47, 101],
  "SliceThickness": 2.7,
  "SliceTiming": [0, 0.25, 0.0625, 0.3125, 0.125, 0.3775, 0.1875, 0, 0.25, 0.0625, 0.3125, 0.125, 0.3775, 0.1875, 0, 0.25, 0.0625, 0.3125, 0.125, 0.3775, 0.1875, 0, 0.25, 0.0625, 0.3125, 0.125, 0.3775, 0.1875, 0, 0.25, 0.0625, 0.3125, 0.125, 0.3775, 0.1875, 0, 0.25, 0.0625, 0.3125, 0.125, 0.3775, 0.1875, 0, 0.25, 0.0625, 0.3125, 0.125, 0.3775, 0.1875, 0, 0.25, 0.0625, 0.3125, 0.125, 0.3775, 0.1875],
  "SoftwareVersions": "syngo MR E11",
  "SpacingBetweenSlices": 2.7,
  "StationName": "AWP66112",
  "TaskName": "social",
  "TotalReadoutTime": 0.03969,
  "TxRefAmp": 274.797,
  "WipMemBlock": "03da5bda-c755-4b78-b20e-bacc3b1c1040||Sequence: R016 ve11e/master r/434b28f1; Aug  7 2019 18:53:46 by eja",
  "dcmmeta_affine": [
    [-2.6792547702789307, -0.13900722563266754, -0.01929471455514431, 119.03520965576172],
    [-0.13798819482326508, 2.676558256149292, -0.12363330274820328, -87.7624282836914],
    [-0.02549234963953495, 0.12169728428125381, 2.697098970413208, -94.429931640625],
    [0.0, 0.0, 0.0, 1.0]
],
  "dcmmeta_reorient_transform": [
    [0.0, -1.0, 0.0, 81.0],
    [1.0, 0.0, 0.0, 0.0],
    [0.0, 0.0, 1.0, 0.0],
    [0.0, 0.0, 0.0, 1.0]
],
  "dcmmeta_shape": [82, 82, 56, 872],
  "dcmmeta_slice_dim": 2,
  "dcmmeta_version": 0.6,
  "global": {
    "const": {
      "AccessionNumber": "A004153",
      "AcquisitionMatrix": [82, 0, 0, 82],
      "AngioFlag": "N",
      "BitsAllocated": 16,
      "BitsStored": 16,
      "BodyPartExamined": "BRAIN",
      "Columns": 656,
      "EchoNumbers": 1,
      "EchoTime": 27.2,
      "EchoTrainLength": 82,
      "FlipAngle": 44.0,
      "HighBit": 15,
      "ImageOrientationPatient": [0.99863129877201, 0.05143196403367, -0.0095016939839, -0.0518117851193, 0.99762619193569, -0.0453598951348],
      "ImagePositionPatient": [-836.82666323297, -936.81358188492, -42.329023935216],
      "ImageType": [
        "ORIGINAL",
        "PRIMARY",
        "M",
        "MB",
        "ND",
        "NORM",
        "MOSAIC"
],
      "ImagedNucleus": "1H",
      "ImagingFrequency": 123.252185,
      "InPlanePhaseEncodingDirection": "COL",
      "MRAcquisitionType": "2D",
      "MagneticFieldStrength": 3.0,
      "Manufacturer": "SIEMENS",
      "ManufacturerModelName": "Prisma",
      "Modality": "MR",
      "NumberOfAverages": 1.0,
      "NumberOfPhaseEncodingSteps": 82,
      "PercentPhaseFieldOfView": 100.0,
      "PercentSampling": 100.0,
      "PerformedProcedureStepStartTime": "122242.430000",
      "PhotometricInterpretation": "MONOCHROME2",
      "PixelBandwidth": 3050.0,
      "PixelRepresentation": 0,
      "PixelSpacing": [2.6829268932343, 2.6829268932343],
      "ProtocolName": "func_run-02_task-social_acq-ap-mb8",
      "RepetitionTime": 460.0,
      "Rows": 656,
      "SAR": 0.10042914520521,
      "SamplesPerPixel": 1,
      "ScanOptions": "FS",
      "ScanningSequence": "EP",
      "SequenceName": "epfid2d1_82",
      "SequenceVariant": [
        "SK",
        "SS"
],
      "SeriesDescription": "func_run-02_task-social_acq-ap-mb8",
      "SeriesNumber": 22,
      "SeriesTime": "133924.786000",
      "SliceLocation": -91.160462526036,
      "SliceThickness": 2.7000000476837,
      "SmallestImagePixelValue": 0,
      "SoftwareVersions": "syngo MR E11",
      "SpacingBetweenSlices": 2.7000000493546,
      "SpecificCharacterSet": "ISO_IR 100",
      "StudyID": "2",
      "StudyTime": "122242.375000",
      "TransmitCoilName": "Body",
      "VariableFlipAngleFlag": "N",
      "WindowCenterWidthExplanation": "Algo1"
    },
    "slices": {}
  },
  "time": {
    "samples": {
      "AcquisitionNumber": [1, 2, 3, 4, 5, 6, 7, 8, 9, 10, 11, 12, 13, 14, 15, 16, 17, 18, 19, 20, 21, 22, 23, 24, 25, 26, 27, 28, 29, 30, 31, 32, 33, 34, 35, 36, 37, 38, 39, 40, 41, 42, 43, 44, 45, 46, 47, 48, 49, 50, 51, 52, 53, 54, 55, 56, 57, 58, 59, 60, 61, 62, 63, 64, 65, 66, 67, 68, 69, 70, 71, 72, 73, 74, 75, 76, 77, 78, 79, 80, 81, 82, 83, 84, 85, 86, 87, 88, 89, 90, 91, 92, 93, 94, 95, 96, 97, 98, 99, 100, 101, 102, 103, 104, 105, 106, 107, 108, 109, 110, 111, 112, 113, 114, 115, 116, 117, 118, 119, 120, 121, 122, 123, 124, 125, 126, 127, 128, 129, 130, 131, 132, 133, 134, 135, 136, 137, 138, 139, 140, 141, 142, 143, 144, 145, 146, 147, 148, 149, 150, 151, 152, 153, 154, 155, 156, 157, 158, 159, 160, 161, 162, 163, 164, 165, 166, 167, 168, 169, 170, 171, 172, 173, 174, 175, 176, 177, 178, 179, 180, 181, 182, 183, 184, 185, 186, 187, 188, 189, 190, 191, 192, 193, 194, 195, 196, 197, 198, 199, 200, 201, 202, 203, 204, 205, 206, 207, 208, 209, 210, 211, 212, 213, 214, 215, 216, 217, 218, 219, 220, 221, 222, 223, 224, 225, 226, 227, 228, 229, 230, 231, 232, 233, 234, 235, 236, 237, 238, 239, 240, 241, 242, 243, 244, 245, 246, 247, 248, 249, 250, 251, 252, 253, 254, 255, 256, 257, 258, 259, 260, 261, 262, 263, 264, 265, 266, 267, 268, 269, 270, 271, 272, 273, 274, 275, 276, 277, 278, 279, 280, 281, 282, 283, 284, 285, 286, 287, 288, 289, 290, 291, 292, 293, 294, 295, 296, 297, 298, 299, 300, 301, 302, 303, 304, 305, 306, 307, 308, 309, 310, 311, 312, 313, 314, 315, 316, 317, 318, 319, 320, 321, 322, 323, 324, 325, 326, 327, 328, 329, 330, 331, 332, 333, 334, 335, 336, 337, 338, 339, 340, 341, 342, 343, 344, 345, 346, 347, 348, 349, 350, 351, 352, 353, 354, 355, 356, 357, 358, 359, 360, 361, 362, 363, 364, 365, 366, 367, 368, 369, 370, 371, 372, 373, 374, 375, 376, 377, 378, 379, 380, 381, 382, 383, 384, 385, 386, 387, 388, 389, 390, 391, 392, 393, 394, 395, 396, 397, 398, 399, 400, 401, 402, 403, 404, 405, 406, 407, 408, 409, 410, 411, 412, 413, 414, 415, 416, 417, 418, 419, 420, 421, 422, 423, 424, 425, 426, 427, 428, 429, 430, 431, 432, 433, 434, 435, 436, 437, 438, 439, 440, 441, 442, 443, 444, 445, 446, 447, 448, 449, 450, 451, 452, 453, 454, 455, 456, 457, 458, 459, 460, 461, 462, 463, 464, 465, 466, 467, 468, 469, 470, 471, 472, 473, 474, 475, 476, 477, 478, 479, 480, 481, 482, 483, 484, 485, 486, 487, 488, 489, 490, 491, 492, 493, 494, 495, 496, 497, 498, 499, 500, 501, 502, 503, 504, 505, 506, 507, 508, 509, 510, 511, 512, 513, 514, 515, 516, 517, 518, 519, 520, 521, 522, 523, 524, 525, 526, 527, 528, 529, 530, 531, 532, 533, 534, 535, 536, 537, 538, 539, 540, 541, 542, 543, 544, 545, 546, 547, 548, 549, 550, 551, 552, 553, 554, 555, 556, 557, 558, 559, 560, 561, 562, 563, 564, 565, 566, 567, 568, 569, 570, 571, 572, 573, 574, 575, 576, 577, 578, 579, 580, 581, 582, 583, 584, 585, 586, 587, 588, 589, 590, 591, 592, 593, 594, 595, 596, 597, 598, 599, 600, 601, 602, 603, 604, 605, 606, 607, 608, 609, 610, 611, 612, 613, 614, 615, 616, 617, 618, 619, 620, 621, 622, 623, 624, 625, 626, 627, 628, 629, 630, 631, 632, 633, 634, 635, 636, 637, 638, 639, 640, 641, 642, 643, 644, 645, 646, 647, 648, 649, 650, 651, 652, 653, 654, 655, 656, 657, 658, 659, 660, 661, 662, 663, 664, 665, 666, 667, 668, 669, 670, 671, 672, 673, 674, 675, 676, 677, 678, 679, 680, 681, 682, 683, 684, 685, 686, 687, 688, 689, 690, 691, 692, 693, 694, 695, 696, 697, 698, 699, 700, 701, 702, 703, 704, 705, 706, 707, 708, 709, 710, 711, 712, 713, 714, 715, 716, 717, 718, 719, 720, 721, 722, 723, 724, 725, 726, 727, 728, 729, 730, 731, 732, 733, 734, 735, 736, 737, 738, 739, 740, 741, 742, 743, 744, 745, 746, 747, 748, 749, 750, 751, 752, 753, 754, 755, 756, 757, 758, 759, 760, 761, 762, 763, 764, 765, 766, 767, 768, 769, 770, 771, 772, 773, 774, 775, 776, 777, 778, 779, 780, 781, 782, 783, 784, 785, 786, 787, 788, 789, 790, 791, 792, 793, 794, 795, 796, 797, 798, 799, 800, 801, 802, 803, 804, 805, 806, 807, 808, 809, 810, 811, 812, 813, 814, 815, 816, 817, 818, 819, 820, 821, 822, 823, 824, 825, 826, 827, 828, 829, 830, 831, 832, 833, 834, 835, 836, 837, 838, 839, 840, 841, 842, 843, 844, 845, 846, 847, 848, 849, 850, 851, 852, 853, 854, 855, 856, 857, 858, 859, 860, 861, 862, 863, 864, 865, 866, 867, 868, 869, 870, 871, 872],
      "AcquisitionTime": ["133856.407500", "133856.867500", "133857.327500", "133857.787500", "133858.247500", "133858.707500", "133859.167500", "133859.627500", "133900.087500", "133900.547500", "133901.007500", "133901.467500", "133901.927500", "133902.387500", "133902.847500", "133903.307500", "133903.767500", "133904.227500", "133904.687500", "133905.147500", "133905.607500", "133906.067500", "133906.527500", "133906.987500", "133907.447500", "133907.907500", "133908.367500", "133908.827500", "133909.287500", "133909.747500", "133910.207500", "133910.667500", "133911.127500", "133911.587500", "133912.047500", "133912.507500", "133912.967500", "133913.427500", "133913.887500", "133914.347500", "133914.807500", "133915.267500", "133915.727500", "133916.187500", "133916.647500", "133917.107500", "133917.567500", "133918.027500", "133918.487500", "133918.947500", "133919.407500", "133919.867500", "133920.327500", "133920.787500", "133921.247500", "133921.707500", "133922.167500", "133922.627500", "133923.087500", "133923.547500", "133924.007500", "133924.467500", "133924.927500", "133925.387500", "133925.847500", "133926.307500", "133926.767500", "133927.227500", "133927.687500", "133928.147500", "133928.607500", "133929.067500", "133929.527500", "133929.987500", "133930.447500", "133930.907500", "133931.367500", "133931.827500", "133932.287500", "133932.747500", "133933.207500", "133933.667500", "133934.127500", "133934.587500", "133935.047500", "133935.507500", "133935.967500", "133936.427500", "133936.887500", "133937.347500", "133937.807500", "133938.267500", "133938.727500", "133939.187500", "133939.647500", "133940.107500", "133940.567500", "133941.027500", "133941.487500", "133941.947500", "133942.407500", "133942.867500", "133943.327500", "133943.787500", "133944.247500", "133944.707500", "133945.167500", "133945.627500", "133946.087500", "133946.547500", "133947.007500", "133947.467500", "133947.927500", "133948.387500", "133948.847500", "133949.307500", "133949.767500", "133950.227500", "133950.687500", "133951.147500", "133951.607500", "133952.067500", "133952.527500", "133952.987500", "133953.447500", "133953.907500", "133954.367500", "133954.827500", "133955.287500", "133955.747500", "133956.207500", "133956.667500", "133957.127500", "133957.587500", "133958.047500", "133958.507500", "133958.967500", "133959.427500", "133959.887500", "134000.347500", "134000.807500", "134001.267500", "134001.727500", "134002.187500", "134002.647500", "134003.107500", "134003.567500", "134004.027500", "134004.487500", "134004.947500", "134005.407500", "134005.867500", "134006.327500", "134006.787500", "134007.247500", "134007.707500", "134008.167500", "134008.627500", "134009.087500", "134009.547500", "134010.007500", "134010.467500", "134010.927500", "134011.387500", "134011.847500", "134012.307500", "134012.767500", "134013.227500", "134013.687500", "134014.147500", "134014.607500", "134015.067500", "134015.527500", "134015.987500", "134016.447500", "134016.907500", "134017.367500", "134017.827500", "134018.287500", "134018.747500", "134019.207500", "134019.667500", "134020.127500", "134020.587500", "134021.047500", "134021.507500", "134021.967500", "134022.427500", "134022.887500", "134023.347500", "134023.807500", "134024.267500", "134024.727500", "134025.187500", "134025.647500", "134026.107500", "134026.567500", "134027.027500", "134027.487500", "134027.947500", "134028.407500", "134028.867500", "134029.327500", "134029.787500", "134030.247500", "134030.707500", "134031.167500", "134031.627500", "134032.087500", "134032.547500", "134033.007500", "134033.467500", "134033.927500", "134034.387500", "134034.847500", "134035.307500", "134035.767500", "134036.227500", "134036.687500", "134037.147500", "134037.607500", "134038.067500", "134038.527500", "134038.987500", "134039.447500", "134039.907500", "134040.367500", "134040.827500", "134041.287500", "134041.747500", "134042.207500", "134042.667500", "134043.127500", "134043.587500", "134044.047500", "134044.507500", "134044.967500", "134045.427500", "134045.887500", "134046.347500", "134046.807500", "134047.267500", "134047.727500", "134048.187500", "134048.647500", "134049.107500", "134049.567500", "134050.027500", "134050.487500", "134050.947500", "134051.407500", "134051.867500", "134052.327500", "134052.787500", "134053.247500", "134053.707500", "134054.167500", "134054.627500", "134055.087500", "134055.547500", "134056.007500", "134056.467500", "134056.927500", "134057.387500", "134057.847500", "134058.307500", "134058.767500", "134059.227500", "134059.687500", "134100.147500", "134100.607500", "134101.067500", "134101.527500", "134101.987500", "134102.447500", "134102.907500", "134103.367500", "134103.827500", "134104.287500", "134104.747500", "134105.207500", "134105.667500", "134106.127500", "134106.587500", "134107.047500", "134107.507500", "134107.967500", "134108.427500", "134108.887500", "134109.347500", "134109.807500", "134110.267500", "134110.727500", "134111.187500", "134111.647500", "134112.107500", "134112.567500", "134113.027500", "134113.487500", "134113.947500", "134114.407500", "134114.867500", "134115.327500", "134115.787500", "134116.247500", "134116.707500", "134117.167500", "134117.627500", "134118.087500", "134118.547500", "134119.007500", "134119.467500", "134119.927500", "134120.387500", "134120.847500", "134121.307500", "134121.767500", "134122.227500", "134122.687500", "134123.147500", "134123.607500", "134124.067500", "134124.527500", "134124.987500", "134125.447500", "134125.907500", "134126.367500", "134126.827500", "134127.287500", "134127.747500", "134128.207500", "134128.667500", "134129.127500", "134129.587500", "134130.047500", "134130.507500", "134130.967500", "134131.427500", "134131.887500", "134132.347500", "134132.807500", "134133.267500", "134133.727500", "134134.187500", "134134.647500", "134135.107500", "134135.567500", "134136.027500", "134136.487500", "134136.947500", "134137.407500", "134137.867500", "134138.327500", "134138.787500", "134139.247500", "134139.707500", "134140.167500", "134140.627500", "134141.087500", "134141.547500", "134142.007500", "134142.467500", "134142.927500", "134143.387500", "134143.847500", "134144.307500", "134144.767500", "134145.227500", "134145.687500", "134146.147500", "134146.607500", "134147.067500", "134147.527500", "134147.987500", "134148.447500", "134148.907500", "134149.367500", "134149.827500", "134150.287500", "134150.747500", "134151.207500", "134151.667500", "134152.127500", "134152.587500", "134153.047500", "134153.507500", "134153.967500", "134154.427500", "134154.887500", "134155.347500", "134155.807500", "134156.267500", "134156.727500", "134157.187500", "134157.647500", "134158.107500", "134158.567500", "134159.027500", "134159.487500", "134159.947500", "134200.407500", "134200.867500", "134201.327500", "134201.787500", "134202.247500", "134202.707500", "134203.167500", "134203.627500", "134204.087500", "134204.547500", "134205.007500", "134205.467500", "134205.927500", "134206.387500", "134206.847500", "134207.307500", "134207.767500", "134208.227500", "134208.687500", "134209.147500", "134209.607500", "134210.067500", "134210.527500", "134210.987500", "134211.447500", "134211.907500", "134212.367500", "134212.827500", "134213.287500", "134213.747500", "134214.207500", "134214.667500", "134215.127500", "134215.587500", "134216.047500", "134216.507500", "134216.967500", "134217.427500", "134217.887500", "134218.347500", "134218.807500", "134219.267500", "134219.727500", "134220.187500", "134220.647500", "134221.107500", "134221.567500", "134222.027500", "134222.487500", "134222.947500", "134223.407500", "134223.867500", "134224.327500", "134224.787500", "134225.247500", "134225.707500", "134226.167500", "134226.627500", "134227.087500", "134227.547500", "134228.007500", "134228.467500", "134228.927500", "134229.387500", "134229.847500", "134230.307500", "134230.767500", "134231.227500", "134231.687500", "134232.147500", "134232.607500", "134233.067500", "134233.527500", "134233.987500", "134234.447500", "134234.907500", "134235.367500", "134235.827500", "134236.287500", "134236.747500", "134237.207500", "134237.667500", "134238.127500", "134238.587500", "134239.047500", "134239.507500", "134239.967500", "134240.427500", "134240.887500", "134241.347500", "134241.807500", "134242.267500", "134242.727500", "134243.187500", "134243.647500", "134244.107500", "134244.567500", "134245.027500", "134245.487500", "134245.947500", "134246.407500", "134246.867500", "134247.327500", "134247.787500", "134248.247500", "134248.707500", "134249.167500", "134249.627500", "134250.087500", "134250.547500", "134251.007500", "134251.467500", "134251.927500", "134252.387500", "134252.847500", "134253.307500", "134253.767500", "134254.227500", "134254.687500", "134255.147500", "134255.607500", "134256.067500", "134256.527500", "134256.987500", "134257.447500", "134257.907500", "134258.367500", "134258.827500", "134259.287500", "134259.747500", "134300.207500", "134300.667500", "134301.127500", "134301.587500", "134302.047500", "134302.507500", "134302.967500", "134303.427500", "134303.887500", "134304.347500", "134304.807500", "134305.267500", "134305.727500", "134306.187500", "134306.647500", "134307.107500", "134307.567500", "134308.027500", "134308.487500", "134308.947500", "134309.407500", "134309.867500", "134310.327500", "134310.787500", "134311.247500", "134311.707500", "134312.167500", "134312.627500", "134313.087500", "134313.547500", "134314.007500", "134314.467500", "134314.927500", "134315.387500", "134315.847500", "134316.307500", "134316.767500", "134317.227500", "134317.687500", "134318.147500", "134318.607500", "134319.067500", "134319.527500", "134319.987500", "134320.447500", "134320.907500", "134321.367500", "134321.827500", "134322.287500", "134322.747500", "134323.207500", "134323.667500", "134324.127500", "134324.587500", "134325.047500", "134325.507500", "134325.967500", "134326.427500", "134326.887500", "134327.347500", "134327.807500", "134328.267500", "134328.727500", "134329.187500", "134329.647500", "134330.107500", "134330.567500", "134331.027500", "134331.487500", "134331.947500", "134332.407500", "134332.867500", "134333.327500", "134333.787500", "134334.247500", "134334.707500", "134335.167500", "134335.627500", "134336.087500", "134336.547500", "134337.007500", "134337.467500", "134337.927500", "134338.387500", "134338.847500", "134339.307500", "134339.767500", "134340.227500", "134340.687500", "134341.147500", "134341.607500", "134342.067500", "134342.527500", "134342.987500", "134343.447500", "134343.907500", "134344.367500", "134344.827500", "134345.287500", "134345.747500", "134346.207500", "134346.667500", "134347.127500", "134347.587500", "134348.047500", "134348.507500", "134348.967500", "134349.427500", "134349.887500", "134350.347500", "134350.807500", "134351.267500", "134351.727500", "134352.187500", "134352.647500", "134353.107500", "134353.567500", "134354.027500", "134354.487500", "134354.947500", "134355.407500", "134355.867500", "134356.327500", "134356.787500", "134357.247500", "134357.707500", "134358.167500", "134358.627500", "134359.087500", "134359.547500", "134400.007500", "134400.467500", "134400.927500", "134401.387500", "134401.847500", "134402.307500", "134402.767500", "134403.227500", "134403.687500", "134404.147500", "134404.607500", "134405.067500", "134405.527500", "134405.987500", "134406.447500", "134406.907500", "134407.367500", "134407.827500", "134408.287500", "134408.747500", "134409.207500", "134409.667500", "134410.127500", "134410.587500", "134411.047500", "134411.507500", "134411.967500", "134412.427500", "134412.887500", "134413.347500", "134413.807500", "134414.267500", "134414.727500", "134415.187500", "134415.647500", "134416.107500", "134416.567500", "134417.027500", "134417.487500", "134417.947500", "134418.407500", "134418.867500", "134419.327500", "134419.787500", "134420.247500", "134420.707500", "134421.167500", "134421.627500", "134422.087500", "134422.547500", "134423.007500", "134423.467500", "134423.927500", "134424.387500", "134424.847500", "134425.307500", "134425.767500", "134426.227500", "134426.687500", "134427.147500", "134427.607500", "134428.067500", "134428.527500", "134428.987500", "134429.447500", "134429.907500", "134430.367500", "134430.827500", "134431.287500", "134431.747500", "134432.207500", "134432.667500", "134433.127500", "134433.587500", "134434.047500", "134434.507500", "134434.967500", "134435.427500", "134435.887500", "134436.347500", "134436.807500", "134437.267500", "134437.727500", "134438.187500", "134438.647500", "134439.107500", "134439.567500", "134440.027500", "134440.487500", "134440.947500", "134441.407500", "134441.867500", "134442.327500", "134442.787500", "134443.247500", "134443.707500", "134444.167500", "134444.627500", "134445.087500", "134445.547500", "134446.007500", "134446.467500", "134446.927500", "134447.387500", "134447.847500", "134448.307500", "134448.767500", "134449.227500", "134449.687500", "134450.147500", "134450.607500", "134451.067500", "134451.527500", "134451.987500", "134452.447500", "134452.907500", "134453.367500", "134453.827500", "134454.287500", "134454.747500", "134455.207500", "134455.667500", "134456.127500", "134456.587500", "134457.047500", "134457.507500", "134457.967500", "134458.427500", "134458.887500", "134459.347500", "134459.807500", "134500.267500", "134500.727500", "134501.187500", "134501.647500", "134502.107500", "134502.567500", "134503.027500", "134503.487500", "134503.947500", "134504.407500", "134504.867500", "134505.327500", "134505.787500", "134506.247500", "134506.707500", "134507.167500", "134507.627500", "134508.087500", "134508.547500", "134509.007500", "134509.467500", "134509.927500", "134510.387500", "134510.847500", "134511.307500", "134511.767500", "134512.227500", "134512.687500", "134513.147500", "134513.607500", "134514.067500", "134514.527500", "134514.987500", "134515.447500", "134515.907500", "134516.367500", "134516.827500", "134517.287500", "134517.747500", "134518.207500", "134518.667500", "134519.127500", "134519.587500", "134520.047500", "134520.507500", "134520.967500", "134521.427500", "134521.887500", "134522.347500", "134522.807500", "134523.267500", "134523.727500", "134524.187500", "134524.647500", "134525.107500", "134525.567500", "134526.027500", "134526.487500", "134526.947500", "134527.407500", "134527.867500", "134528.327500", "134528.787500", "134529.247500", "134529.707500", "134530.167500", "134530.627500", "134531.087500", "134531.547500", "134532.007500", "134532.467500", "134532.927500", "134533.387500", "134533.847500", "134534.307500", "134534.767500", "134535.227500", "134535.687500", "134536.147500", "134536.607500", "134537.067500"],
