{
  "AcquisitionMatrixPE": 140,
  "AcquisitionNumber": 1,
  "AcquisitionTime": "09:53:23.077500",
  "BandwidthPerPixelPhaseEncode": 10.352,
  "BaseResolution": 140,
  "BodyPartExamined": "BRAIN",
  "ConsistencyInfo": "N4_VE11C_LATEST_20160120",
  "ConversionSoftware": "dcm2niix",
  "ConversionSoftwareVersion": "v1.0.20201102",
  "DerivedVendorReportedEchoSpacing": 0.000689998,
  "DeviceSerialNumber": "66112",
  "DiffusionScheme": "Monopolar",
  "DwellTime": 2.1e-06,
  "EchoTime": 0.0884,
  "EchoTrainLength": 105,
  "EffectiveEchoSpacing": 0.000689998,
  "FlipAngle": 90,
  "ImageComments": "Unaliased MB3/PE3 SENSE1",
  "ImageOrientationPatientDICOM": [0.997997, -0.0505777, 0.0379938, 0.0510802, 0.998618, -0.0123738],
  "ImageType": [
    "ORIGINAL",
    "PRIMARY",
    "DIFFUSION",
    "NONE",
    "MB",
    "ND",
    "MOSAIC"
],
  "ImagingFrequency": 123.252,
  "InPlanePhaseEncodingDirectionDICOM": "COL",
  "InstitutionAddress": "Maynard 3,Hanover,NH,US,03755",
  "InstitutionName": "Dartmouth College - PBS",
  "InstitutionalDepartmentName": "Department",
  "MRAcquisitionType": "2D",
  "MagneticFieldStrength": 3,
  "Manufacturer": "Siemens",
  "ManufacturersModelName": "Prisma",
  "Modality": "MR",
  "MultibandAccelerationFactor": 3,
  "PartialFourier": 0.75,
  "PatientPosition": "HFS",
  "PercentPhaseFOV": 100,
  "PercentSampling": 100,
  "PhaseEncodingDirection": "j-",
  "PhaseEncodingSteps": 105,
  "PhaseResolution": 1,
  "PixelBandwidth": 1700,
  "ProcedureStepDescription": "Wager_Wager^1076_spacetop",
  "ProtocolName": "dwi_acq-96dir-6b0-mb",
  "PulseSequenceDetails": "%CustomerSeq%\\cmrr_mbep2d_diff",
  "ReceiveCoilActiveElements": "HEA;HEP",
  "ReceiveCoilName": "Head_32",
  "ReconMatrixPE": 140,
  "RepetitionTime": 4.11,
  "SAR": 0.259863,
  "ScanOptions": "PFP\\FS",
  "ScanningSequence": "EP",
  "SequenceName": "ep_b5#1",
  "SequenceVariant": "SK\\SS",
  "SeriesDescription": "dwi_acq-96dir-6b0-mb",
  "SeriesNumber": 8,
  "ShimSetting": [4157, -7730, -7261, 743, -63, -168, -12, 17],
  "SliceThickness": 1.7,
  "SliceTiming": [0, 2.12, 0.1525, 2.2725, 0.3025, 2.4225, 0.455, 2.575, 0.605, 2.7275, 0.7575, 2.8775, 0.91, 3.03, 1.06, 3.18, 1.2125, 3.3325, 1.3625, 3.485, 1.515, 3.635, 1.6675, 3.7875, 1.8175, 3.9375, 1.97, 0, 2.12, 0.1525, 2.2725, 0.3025, 2.4225, 0.455, 2.575, 0.605, 2.7275, 0.7575, 2.8775, 0.91, 3.03, 1.06, 3.18, 1.2125, 3.3325, 1.3625, 3.485, 1.515, 3.635, 1.6675, 3.7875, 1.8175, 3.9375, 1.97, 0, 2.12, 0.1525, 2.2725, 0.3025, 2.4225, 0.455, 2.575, 0.605, 2.7275, 0.7575, 2.8775, 0.91, 3.03, 1.06, 3.18, 1.2125, 3.3325, 1.3625, 3.485, 1.515, 3.635, 1.6675, 3.7875, 1.8175, 3.9375, 1.97],
  "SoftwareVersions": "syngo MR E11",
  "SpacingBetweenSlices": 1.7,
  "StationName": "AWP66112",
  "TotalReadoutTime": 0.0959097,
  "TxRefAmp": 232.71,
  "WipMemBlock": "73034c09-275d-4174-8704-fba52fff33d8||Sequence: R016 ve11c/master r/e634e98; Dec 19 2017 11:11:25 by eja",
  "dcmmeta_affine": [
    [-1.7108522653579712, 0.08756610751152039, 0.06343618780374527, 115.3037109375],
    [0.08670462667942047, 1.711916446685791, -0.024292608723044395, -107.41754913330078],
    [0.06513215601444244, 0.021212268620729446, 1.6986422538757324, -55.70204162597656],
    [0.0, 0.0, 0.0, 1.0]
],
  "dcmmeta_reorient_transform": [
    [0.0, -1.0, 0.0, 139.0],
    [1.0, 0.0, 0.0, 0.0],
    [0.0, 0.0, 1.0, 0.0],
    [0.0, 0.0, 0.0, 1.0]
],
  "dcmmeta_shape": [140, 140, 81, 103],
  "dcmmeta_slice_dim": 2,
  "dcmmeta_version": 0.6,
  "global": {
    "const": {
      "AccessionNumber": "A003585",
      "AcquisitionMatrix": [140, 0, 0, 140],
      "AngioFlag": "N",
      "BitsAllocated": 16,
      "BitsStored": 16,
      "BodyPartExamined": "BRAIN",
      "Columns": 1260,
      "EchoNumbers": 1,
      "EchoTime": 88.4,
      "EchoTrainLength": 105,
      "FlipAngle": 90.0,
      "HighBit": 15,
      "ImageOrientationPatient": [0.99799717962337, -0.0505777003041, 0.03799375864195, 0.05108022914042, 0.99861789423984, -0.0123738229721],
      "ImagePositionPatient": [-1134.5897220009, -1040.6574236045, -77.348676611292],
      "ImageType": [
        "ORIGINAL",
        "PRIMARY",
        "DIFFUSION",
        "NONE",
        "MB",
        "ND",
        "MOSAIC"
],
      "ImagedNucleus": "1H",
      "ImagingFrequency": 123.252164,
      "InPlanePhaseEncodingDirection": "COL",
      "MRAcquisitionType": "2D",
      "MagneticFieldStrength": 3.0,
      "Manufacturer": "SIEMENS",
      "ManufacturerModelName": "Prisma",
      "Modality": "MR",
      "NumberOfAverages": 1.0,
      "NumberOfPhaseEncodingSteps": 105,
      "PercentPhaseFieldOfView": 100.0,
      "PercentSampling": 100.0,
      "PerformedProcedureStepStartTime": "085846.609000",
      "PhotometricInterpretation": "MONOCHROME2",
      "PixelBandwidth": 1700.0,
      "PixelRepresentation": 0,
      "PixelSpacing": [1.7142857313156, 1.7142857313156],
      "ProtocolName": "dwi_acq-96dir-6b0-mb",
      "RepetitionTime": 4110.0,
      "Rows": 1260,
      "SAR": 0.25986326868352,
      "SamplesPerPixel": 1,
      "ScanOptions": [
        "PFP",
        "FS"
],
      "ScanningSequence": "EP",
      "SequenceVariant": [
        "SK",
        "SS"
],
      "SeriesDescription": "dwi_acq-96dir-6b0-mb",
      "SeriesNumber": 8,
      "SeriesTime": "095455.732000",
      "SliceLocation": -49.819980533673,
      "SliceThickness": 1.7000000476837,
      "SmallestImagePixelValue": 0,
      "SoftwareVersions": "syngo MR E11",
      "SpacingBetweenSlices": 1.6999999376858,
      "SpecificCharacterSet": "ISO_IR 100",
      "StudyID": "1",
      "StudyTime": "085846.445000",
      "TransmitCoilName": "Body",
      "VariableFlipAngleFlag": "N",
      "WindowCenterWidthExplanation": "Algo1",
      "dBdt": 0.0},
    "slices": {}
  },
  "time": {
    "samples": {
      "AcquisitionNumber": [1, 2, 3, 4, 5, 6, 7, 8, 9, 10, 11, 12, 13, 14, 15, 16, 17, 18, 19, 20, 21, 22, 23, 24, 25, 26, 27, 28, 29, 30, 31, 32, 33, 34, 35, 36, 37, 38, 39, 40, 41, 42, 43, 44, 45, 46, 47, 48, 49, 50, 51, 52, 53, 54, 55, 56, 57, 58, 59, 60, 61, 62, 63, 64, 65, 66, 67, 68, 69, 70, 71, 72, 73, 74, 75, 76, 77, 78, 79, 80, 81, 82, 83, 84, 85, 86, 87, 88, 89, 90, 91, 92, 93, 94, 95, 96, 97, 98, 99, 100, 101, 102, 103],
      "AcquisitionTime": ["095323.077500", "095327.187500", "095331.297500", "095335.407500", "095339.517500", "095343.627500", "095347.737500", "095351.847500", "095355.957500", "095400.067500", "095404.177500", "095408.287500", "095412.397500", "095416.507500", "095420.617500", "095424.727500", "095428.837500", "095432.947500", "095437.057500", "095441.167500", "095445.277500", "095449.387500", "095453.497500", "095457.607500", "095501.717500", "095505.827500", "095509.937500", "095514.047500", "095518.157500", "095522.267500", "095526.377500", "095530.487500", "095534.597500", "095538.707500", "095542.817500", "095546.927500", "095551.037500", "095555.147500", "095559.257500", "095603.367500", "095607.477500", "095611.587500", "095615.697500", "095619.807500", "095623.917500", "095628.027500", "095632.137500", "095636.247500", "095640.357500", "095644.467500", "095648.577500", "095652.687500", "095656.797500", "095700.907500", "095705.017500", "095709.127500", "095713.237500", "095717.347500", "095721.457500", "095725.567500", "095729.677500", "095733.787500", "095737.897500", "095742.007500", "095746.117500", "095750.227500", "095754.337500", "095758.447500", "095802.557500", "095806.667500", "095810.777500", "095814.887500", "095818.997500", "095823.107500", "095827.217500", "095831.327500", "095835.437500", "095839.547500", "095843.657500", "095847.767500", "095851.877500", "095855.987500", "095900.097500", "095904.207500", "095908.317500", "095912.427500", "095916.537500", "095920.647500", "095924.757500", "095928.867500", "095932.977500", "095937.087500", "095941.197500", "095945.307500", "095949.417500", "095953.527500", "095957.637500", "100001.747500", "100005.857500", "100009.967500", "100014.077500", "100018.187500", "100022.297500"],
      "ContentTime": ["095455.737000", "095455.741000", "095455.744000", "095455.748000", "095455.751000", "095455.754000", "095455.757000", "095455.761000", "095455.772000", "095455.776000", "095455.779000", "095455.782000", "095455.785000", "095455.792000", "095455.796000", "095455.799000", "095455.802000", "095455.806000", "095455.809000", "095455.812000", "095455.815000", "095455.833000", "095635.731000", "095635.735000", "095635.739000", "095635.742000", "095635.745000", "095635.748000", "095635.752000", "095635.755000", "095635.758000", "095635.762000", "095635.765000", "095635.768000", "095635.771000", "095635.775000", "095635.778000", "095635.781000", "095635.784000", "095635.788000", "095635.808000", "095635.811000", "095635.815000", "095635.818000", "095635.821000", "095635.824000", "095755.732000", "095755.736000", "095755.739000", "095755.743000", "095755.746000", "095755.749000", "095755.753000", "095755.756000", "095755.759000", "095755.763000", "095755.766000", "095755.769000", "095755.772000", "095755.776000", "095755.779000", "095755.782000", "095755.786000", "095755.789000", "095755.792000", "095755.795000", "095935.731000", "095935.735000", "095935.738000", "095935.742000", "095935.758000", "095935.761000", "095935.765000", "095935.768000", "095935.771000", "095935.774000", "095935.778000", "095935.781000", "095935.784000", "095935.792000", "095935.796000", "095935.799000", "095935.803000", "095935.806000", "095935.809000", "095935.813000", "095935.816000", "095935.819000", "095935.823000", "095935.826000", "100026.685000", "100026.689000", "100026.693000", "100026.696000", "100026.700000", "100026.705000", "100026.709000", "100026.713000", "100026.717000", "100026.723000", "100026.730000", "100026.737000", "100026.740000"],
      "InstanceCreationTime": ["095455.737000", "095455.741000", "095455.744000", "095455.748000", "095455.751000", "095455.754000", "095455.757000", "095455.761000", "095455.772000", "095455.776000", "095455.779000", "095455.782000", "095455.785000", "095455.792000", "095455.796000", "095455.799000", "095455.802000", "095455.806000", "095455.809000", "095455.812000", "095455.815000", "095455.833000", "095635.731000", "095635.735000", "095635.739000", "095635.742000", "095635.745000", "095635.748000", "095635.752000", "095635.755000", "095635.758000", "095635.762000", "095635.765000", "095635.768000", "095635.771000", "095635.775000", "095635.778000", "095635.781000", "095635.784000", "095635.788000", "095635.808000", "095635.811000", "095635.815000", "095635.818000", "095635.821000", "095635.824000", "095755.732000", "095755.736000", "095755.739000", "095755.743000", "095755.746000", "095755.749000", "095755.753000", "095755.756000", "095755.759000", "095755.763000", "095755.766000", "095755.769000", "095755.772000", "095755.776000", "095755.779000", "095755.782000", "095755.786000", "095755.789000", "095755.792000", "095755.795000", "095935.731000", "095935.735000", "095935.738000", "095935.742000", "095935.758000", "095935.761000", "095935.765000", "095935.768000", "095935.771000", "095935.774000", "095935.778000", "095935.781000", "095935.784000", "095935.792000", "095935.796000", "095935.799000", "095935.803000", "095935.806000", "095935.809000", "095935.813000", "095935.816000", "095935.819000", "095935.823000", "095935.826000", "100026.685000", "100026.689000", "100026.693000", "100026.696000", "100026.700000", "100026.705000", "100026.709000", "100026.713000", "100026.717000", "100026.723000", "100026.730000", "100026.737000", "100026.740000"],
      "InstanceNumber": [1, 2, 3, 4, 5, 6, 7, 8, 9, 10, 11, 12, 13, 14, 15, 16, 17, 18, 19, 20, 21, 22, 23, 24, 25, 26, 27, 28, 29, 30, 31, 32, 33, 34, 35, 36, 37, 38, 39, 40, 41, 42, 43, 44, 45, 46, 47, 48, 49, 50, 51, 52, 53, 54, 55, 56, 57, 58, 59, 60, 61, 62, 63, 64, 65, 66, 67, 68, 69, 70, 71, 72, 73, 74, 75, 76, 77, 78, 79, 80, 81, 82, 83, 84, 85, 86, 87, 88, 89, 90, 91, 92, 93, 94, 95, 96, 97, 98, 99, 100, 101, 102, 103],
      "LargestImagePixelValue": [65535, 65535, 47879, 47459, 47178, 46631, 48906, 46666, 65535, 31581, 33923, 32307, 35126, 32694, 35024, 36820, 32961, 33352, 30729, 33612, 32598, 30628, 32762, 33303, 65535, 16198, 16913, 17088, 17785, 17884, 19185, 15814, 18067, 16762, 17098, 17152, 16573, 18265, 17852, 16831, 65535, 11603, 10563, 11532, 12002, 9523, 9658, 10777, 9648, 9034, 11545, 10489, 10627, 13371, 10736, 9419, 13332, 10364, 11290, 11863, 9208, 10302, 10049, 9635, 10603, 10805, 9580, 9656, 10689, 9679, 10699, 9854, 11300, 65535, 11598, 9387, 8792, 8790, 10795, 9840, 9124, 12569, 9794, 10938, 11267, 10640, 11281, 10245, 12294, 10844, 12400, 10089, 12049, 10241, 10060, 12108, 10449, 9980, 11165, 8571, 11574, 10240, 65535],
      "SequenceName": [
 "ep_b5#1",
 "ep_b5#1",
 "ep_b500#2",
 "ep_b495#3",
 "ep_b500#4",
 "ep_b505#5",
 "ep_b495#6",
 "ep_b500#7",
 "ep_b5#8",
 "ep_b1000#9",
 "ep_b1005#10",
 "ep_b995#11",
 "ep_b1005#12",
 "ep_b995#13",
 "ep_b995#14",
 "ep_b1005#15",
 "ep_b1000#16",
 "ep_b1005#17",
 "ep_b1000#18",
 "ep_b1000#19",
 "ep_b995#20",
 "ep_b1000#21",
 "ep_b1005#22",
 "ep_b1005#23",
 "ep_b5#24",
 "ep_b2000#25",
 "ep_b1995#26",
 "ep_b1990#27",
 "ep_b2000#28",
 "ep_b2005#29",
 "ep_b2010#30",
 "ep_b2000#31",
 "ep_b2010#32",
 "ep_b2000#33",
 "ep_b1995#34",
 "ep_b1995#35",
 "ep_b2005#36",
 "ep_b1995#37",
 "ep_b2005#38",
 "ep_b1995#39",
 "ep_b5#40",
 "ep_b3000#41",
 "ep_b3005#42",
 "ep_b3010#43",
 "ep_b3010#44",
 "ep_b3000#45",
 "ep_b3000#46",
 "ep_b2990#47",
 "ep_b3005#48",
 "ep_b3005#49",
 "ep_b2990#50",
 "ep_b2990#51",
 "ep_b2995#52",
 "ep_b2995#53",
 "ep_b3005#54",
 "ep_b3000#55",
 "ep_b2995#56",
 "ep_b2995#57",
 "ep_b2990#58",
 "ep_b2990#59",
 "ep_b3000#60",
 "ep_b2990#61",
 "ep_b2990#62",
 "ep_b3000#63",
 "ep_b3000#64",
 "ep_b3010#65",
 "ep_b3000#66",
 "ep_b3005#67",
 "ep_b3010#68",
 "ep_b3005#69",
 "ep_b3005#70",
 "ep_b3005#71",
 "ep_b2990#72",
 "ep_b5#73",
 "ep_b3010#74",
 "ep_b3005#75",
 "ep_b3005#76",
 "ep_b3000#77",
 "ep_b2990#78",
 "ep_b3005#79",
 "ep_b2995#80",
 "ep_b3010#81",
 "ep_b3005#82",
 "ep_b3005#83",
 "ep_b3000#84",
 "ep_b3000#85",
 "ep_b3010#86",
 "ep_b3010#87",
 "ep_b2990#88",
 "ep_b3010#89",
 "ep_b2995#90",
 "ep_b2995#91",
 "ep_b2990#92",
 "ep_b2995#93",
 "ep_b3005#94",
 "ep_b3005#95",
 "ep_b2995#96",
 "ep_b3000#97",
 "ep_b2990#98",
 "ep_b2995#99",
 "ep_b2995#100",
 "ep_b2995#101",
 "ep_b5#102"
],
      "WindowCenter": [11791.0, 11811.0, 7984.0, 8012.0, 7980.0, 7895.0, 8043.0, 8002.0, 11810.0, 5855.0, 5793.0, 5830.0, 5804.0, 5788.0, 5855.0, 5846.0, 5866.0, 5821.0, 5847.0, 5844.0, 5872.0, 5799.0, 5813.0, 5850.0, 11786.0, 3772.0, 3731.0, 3696.0, 3855.0, 3755.0, 3728.0, 3737.0, 3689.0, 3791.0, 3794.0, 3773.0, 3706.0, 3757.0, 3777.0, 3728.0, 11790.0, 2700.0, 2569.0, 2668.0, 2668.0, 2622.0, 2637.0, 2679.0, 2564.0, 2581.0, 2602.0, 2609.0, 2668.0, 2748.0, 2674.0, 2576.0, 2733.0, 2599.0, 2676.0, 2656.0, 2586.0, 2603.0, 2662.0, 2642.0, 2673.0, 2670.0, 2581.0, 2625.0, 2644.0, 2616.0, 2653.0, 2663.0, 2674.0, 11779.0, 2643.0, 2582.0, 2503.0, 2556.0, 2581.0, 2561.0, 2572.0, 2613.0, 2648.0, 2617.0, 2671.0, 2652.0, 2575.0, 2557.0, 2674.0, 2593.0, 2719.0, 2583.0, 2627.0, 2662.0, 2578.0, 2679.0, 2710.0, 2602.0, 2664.0, 2535.0, 2657.0, 2665.0, 11767.0],
      "WindowWidth": [28150.0, 28233.0, 16892.0, 16957.0, 16874.0, 16714.0, 17016.0, 16930.0, 28224.0, 12527.0, 12423.0, 12488.0, 12432.0, 12437.0, 12533.0, 12493.0, 12550.0, 12474.0, 12525.0, 12492.0, 12560.0, 12434.0, 12458.0, 12492.0, 28130.0, 8481.0, 8403.0, 8332.0, 8607.0, 8439.0, 8371.0, 8431.0, 8315.0, 8512.0, 8511.0, 8481.0, 8355.0, 8431.0, 8464.0, 8394.0, 28126.0, 6424.0, 6142.0, 6339.0, 6298.0, 6284.0, 6316.0, 6351.0, 6158.0, 6230.0, 6176.0, 6198.0, 6386.0, 6504.0, 6373.0, 6209.0, 6472.0, 6213.0, 6336.0, 6280.0, 6226.0, 6216.0, 6346.0, 6339.0, 6376.0, 6347.0, 6198.0, 6296.0, 6307.0, 6290.0, 6352.0, 6360.0, 6327.0, 28089.0, 6254.0, 6205.0, 6051.0, 6192.0, 6156.0, 6142.0, 6190.0, 6192.0, 6322.0, 6255.0, 6365.0, 6347.0, 6131.0, 6118.0, 6332.0, 6170.0, 6438.0, 6170.0, 6225.0, 6359.0, 6185.0, 6368.0, 6440.0, 6226.0, 6315.0, 6126.0, 6333.0, 6371.0, 28035.0]
    },
    "slices": {}
  }
}