{
  "AcquisitionMatrixPE": 140,
  "AcquisitionNumber": 1,
  "AcquisitionTime": "13:10:49.045000",
  "BandwidthPerPixelPhaseEncode": 10.352,
  "BaseResolution": 140,
  "BodyPartExamined": "BRAIN",
  "ConsistencyInfo": "N4_VE11C_LATEST_20160120",
  "ConversionSoftware": "dcm2niix",
  "ConversionSoftwareVersion": "v1.0.20201102",
  "DerivedVendorReportedEchoSpacing": 0.000689998,
  "DeviceSerialNumber": "66112",
  "DiffusionScheme": "Monopolar",
  "DwellTime": 2.1e-06,
  "EchoTime": 0.088,
  "EchoTrainLength": 105,
  "EffectiveEchoSpacing": 0.000689998,
  "FlipAngle": 90,
  "ImageComments": "Unaliased MB3/PE3",
  "ImageOrientationPatientDICOM": [0.999696, 0.0227741, 0.00949447, -0.02321, 0.998546, 0.0486525],
  "ImageType": [
    "ORIGINAL",
    "PRIMARY",
    "DIFFUSION",
    "NONE",
    "MB",
    "ND"
],
  "ImagingFrequency": 123.252,
  "InPlanePhaseEncodingDirectionDICOM": "COL",
  "InstitutionAddress": "Maynard 3,Hanover,NH,US,03755",
  "InstitutionName": "Dartmouth College - PBS",
  "InstitutionalDepartmentName": "Department",
  "IntendedFor": [
    "ses-01/dwi/sub-0029_ses-01_acq-96dirX6b0Xmb_dwi.nii.gz"
],
  "MRAcquisitionType": "2D",
  "MagneticFieldStrength": 3,
  "Manufacturer": "Siemens",
  "ManufacturersModelName": "Prisma",
  "Modality": "MR",
  "MultibandAccelerationFactor": 3,
  "PartialFourier": 0.75,
  "PatientPosition": "HFS",
  "PercentPhaseFOV": 100,
  "PercentSampling": 100,
  "PhaseEncodingDirection": "j-",
  "PhaseEncodingSteps": 105,
  "PhaseResolution": 1,
  "PixelBandwidth": 1700,
  "ProcedureStepDescription": "Wager_Wager^1076_spacetop",
  "ProtocolName": "dwi_acq-discorr-AP",
  "PulseSequenceDetails": "%CustomerSeq%\\cmrr_mbep2d_diff",
  "ReceiveCoilActiveElements": "HEA;HEP",
  "ReceiveCoilName": "Head_32",
  "ReconMatrixPE": 140,
  "RepetitionTime": 4.1,
  "SAR": 0.182916,
  "ScanOptions": "PFP\\FS",
  "ScanningSequence": "EP",
  "SequenceName": "ep_b0",
  "SequenceVariant": "SK\\SS",
  "SeriesDescription": "dwi_acq-discorr-AP",
  "SeriesNumber": 7,
  "ShimSetting": [4152, -7752, -7177, 713, -27, -147, 33, 58],
  "SliceThickness": 1.7,
  "SliceTiming": [0, 2.10938, 0.14844, 2.26562, 0.29688, 2.41406, 0.45312, 2.5625, 0.60156, 2.71875, 0.75, 2.86719, 0.90625, 3.02344, 1.05469, 3.17188, 1.20312, 3.32031, 1.35938, 3.47656, 1.50781, 3.625, 1.66406, 3.77344, 1.8125, 3.92188, 1.96094, 0, 2.10938, 0.14844, 2.26562, 0.29688, 2.41406, 0.45312, 2.5625, 0.60156, 2.71875, 0.75, 2.86719, 0.90625, 3.02344, 1.05469, 3.17188, 1.20312, 3.32031, 1.35938, 3.47656, 1.50781, 3.625, 1.66406, 3.77344, 1.8125, 3.92188, 1.96094, 0, 2.10938, 0.14844, 2.26562, 0.29688, 2.41406, 0.45312, 2.5625, 0.60156, 2.71875, 0.75, 2.86719, 0.90625, 3.02344, 1.05469, 3.17188, 1.20312, 3.32031, 1.35938, 3.47656, 1.50781, 3.625, 1.66406, 3.77344, 1.8125, 3.92188, 1.96094],
  "SoftwareVersions": "syngo MR E11",
  "SpacingBetweenSlices": 1.7,
  "StationName": "AWP66112",
  "TotalReadoutTime": 0.0959097,
  "TxRefAmp": 249.268,
  "WipMemBlock": "277e3399-04f7-4e6a-813b-f5f7d34af4a1||Sequence: R016 ve11c/master r/e634e98; Dec 19 2017 11:11:25 by eja",
  "dcmmeta_affine": [
    [-1.7137638330459595, -0.039788540452718735, 0.014233589172363281, 124.27302551269531],
    [-0.03904131054878235, 1.711793303489685, 0.08305740356445312, -88.47101593017578],
    [0.016276231035590172, -0.08340431749820709, 1.6979141235351562, -26.69861602783203],
    [0.0, 0.0, 0.0, 1.0]
],
  "dcmmeta_reorient_transform": [
    [0.0, -1.0, 0.0, 139.0],
    [1.0, 0.0, 0.0, 0.0],
    [0.0, 0.0, -1.0, 80.0],
    [0.0, 0.0, 0.0, 1.0]
],
  "dcmmeta_shape": [140, 140, 81],
  "dcmmeta_slice_dim": 2,
  "dcmmeta_version": 0.6,
  "global": {
    "const": {
      "AccessionNumber": "A003734",
      "AcquisitionMatrix": [140, 0, 0, 140],
      "AcquisitionNumber": 1,
      "AngioFlag": "N",
      "BitsAllocated": 16,
      "BitsStored": 16,
      "BodyPartExamined": "BRAIN",
      "Columns": 140,
      "EchoNumbers": 1,
      "EchoTime": 88.0,
      "EchoTrainLength": 105,
      "FlipAngle": 90.0,
      "HighBit": 15,
      "ImageOrientationPatient": [0.99969555141967, 0.02277409810067, 0.00949446825374, -0.023209981924, 0.99854605755117, 0.04865251985367],
      "ImageType": [
        "ORIGINAL",
        "PRIMARY",
        "DIFFUSION",
        "NONE",
        "MB",
        "ND"
],
      "ImagedNucleus": "1H",
      "ImagingFrequency": 123.252098,
      "InPlanePhaseEncodingDirection": "COL",
      "MRAcquisitionType": "2D",
      "MagneticFieldStrength": 3.0,
      "Manufacturer": "SIEMENS",
      "ManufacturerModelName": "Prisma",
      "Modality": "MR",
      "NumberOfAverages": 1.0,
      "NumberOfPhaseEncodingSteps": 105,
      "PercentPhaseFieldOfView": 100.0,
      "PercentSampling": 100.0,
      "PerformedProcedureStepStartTime": "113657.376000",
      "PhotometricInterpretation": "MONOCHROME2",
      "PixelBandwidth": 1700.0,
      "PixelRepresentation": 0,
      "PixelSpacing": [1.7142857313156, 1.7142857313156],
      "ProtocolName": "dwi_acq-discorr-AP",
      "RepetitionTime": 4100.0,
      "Rows": 140,
      "SAR": 0.18291595757174,
      "SamplesPerPixel": 1,
      "ScanOptions": [
        "PFP",
        "FS"
],
      "ScanningSequence": "EP",
      "SequenceName": "ep_b0",
      "SequenceVariant": [
        "SK",
        "SS"
],
      "SeriesDescription": "dwi_acq-discorr-AP",
      "SeriesNumber": 7,
      "SeriesTime": "131053.618000",
      "SliceThickness": 1.7000000476837,
      "SmallestImagePixelValue": 0,
      "SoftwareVersions": "syngo MR E11",
      "SpacingBetweenSlices": 1.7,
      "SpecificCharacterSet": "ISO_IR 100",
      "StudyID": "1",
      "StudyTime": "113657.305000",
      "TransmitCoilName": "Body",
      "VariableFlipAngleFlag": "N",
      "WindowCenterWidthExplanation": "Algo1",
      "dBdt": 0.0},
    "slices": {
      "AcquisitionTime": ["131049.045000", "131051.160000", "131049.195000", "131051.310000", "131049.347500", "131051.462500", "131049.497500", "131051.612500", "131049.647500", "131051.765000", "131049.800000", "131051.915000", "131049.950000", "131052.067500", "131050.102500", "131052.217500", "131050.252500", "131052.367500", "131050.405000", "131052.520000", "131050.555000", "131052.670000", "131050.707500", "131052.822500", "131050.857500", "131052.972500", "131051.007500", "131049.045000", "131051.160000", "131049.195000", "131051.310000", "131049.347500", "131051.462500", "131049.497500", "131051.612500", "131049.647500", "131051.765000", "131049.800000", "131051.915000", "131049.950000", "131052.067500", "131050.102500", "131052.217500", "131050.252500", "131052.367500", "131050.405000", "131052.520000", "131050.555000", "131052.670000", "131050.707500", "131052.822500", "131050.857500", "131052.972500", "131051.007500", "131049.045000", "131051.160000", "131049.195000", "131051.310000", "131049.347500", "131051.462500", "131049.497500", "131051.612500", "131049.647500", "131051.765000", "131049.800000", "131051.915000", "131049.950000", "131052.067500", "131050.102500", "131052.217500", "131050.252500", "131052.367500", "131050.405000", "131052.520000", "131050.555000", "131052.670000", "131050.707500", "131052.822500", "131050.857500", "131052.972500", "131051.007500"],
      "ContentTime": ["131053.621000", "131053.721000", "131053.630000", "131053.728000", "131053.638000", "131053.739000", "131053.644000", "131053.747000", "131053.651000", "131053.753000", "131053.658000", "131053.760000", "131053.665000", "131053.767000", "131053.672000", "131053.773000", "131053.679000", "131053.780000", "131053.686000", "131053.787000", "131053.693000", "131053.793000", "131053.699000", "131053.800000", "131053.708000", "131053.807000", "131053.715000", "131053.624000", "131053.724000", "131053.632000", "131053.730000", "131053.640000", "131053.742000", "131053.647000", "131053.749000", "131053.653000", "131053.756000", "131053.660000", "131053.762000", "131053.668000", "131053.769000", "131053.674000", "131053.776000", "131053.681000", "131053.782000", "131053.688000", "131053.789000", "131053.695000", "131053.796000", "131053.704000", "131053.802000", "131053.710000", "131053.809000", "131053.717000", "131053.627000", "131053.726000", "131053.635000", "131053.733000", "131053.642000", "131053.744000", "131053.649000", "131053.751000", "131053.656000", "131053.758000", "131053.663000", "131053.764000", "131053.670000", "131053.771000", "131053.677000", "131053.778000", "131053.683000", "131053.784000", "131053.690000", "131053.791000", "131053.697000", "131053.798000", "131053.706000", "131053.805000", "131053.712000", "131053.812000", "131053.719000"],
      "CsaImage.ICE_Dims": [
        "X_1_1_1_1_1_1_1_1_1_1_1_74",
        "X_1_1_1_1_1_1_42_1_1_2_1_74",
        "X_1_1_1_1_1_1_2_1_1_3_1_74",
        "X_1_1_1_1_1_1_43_1_1_4_1_74",
        "X_1_1_1_1_1_1_3_1_1_5_1_74",
        "X_1_1_1_1_1_1_44_1_1_6_1_74",
        "X_1_1_1_1_1_1_4_1_1_7_1_74",
        "X_1_1_1_1_1_1_45_1_1_8_1_74",
        "X_1_1_1_1_1_1_5_1_1_9_1_74",
        "X_1_1_1_1_1_1_46_1_1_10_1_74",
        "X_1_1_1_1_1_1_6_1_1_11_1_74",
        "X_1_1_1_1_1_1_47_1_1_12_1_74",
        "X_1_1_1_1_1_1_7_1_1_13_1_74",
        "X_1_1_1_1_1_1_48_1_1_14_1_74",
        "X_1_1_1_1_1_1_8_1_1_15_1_74",
        "X_1_1_1_1_1_1_49_1_1_16_1_74",
        "X_1_1_1_1_1_1_9_1_1_17_1_74",
        "X_1_1_1_1_1_1_50_1_1_18_1_74",
        "X_1_1_1_1_1_1_10_1_1_19_1_74",
        "X_1_1_1_1_1_1_51_1_1_20_1_74",
        "X_1_1_1_1_1_1_11_1_1_21_1_74",
        "X_1_1_1_1_1_1_52_1_1_22_1_74",
        "X_1_1_1_1_1_1_12_1_1_23_1_74",
        "X_1_1_1_1_1_1_53_1_1_24_1_74",
        "X_1_1_1_1_1_1_13_1_1_25_1_74",
        "X_1_1_1_1_1_1_54_1_1_26_1_74",
        "X_1_1_1_1_1_1_14_1_1_27_1_74",
        "X_1_1_1_1_1_1_55_1_1_28_1_74",
        "X_1_1_1_1_1_1_15_1_1_29_1_74",
        "X_1_1_1_1_1_1_56_1_1_30_1_74",
        "X_1_1_1_1_1_1_16_1_1_31_1_74",
        "X_1_1_1_1_1_1_57_1_1_32_1_74",
        "X_1_1_1_1_1_1_17_1_1_33_1_74",
        "X_1_1_1_1_1_1_58_1_1_34_1_74",
        "X_1_1_1_1_1_1_18_1_1_35_1_74",
        "X_1_1_1_1_1_1_59_1_1_36_1_74",
        "X_1_1_1_1_1_1_19_1_1_37_1_74",
        "X_1_1_1_1_1_1_60_1_1_38_1_74",
        "X_1_1_1_1_1_1_20_1_1_39_1_74",
        "X_1_1_1_1_1_1_61_1_1_40_1_74",
        "X_1_1_1_1_1_1_21_1_1_41_1_74",
        "X_1_1_1_1_1_1_62_1_1_42_1_74",
        "X_1_1_1_1_1_1_22_1_1_43_1_74",
        "X_1_1_1_1_1_1_63_1_1_44_1_74",
        "X_1_1_1_1_1_1_23_1_1_45_1_74",
        "X_1_1_1_1_1_1_64_1_1_46_1_74",
        "X_1_1_1_1_1_1_24_1_1_47_1_74",
        "X_1_1_1_1_1_1_65_1_1_48_1_74",
        "X_1_1_1_1_1_1_25_1_1_49_1_74",
        "X_1_1_1_1_1_1_66_1_1_50_1_74",
        "X_1_1_1_1_1_1_26_1_1_51_1_74",
        "X_1_1_1_1_1_1_67_1_1_52_1_74",
        "X_1_1_1_1_1_1_27_1_1_53_1_74",
        "X_1_1_1_1_1_1_68_1_1_54_1_74",
        "X_1_1_1_1_1_1_28_1_1_55_1_74",
        "X_1_1_1_1_1_1_69_1_1_56_1_74",
        "X_1_1_1_1_1_1_29_1_1_57_1_74",
        "X_1_1_1_1_1_1_70_1_1_58_1_74",
        "X_1_1_1_1_1_1_30_1_1_59_1_74",
        "X_1_1_1_1_1_1_71_1_1_60_1_74",
        "X_1_1_1_1_1_1_31_1_1_61_1_74",
        "X_1_1_1_1_1_1_72_1_1_62_1_74",
        "X_1_1_1_1_1_1_32_1_1_63_1_74",
        "X_1_1_1_1_1_1_73_1_1_64_1_74",
        "X_1_1_1_1_1_1_33_1_1_65_1_74",
        "X_1_1_1_1_1_1_74_1_1_66_1_74",
        "X_1_1_1_1_1_1_34_1_1_67_1_74",
        "X_1_1_1_1_1_1_75_1_1_68_1_74",
        "X_1_1_1_1_1_1_35_1_1_69_1_74",
        "X_1_1_1_1_1_1_76_1_1_70_1_74",
        "X_1_1_1_1_1_1_36_1_1_71_1_74",
        "X_1_1_1_1_1_1_77_1_1_72_1_74",
        "X_1_1_1_1_1_1_37_1_1_73_1_74",
        "X_1_1_1_1_1_1_78_1_1_74_1_74",
        "X_1_1_1_1_1_1_38_1_1_75_1_74",
        "X_1_1_1_1_1_1_79_1_1_76_1_74",
        "X_1_1_1_1_1_1_39_1_1_77_1_74",
        "X_1_1_1_1_1_1_80_1_1_78_1_74",
        "X_1_1_1_1_1_1_40_1_1_79_1_74",
        "X_1_1_1_1_1_1_81_1_1_80_1_74",
        "X_1_1_1_1_1_1_41_1_1_81_1_74"
],
      "CsaImage.ProtocolSliceNumber": [0, 1, 2, 3, 4, 5, 6, 7, 8, 9, 10, 11, 12, 13, 14, 15, 16, 17, 18, 19, 20, 21, 22, 23, 24, 25, 26, 27, 28, 29, 30, 31, 32, 33, 34, 35, 36, 37, 38, 39, 40, 41, 42, 43, 44, 45, 46, 47, 48, 49, 50, 51, 52, 53, 54, 55, 56, 57, 58, 59, 60, 61, 62, 63, 64, 65, 66, 67, 68, 69, 70, 71, 72, 73, 74, 75, 76, 77, 78, 79, 80],
      "CsaImage.RFSWDDataType": [
        "predicted",
        "predicted",
        "predicted",
        "predicted",
        "predicted",
        "predicted",
        "predicted",
        "predicted",
        "predicted",
        "predicted",
        "predicted",
        "predicted",
        "predicted",
        "predicted",
        "predicted",
        "predicted",
        "predicted",
        "predicted",
        "predicted",
        "predicted",
        "predicted",
        "predicted",
        "predicted",
        "predicted",
        "predicted",
        "measured",
        "predicted",
        "predicted",
        "predicted",
        "predicted",
        "predicted",
        "predicted",
        "predicted",
        "predicted",
        "predicted",
        "predicted",
        "predicted",
        "predicted",
        "predicted",
        "predicted",
        "predicted",
        "predicted",
        "predicted",
        "predicted",
        "predicted",
        "predicted",
        "predicted",
        "predicted",
        "predicted",
        "predicted",
        "predicted",
        "predicted",
        "measured",
        "predicted",
        "predicted",
        "predicted",
        "predicted",
        "predicted",
        "predicted",
        "predicted",
        "predicted",
        "predicted",
        "predicted",
        "predicted",
        "predicted",
        "predicted",
        "predicted",
        "predicted",
        "predicted",
        "predicted",
        "predicted",
        "predicted",
        "predicted",
        "predicted",
        "predicted",
        "predicted",
        "predicted",
        "predicted",
        "predicted",
        "measured",
        "predicted"
],
      "CsaImage.SlicePosition_PCS": [
        [-118.74242592, -149.46813936, -38.29149477],
        [-118.75665939, -149.55119867, -36.59358446],
        [-118.77089286, -149.63425798, -34.89567415],
        [-118.78512645, -149.71731539, -33.19776575],
        [-118.79935992, -149.8003747, -31.49985544],
        [-118.81359339, -149.88343401, -29.80194513],
        [-118.82782686, -149.96649141, -28.10403482],
        [-118.84206044, -150.04955072, -26.40612451],
        [-118.85629391, -150.13261004, -24.7082142],
        [-118.87052738, -150.21566935, -23.01030389],
        [-118.88476085, -150.29872675, -21.31239454],
        [-118.89899444, -150.38178606, -19.61448423],
        [-118.91322791, -150.46484537, -17.91657392],
        [-118.92746138, -150.54790278, -16.21866361],
        [-118.94169485, -150.63096209, -14.52075378],
        [-118.95592832, -150.7140214, -12.82284395],
        [-118.97016191, -150.7970788, -11.12493364],
        [-118.98439538, -150.88013811, -9.42702381],
        [-118.99862885, -150.96319742, -7.72911362],
        [-119.01286232, -151.04625483, -6.03120355],
        [-119.02709591, -151.12931414, -4.33329336],
        [-119.04132938, -151.21237345, -2.63538353],
        [-119.05556285, -151.29543276, -0.93747322],
        [-119.06979632, -151.37849016, 0.76043661],
        [-119.08402979, -151.46154947, 2.45834692],
        [-119.09826338, -151.54460878, 4.15625723],
        [-119.11249685, -151.62766619, 5.85416659],
        [-119.12673032, -151.7107255, 7.5520769],
        [-119.14096379, -151.79378481, 9.24998816],
        [-119.15519738, -151.87684221, 10.94789656],
        [-119.16943085, -151.95990152, 12.64580687],
        [-119.18366444, -152.04296084, 14.34371718],
        [-119.19789779, -152.12601824, 16.04162749],
        [-119.21213138, -152.20907755, 17.7395378],
        [-119.22636473, -152.29213686, 19.4374481],
        [-119.24059832, -152.37519426, 21.13535841],
        [-119.25483191, -152.45825357, 22.83326872],
        [-119.26906526, -152.54131289, 24.53117712],
        [-119.28329885, -152.6243722, 26.22908743],
        [-119.2975322, -152.7074296, 27.92699774],
        [-119.31176579, -152.79048891, 29.62490805],
        [-119.32599938, -152.87354822, 31.32281836],
        [-119.34023273, -152.95660563, 33.02072867],
        [-119.35446632, -153.03966494, 34.71863898],
        [-119.36869967, -153.12272425, 36.41654929],
        [-119.38293326, -153.20578165, 38.11445959],
        [-119.39716685, -153.28884096, 39.8123699],
        [-119.4114002, -153.37190027, 41.51028021],
        [-119.42563379, -153.45495768, 43.20819052],
        [-119.43986738, -153.53801699, 44.90610083],
        [-119.45410073, -153.6210763, 46.60400732],
        [-119.46833432, -153.70413561, 48.30191763],
        [-119.48256767, -153.78719301, 49.99982794],
        [-119.49680126, -153.87025232, 51.69773825],
        [-119.51103484, -153.95331163, 53.39564856],
        [-119.5252682, -154.03636904, 55.09355887],
        [-119.53950178, -154.11942835, 56.79146918],
        [-119.55373514, -154.20248766, 58.48937949],
        [-119.56796872, -154.28554506, 60.18728598],
        [-119.58220231, -154.36860437, 61.8852001],
        [-119.59643566, -154.45166369, 63.5831066],
        [-119.61066925, -154.53472109, 65.28102072],
        [-119.62490284, -154.6177804, 66.97892721],
        [-119.63913619, -154.7008378, 68.67684134],
        [-119.65336978, -154.78389902, 70.37474783],
        [-119.66760313, -154.86695643, 72.07266196],
        [-119.68183672, -154.95001383, 73.77056845],
        [-119.69607031, -155.03307505, 75.46848257],
        [-119.71030366, -155.11613245, 77.16638907],
        [-119.72453725, -155.19918985, 78.86430319],
        [-119.7387706, -155.28225107, 80.56220969],
        [-119.75300419, -155.36530848, 82.26012381],
        [-119.76723778, -155.44836969, 83.9580303],
        [-119.78147113, -155.5314271, 85.65594443],
        [-119.79570472, -155.6144845, 87.35385092],
        [-119.80993831, -155.69754572, 89.05175741],
        [-119.82417166, -155.78060312, 90.74967154],
        [-119.83840525, -155.86366053, 92.44757803],
        [-119.8526386, -155.94672175, 94.14549216],
        [-119.86687219, -156.02977915, 95.84339865],
        [-119.88110578, -156.11283655, 97.54131277]
],
      "CsaImage.TimeAfterStart": [16.4, 18.5175, 16.5525, 18.6675, 16.7025, 18.82, 16.855, 18.97, 17.005, 19.12, 17.1575, 19.2725, 17.3075, 19.4225, 17.46, 19.575, 17.61, 19.725, 17.76, 19.8775, 17.9125, 20.0275, 18.0625, 20.18, 18.215, 20.33, 18.365, 16.4, 18.5175, 16.5525, 18.6675, 16.7025, 18.82, 16.855, 18.97, 17.005, 19.12, 17.1575, 19.2725, 17.3075, 19.4225, 17.46, 19.575, 17.61, 19.725, 17.76, 19.8775, 17.9125, 20.0275, 18.0625, 20.18, 18.215, 20.33, 18.365, 16.4, 18.5175, 16.5525, 18.6675, 16.7025, 18.82, 16.855, 18.97, 17.005, 19.12, 17.1575, 19.2725, 17.3075, 19.4225, 17.46, 19.575, 17.61, 19.725, 17.76, 19.8775, 17.9125, 20.0275, 18.0625, 20.18, 18.215, 20.33, 18.365],
      "ImagePositionPatient": [
        [-118.74242591662, -149.46813936289, -38.291494767083],
        [-118.75665938659, -149.55119867381, -36.593584458245],
        [-118.77089285655, -149.63425798472, -34.895674149408],
        [-118.78512644572, -149.71731538828, -33.197765747918],
        [-118.79935991569, -149.8003746992, -31.49985543908],
        [-118.81359338565, -149.88343401011, -29.801945130243],
        [-118.82782685561, -149.96649141367, -28.104034821405],
        [-118.84206044478, -150.04955072459, -26.406124512567],
        [-118.85629391475, -150.1326100355, -24.708214203729],
        [-118.87052738471, -150.21566934641, -23.010303894891],
        [-118.88476085467, -150.29872674998, -21.312394539727],
        [-118.89899444385, -150.38178606089, -19.61448423089],
        [-118.91322791381, -150.4648453718, -17.916573922052],
        [-118.92746138377, -150.54790277537, -16.218663613214],
        [-118.94169485374, -150.63096208628, -14.520753781213],
        [-118.9559283237, -150.71402139719, -12.822843949212],
        [-118.97016191287, -150.79707880076, -11.124933640374],
        [-118.98439538283, -150.88013811167, -9.4270238083737],
        [-118.9986288528, -150.96319742258, -7.7291136187451],
        [-119.01286232276, -151.04625482615, -6.0312035483258],
        [-119.02709591193, -151.12931413706, -4.3332933586972],
        [-119.0413293819, -151.21237344798, -2.6353835266964],
        [-119.05556285186, -151.29543275889, -0.9374732178585],
        [-119.06979632182, -151.37849016245, 0.7604366141422],
        [-119.08402979178, -151.46154947337, 2.4583469229801],
        [-119.09826338096, -151.54460878428, 4.156257231818],
        [-119.11249685092, -151.62766618784, 5.8541665869816],
        [-119.12673032088, -151.71072549876, 7.5520768958195],
        [-119.14096379085, -151.79378480967, 9.2499881583317],
        [-119.15519738002, -151.87684221323, 10.947896559821],
        [-119.16943084998, -151.95990152415, 12.645806868659],
        [-119.18366443915, -152.04296083506, 14.343717177497],
        [-119.19789778991, -152.12601823862, 16.041627486335],
        [-119.21213137908, -152.20907754954, 17.739537795172],
        [-119.22636472983, -152.29213686045, 19.43744810401],
        [-119.24059831901, -152.37519426402, 21.135358412848],
        [-119.25483190818, -152.45825357493, 22.833268721686],
        [-119.26906525893, -152.54131288584, 24.531177123175],
        [-119.2832988481, -152.62437219675, 26.229087432013],
        [-119.29753219886, -152.70742960032, 27.926997740851],
        [-119.31176578803, -152.79048891123, 29.624908049689],
        [-119.3259993772, -152.87354822215, 31.322818358527],
        [-119.34023272796, -152.95660562571, 33.020728667365],
        [-119.35446631713, -153.03966493662, 34.718638976203],
        [-119.36869966788, -153.12272424754, 36.416549285041],
        [-119.38293325706, -153.2057816511, 38.114459593879],
        [-119.39716684623, -153.28884096201, 39.812369902716],
        [-119.41140019698, -153.37190027293, 41.510280211554],
        [-119.42563378615, -153.45495767649, 43.208190520392],
        [-119.43986737533, -153.5380169874, 44.90610082923],
        [-119.45410072608, -153.62107629832, 46.604007323371],
        [-119.46833431525, -153.70413560923, 48.301917632209],
        [-119.48256766601, -153.78719301279, 49.999827941047],
        [-119.49680125518, -153.87025232371, 51.697738249884],
        [-119.51103484435, -153.95331163462, 53.395648558722],
        [-119.5252681951, -154.03636903819, 55.09355886756],
        [-119.53950178428, -154.1194283491, 56.791469176398],
        [-119.55373513503, -154.20248766001, 58.489379485236],
        [-119.5679687242, -154.28554506358, 60.187285979377],
        [-119.58220231338, -154.36860437449, 61.885200102912],
        [-119.59643566413, -154.4516636854, 63.583106597052],
        [-119.6106692533, -154.53472108897, 65.281020720588],
        [-119.62490284247, -154.61778039988, 66.978927214728],
        [-119.63913619323, -154.70083780344, 68.676841338263],
        [-119.6533697824, -154.78389902171, 70.374747832404],
        [-119.66760313315, -154.86695642527, 72.072661955939],
        [-119.68183672233, -154.95001382883, 73.77056845008],
        [-119.6960703115, -155.0330750471, 75.468482573615],
        [-119.71030366225, -155.11613245066, 77.166389067755],
        [-119.72453725142, -155.19918985423, 78.864303191291],
        [-119.73877060218, -155.28225107249, 80.562209685431],
        [-119.75300419135, -155.36530847605, 82.260123808966],
        [-119.76723778052, -155.44836969431, 83.958030303107],
        [-119.78147113128, -155.53142709788, 85.655944426642],
        [-119.79570472045, -155.61448450144, 87.353850920783],
        [-119.80993830962, -155.6975457197, 89.051757414923],
        [-119.82417166038, -155.78060312327, 90.749671538459],
        [-119.83840524955, -155.86366052683, 92.447578032599],
        [-119.8526386003, -155.94672174509, 94.145492156134],
        [-119.86687218947, -156.02977914866, 95.843398650275],
        [-119.88110577865, -156.11283655222, 97.54131277381]
],
      "InstanceCreationTime": ["131053.621000", "131053.721000", "131053.630000", "131053.728000", "131053.638000", "131053.739000", "131053.644000", "131053.747000", "131053.651000", "131053.753000", "131053.658000", "131053.760000", "131053.665000", "131053.767000", "131053.672000", "131053.773000", "131053.679000", "131053.780000", "131053.686000", "131053.787000", "131053.693000", "131053.793000", "131053.699000", "131053.800000", "131053.708000", "131053.807000", "131053.715000", "131053.624000", "131053.724000", "131053.632000", "131053.730000", "131053.640000", "131053.742000", "131053.647000", "131053.749000", "131053.653000", "131053.756000", "131053.660000", "131053.762000", "131053.668000", "131053.769000", "131053.674000", "131053.776000", "131053.681000", "131053.782000", "131053.688000", "131053.789000", "131053.695000", "131053.796000", "131053.704000", "131053.802000", "131053.710000", "131053.809000", "131053.717000", "131053.627000", "131053.726000", "131053.635000", "131053.733000", "131053.642000", "131053.744000", "131053.649000", "131053.751000", "131053.656000", "131053.758000", "131053.663000", "131053.764000", "131053.670000", "131053.771000", "131053.677000", "131053.778000", "131053.683000", "131053.784000", "131053.690000", "131053.791000", "131053.697000", "131053.798000", "131053.706000", "131053.805000", "131053.712000", "131053.812000", "131053.719000"],
      "InstanceNumber": [1, 2, 3, 4, 5, 6, 7, 8, 9, 10, 11, 12, 13, 14, 15, 16, 17, 18, 19, 20, 21, 22, 23, 24, 25, 26, 27, 28, 29, 30, 31, 32, 33, 34, 35, 36, 37, 38, 39, 40, 41, 42, 43, 44, 45, 46, 47, 48, 49, 50, 51, 52, 53, 54, 55, 56, 57, 58, 59, 60, 61, 62, 63, 64, 65, 66, 67, 68, 69, 70, 71, 72, 73, 74, 75, 76, 77, 78, 79, 80, 81],
      "LargestImagePixelValue": [29379, 21159, 18969, 18378, 24089, 26529, 28132, 22311, 16633, 23885, 15947, 34015, 54456, 44372, 42001, 28630, 26889, 30455, 23515, 24770, 29620, 37648, 32964, 38550, 44882, 47196, 51875, 52072, 41889, 51126, 37949, 43714, 48482, 59034, 65535, 64981, 61600, 60782, 52076, 43711, 53100, 48026, 49619, 42123, 38007, 42551, 42679, 43189, 51070, 42282, 40426, 42924, 49465, 49884, 42793, 41452, 53032, 48428, 65535, 65535, 52111, 53684, 65422, 64263, 42454, 43870, 42745, 55852, 65535, 65535, 47373, 52841, 46933, 40176, 45170, 52179, 31833, 12812, 11983, 12644, 15267],
      "SliceLocation": [-29.94750686435, -28.247506612098, -26.547506359847, -24.847508104791, -23.14750785254, -21.447507600289, -19.747507441227, -18.047507187977, -16.347506935726, -14.647506683475, -12.947507476915, -11.247507223666, -9.5475069714145, -7.8475068123527, -6.1475070363524, -4.4475072603522, -2.7475071002922, -1.047507324292, 0.65249280889651, 2.3524927298329, 4.0524928640194, 5.7524926400197, 7.4524928922709, 9.1524925750818, 10.852492827333, 12.552493080582, 14.252492287142, 15.952492539393, 17.652493744147, 19.352491999203, 21.052492251454, 22.752492504703, 24.452492662767, 26.152492916016, 27.852493167269, 29.552493327329, 31.252493580579, 32.952491926828, 34.652492180077, 36.352492338141, 38.05249259139, 39.75249284464, 41.452493002703, 43.152493255953, 44.852493507206, 46.552493667266, 48.252493920515, 49.952494171768, 51.652494331828, 53.352494585077, 55.052491026323, 56.752491279572, 58.452491437636, 60.152491690885, 61.852491944135, 63.552492102198, 65.252492355448, 66.952492606701, 68.652488956753, 70.35249302001, 72.052489461256, 73.752493431323, 75.452489874565, 77.152493842636, 78.852490379067, 80.552494347139, 82.252490697191, 83.952494853637, 85.652491201693, 87.352495171761, 89.052491706196, 90.752495676263, 92.452492212694, 94.152496180766, 95.852492530818, 97.552489067249, 99.25249303532, 100.95248938537, 102.65249353982, 104.35248988988, 106.05249385994],
      "WindowCenter": [4781.0, 3940.0, 3895.0, 4084.0, 4682.0, 4912.0, 5013.0, 4709.0, 4327.0, 4907.0, 4600.0, 5605.0, 6504.0, 6859.0, 7061.0, 6646.0, 6697.0, 6529.0, 6430.0, 6436.0, 6837.0, 7031.0, 7019.0, 7355.0, 7678.0, 7716.0, 7880.0, 7868.0, 7795.0, 8130.0, 8010.0, 8211.0, 8356.0, 8810.0, 8917.0, 8846.0, 8887.0, 8994.0, 8986.0, 9189.0, 9489.0, 9613.0, 9533.0, 9413.0, 9359.0, 9654.0, 9810.0, 9756.0, 9958.0, 9962.0, 10067.0, 10118.0, 10396.0, 10461.0, 9882.0, 9936.0, 10235.0, 10244.0, 10415.0, 10444.0, 10534.0, 10441.0, 10618.0, 10578.0, 10263.0, 10169.0, 10300.0, 10448.0, 10543.0, 10417.0, 10187.0, 10182.0, 10186.0, 9884.0, 9509.0, 7468.0, 5144.0, 3287.0, 2288.0, 3495.0, 4352.0],
      "WindowWidth": [11343.0, 9634.0, 9525.0, 9679.0, 10516.0, 10900.0, 11130.0, 10537.0, 9857.0, 10791.0, 10427.0, 12456.0, 14932.0, 15765.0, 16218.0, 14897.0, 14791.0, 14261.0, 14126.0, 14264.0, 15135.0, 15665.0, 15793.0, 16431.0, 17109.0, 17266.0, 17734.0, 17814.0, 17536.0, 17999.0, 17678.0, 18195.0, 18706.0, 19935.0, 20217.0, 20262.0, 19904.0, 20033.0, 20084.0, 20415.0, 20922.0, 21030.0, 20757.0, 20340.0, 20104.0, 20726.0, 21181.0, 21095.0, 21548.0, 21664.0, 22010.0, 22175.0, 22854.0, 23074.0, 21671.0, 21715.0, 22456.0, 22425.0, 22939.0, 23257.0, 23428.0, 23228.0, 23890.0, 23739.0, 22794.0, 22522.0, 22872.0, 23346.0, 23992.0, 23556.0, 22931.0, 22902.0, 23131.0, 22020.0, 20796.0, 16608.0, 11475.0, 8034.0, 6489.0, 8281.0, 9499.0]
    }
  }
}