{
  "AcquisitionMatrixPE": 82,
  "AcquisitionNumber": 1,
  "AcquisitionTime": "17:34:40.887500",
  "BandwidthPerPixelPhaseEncode": 24.888,
  "BaseResolution": 82,
  "BodyPartExamined": "BRAIN",
  "ConsistencyInfo": "N4_VE11E_LATEST_20181129",
  "ConversionSoftware": "dcm2niix",
  "ConversionSoftwareVersion": "v1.0.20201102",
  "DerivedVendorReportedEchoSpacing": 0.00049,
  "DeviceSerialNumber": "66112",
  "DwellTime": 2e-06,
  "EchoTime": 0.0272,
  "EchoTrainLength": 82,
  "EffectiveEchoSpacing": 0.00049,
  "FlipAngle": 44,
  "ImageComments": "Unaliased MB8/PE3",
  "ImageOrientationPatientDICOM": [0.999335, 0.0364668, -0.000549187, -0.0364693, 0.99932, -0.00549606],
  "ImageType": [
    "ORIGINAL",
    "PRIMARY",
    "M",
    "MB",
    "ND",
    "NORM",
    "MOSAIC"
],
  "ImagingFrequency": 123.252,
  "InPlanePhaseEncodingDirectionDICOM": "COL",
  "InstitutionAddress": "Maynard 3,Hanover,NH,US,03755",
  "InstitutionName": "Dartmouth College - PBS",
  "InstitutionalDepartmentName": "Department",
  "MRAcquisitionType": "2D",
  "MagneticFieldStrength": 3,
  "Manufacturer": "Siemens",
  "ManufacturersModelName": "Prisma",
  "Modality": "MR",
  "MultibandAccelerationFactor": 8,
  "PartialFourier": 1,
  "PatientPosition": "HFS",
  "PercentPhaseFOV": 100,
  "PercentSampling": 100,
  "PhaseEncodingDirection": "j-",
  "PhaseEncodingSteps": 82,
  "PhaseResolution": 1,
  "PixelBandwidth": 3050,
  "ProcedureStepDescription": "Wager_Wager^1076_spacetop",
  "ProtocolName": "func_run-05_task-social_acq-ap-mb8",
  "PulseSequenceDetails": "%CustomerSeq%\\cmrr_mbep2d_bold",
  "ReceiveCoilActiveElements": "HEA;HEP",
  "ReceiveCoilName": "Head_32",
  "ReconMatrixPE": 82,
  "RepetitionTime": 0.46,
  "SAR": 0.102815,
  "ScanOptions": "FS",
  "ScanningSequence": "EP",
  "SequenceName": "epfid2d1_82",
  "SequenceVariant": "SK\\SS",
  "SeriesDescription": "func_run-05_task-social_acq-ap-mb8",
  "SeriesNumber": 16,
  "ShimSetting": [4167, -7755, -7174, 495, -62, -153, 55, 40],
  "SliceThickness": 2.7,
  "SliceTiming": [0, 0.2525, 0.0625, 0.315, 0.125, 0.3775, 0.19, 0, 0.2525, 0.0625, 0.315, 0.125, 0.3775, 0.19, 0, 0.2525, 0.0625, 0.315, 0.125, 0.3775, 0.19, 0, 0.2525, 0.0625, 0.315, 0.125, 0.3775, 0.19, 0, 0.2525, 0.0625, 0.315, 0.125, 0.3775, 0.19, 0, 0.2525, 0.0625, 0.315, 0.125, 0.3775, 0.19, 0, 0.2525, 0.0625, 0.315, 0.125, 0.3775, 0.19, 0, 0.2525, 0.0625, 0.315, 0.125, 0.3775, 0.19],
  "SoftwareVersions": "syngo MR E11",
  "SpacingBetweenSlices": 2.7,
  "StationName": "AWP66112",
  "TaskName": "social",
  "TotalReadoutTime": 0.03969,
  "TxRefAmp": 261.321,
  "WipMemBlock": "c6c17f0e-ea9f-4d41-9836-1dfcb056caae||Sequence: R016 ve11e/master r/434b28f1; Aug  7 2019 18:53:46 by eja",
  "dcmmeta_affine": [
    [-2.6811420917510986, -0.09784433245658875, -0.0009406524477526546, 117.04199981689453],
    [-0.09783770143985748, 2.6811015605926514, -0.01488356664776802, -85.79085540771484],
    [-0.0014734285650774837, 0.014745526947081089, 2.6999588012695312, -20.94136619567871],
    [0.0, 0.0, 0.0, 1.0]
],
  "dcmmeta_reorient_transform": [
    [0.0, -1.0, 0.0, 81.0],
    [1.0, 0.0, 0.0, 0.0],
    [0.0, 0.0, 1.0, 0.0],
    [0.0, 0.0, 0.0, 1.0]
],
  "dcmmeta_shape": [82, 82, 56, 872],
  "dcmmeta_slice_dim": 2,
  "dcmmeta_version": 0.6,
  "global": {
    "const": {
      "AccessionNumber": "A004084",
      "AcquisitionMatrix": [82, 0, 0, 82],
      "AngioFlag": "N",
      "BitsAllocated": 16,
      "BitsStored": 16,
      "BodyPartExamined": "BRAIN",
      "Columns": 656,
      "EchoNumbers": 1,
      "EchoTime": 27.2,
      "EchoTrainLength": 82,
      "FlipAngle": 44.0,
      "HighBit": 15,
      "ImageOrientationPatient": [0.99933471490553, 0.03646677910531, -0.000549187011, -0.0364692501876, 0.99931966212912, -0.0054960597607],
      "ImagePositionPatient": [-850.52303610918, -928.93395403163, -15.09213759384],
      "ImageType": [
        "ORIGINAL",
        "PRIMARY",
        "M",
        "MB",
        "ND",
        "NORM",
        "MOSAIC"
],
      "ImagedNucleus": "1H",
      "ImagingFrequency": 123.252098,
      "InPlanePhaseEncodingDirection": "COL",
      "MRAcquisitionType": "2D",
      "MagneticFieldStrength": 3.0,
      "Manufacturer": "SIEMENS",
      "ManufacturerModelName": "Prisma",
      "Modality": "MR",
      "NumberOfAverages": 1.0,
      "NumberOfPhaseEncodingSteps": 82,
      "PercentPhaseFieldOfView": 100.0,
      "PercentSampling": 100.0,
      "PerformedProcedureStepStartTime": "165010.748000",
      "PhotometricInterpretation": "MONOCHROME2",
      "PixelBandwidth": 3050.0,
      "PixelRepresentation": 0,
      "PixelSpacing": [2.6829268932343, 2.6829268932343],
      "ProtocolName": "func_run-05_task-social_acq-ap-mb8",
      "RepetitionTime": 460.0,
      "Rows": 656,
      "SAR": 0.10281511080239,
      "SamplesPerPixel": 1,
      "ScanOptions": "FS",
      "ScanningSequence": "EP",
      "SequenceName": "epfid2d1_82",
      "SequenceVariant": [
        "SK",
        "SS"
],
      "SeriesDescription": "func_run-05_task-social_acq-ap-mb8",
      "SeriesNumber": 16,
      "SeriesTime": "173506.766000",
      "SliceLocation": -20.508905933057,
      "SliceThickness": 2.7000000476837,
      "SmallestImagePixelValue": 0,
      "SoftwareVersions": "syngo MR E11",
      "SpacingBetweenSlices": 2.7000000917735,
      "SpecificCharacterSet": "ISO_IR 100",
      "StudyID": "1",
      "StudyTime": "165010.696000",
      "TransmitCoilName": "Body",
      "VariableFlipAngleFlag": "N",
      "WindowCenterWidthExplanation": "Algo1"
    },
    "slices": {}
  },
  "time": {
    "samples": {
      "AcquisitionNumber": [1, 2, 3, 4, 5, 6, 7, 8, 9, 10, 11, 12, 13, 14, 15, 16, 17, 18, 19, 20, 21, 22, 23, 24, 25, 26, 27, 28, 29, 30, 31, 32, 33, 34, 35, 36, 37, 38, 39, 40, 41, 42, 43, 44, 45, 46, 47, 48, 49, 50, 51, 52, 53, 54, 55, 56, 57, 58, 59, 60, 61, 62, 63, 64, 65, 66, 67, 68, 69, 70, 71, 72, 73, 74, 75, 76, 77, 78, 79, 80, 81, 82, 83, 84, 85, 86, 87, 88, 89, 90, 91, 92, 93, 94, 95, 96, 97, 98, 99, 100, 101, 102, 103, 104, 105, 106, 107, 108, 109, 110, 111, 112, 113, 114, 115, 116, 117, 118, 119, 120, 121, 122, 123, 124, 125, 126, 127, 128, 129, 130, 131, 132, 133, 134, 135, 136, 137, 138, 139, 140, 141, 142, 143, 144, 145, 146, 147, 148, 149, 150, 151, 152, 153, 154, 155, 156, 157, 158, 159, 160, 161, 162, 163, 164, 165, 166, 167, 168, 169, 170, 171, 172, 173, 174, 175, 176, 177, 178, 179, 180, 181, 182, 183, 184, 185, 186, 187, 188, 189, 190, 191, 192, 193, 194, 195, 196, 197, 198, 199, 200, 201, 202, 203, 204, 205, 206, 207, 208, 209, 210, 211, 212, 213, 214, 215, 216, 217, 218, 219, 220, 221, 222, 223, 224, 225, 226, 227, 228, 229, 230, 231, 232, 233, 234, 235, 236, 237, 238, 239, 240, 241, 242, 243, 244, 245, 246, 247, 248, 249, 250, 251, 252, 253, 254, 255, 256, 257, 258, 259, 260, 261, 262, 263, 264, 265, 266, 267, 268, 269, 270, 271, 272, 273, 274, 275, 276, 277, 278, 279, 280, 281, 282, 283, 284, 285, 286, 287, 288, 289, 290, 291, 292, 293, 294, 295, 296, 297, 298, 299, 300, 301, 302, 303, 304, 305, 306, 307, 308, 309, 310, 311, 312, 313, 314, 315, 316, 317, 318, 319, 320, 321, 322, 323, 324, 325, 326, 327, 328, 329, 330, 331, 332, 333, 334, 335, 336, 337, 338, 339, 340, 341, 342, 343, 344, 345, 346, 347, 348, 349, 350, 351, 352, 353, 354, 355, 356, 357, 358, 359, 360, 361, 362, 363, 364, 365, 366, 367, 368, 369, 370, 371, 372, 373, 374, 375, 376, 377, 378, 379, 380, 381, 382, 383, 384, 385, 386, 387, 388, 389, 390, 391, 392, 393, 394, 395, 396, 397, 398, 399, 400, 401, 402, 403, 404, 405, 406, 407, 408, 409, 410, 411, 412, 413, 414, 415, 416, 417, 418, 419, 420, 421, 422, 423, 424, 425, 426, 427, 428, 429, 430, 431, 432, 433, 434, 435, 436, 437, 438, 439, 440, 441, 442, 443, 444, 445, 446, 447, 448, 449, 450, 451, 452, 453, 454, 455, 456, 457, 458, 459, 460, 461, 462, 463, 464, 465, 466, 467, 468, 469, 470, 471, 472, 473, 474, 475, 476, 477, 478, 479, 480, 481, 482, 483, 484, 485, 486, 487, 488, 489, 490, 491, 492, 493, 494, 495, 496, 497, 498, 499, 500, 501, 502, 503, 504, 505, 506, 507, 508, 509, 510, 511, 512, 513, 514, 515, 516, 517, 518, 519, 520, 521, 522, 523, 524, 525, 526, 527, 528, 529, 530, 531, 532, 533, 534, 535, 536, 537, 538, 539, 540, 541, 542, 543, 544, 545, 546, 547, 548, 549, 550, 551, 552, 553, 554, 555, 556, 557, 558, 559, 560, 561, 562, 563, 564, 565, 566, 567, 568, 569, 570, 571, 572, 573, 574, 575, 576, 577, 578, 579, 580, 581, 582, 583, 584, 585, 586, 587, 588, 589, 590, 591, 592, 593, 594, 595, 596, 597, 598, 599, 600, 601, 602, 603, 604, 605, 606, 607, 608, 609, 610, 611, 612, 613, 614, 615, 616, 617, 618, 619, 620, 621, 622, 623, 624, 625, 626, 627, 628, 629, 630, 631, 632, 633, 634, 635, 636, 637, 638, 639, 640, 641, 642, 643, 644, 645, 646, 647, 648, 649, 650, 651, 652, 653, 654, 655, 656, 657, 658, 659, 660, 661, 662, 663, 664, 665, 666, 667, 668, 669, 670, 671, 672, 673, 674, 675, 676, 677, 678, 679, 680, 681, 682, 683, 684, 685, 686, 687, 688, 689, 690, 691, 692, 693, 694, 695, 696, 697, 698, 699, 700, 701, 702, 703, 704, 705, 706, 707, 708, 709, 710, 711, 712, 713, 714, 715, 716, 717, 718, 719, 720, 721, 722, 723, 724, 725, 726, 727, 728, 729, 730, 731, 732, 733, 734, 735, 736, 737, 738, 739, 740, 741, 742, 743, 744, 745, 746, 747, 748, 749, 750, 751, 752, 753, 754, 755, 756, 757, 758, 759, 760, 761, 762, 763, 764, 765, 766, 767, 768, 769, 770, 771, 772, 773, 774, 775, 776, 777, 778, 779, 780, 781, 782, 783, 784, 785, 786, 787, 788, 789, 790, 791, 792, 793, 794, 795, 796, 797, 798, 799, 800, 801, 802, 803, 804, 805, 806, 807, 808, 809, 810, 811, 812, 813, 814, 815, 816, 817, 818, 819, 820, 821, 822, 823, 824, 825, 826, 827, 828, 829, 830, 831, 832, 833, 834, 835, 836, 837, 838, 839, 840, 841, 842, 843, 844, 845, 846, 847, 848, 849, 850, 851, 852, 853, 854, 855, 856, 857, 858, 859, 860, 861, 862, 863, 864, 865, 866, 867, 868, 869, 870, 871, 872],
      "AcquisitionTime": ["173440.887500", "173441.347500", "173441.807500", "173442.267500", "173442.727500", "173443.187500", "173443.647500", "173444.107500", "173444.567500", "173445.027500", "173445.487500", "173445.947500", "173446.407500", "173446.867500", "173447.327500", "173447.787500", "173448.247500", "173448.707500", "173449.167500", "173449.627500", "173450.087500", "173450.547500", "173451.007500", "173451.467500", "173451.927500", "173452.387500", "173452.847500", "173453.307500", "173453.767500", "173454.227500", "173454.687500", "173455.147500", "173455.607500", "173456.067500", "173456.527500", "173456.987500", "173457.447500", "173457.907500", "173458.367500", "173458.827500", "173459.287500", "173459.747500", "173500.207500", "173500.667500", "173501.127500", "173501.587500", "173502.047500", "173502.507500", "173502.967500", "173503.427500", "173503.887500", "173504.347500", "173504.807500", "173505.267500", "173505.727500", "173506.187500", "173506.647500", "173507.107500", "173507.567500", "173508.027500", "173508.487500", "173508.947500", "173509.407500", "173509.867500", "173510.327500", "173510.787500", "173511.247500", "173511.707500", "173512.167500", "173512.627500", "173513.087500", "173513.547500", "173514.007500", "173514.467500", "173514.927500", "173515.387500", "173515.847500", "173516.307500", "173516.767500", "173517.227500", "173517.687500", "173518.147500", "173518.607500", "173519.067500", "173519.527500", "173519.987500", "173520.447500", "173520.907500", "173521.367500", "173521.827500", "173522.287500", "173522.747500", "173523.207500", "173523.667500", "173524.127500", "173524.587500", "173525.047500", "173525.507500", "173525.967500", "173526.427500", "173526.887500", "173527.347500", "173527.807500", "173528.267500", "173528.727500", "173529.187500", "173529.647500", "173530.107500", "173530.567500", "173531.027500", "173531.487500", "173531.947500", "173532.407500", "173532.867500", "173533.327500", "173533.787500", "173534.247500", "173534.707500", "173535.167500", "173535.627500", "173536.087500", "173536.547500", "173537.007500", "173537.467500", "173537.927500", "173538.387500", "173538.847500", "173539.307500", "173539.767500", "173540.227500", "173540.687500", "173541.147500", "173541.607500", "173542.067500", "173542.527500", "173542.987500", "173543.447500", "173543.907500", "173544.367500", "173544.827500", "173545.287500", "173545.747500", "173546.207500", "173546.667500", "173547.127500", "173547.587500", "173548.047500", "173548.507500", "173548.967500", "173549.427500", "173549.887500", "173550.347500", "173550.807500", "173551.267500", "173551.727500", "173552.187500", "173552.647500", "173553.107500", "173553.567500", "173554.027500", "173554.487500", "173554.947500", "173555.407500", "173555.867500", "173556.327500", "173556.787500", "173557.247500", "173557.707500", "173558.167500", "173558.627500", "173559.087500", "173559.547500", "173600.007500", "173600.467500", "173600.927500", "173601.387500", "173601.847500", "173602.307500", "173602.767500", "173603.227500", "173603.687500", "173604.147500", "173604.607500", "173605.067500", "173605.527500", "173605.987500", "173606.447500", "173606.907500", "173607.367500", "173607.827500", "173608.287500", "173608.747500", "173609.207500", "173609.667500", "173610.127500", "173610.587500", "173611.047500", "173611.507500", "173611.967500", "173612.427500", "173612.887500", "173613.347500", "173613.807500", "173614.267500", "173614.727500", "173615.187500", "173615.647500", "173616.107500", "173616.567500", "173617.027500", "173617.487500", "173617.947500", "173618.407500", "173618.867500", "173619.327500", "173619.787500", "173620.247500", "173620.707500", "173621.167500", "173621.627500", "173622.087500", "173622.547500", "173623.007500", "173623.467500", "173623.927500", "173624.387500", "173624.847500", "173625.307500", "173625.767500", "173626.227500", "173626.687500", "173627.147500", "173627.607500", "173628.067500", "173628.527500", "173628.987500", "173629.447500", "173629.907500", "173630.367500", "173630.827500", "173631.287500", "173631.747500", "173632.207500", "173632.667500", "173633.127500", "173633.587500", "173634.047500", "173634.507500", "173634.967500", "173635.427500", "173635.887500", "173636.347500", "173636.807500", "173637.267500", "173637.727500", "173638.187500", "173638.647500", "173639.107500", "173639.567500", "173640.027500", "173640.487500", "173640.947500", "173641.407500", "173641.867500", "173642.327500", "173642.787500", "173643.247500", "173643.707500", "173644.167500", "173644.627500", "173645.087500", "173645.547500", "173646.007500", "173646.467500", "173646.927500", "173647.387500", "173647.847500", "173648.307500", "173648.767500", "173649.227500", "173649.687500", "173650.147500", "173650.607500", "173651.067500", "173651.527500", "173651.987500", "173652.447500", "173652.907500", "173653.367500", "173653.827500", "173654.287500", "173654.747500", "173655.207500", "173655.667500", "173656.127500", "173656.587500", "173657.047500", "173657.507500", "173657.967500", "173658.427500", "173658.887500", "173659.347500", "173659.807500", "173700.267500", "173700.727500", "173701.187500", "173701.647500", "173702.107500", "173702.567500", "173703.027500", "173703.487500", "173703.947500", "173704.407500", "173704.867500", "173705.327500", "173705.787500", "173706.247500", "173706.707500", "173707.167500", "173707.627500", "173708.087500", "173708.547500", "173709.007500", "173709.467500", "173709.927500", "173710.387500", "173710.847500", "173711.307500", "173711.767500", "173712.227500", "173712.687500", "173713.147500", "173713.607500", "173714.067500", "173714.527500", "173714.987500", "173715.447500", "173715.907500", "173716.367500", "173716.827500", "173717.287500", "173717.747500", "173718.207500", "173718.667500", "173719.127500", "173719.587500", "173720.047500", "173720.507500", "173720.967500", "173721.427500", "173721.887500", "173722.347500", "173722.807500", "173723.267500", "173723.727500", "173724.187500", "173724.647500", "173725.107500", "173725.567500", "173726.027500", "173726.487500", "173726.947500", "173727.407500", "173727.867500", "173728.327500", "173728.787500", "173729.247500", "173729.707500", "173730.167500", "173730.627500", "173731.087500", "173731.547500", "173732.007500", "173732.467500", "173732.927500", "173733.387500", "173733.847500", "173734.307500", "173734.767500", "173735.227500", "173735.687500", "173736.147500", "173736.607500", "173737.067500", "173737.527500", "173737.987500", "173738.447500", "173738.907500", "173739.367500", "173739.827500", "173740.287500", "173740.747500", "173741.207500", "173741.667500", "173742.127500", "173742.587500", "173743.047500", "173743.507500", "173743.967500", "173744.427500", "173744.887500", "173745.347500", "173745.807500", "173746.267500", "173746.727500", "173747.187500", "173747.647500", "173748.107500", "173748.567500", "173749.027500", "173749.487500", "173749.947500", "173750.407500", "173750.867500", "173751.327500", "173751.787500", "173752.247500", "173752.707500", "173753.167500", "173753.627500", "173754.087500", "173754.547500", "173755.007500", "173755.467500", "173755.927500", "173756.387500", "173756.847500", "173757.307500", "173757.767500", "173758.227500", "173758.687500", "173759.147500", "173759.607500", "173800.067500", "173800.527500", "173800.987500", "173801.447500", "173801.907500", "173802.367500", "173802.827500", "173803.287500", "173803.747500", "173804.207500", "173804.667500", "173805.127500", "173805.587500", "173806.047500", "173806.507500", "173806.967500", "173807.427500", "173807.887500", "173808.347500", "173808.807500", "173809.267500", "173809.727500", "173810.187500", "173810.647500", "173811.107500", "173811.567500", "173812.027500", "173812.487500", "173812.947500", "173813.407500", "173813.867500", "173814.327500", "173814.787500", "173815.247500", "173815.707500", "173816.167500", "173816.627500", "173817.087500", "173817.547500", "173818.007500", "173818.467500", "173818.927500", "173819.387500", "173819.847500", "173820.307500", "173820.767500", "173821.227500", "173821.687500", "173822.147500", "173822.607500", "173823.067500", "173823.527500", "173823.987500", "173824.447500", "173824.907500", "173825.367500", "173825.827500", "173826.287500", "173826.747500", "173827.207500", "173827.667500", "173828.127500", "173828.587500", "173829.047500", "173829.507500", "173829.967500", "173830.427500", "173830.887500", "173831.347500", "173831.807500", "173832.267500", "173832.727500", "173833.187500", "173833.647500", "173834.107500", "173834.567500", "173835.027500", "173835.487500", "173835.947500", "173836.407500", "173836.867500", "173837.327500", "173837.787500", "173838.247500", "173838.707500", "173839.167500", "173839.627500", "173840.087500", "173840.547500", "173841.007500", "173841.467500", "173841.927500", "173842.387500", "173842.847500", "173843.307500", "173843.767500", "173844.227500", "173844.687500", "173845.147500", "173845.607500", "173846.067500", "173846.527500", "173846.987500", "173847.447500", "173847.907500", "173848.367500", "173848.827500", "173849.287500", "173849.747500", "173850.207500", "173850.667500", "173851.127500", "173851.587500", "173852.047500", "173852.507500", "173852.967500", "173853.427500", "173853.887500", "173854.347500", "173854.807500", "173855.267500", "173855.727500", "173856.187500", "173856.647500", "173857.107500", "173857.567500", "173858.027500", "173858.487500", "173858.947500", "173859.407500", "173859.867500", "173900.327500", "173900.787500", "173901.247500", "173901.707500", "173902.167500", "173902.627500", "173903.087500", "173903.547500", "173904.007500", "173904.467500", "173904.927500", "173905.387500", "173905.847500", "173906.307500", "173906.767500", "173907.227500", "173907.687500", "173908.147500", "173908.607500", "173909.067500", "173909.527500", "173909.987500", "173910.447500", "173910.907500", "173911.367500", "173911.827500", "173912.287500", "173912.747500", "173913.207500", "173913.667500", "173914.127500", "173914.587500", "173915.047500", "173915.507500", "173915.967500", "173916.427500", "173916.887500", "173917.347500", "173917.807500", "173918.267500", "173918.727500", "173919.187500", "173919.647500", "173920.107500", "173920.567500", "173921.027500", "173921.487500", "173921.947500", "173922.407500", "173922.867500", "173923.327500", "173923.787500", "173924.247500", "173924.707500", "173925.167500", "173925.627500", "173926.087500", "173926.547500", "173927.007500", "173927.467500", "173927.927500", "173928.387500", "173928.847500", "173929.307500", "173929.767500", "173930.227500", "173930.687500", "173931.147500", "173931.607500", "173932.067500", "173932.527500", "173932.987500", "173933.447500", "173933.907500", "173934.367500", "173934.827500", "173935.287500", "173935.747500", "173936.207500", "173936.667500", "173937.127500", "173937.587500", "173938.047500", "173938.507500", "173938.967500", "173939.427500", "173939.887500", "173940.347500", "173940.807500", "173941.267500", "173941.727500", "173942.187500", "173942.647500", "173943.107500", "173943.567500", "173944.027500", "173944.487500", "173944.947500", "173945.407500", "173945.867500", "173946.327500", "173946.787500", "173947.247500", "173947.707500", "173948.167500", "173948.627500", "173949.087500", "173949.547500", "173950.007500", "173950.467500", "173950.927500", "173951.387500", "173951.847500", "173952.307500", "173952.767500", "173953.227500", "173953.687500", "173954.147500", "173954.607500", "173955.067500", "173955.527500", "173955.987500", "173956.447500", "173956.907500", "173957.367500", "173957.827500", "173958.287500", "173958.747500", "173959.207500", "173959.667500", "174000.127500", "174000.587500", "174001.047500", "174001.507500", "174001.967500", "174002.427500", "174002.887500", "174003.347500", "174003.807500", "174004.267500", "174004.727500", "174005.187500", "174005.647500", "174006.107500", "174006.567500", "174007.027500", "174007.487500", "174007.947500", "174008.407500", "174008.867500", "174009.327500", "174009.787500", "174010.247500", "174010.707500", "174011.167500", "174011.627500", "174012.087500", "174012.547500", "174013.007500", "174013.467500", "174013.927500", "174014.387500", "174014.847500", "174015.307500", "174015.767500", "174016.227500", "174016.687500", "174017.147500", "174017.607500", "174018.067500", "174018.527500", "174018.987500", "174019.447500", "174019.907500", "174020.367500", "174020.827500", "174021.287500", "174021.747500", "174022.207500", "174022.667500", "174023.127500", "174023.587500", "174024.047500", "174024.507500", "174024.967500", "174025.427500", "174025.887500", "174026.347500", "174026.807500", "174027.267500", "174027.727500", "174028.187500", "174028.647500", "174029.107500", "174029.567500", "174030.027500", "174030.487500", "174030.947500", "174031.407500", "174031.867500", "174032.327500", "174032.787500", "174033.247500", "174033.707500", "174034.167500", "174034.627500", "174035.087500", "174035.547500", "174036.007500", "174036.467500", "174036.927500", "174037.387500", "174037.847500", "174038.307500", "174038.767500", "174039.227500", "174039.687500", "174040.147500", "174040.607500", "174041.067500", "174041.527500", "174041.987500", "174042.447500", "174042.907500", "174043.367500", "174043.827500", "174044.287500", "174044.747500", "174045.207500", "174045.667500", "174046.127500", "174046.587500", "174047.047500", "174047.507500", "174047.967500", "174048.427500", "174048.887500", "174049.347500", "174049.807500", "174050.267500", "174050.727500", "174051.187500", "174051.647500", "174052.107500", "174052.567500", "174053.027500", "174053.487500", "174053.947500", "174054.407500", "174054.867500", "174055.327500", "174055.787500", "174056.247500", "174056.707500", "174057.167500", "174057.627500", "174058.087500", "174058.547500", "174059.007500", "174059.467500", "174059.927500", "174100.387500", "174100.847500", "174101.307500", "174101.767500", "174102.227500", "174102.687500", "174103.147500", "174103.607500", "174104.067500", "174104.527500", "174104.987500", "174105.447500", "174105.907500", "174106.367500", "174106.827500", "174107.287500", "174107.747500", "174108.207500", "174108.667500", "174109.127500", "174109.587500", "174110.047500", "174110.507500", "174110.967500", "174111.427500", "174111.887500", "174112.347500", "174112.807500", "174113.267500", "174113.727500", "174114.187500", "174114.647500", "174115.107500", "174115.567500", "174116.027500", "174116.487500", "174116.947500", "174117.407500", "174117.867500", "174118.327500", "174118.787500", "174119.247500", "174119.707500", "174120.167500", "174120.627500", "174121.087500", "174121.547500"],
