{
  "AcquisitionMatrixPE": 82,
  "AcquisitionNumber": 1,
  "AcquisitionTime": "14:22:27.745000",
  "BandwidthPerPixelPhaseEncode": 24.888,
  "BaseResolution": 82,
  "BodyPartExamined": "BRAIN",
  "ConsistencyInfo": "N4_VE11E_LATEST_20181129",
  "ConversionSoftware": "dcm2niix",
  "ConversionSoftwareVersion": "v1.0.20201102",
  "DerivedVendorReportedEchoSpacing": 0.00049,
  "DeviceSerialNumber": "66112",
  "DwellTime": 2e-06,
  "EchoTime": 0.0272,
  "EchoTrainLength": 82,
  "EffectiveEchoSpacing": 0.00049,
  "FlipAngle": 44,
  "ImageComments": "Unaliased MB8/PE3",
  "ImageOrientationPatientDICOM": [0.999819, -0.0168471, -0.00884364, 0.0164046, 0.998716, -0.0479227],
  "ImageType": [
    "ORIGINAL",
    "PRIMARY",
    "M",
    "MB",
    "ND",
    "NORM",
    "MOSAIC"
],
  "ImagingFrequency": 123.252,
  "InPlanePhaseEncodingDirectionDICOM": "COL",
  "InstitutionAddress": "Maynard 3,Hanover,NH,US,03755",
  "InstitutionName": "Dartmouth College - PBS",
  "InstitutionalDepartmentName": "Department",
  "MRAcquisitionType": "2D",
  "MagneticFieldStrength": 3,
  "Manufacturer": "Siemens",
  "ManufacturersModelName": "Prisma",
  "Modality": "MR",
  "MultibandAccelerationFactor": 8,
  "PartialFourier": 1,
  "PatientPosition": "HFS",
  "PercentPhaseFOV": 100,
  "PercentSampling": 100,
  "PhaseEncodingDirection": "j-",
  "PhaseEncodingSteps": 82,
  "PhaseResolution": 1,
  "PixelBandwidth": 3050,
  "ProcedureStepDescription": "Wager_Wager^1076_spacetop",
  "ProtocolName": "func_run-02_task-alignvideo_acq-ap-mb8",
  "PulseSequenceDetails": "%CustomerSeq%\\cmrr_mbep2d_bold",
  "ReceiveCoilActiveElements": "HEA;HEP",
  "ReceiveCoilName": "Head_32",
  "ReconMatrixPE": 82,
  "RepetitionTime": 0.46,
  "SAR": 0.114759,
  "ScanOptions": "FS",
  "ScanningSequence": "EP",
  "SequenceName": "epfid2d1_82",
  "SequenceVariant": "SK\\SS",
  "SeriesDescription": "func_run-02_task-alignvideo_acq-ap-mb8",
  "SeriesNumber": 32,
  "ShimSetting": [4150, -7710, -7209, 571, -55, -95, 36, 66],
  "SliceThickness": 2.7,
  "SliceTiming": [0, 0.25, 0.0625, 0.3125, 0.125, 0.375, 0.1875, 0, 0.25, 0.0625, 0.3125, 0.125, 0.375, 0.1875, 0, 0.25, 0.0625, 0.3125, 0.125, 0.375, 0.1875, 0, 0.25, 0.0625, 0.3125, 0.125, 0.375, 0.1875, 0, 0.25, 0.0625, 0.3125, 0.125, 0.375, 0.1875, 0, 0.25, 0.0625, 0.3125, 0.125, 0.375, 0.1875, 0, 0.25, 0.0625, 0.3125, 0.125, 0.375, 0.1875, 0, 0.25, 0.0625, 0.3125, 0.125, 0.375, 0.1875],
  "SoftwareVersions": "syngo MR E11",
  "SpacingBetweenSlices": 2.7,
  "StationName": "AWP66112",
  "TaskName": "alignvideo",
  "TotalReadoutTime": 0.03969,
  "TxRefAmp": 288.931,
  "WipMemBlock": "bbca7cc5-83fa-4449-8547-00cbaa1201c9||Sequence: R016 ve11e/master r/434b28f1; Aug  7 2019 18:53:46 by eja",
  "dcmmeta_affine": [
    [-2.682441234588623, 0.04401247575879097, -0.026027053594589233, 108.9990234375],
    [0.04519958421587944, 2.679482936859131, -0.12897615134716034, -99.60911560058594],
    [-0.023726847022771835, 0.12857310473918915, 2.6967921257019043, -57.655147552490234],
    [0.0, 0.0, 0.0, 1.0]
],
  "dcmmeta_reorient_transform": [
    [0.0, -1.0, 0.0, 81.0],
    [1.0, 0.0, 0.0, 0.0],
    [0.0, 0.0, 1.0, 0.0],
    [0.0, 0.0, 0.0, 1.0]
],
  "dcmmeta_shape": [82, 82, 56, 926],
  "dcmmeta_slice_dim": 2,
  "dcmmeta_version": 0.6,
  "global": {
    "const": {
      "AccessionNumber": "A003857",
      "AcquisitionMatrix": [82, 0, 0, 82],
      "AngioFlag": "N",
      "BitsAllocated": 16,
      "BitsStored": 16,
      "BodyPartExamined": "BRAIN",
      "Columns": 656,
      "EchoNumbers": 1,
      "EchoTime": 27.2,
      "EchoTrainLength": 82,
      "FlipAngle": 44.0,
      "HighBit": 15,
      "ImageOrientationPatient": [0.99981896592026, -0.0168471174491, -0.0088436429028, 0.0164046498207, 0.99871632724887, -0.0479226997443],
      "ImagePositionPatient": [-895.0562352316, -873.468308937, -3.5306407780678],
      "ImageType": [
        "ORIGINAL",
        "PRIMARY",
        "M",
        "MB",
        "ND",
        "NORM",
        "MOSAIC"
],
      "ImagedNucleus": "1H",
      "ImagingFrequency": 123.252264,
      "InPlanePhaseEncodingDirection": "COL",
      "MRAcquisitionType": "2D",
      "MagneticFieldStrength": 3.0,
      "Manufacturer": "SIEMENS",
      "ManufacturerModelName": "Prisma",
      "Modality": "MR",
      "NumberOfAverages": 1.0,
      "NumberOfPhaseEncodingSteps": 82,
      "PercentPhaseFieldOfView": 100.0,
      "PercentSampling": 100.0,
      "PerformedProcedureStepStartTime": "124356.219000",
      "PhotometricInterpretation": "MONOCHROME2",
      "PixelBandwidth": 3050.0,
      "PixelRepresentation": 0,
      "PixelSpacing": [2.6829268932343, 2.6829268932343],
      "ProtocolName": "func_run-02_task-alignvideo_acq-ap-mb8",
      "RepetitionTime": 460.0,
      "Rows": 656,
      "SAR": 0.11475878510608,
      "SamplesPerPixel": 1,
      "ScanOptions": "FS",
      "ScanningSequence": "EP",
      "SequenceName": "epfid2d1_82",
      "SequenceVariant": [
        "SK",
        "SS"
],
      "SeriesDescription": "func_run-02_task-alignvideo_acq-ap-mb8",
      "SeriesNumber": 32,
      "SeriesTime": "142249.327000",
      "SliceLocation": -53.879136332877,
      "SliceThickness": 2.7000000476837,
      "SmallestImagePixelValue": 0,
      "SoftwareVersions": "syngo MR E11",
      "SpacingBetweenSlices": 2.6999999264789,
      "SpecificCharacterSet": "ISO_IR 100",
      "StudyID": "1",
      "StudyTime": "124356.161000",
      "TransmitCoilName": "Body",
      "VariableFlipAngleFlag": "N",
      "WindowCenterWidthExplanation": "Algo1"
    },
    "slices": {}
  },
  "time": {
    "samples": {
      "AcquisitionNumber": [1, 2, 3, 4, 5, 6, 7, 8, 9, 10, 11, 12, 13, 14, 15, 16, 17, 18, 19, 20, 21, 22, 23, 24, 25, 26, 27, 28, 29, 30, 31, 32, 33, 34, 35, 36, 37, 38, 39, 40, 41, 42, 43, 44, 45, 46, 47, 48, 49, 50, 51, 52, 53, 54, 55, 56, 57, 58, 59, 60, 61, 62, 63, 64, 65, 66, 67, 68, 69, 70, 71, 72, 73, 74, 75, 76, 77, 78, 79, 80, 81, 82, 83, 84, 85, 86, 87, 88, 89, 90, 91, 92, 93, 94, 95, 96, 97, 98, 99, 100, 101, 102, 103, 104, 105, 106, 107, 108, 109, 110, 111, 112, 113, 114, 115, 116, 117, 118, 119, 120, 121, 122, 123, 124, 125, 126, 127, 128, 129, 130, 131, 132, 133, 134, 135, 136, 137, 138, 139, 140, 141, 142, 143, 144, 145, 146, 147, 148, 149, 150, 151, 152, 153, 154, 155, 156, 157, 158, 159, 160, 161, 162, 163, 164, 165, 166, 167, 168, 169, 170, 171, 172, 173, 174, 175, 176, 177, 178, 179, 180, 181, 182, 183, 184, 185, 186, 187, 188, 189, 190, 191, 192, 193, 194, 195, 196, 197, 198, 199, 200, 201, 202, 203, 204, 205, 206, 207, 208, 209, 210, 211, 212, 213, 214, 215, 216, 217, 218, 219, 220, 221, 222, 223, 224, 225, 226, 227, 228, 229, 230, 231, 232, 233, 234, 235, 236, 237, 238, 239, 240, 241, 242, 243, 244, 245, 246, 247, 248, 249, 250, 251, 252, 253, 254, 255, 256, 257, 258, 259, 260, 261, 262, 263, 264, 265, 266, 267, 268, 269, 270, 271, 272, 273, 274, 275, 276, 277, 278, 279, 280, 281, 282, 283, 284, 285, 286, 287, 288, 289, 290, 291, 292, 293, 294, 295, 296, 297, 298, 299, 300, 301, 302, 303, 304, 305, 306, 307, 308, 309, 310, 311, 312, 313, 314, 315, 316, 317, 318, 319, 320, 321, 322, 323, 324, 325, 326, 327, 328, 329, 330, 331, 332, 333, 334, 335, 336, 337, 338, 339, 340, 341, 342, 343, 344, 345, 346, 347, 348, 349, 350, 351, 352, 353, 354, 355, 356, 357, 358, 359, 360, 361, 362, 363, 364, 365, 366, 367, 368, 369, 370, 371, 372, 373, 374, 375, 376, 377, 378, 379, 380, 381, 382, 383, 384, 385, 386, 387, 388, 389, 390, 391, 392, 393, 394, 395, 396, 397, 398, 399, 400, 401, 402, 403, 404, 405, 406, 407, 408, 409, 410, 411, 412, 413, 414, 415, 416, 417, 418, 419, 420, 421, 422, 423, 424, 425, 426, 427, 428, 429, 430, 431, 432, 433, 434, 435, 436, 437, 438, 439, 440, 441, 442, 443, 444, 445, 446, 447, 448, 449, 450, 451, 452, 453, 454, 455, 456, 457, 458, 459, 460, 461, 462, 463, 464, 465, 466, 467, 468, 469, 470, 471, 472, 473, 474, 475, 476, 477, 478, 479, 480, 481, 482, 483, 484, 485, 486, 487, 488, 489, 490, 491, 492, 493, 494, 495, 496, 497, 498, 499, 500, 501, 502, 503, 504, 505, 506, 507, 508, 509, 510, 511, 512, 513, 514, 515, 516, 517, 518, 519, 520, 521, 522, 523, 524, 525, 526, 527, 528, 529, 530, 531, 532, 533, 534, 535, 536, 537, 538, 539, 540, 541, 542, 543, 544, 545, 546, 547, 548, 549, 550, 551, 552, 553, 554, 555, 556, 557, 558, 559, 560, 561, 562, 563, 564, 565, 566, 567, 568, 569, 570, 571, 572, 573, 574, 575, 576, 577, 578, 579, 580, 581, 582, 583, 584, 585, 586, 587, 588, 589, 590, 591, 592, 593, 594, 595, 596, 597, 598, 599, 600, 601, 602, 603, 604, 605, 606, 607, 608, 609, 610, 611, 612, 613, 614, 615, 616, 617, 618, 619, 620, 621, 622, 623, 624, 625, 626, 627, 628, 629, 630, 631, 632, 633, 634, 635, 636, 637, 638, 639, 640, 641, 642, 643, 644, 645, 646, 647, 648, 649, 650, 651, 652, 653, 654, 655, 656, 657, 658, 659, 660, 661, 662, 663, 664, 665, 666, 667, 668, 669, 670, 671, 672, 673, 674, 675, 676, 677, 678, 679, 680, 681, 682, 683, 684, 685, 686, 687, 688, 689, 690, 691, 692, 693, 694, 695, 696, 697, 698, 699, 700, 701, 702, 703, 704, 705, 706, 707, 708, 709, 710, 711, 712, 713, 714, 715, 716, 717, 718, 719, 720, 721, 722, 723, 724, 725, 726, 727, 728, 729, 730, 731, 732, 733, 734, 735, 736, 737, 738, 739, 740, 741, 742, 743, 744, 745, 746, 747, 748, 749, 750, 751, 752, 753, 754, 755, 756, 757, 758, 759, 760, 761, 762, 763, 764, 765, 766, 767, 768, 769, 770, 771, 772, 773, 774, 775, 776, 777, 778, 779, 780, 781, 782, 783, 784, 785, 786, 787, 788, 789, 790, 791, 792, 793, 794, 795, 796, 797, 798, 799, 800, 801, 802, 803, 804, 805, 806, 807, 808, 809, 810, 811, 812, 813, 814, 815, 816, 817, 818, 819, 820, 821, 822, 823, 824, 825, 826, 827, 828, 829, 830, 831, 832, 833, 834, 835, 836, 837, 838, 839, 840, 841, 842, 843, 844, 845, 846, 847, 848, 849, 850, 851, 852, 853, 854, 855, 856, 857, 858, 859, 860, 861, 862, 863, 864, 865, 866, 867, 868, 869, 870, 871, 872, 873, 874, 875, 876, 877, 878, 879, 880, 881, 882, 883, 884, 885, 886, 887, 888, 889, 890, 891, 892, 893, 894, 895, 896, 897, 898, 899, 900, 901, 902, 903, 904, 905, 906, 907, 908, 909, 910, 911, 912, 913, 914, 915, 916, 917, 918, 919, 920, 921, 922, 923, 924, 925, 926],
      "AcquisitionTime": ["142227.745000", "142228.205000", "142228.665000", "142229.125000", "142229.585000", "142230.045000", "142230.505000", "142230.965000", "142231.425000", "142231.885000", "142232.345000", "142232.805000", "142233.265000", "142233.725000", "142234.185000", "142234.645000", "142235.105000", "142235.565000", "142236.025000", "142236.485000", "142236.945000", "142237.405000", "142237.865000", "142238.325000", "142238.785000", "142239.245000", "142239.705000", "142240.165000", "142240.625000", "142241.085000", "142241.545000", "142242.005000", "142242.465000", "142242.925000", "142243.385000", "142243.845000", "142244.305000", "142244.765000", "142245.225000", "142245.685000", "142246.145000", "142246.605000", "142247.065000", "142247.525000", "142247.985000", "142248.445000", "142248.905000", "142249.365000", "142249.825000", "142250.285000", "142250.745000", "142251.205000", "142251.665000", "142252.125000", "142252.585000", "142253.045000", "142253.505000", "142253.965000", "142254.425000", "142254.885000", "142255.345000", "142255.805000", "142256.265000", "142256.725000", "142257.185000", "142257.645000", "142258.105000", "142258.565000", "142259.025000", "142259.485000", "142259.945000", "142300.405000", "142300.865000", "142301.325000", "142301.785000", "142302.245000", "142302.705000", "142303.165000", "142303.625000", "142304.085000", "142304.545000", "142305.005000", "142305.465000", "142305.925000", "142306.385000", "142306.845000", "142307.305000", "142307.765000", "142308.225000", "142308.685000", "142309.145000", "142309.605000", "142310.065000", "142310.525000", "142310.985000", "142311.445000", "142311.905000", "142312.365000", "142312.825000", "142313.285000", "142313.745000", "142314.205000", "142314.665000", "142315.125000", "142315.585000", "142316.045000", "142316.505000", "142316.965000", "142317.425000", "142317.885000", "142318.345000", "142318.805000", "142319.265000", "142319.725000", "142320.185000", "142320.645000", "142321.105000", "142321.565000", "142322.025000", "142322.485000", "142322.945000", "142323.405000", "142323.865000", "142324.325000", "142324.785000", "142325.245000", "142325.705000", "142326.165000", "142326.625000", "142327.085000", "142327.545000", "142328.005000", "142328.465000", "142328.925000", "142329.385000", "142329.845000", "142330.305000", "142330.765000", "142331.225000", "142331.685000", "142332.145000", "142332.605000", "142333.065000", "142333.525000", "142333.985000", "142334.445000", "142334.905000", "142335.365000", "142335.825000", "142336.285000", "142336.745000", "142337.205000", "142337.665000", "142338.125000", "142338.585000", "142339.045000", "142339.505000", "142339.965000", "142340.425000", "142340.885000", "142341.345000", "142341.805000", "142342.265000", "142342.725000", "142343.185000", "142343.645000", "142344.105000", "142344.565000", "142345.025000", "142345.485000", "142345.945000", "142346.405000", "142346.865000", "142347.325000", "142347.785000", "142348.245000", "142348.705000", "142349.165000", "142349.625000", "142350.085000", "142350.545000", "142351.005000", "142351.465000", "142351.925000", "142352.385000", "142352.845000", "142353.305000", "142353.765000", "142354.225000", "142354.685000", "142355.145000", "142355.605000", "142356.065000", "142356.525000", "142356.985000", "142357.445000", "142357.905000", "142358.365000", "142358.825000", "142359.285000", "142359.745000", "142400.205000", "142400.665000", "142401.125000", "142401.585000", "142402.045000", "142402.505000", "142402.965000", "142403.425000", "142403.885000", "142404.345000", "142404.805000", "142405.265000", "142405.725000", "142406.185000", "142406.645000", "142407.105000", "142407.565000", "142408.025000", "142408.485000", "142408.945000", "142409.405000", "142409.865000", "142410.325000", "142410.785000", "142411.245000", "142411.705000", "142412.165000", "142412.625000", "142413.085000", "142413.545000", "142414.005000", "142414.465000", "142414.925000", "142415.385000", "142415.845000", "142416.305000", "142416.765000", "142417.225000", "142417.685000", "142418.145000", "142418.605000", "142419.065000", "142419.525000", "142419.985000", "142420.445000", "142420.905000", "142421.365000", "142421.825000", "142422.285000", "142422.745000", "142423.205000", "142423.665000", "142424.125000", "142424.585000", "142425.045000", "142425.505000", "142425.965000", "142426.425000", "142426.885000", "142427.345000", "142427.805000", "142428.265000", "142428.725000", "142429.185000", "142429.645000", "142430.105000", "142430.565000", "142431.025000", "142431.485000", "142431.945000", "142432.405000", "142432.865000", "142433.325000", "142433.785000", "142434.245000", "142434.705000", "142435.165000", "142435.625000", "142436.085000", "142436.545000", "142437.005000", "142437.465000", "142437.925000", "142438.385000", "142438.845000", "142439.305000", "142439.765000", "142440.225000", "142440.685000", "142441.145000", "142441.605000", "142442.065000", "142442.525000", "142442.985000", "142443.445000", "142443.905000", "142444.365000", "142444.825000", "142445.285000", "142445.745000", "142446.205000", "142446.665000", "142447.125000", "142447.585000", "142448.045000", "142448.505000", "142448.965000", "142449.425000", "142449.885000", "142450.345000", "142450.805000", "142451.265000", "142451.725000", "142452.185000", "142452.645000", "142453.105000", "142453.565000", "142454.025000", "142454.485000", "142454.945000", "142455.405000", "142455.865000", "142456.325000", "142456.785000", "142457.245000", "142457.705000", "142458.165000", "142458.625000", "142459.085000", "142459.545000", "142500.005000", "142500.465000", "142500.925000", "142501.385000", "142501.845000", "142502.305000", "142502.765000", "142503.225000", "142503.685000", "142504.145000", "142504.605000", "142505.065000", "142505.525000", "142505.985000", "142506.445000", "142506.905000", "142507.365000", "142507.825000", "142508.285000", "142508.745000", "142509.205000", "142509.665000", "142510.125000", "142510.585000", "142511.045000", "142511.505000", "142511.965000", "142512.425000", "142512.885000", "142513.345000", "142513.805000", "142514.265000", "142514.725000", "142515.185000", "142515.645000", "142516.105000", "142516.565000", "142517.025000", "142517.485000", "142517.945000", "142518.405000", "142518.865000", "142519.325000", "142519.785000", "142520.245000", "142520.705000", "142521.165000", "142521.625000", "142522.085000", "142522.545000", "142523.005000", "142523.465000", "142523.925000", "142524.385000", "142524.845000", "142525.305000", "142525.765000", "142526.225000", "142526.685000", "142527.145000", "142527.605000", "142528.065000", "142528.525000", "142528.985000", "142529.445000", "142529.905000", "142530.365000", "142530.825000", "142531.285000", "142531.745000", "142532.205000", "142532.665000", "142533.125000", "142533.585000", "142534.045000", "142534.505000", "142534.965000", "142535.425000", "142535.885000", "142536.345000", "142536.805000", "142537.265000", "142537.725000", "142538.185000", "142538.645000", "142539.105000", "142539.565000", "142540.025000", "142540.485000", "142540.945000", "142541.405000", "142541.865000", "142542.325000", "142542.785000", "142543.245000", "142543.705000", "142544.165000", "142544.625000", "142545.085000", "142545.545000", "142546.005000", "142546.465000", "142546.925000", "142547.385000", "142547.845000", "142548.305000", "142548.765000", "142549.225000", "142549.685000", "142550.145000", "142550.605000", "142551.065000", "142551.525000", "142551.985000", "142552.445000", "142552.905000", "142553.365000", "142553.825000", "142554.285000", "142554.745000", "142555.205000", "142555.665000", "142556.125000", "142556.585000", "142557.045000", "142557.505000", "142557.965000", "142558.425000", "142558.885000", "142559.345000", "142559.805000", "142600.265000", "142600.725000", "142601.185000", "142601.645000", "142602.105000", "142602.565000", "142603.025000", "142603.485000", "142603.945000", "142604.405000", "142604.865000", "142605.325000", "142605.785000", "142606.245000", "142606.705000", "142607.165000", "142607.625000", "142608.085000", "142608.545000", "142609.005000", "142609.465000", "142609.925000", "142610.385000", "142610.845000", "142611.305000", "142611.765000", "142612.225000", "142612.685000", "142613.145000", "142613.605000", "142614.065000", "142614.525000", "142614.985000", "142615.445000", "142615.905000", "142616.365000", "142616.825000", "142617.285000", "142617.745000", "142618.205000", "142618.665000", "142619.125000", "142619.585000", "142620.045000", "142620.505000", "142620.965000", "142621.425000", "142621.885000", "142622.345000", "142622.805000", "142623.265000", "142623.725000", "142624.185000", "142624.645000", "142625.105000", "142625.565000", "142626.025000", "142626.485000", "142626.945000", "142627.405000", "142627.865000", "142628.325000", "142628.785000", "142629.245000", "142629.705000", "142630.165000", "142630.625000", "142631.085000", "142631.545000", "142632.005000", "142632.465000", "142632.925000", "142633.385000", "142633.845000", "142634.305000", "142634.765000", "142635.225000", "142635.685000", "142636.145000", "142636.605000", "142637.065000", "142637.525000", "142637.985000", "142638.445000", "142638.905000", "142639.365000", "142639.825000", "142640.285000", "142640.745000", "142641.205000", "142641.665000", "142642.125000", "142642.585000", "142643.045000", "142643.505000", "142643.965000", "142644.425000", "142644.885000", "142645.345000", "142645.805000", "142646.265000", "142646.725000", "142647.185000", "142647.645000", "142648.105000", "142648.565000", "142649.025000", "142649.485000", "142649.945000", "142650.405000", "142650.865000", "142651.325000", "142651.785000", "142652.245000", "142652.705000", "142653.165000", "142653.625000", "142654.085000", "142654.545000", "142655.005000", "142655.465000", "142655.925000", "142656.385000", "142656.845000", "142657.305000", "142657.765000", "142658.225000", "142658.685000", "142659.145000", "142659.605000", "142700.065000", "142700.525000", "142700.985000", "142701.445000", "142701.905000", "142702.365000", "142702.825000", "142703.285000", "142703.745000", "142704.205000", "142704.665000", "142705.125000", "142705.585000", "142706.045000", "142706.505000", "142706.965000", "142707.425000", "142707.885000", "142708.345000", "142708.805000", "142709.265000", "142709.725000", "142710.185000", "142710.645000", "142711.105000", "142711.565000", "142712.025000", "142712.485000", "142712.945000", "142713.405000", "142713.865000", "142714.325000", "142714.785000", "142715.245000", "142715.705000", "142716.165000", "142716.625000", "142717.085000", "142717.545000", "142718.005000", "142718.465000", "142718.925000", "142719.385000", "142719.845000", "142720.305000", "142720.765000", "142721.225000", "142721.685000", "142722.145000", "142722.605000", "142723.065000", "142723.525000", "142723.985000", "142724.445000", "142724.905000", "142725.365000", "142725.825000", "142726.285000", "142726.745000", "142727.205000", "142727.665000", "142728.125000", "142728.585000", "142729.045000", "142729.505000", "142729.965000", "142730.425000", "142730.885000", "142731.345000", "142731.805000", "142732.265000", "142732.725000", "142733.185000", "142733.645000", "142734.105000", "142734.565000", "142735.025000", "142735.485000", "142735.945000", "142736.405000", "142736.865000", "142737.325000", "142737.785000", "142738.245000", "142738.705000", "142739.165000", "142739.625000", "142740.085000", "142740.545000", "142741.005000", "142741.465000", "142741.925000", "142742.385000", "142742.845000", "142743.305000", "142743.765000", "142744.225000", "142744.685000", "142745.145000", "142745.605000", "142746.065000", "142746.525000", "142746.985000", "142747.445000", "142747.905000", "142748.365000", "142748.825000", "142749.285000", "142749.745000", "142750.205000", "142750.665000", "142751.125000", "142751.585000", "142752.045000", "142752.505000", "142752.965000", "142753.425000", "142753.885000", "142754.345000", "142754.805000", "142755.265000", "142755.725000", "142756.185000", "142756.645000", "142757.105000", "142757.565000", "142758.025000", "142758.485000", "142758.945000", "142759.405000", "142759.865000", "142800.325000", "142800.785000", "142801.245000", "142801.705000", "142802.165000", "142802.625000", "142803.085000", "142803.545000", "142804.005000", "142804.465000", "142804.925000", "142805.385000", "142805.845000", "142806.305000", "142806.765000", "142807.225000", "142807.685000", "142808.145000", "142808.605000", "142809.065000", "142809.525000", "142809.985000", "142810.445000", "142810.905000", "142811.365000", "142811.825000", "142812.285000", "142812.745000", "142813.205000", "142813.665000", "142814.125000", "142814.585000", "142815.045000", "142815.505000", "142815.965000", "142816.425000", "142816.885000", "142817.345000", "142817.805000", "142818.265000", "142818.725000", "142819.185000", "142819.645000", "142820.105000", "142820.565000", "142821.025000", "142821.485000", "142821.945000", "142822.405000", "142822.865000", "142823.325000", "142823.785000", "142824.245000", "142824.705000", "142825.165000", "142825.625000", "142826.085000", "142826.545000", "142827.005000", "142827.465000", "142827.925000", "142828.385000", "142828.845000", "142829.305000", "142829.765000", "142830.225000", "142830.685000", "142831.145000", "142831.605000", "142832.065000", "142832.525000", "142832.985000", "142833.445000", "142833.905000", "142834.365000", "142834.825000", "142835.285000", "142835.745000", "142836.205000", "142836.665000", "142837.125000", "142837.585000", "142838.045000", "142838.505000", "142838.965000", "142839.425000", "142839.885000", "142840.345000", "142840.805000", "142841.265000", "142841.725000", "142842.185000", "142842.645000", "142843.105000", "142843.565000", "142844.025000", "142844.485000", "142844.945000", "142845.405000", "142845.865000", "142846.325000", "142846.785000", "142847.245000", "142847.705000", "142848.165000", "142848.625000", "142849.085000", "142849.545000", "142850.005000", "142850.465000", "142850.925000", "142851.385000", "142851.845000", "142852.305000", "142852.765000", "142853.225000", "142853.685000", "142854.145000", "142854.605000", "142855.065000", "142855.525000", "142855.985000", "142856.445000", "142856.905000", "142857.365000", "142857.825000", "142858.285000", "142858.745000", "142859.205000", "142859.665000", "142900.125000", "142900.585000", "142901.045000", "142901.505000", "142901.965000", "142902.425000", "142902.885000", "142903.345000", "142903.805000", "142904.265000", "142904.725000", "142905.185000", "142905.645000", "142906.105000", "142906.565000", "142907.025000", "142907.485000", "142907.945000", "142908.405000", "142908.865000", "142909.325000", "142909.785000", "142910.245000", "142910.705000", "142911.165000", "142911.625000", "142912.085000", "142912.545000", "142913.005000", "142913.465000", "142913.925000", "142914.385000", "142914.845000", "142915.305000", "142915.765000", "142916.225000", "142916.685000", "142917.145000", "142917.605000", "142918.065000", "142918.525000", "142918.985000", "142919.445000", "142919.905000", "142920.365000", "142920.825000", "142921.285000", "142921.745000", "142922.205000", "142922.665000", "142923.125000", "142923.585000", "142924.045000", "142924.505000", "142924.965000", "142925.425000", "142925.885000", "142926.345000", "142926.805000", "142927.265000", "142927.725000", "142928.185000", "142928.645000", "142929.105000", "142929.565000", "142930.025000", "142930.485000", "142930.945000", "142931.405000", "142931.865000", "142932.325000", "142932.785000", "142933.245000"],
