{
  "AcquisitionMatrixPE": 82,
  "AcquisitionNumber": 1,
  "AcquisitionTime": "13:54:22.387500",
  "BandwidthPerPixelPhaseEncode": 24.888,
  "BaseResolution": 82,
  "BodyPartExamined": "BRAIN",
  "ConsistencyInfo": "N4_VE11E_LATEST_20181129",
  "ConversionSoftware": "dcm2niix",
  "ConversionSoftwareVersion": "v1.0.20201102",
  "DerivedVendorReportedEchoSpacing": 0.00049,
  "DeviceSerialNumber": "66112",
  "DwellTime": 2e-06,
  "EchoTime": 0.0272,
  "EchoTrainLength": 82,
  "EffectiveEchoSpacing": 0.00049,
  "FlipAngle": 44,
  "ImageComments": "Unaliased MB8/PE3",
  "ImageOrientationPatientDICOM": [0.999405, -0.0228089, -0.0258618, 0.0211091, 0.997714, -0.0641981],
  "ImageType": [
    "ORIGINAL",
    "PRIMARY",
    "M",
    "MB",
    "ND",
    "NORM",
    "MOSAIC"
],
  "ImagingFrequency": 123.252,
  "InPlanePhaseEncodingDirectionDICOM": "COL",
  "InstitutionAddress": "Maynard 3,Hanover,NH,US,03755",
  "InstitutionName": "Dartmouth College - PBS",
  "InstitutionalDepartmentName": "Department",
  "MRAcquisitionType": "2D",
  "MagneticFieldStrength": 3,
  "Manufacturer": "Siemens",
  "ManufacturersModelName": "Prisma",
  "Modality": "MR",
  "MultibandAccelerationFactor": 8,
  "PartialFourier": 1,
  "PatientPosition": "HFS",
  "PercentPhaseFOV": 100,
  "PercentSampling": 100,
  "PhaseEncodingDirection": "j-",
  "PhaseEncodingSteps": 82,
  "PhaseResolution": 1,
  "PixelBandwidth": 3050,
  "ProcedureStepDescription": "Wager_Wager^1076_spacetop",
  "ProtocolName": "func_run-05_task-social_acq-ap-mb8",
  "PulseSequenceDetails": "%CustomerSeq%\\cmrr_mbep2d_bold",
  "ReceiveCoilActiveElements": "HEA;HEP",
  "ReceiveCoilName": "Head_32",
  "ReconMatrixPE": 82,
  "RepetitionTime": 0.46,
  "SAR": 0.114717,
  "ScanOptions": "FS",
  "ScanningSequence": "EP",
  "SequenceName": "epfid2d1_82",
  "SequenceVariant": "SK\\SS",
  "SeriesDescription": "func_run-05_task-social_acq-ap-mb8",
  "SeriesNumber": 20,
  "ShimSetting": [4150, -7711, -7209, 566, -55, -101, 38, 66],
  "SliceThickness": 2.7,
  "SliceTiming": [0, 0.2525, 0.065, 0.315, 0.1275, 0.3775, 0.19, 0, 0.2525, 0.065, 0.315, 0.1275, 0.3775, 0.19, 0, 0.2525, 0.065, 0.315, 0.1275, 0.3775, 0.19, 0, 0.2525, 0.065, 0.315, 0.1275, 0.3775, 0.19, 0, 0.2525, 0.065, 0.315, 0.1275, 0.3775, 0.19, 0, 0.2525, 0.065, 0.315, 0.1275, 0.3775, 0.19, 0, 0.2525, 0.065, 0.315, 0.1275, 0.3775, 0.19, 0, 0.2525, 0.065, 0.315, 0.1275, 0.3775, 0.19],
  "SoftwareVersions": "syngo MR E11",
  "SpacingBetweenSlices": 2.7,
  "StationName": "AWP66112",
  "TaskName": "social",
  "TotalReadoutTime": 0.03969,
  "TxRefAmp": 288.931,
  "WipMemBlock": "efbde308-86e7-4b84-95bd-52d4bb61323a||Sequence: R016 ve11e/master r/434b28f1; Aug  7 2019 18:53:46 by eja",
  "dcmmeta_affine": [
    [-2.6813313961029053, 0.05663410201668739, -0.0736207589507103, 109.28140258789062],
    [0.06119472160935402, 2.676793336868286, -0.1717577576637268, -98.97832489013672],
    [-0.06938526779413223, 0.17223875224590302, 2.6935253143310547, -59.07655334472656],
    [0.0, 0.0, 0.0, 1.0]
],
  "dcmmeta_reorient_transform": [
    [0.0, -1.0, 0.0, 81.0],
    [1.0, 0.0, 0.0, 0.0],
    [0.0, 0.0, 1.0, 0.0],
    [0.0, 0.0, 0.0, 1.0]
],
  "dcmmeta_shape": [82, 82, 56, 872],
  "dcmmeta_slice_dim": 2,
  "dcmmeta_version": 0.6,
  "global": {
    "const": {
      "AccessionNumber": "A003857",
      "AcquisitionMatrix": [82, 0, 0, 82],
      "AngioFlag": "N",
      "BitsAllocated": 16,
      "BitsStored": 16,
      "BodyPartExamined": "BRAIN",
      "Columns": 656,
      "EchoNumbers": 1,
      "EchoTime": 27.2,
      "EchoTrainLength": 82,
      "FlipAngle": 44.0,
      "HighBit": 15,
      "ImageOrientationPatient": [0.9994052834286, -0.0228089408131, -0.0258617801784, 0.02110907438757, 0.99771389350741, -0.0641980815974],
      "ImagePositionPatient": [-899.66483735694, -868.51877674406, 24.220880935758],
      "ImageType": [
        "ORIGINAL",
        "PRIMARY",
        "M",
        "MB",
        "ND",
        "NORM",
        "MOSAIC"
],
      "ImagedNucleus": "1H",
      "ImagingFrequency": 123.252261,
      "InPlanePhaseEncodingDirection": "COL",
      "MRAcquisitionType": "2D",
      "MagneticFieldStrength": 3.0,
      "Manufacturer": "SIEMENS",
      "ManufacturerModelName": "Prisma",
      "Modality": "MR",
      "NumberOfAverages": 1.0,
      "NumberOfPhaseEncodingSteps": 82,
      "PercentPhaseFieldOfView": 100.0,
      "PercentSampling": 100.0,
      "PerformedProcedureStepStartTime": "124356.219000",
      "PhotometricInterpretation": "MONOCHROME2",
      "PixelBandwidth": 3050.0,
      "PixelRepresentation": 0,
      "PixelSpacing": [2.6829268932343, 2.6829268932343],
      "ProtocolName": "func_run-05_task-social_acq-ap-mb8",
      "RepetitionTime": 460.0,
      "Rows": 656,
      "SAR": 0.11471722091563,
      "SamplesPerPixel": 1,
      "ScanOptions": "FS",
      "ScanningSequence": "EP",
      "SequenceName": "epfid2d1_82",
      "SequenceVariant": [
        "SK",
        "SS"
],
      "SeriesDescription": "func_run-05_task-social_acq-ap-mb8",
      "SeriesNumber": 20,
      "SeriesTime": "135449.326000",
      "SliceLocation": -55.618253755323,
      "SliceThickness": 2.7000000476837,
      "SmallestImagePixelValue": 0,
      "SoftwareVersions": "syngo MR E11",
      "SpacingBetweenSlices": 2.6999999859528,
      "SpecificCharacterSet": "ISO_IR 100",
      "StudyID": "1",
      "StudyTime": "124356.161000",
      "TransmitCoilName": "Body",
      "VariableFlipAngleFlag": "N",
      "WindowCenterWidthExplanation": "Algo1"
    },
    "slices": {}
  },
  "time": {
    "samples": {
      "AcquisitionNumber": [1, 2, 3, 4, 5, 6, 7, 8, 9, 10, 11, 12, 13, 14, 15, 16, 17, 18, 19, 20, 21, 22, 23, 24, 25, 26, 27, 28, 29, 30, 31, 32, 33, 34, 35, 36, 37, 38, 39, 40, 41, 42, 43, 44, 45, 46, 47, 48, 49, 50, 51, 52, 53, 54, 55, 56, 57, 58, 59, 60, 61, 62, 63, 64, 65, 66, 67, 68, 69, 70, 71, 72, 73, 74, 75, 76, 77, 78, 79, 80, 81, 82, 83, 84, 85, 86, 87, 88, 89, 90, 91, 92, 93, 94, 95, 96, 97, 98, 99, 100, 101, 102, 103, 104, 105, 106, 107, 108, 109, 110, 111, 112, 113, 114, 115, 116, 117, 118, 119, 120, 121, 122, 123, 124, 125, 126, 127, 128, 129, 130, 131, 132, 133, 134, 135, 136, 137, 138, 139, 140, 141, 142, 143, 144, 145, 146, 147, 148, 149, 150, 151, 152, 153, 154, 155, 156, 157, 158, 159, 160, 161, 162, 163, 164, 165, 166, 167, 168, 169, 170, 171, 172, 173, 174, 175, 176, 177, 178, 179, 180, 181, 182, 183, 184, 185, 186, 187, 188, 189, 190, 191, 192, 193, 194, 195, 196, 197, 198, 199, 200, 201, 202, 203, 204, 205, 206, 207, 208, 209, 210, 211, 212, 213, 214, 215, 216, 217, 218, 219, 220, 221, 222, 223, 224, 225, 226, 227, 228, 229, 230, 231, 232, 233, 234, 235, 236, 237, 238, 239, 240, 241, 242, 243, 244, 245, 246, 247, 248, 249, 250, 251, 252, 253, 254, 255, 256, 257, 258, 259, 260, 261, 262, 263, 264, 265, 266, 267, 268, 269, 270, 271, 272, 273, 274, 275, 276, 277, 278, 279, 280, 281, 282, 283, 284, 285, 286, 287, 288, 289, 290, 291, 292, 293, 294, 295, 296, 297, 298, 299, 300, 301, 302, 303, 304, 305, 306, 307, 308, 309, 310, 311, 312, 313, 314, 315, 316, 317, 318, 319, 320, 321, 322, 323, 324, 325, 326, 327, 328, 329, 330, 331, 332, 333, 334, 335, 336, 337, 338, 339, 340, 341, 342, 343, 344, 345, 346, 347, 348, 349, 350, 351, 352, 353, 354, 355, 356, 357, 358, 359, 360, 361, 362, 363, 364, 365, 366, 367, 368, 369, 370, 371, 372, 373, 374, 375, 376, 377, 378, 379, 380, 381, 382, 383, 384, 385, 386, 387, 388, 389, 390, 391, 392, 393, 394, 395, 396, 397, 398, 399, 400, 401, 402, 403, 404, 405, 406, 407, 408, 409, 410, 411, 412, 413, 414, 415, 416, 417, 418, 419, 420, 421, 422, 423, 424, 425, 426, 427, 428, 429, 430, 431, 432, 433, 434, 435, 436, 437, 438, 439, 440, 441, 442, 443, 444, 445, 446, 447, 448, 449, 450, 451, 452, 453, 454, 455, 456, 457, 458, 459, 460, 461, 462, 463, 464, 465, 466, 467, 468, 469, 470, 471, 472, 473, 474, 475, 476, 477, 478, 479, 480, 481, 482, 483, 484, 485, 486, 487, 488, 489, 490, 491, 492, 493, 494, 495, 496, 497, 498, 499, 500, 501, 502, 503, 504, 505, 506, 507, 508, 509, 510, 511, 512, 513, 514, 515, 516, 517, 518, 519, 520, 521, 522, 523, 524, 525, 526, 527, 528, 529, 530, 531, 532, 533, 534, 535, 536, 537, 538, 539, 540, 541, 542, 543, 544, 545, 546, 547, 548, 549, 550, 551, 552, 553, 554, 555, 556, 557, 558, 559, 560, 561, 562, 563, 564, 565, 566, 567, 568, 569, 570, 571, 572, 573, 574, 575, 576, 577, 578, 579, 580, 581, 582, 583, 584, 585, 586, 587, 588, 589, 590, 591, 592, 593, 594, 595, 596, 597, 598, 599, 600, 601, 602, 603, 604, 605, 606, 607, 608, 609, 610, 611, 612, 613, 614, 615, 616, 617, 618, 619, 620, 621, 622, 623, 624, 625, 626, 627, 628, 629, 630, 631, 632, 633, 634, 635, 636, 637, 638, 639, 640, 641, 642, 643, 644, 645, 646, 647, 648, 649, 650, 651, 652, 653, 654, 655, 656, 657, 658, 659, 660, 661, 662, 663, 664, 665, 666, 667, 668, 669, 670, 671, 672, 673, 674, 675, 676, 677, 678, 679, 680, 681, 682, 683, 684, 685, 686, 687, 688, 689, 690, 691, 692, 693, 694, 695, 696, 697, 698, 699, 700, 701, 702, 703, 704, 705, 706, 707, 708, 709, 710, 711, 712, 713, 714, 715, 716, 717, 718, 719, 720, 721, 722, 723, 724, 725, 726, 727, 728, 729, 730, 731, 732, 733, 734, 735, 736, 737, 738, 739, 740, 741, 742, 743, 744, 745, 746, 747, 748, 749, 750, 751, 752, 753, 754, 755, 756, 757, 758, 759, 760, 761, 762, 763, 764, 765, 766, 767, 768, 769, 770, 771, 772, 773, 774, 775, 776, 777, 778, 779, 780, 781, 782, 783, 784, 785, 786, 787, 788, 789, 790, 791, 792, 793, 794, 795, 796, 797, 798, 799, 800, 801, 802, 803, 804, 805, 806, 807, 808, 809, 810, 811, 812, 813, 814, 815, 816, 817, 818, 819, 820, 821, 822, 823, 824, 825, 826, 827, 828, 829, 830, 831, 832, 833, 834, 835, 836, 837, 838, 839, 840, 841, 842, 843, 844, 845, 846, 847, 848, 849, 850, 851, 852, 853, 854, 855, 856, 857, 858, 859, 860, 861, 862, 863, 864, 865, 866, 867, 868, 869, 870, 871, 872],
      "AcquisitionTime": ["135422.387500", "135422.847500", "135423.307500", "135423.767500", "135424.227500", "135424.687500", "135425.147500", "135425.607500", "135426.067500", "135426.527500", "135426.987500", "135427.447500", "135427.907500", "135428.367500", "135428.827500", "135429.287500", "135429.747500", "135430.207500", "135430.667500", "135431.127500", "135431.587500", "135432.047500", "135432.507500", "135432.967500", "135433.427500", "135433.887500", "135434.347500", "135434.807500", "135435.267500", "135435.727500", "135436.187500", "135436.647500", "135437.107500", "135437.567500", "135438.027500", "135438.487500", "135438.947500", "135439.407500", "135439.867500", "135440.327500", "135440.787500", "135441.247500", "135441.707500", "135442.167500", "135442.627500", "135443.087500", "135443.547500", "135444.007500", "135444.467500", "135444.927500", "135445.387500", "135445.847500", "135446.307500", "135446.767500", "135447.227500", "135447.687500", "135448.147500", "135448.607500", "135449.067500", "135449.527500", "135449.987500", "135450.447500", "135450.907500", "135451.367500", "135451.827500", "135452.287500", "135452.747500", "135453.207500", "135453.667500", "135454.127500", "135454.587500", "135455.047500", "135455.507500", "135455.967500", "135456.427500", "135456.887500", "135457.347500", "135457.807500", "135458.267500", "135458.727500", "135459.187500", "135459.647500", "135500.107500", "135500.567500", "135501.027500", "135501.487500", "135501.947500", "135502.407500", "135502.867500", "135503.327500", "135503.787500", "135504.247500", "135504.707500", "135505.167500", "135505.627500", "135506.087500", "135506.547500", "135507.007500", "135507.467500", "135507.927500", "135508.387500", "135508.847500", "135509.307500", "135509.767500", "135510.227500", "135510.687500", "135511.147500", "135511.607500", "135512.067500", "135512.527500", "135512.987500", "135513.447500", "135513.907500", "135514.367500", "135514.827500", "135515.287500", "135515.747500", "135516.207500", "135516.667500", "135517.127500", "135517.587500", "135518.047500", "135518.507500", "135518.967500", "135519.427500", "135519.887500", "135520.347500", "135520.807500", "135521.267500", "135521.727500", "135522.187500", "135522.647500", "135523.107500", "135523.567500", "135524.027500", "135524.487500", "135524.947500", "135525.407500", "135525.867500", "135526.327500", "135526.787500", "135527.247500", "135527.707500", "135528.167500", "135528.627500", "135529.087500", "135529.547500", "135530.007500", "135530.467500", "135530.927500", "135531.387500", "135531.847500", "135532.307500", "135532.767500", "135533.227500", "135533.687500", "135534.147500", "135534.607500", "135535.067500", "135535.527500", "135535.987500", "135536.447500", "135536.907500", "135537.367500", "135537.827500", "135538.287500", "135538.747500", "135539.207500", "135539.667500", "135540.127500", "135540.587500", "135541.047500", "135541.507500", "135541.967500", "135542.427500", "135542.887500", "135543.347500", "135543.807500", "135544.267500", "135544.727500", "135545.187500", "135545.647500", "135546.107500", "135546.567500", "135547.027500", "135547.487500", "135547.947500", "135548.407500", "135548.867500", "135549.327500", "135549.787500", "135550.247500", "135550.707500", "135551.167500", "135551.627500", "135552.087500", "135552.547500", "135553.007500", "135553.467500", "135553.927500", "135554.387500", "135554.847500", "135555.307500", "135555.767500", "135556.227500", "135556.687500", "135557.147500", "135557.607500", "135558.067500", "135558.527500", "135558.987500", "135559.447500", "135559.907500", "135600.367500", "135600.827500", "135601.287500", "135601.747500", "135602.207500", "135602.667500", "135603.127500", "135603.587500", "135604.047500", "135604.507500", "135604.967500", "135605.427500", "135605.887500", "135606.347500", "135606.807500", "135607.267500", "135607.727500", "135608.187500", "135608.647500", "135609.107500", "135609.567500", "135610.027500", "135610.487500", "135610.947500", "135611.407500", "135611.867500", "135612.327500", "135612.787500", "135613.247500", "135613.707500", "135614.167500", "135614.627500", "135615.087500", "135615.547500", "135616.007500", "135616.467500", "135616.927500", "135617.387500", "135617.847500", "135618.307500", "135618.767500", "135619.227500", "135619.687500", "135620.147500", "135620.607500", "135621.067500", "135621.527500", "135621.987500", "135622.447500", "135622.907500", "135623.367500", "135623.827500", "135624.287500", "135624.747500", "135625.207500", "135625.667500", "135626.127500", "135626.587500", "135627.047500", "135627.507500", "135627.967500", "135628.427500", "135628.887500", "135629.347500", "135629.807500", "135630.267500", "135630.727500", "135631.187500", "135631.647500", "135632.107500", "135632.567500", "135633.027500", "135633.487500", "135633.947500", "135634.407500", "135634.867500", "135635.327500", "135635.787500", "135636.247500", "135636.707500", "135637.167500", "135637.627500", "135638.087500", "135638.547500", "135639.007500", "135639.467500", "135639.927500", "135640.387500", "135640.847500", "135641.307500", "135641.767500", "135642.227500", "135642.687500", "135643.147500", "135643.607500", "135644.067500", "135644.527500", "135644.987500", "135645.447500", "135645.907500", "135646.367500", "135646.827500", "135647.287500", "135647.747500", "135648.207500", "135648.667500", "135649.127500", "135649.587500", "135650.047500", "135650.507500", "135650.967500", "135651.427500", "135651.887500", "135652.347500", "135652.807500", "135653.267500", "135653.727500", "135654.187500", "135654.647500", "135655.107500", "135655.567500", "135656.027500", "135656.487500", "135656.947500", "135657.407500", "135657.867500", "135658.327500", "135658.787500", "135659.247500", "135659.707500", "135700.167500", "135700.627500", "135701.087500", "135701.547500", "135702.007500", "135702.467500", "135702.927500", "135703.387500", "135703.847500", "135704.307500", "135704.767500", "135705.227500", "135705.687500", "135706.147500", "135706.607500", "135707.067500", "135707.527500", "135707.987500", "135708.447500", "135708.907500", "135709.367500", "135709.827500", "135710.287500", "135710.747500", "135711.207500", "135711.667500", "135712.127500", "135712.587500", "135713.047500", "135713.507500", "135713.967500", "135714.427500", "135714.887500", "135715.347500", "135715.807500", "135716.267500", "135716.727500", "135717.187500", "135717.647500", "135718.107500", "135718.567500", "135719.027500", "135719.487500", "135719.947500", "135720.407500", "135720.867500", "135721.327500", "135721.787500", "135722.247500", "135722.707500", "135723.167500", "135723.627500", "135724.087500", "135724.547500", "135725.007500", "135725.467500", "135725.927500", "135726.387500", "135726.847500", "135727.307500", "135727.767500", "135728.227500", "135728.687500", "135729.147500", "135729.607500", "135730.067500", "135730.527500", "135730.987500", "135731.447500", "135731.907500", "135732.367500", "135732.827500", "135733.287500", "135733.747500", "135734.207500", "135734.667500", "135735.127500", "135735.587500", "135736.047500", "135736.507500", "135736.967500", "135737.427500", "135737.887500", "135738.347500", "135738.807500", "135739.267500", "135739.727500", "135740.187500", "135740.647500", "135741.107500", "135741.567500", "135742.027500", "135742.487500", "135742.947500", "135743.407500", "135743.867500", "135744.327500", "135744.787500", "135745.247500", "135745.707500", "135746.167500", "135746.627500", "135747.087500", "135747.547500", "135748.007500", "135748.467500", "135748.927500", "135749.387500", "135749.847500", "135750.307500", "135750.767500", "135751.227500", "135751.687500", "135752.147500", "135752.607500", "135753.067500", "135753.527500", "135753.987500", "135754.447500", "135754.907500", "135755.367500", "135755.827500", "135756.287500", "135756.747500", "135757.207500", "135757.667500", "135758.127500", "135758.587500", "135759.047500", "135759.507500", "135759.967500", "135800.427500", "135800.887500", "135801.347500", "135801.807500", "135802.267500", "135802.727500", "135803.187500", "135803.647500", "135804.107500", "135804.567500", "135805.027500", "135805.487500", "135805.947500", "135806.407500", "135806.867500", "135807.327500", "135807.787500", "135808.247500", "135808.707500", "135809.167500", "135809.627500", "135810.087500", "135810.547500", "135811.007500", "135811.467500", "135811.927500", "135812.387500", "135812.847500", "135813.307500", "135813.767500", "135814.227500", "135814.687500", "135815.147500", "135815.607500", "135816.067500", "135816.527500", "135816.987500", "135817.447500", "135817.907500", "135818.367500", "135818.827500", "135819.287500", "135819.747500", "135820.207500", "135820.667500", "135821.127500", "135821.587500", "135822.047500", "135822.507500", "135822.967500", "135823.427500", "135823.887500", "135824.347500", "135824.807500", "135825.267500", "135825.727500", "135826.187500", "135826.647500", "135827.107500", "135827.567500", "135828.027500", "135828.487500", "135828.947500", "135829.407500", "135829.867500", "135830.327500", "135830.787500", "135831.247500", "135831.707500", "135832.167500", "135832.627500", "135833.087500", "135833.547500", "135834.007500", "135834.467500", "135834.927500", "135835.387500", "135835.847500", "135836.307500", "135836.767500", "135837.227500", "135837.687500", "135838.147500", "135838.607500", "135839.067500", "135839.527500", "135839.987500", "135840.447500", "135840.907500", "135841.367500", "135841.827500", "135842.287500", "135842.747500", "135843.207500", "135843.667500", "135844.127500", "135844.587500", "135845.047500", "135845.507500", "135845.967500", "135846.427500", "135846.887500", "135847.347500", "135847.807500", "135848.267500", "135848.727500", "135849.187500", "135849.647500", "135850.107500", "135850.567500", "135851.027500", "135851.487500", "135851.947500", "135852.407500", "135852.867500", "135853.327500", "135853.787500", "135854.247500", "135854.707500", "135855.167500", "135855.627500", "135856.087500", "135856.547500", "135857.007500", "135857.467500", "135857.927500", "135858.387500", "135858.847500", "135859.307500", "135859.767500", "135900.227500", "135900.687500", "135901.147500", "135901.607500", "135902.067500", "135902.527500", "135902.987500", "135903.447500", "135903.907500", "135904.367500", "135904.827500", "135905.287500", "135905.747500", "135906.207500", "135906.667500", "135907.127500", "135907.587500", "135908.047500", "135908.507500", "135908.967500", "135909.427500", "135909.887500", "135910.347500", "135910.807500", "135911.267500", "135911.727500", "135912.187500", "135912.647500", "135913.107500", "135913.567500", "135914.027500", "135914.487500", "135914.947500", "135915.407500", "135915.867500", "135916.327500", "135916.787500", "135917.247500", "135917.707500", "135918.167500", "135918.627500", "135919.087500", "135919.547500", "135920.007500", "135920.467500", "135920.927500", "135921.387500", "135921.847500", "135922.307500", "135922.767500", "135923.227500", "135923.687500", "135924.147500", "135924.607500", "135925.067500", "135925.527500", "135925.987500", "135926.447500", "135926.907500", "135927.367500", "135927.827500", "135928.287500", "135928.747500", "135929.207500", "135929.667500", "135930.127500", "135930.587500", "135931.047500", "135931.507500", "135931.967500", "135932.427500", "135932.887500", "135933.347500", "135933.807500", "135934.267500", "135934.727500", "135935.187500", "135935.647500", "135936.107500", "135936.567500", "135937.027500", "135937.487500", "135937.947500", "135938.407500", "135938.867500", "135939.327500", "135939.787500", "135940.247500", "135940.707500", "135941.167500", "135941.627500", "135942.087500", "135942.547500", "135943.007500", "135943.467500", "135943.927500", "135944.387500", "135944.847500", "135945.307500", "135945.767500", "135946.227500", "135946.687500", "135947.147500", "135947.607500", "135948.067500", "135948.527500", "135948.987500", "135949.447500", "135949.907500", "135950.367500", "135950.827500", "135951.287500", "135951.747500", "135952.207500", "135952.667500", "135953.127500", "135953.587500", "135954.047500", "135954.507500", "135954.967500", "135955.427500", "135955.887500", "135956.347500", "135956.807500", "135957.267500", "135957.727500", "135958.187500", "135958.647500", "135959.107500", "135959.567500", "140000.027500", "140000.487500", "140000.947500", "140001.407500", "140001.867500", "140002.327500", "140002.787500", "140003.247500", "140003.707500", "140004.167500", "140004.627500", "140005.087500", "140005.547500", "140006.007500", "140006.467500", "140006.927500", "140007.387500", "140007.847500", "140008.307500", "140008.767500", "140009.227500", "140009.687500", "140010.147500", "140010.607500", "140011.067500", "140011.527500", "140011.987500", "140012.447500", "140012.907500", "140013.367500", "140013.827500", "140014.287500", "140014.747500", "140015.207500", "140015.667500", "140016.127500", "140016.587500", "140017.047500", "140017.507500", "140017.967500", "140018.427500", "140018.887500", "140019.347500", "140019.807500", "140020.267500", "140020.727500", "140021.187500", "140021.647500", "140022.107500", "140022.567500", "140023.027500", "140023.487500", "140023.947500", "140024.407500", "140024.867500", "140025.327500", "140025.787500", "140026.247500", "140026.707500", "140027.167500", "140027.627500", "140028.087500", "140028.547500", "140029.007500", "140029.467500", "140029.927500", "140030.387500", "140030.847500", "140031.307500", "140031.767500", "140032.227500", "140032.687500", "140033.147500", "140033.607500", "140034.067500", "140034.527500", "140034.987500", "140035.447500", "140035.907500", "140036.367500", "140036.827500", "140037.287500", "140037.747500", "140038.207500", "140038.667500", "140039.127500", "140039.587500", "140040.047500", "140040.507500", "140040.967500", "140041.427500", "140041.887500", "140042.347500", "140042.807500", "140043.267500", "140043.727500", "140044.187500", "140044.647500", "140045.107500", "140045.567500", "140046.027500", "140046.487500", "140046.947500", "140047.407500", "140047.867500", "140048.327500", "140048.787500", "140049.247500", "140049.707500", "140050.167500", "140050.627500", "140051.087500", "140051.547500", "140052.007500", "140052.467500", "140052.927500", "140053.387500", "140053.847500", "140054.307500", "140054.767500", "140055.227500", "140055.687500", "140056.147500", "140056.607500", "140057.067500", "140057.527500", "140057.987500", "140058.447500", "140058.907500", "140059.367500", "140059.827500", "140100.287500", "140100.747500", "140101.207500", "140101.667500", "140102.127500", "140102.587500", "140103.047500"],
