{
  "AcquisitionMatrixPE": 140,
  "AcquisitionNumber": 1,
  "AcquisitionTime": "16:51:57.102500",
  "BandwidthPerPixelPhaseEncode": 10.352,
  "BaseResolution": 140,
  "BodyPartExamined": "BRAIN",
  "ConsistencyInfo": "N4_VE11C_LATEST_20160120",
  "ConversionSoftware": "dcm2niix",
  "ConversionSoftwareVersion": "v1.0.20201102",
  "DerivedVendorReportedEchoSpacing": 0.000689998,
  "DeviceSerialNumber": "66112",
  "DiffusionScheme": "Monopolar",
  "DwellTime": 2.1e-06,
  "EchoTime": 0.0884,
  "EchoTrainLength": 105,
  "EffectiveEchoSpacing": 0.000689998,
  "FlipAngle": 90,
  "ImageComments": "Unaliased MB3/PE3 SENSE1",
  "ImageOrientationPatientDICOM": [0.99914, 0.0296583, 0.0289639, -0.0382085, 0.929884, 0.365863],
  "ImageType": [
    "ORIGINAL",
    "PRIMARY",
    "DIFFUSION",
    "NONE",
    "MB",
    "ND",
    "MOSAIC"
],
  "ImagingFrequency": 123.252,
  "InPlanePhaseEncodingDirectionDICOM": "COL",
  "InstitutionAddress": "Maynard 3,Hanover,NH,US,03755",
  "InstitutionName": "Dartmouth College - PBS",
  "InstitutionalDepartmentName": "Department",
  "MRAcquisitionType": "2D",
  "MagneticFieldStrength": 3,
  "Manufacturer": "Siemens",
  "ManufacturersModelName": "Prisma",
  "Modality": "MR",
  "MultibandAccelerationFactor": 3,
  "PartialFourier": 0.75,
  "PatientPosition": "HFS",
  "PercentPhaseFOV": 100,
  "PercentSampling": 100,
  "PhaseEncodingDirection": "j-",
  "PhaseEncodingSteps": 105,
  "PhaseResolution": 1,
  "PixelBandwidth": 1700,
  "ProcedureStepDescription": "Wager_Wager^1076_spacetop",
  "ProtocolName": "dwi_acq-96dir-6b0-mb",
  "PulseSequenceDetails": "%CustomerSeq%\\cmrr_mbep2d_diff",
  "ReceiveCoilActiveElements": "HEA;HEP",
  "ReceiveCoilName": "Head_32",
  "ReconMatrixPE": 140,
  "RepetitionTime": 4.11,
  "SAR": 0.291776,
  "ScanOptions": "PFP\\FS",
  "ScanningSequence": "EP",
  "SequenceName": "ep_b5#1",
  "SequenceVariant": "SK\\SS",
  "SeriesDescription": "dwi_acq-96dir-6b0-mb",
  "SeriesNumber": 8,
  "ShimSetting": [4141, -7788, -7184, 574, -54, -215, 44, 65],
  "SliceThickness": 1.7,
  "SliceTiming": [0, 2.1225, 0.1525, 2.2725, 0.305, 2.425, 0.455, 2.5775, 0.6075, 2.7275, 0.7575, 2.88, 0.91, 3.03, 1.0625, 3.1825, 1.2125, 3.3325, 1.365, 3.485, 1.515, 3.6375, 1.6675, 3.7875, 1.82, 3.94, 1.97, 0, 2.1225, 0.1525, 2.2725, 0.305, 2.425, 0.455, 2.5775, 0.6075, 2.7275, 0.7575, 2.88, 0.91, 3.03, 1.0625, 3.1825, 1.2125, 3.3325, 1.365, 3.485, 1.515, 3.6375, 1.6675, 3.7875, 1.82, 3.94, 1.97, 0, 2.1225, 0.1525, 2.2725, 0.305, 2.425, 0.455, 2.5775, 0.6075, 2.7275, 0.7575, 2.88, 0.91, 3.03, 1.0625, 3.1825, 1.2125, 3.3325, 1.365, 3.485, 1.515, 3.6375, 1.6675, 3.7875, 1.82, 3.94, 1.97],
  "SoftwareVersions": "syngo MR E11",
  "SpacingBetweenSlices": 1.7,
  "StationName": "AWP66112",
  "TotalReadoutTime": 0.0959097,
  "TxRefAmp": 246.53,
  "WipMemBlock": "fd196118-0c53-4a52-89df-e9937281e856||Sequence: R016 ve11c/master r/e634e98; Dec 19 2017 11:11:25 by eja",
  "dcmmeta_affine": [
    [-1.712812066078186, -0.06550021469593048, 0.027339695021510124, 125.96698760986328],
    [-0.05084284767508507, 1.5940871238708496, 0.6233133673667908, -99.76518249511719],
    [0.04965236410498619, -0.6271933317184448, 1.5813705921173096, 9.597073554992676],
    [0.0, 0.0, 0.0, 1.0]
],
  "dcmmeta_reorient_transform": [
    [0.0, -1.0, 0.0, 139.0],
    [1.0, 0.0, 0.0, 0.0],
    [0.0, 0.0, 1.0, 0.0],
    [0.0, 0.0, 0.0, 1.0]
],
  "dcmmeta_shape": [140, 140, 81, 103],
  "dcmmeta_slice_dim": 2,
  "dcmmeta_version": 0.6,
  "global": {
    "const": {
      "AccessionNumber": "A003794",
      "AcquisitionMatrix": [140, 0, 0, 140],
      "AngioFlag": "N",
      "BitsAllocated": 16,
      "BitsStored": 16,
      "BodyPartExamined": "BRAIN",
      "Columns": 1260,
      "EchoNumbers": 1,
      "EchoTime": 88.4,
      "EchoTrainLength": 105,
      "FlipAngle": 90.0,
      "HighBit": 15,
      "ImageOrientationPatient": [0.99914036917987, 0.02965832764312, 0.0289638788241, -0.0382084592896, 0.92988415433616, 0.36586277913071],
      "ImagePositionPatient": [-1039.357101534, -1042.9737184386, -456.61639666438],
      "ImageType": [
        "ORIGINAL",
        "PRIMARY",
        "DIFFUSION",
        "NONE",
        "MB",
        "ND",
        "MOSAIC"
],
      "ImagedNucleus": "1H",
      "ImagingFrequency": 123.25215,
      "InPlanePhaseEncodingDirection": "COL",
      "MRAcquisitionType": "2D",
      "MagneticFieldStrength": 3.0,
      "Manufacturer": "SIEMENS",
      "ManufacturerModelName": "Prisma",
      "Modality": "MR",
      "NumberOfAverages": 1.0,
      "NumberOfPhaseEncodingSteps": 105,
      "PercentPhaseFieldOfView": 100.0,
      "PercentSampling": 100.0,
      "PerformedProcedureStepStartTime": "163236.273000",
      "PhotometricInterpretation": "MONOCHROME2",
      "PixelBandwidth": 1700.0,
      "PixelRepresentation": 0,
      "PixelSpacing": [1.7142857313156, 1.7142857313156],
      "ProtocolName": "dwi_acq-96dir-6b0-mb",
      "RepetitionTime": 4110.0,
      "Rows": 1260,
      "SAR": 0.29177623145356,
      "SamplesPerPixel": 1,
      "ScanOptions": [
        "PFP",
        "FS"
],
      "ScanningSequence": "EP",
      "SequenceVariant": [
        "SK",
        "SS"
],
      "SeriesDescription": "dwi_acq-96dir-6b0-mb",
      "SeriesNumber": 8,
      "SeriesTime": "165326.173000",
      "SliceLocation": -25.626204589643,
      "SliceThickness": 1.7000000476837,
      "SmallestImagePixelValue": 0,
      "SoftwareVersions": "syngo MR E11",
      "SpacingBetweenSlices": 1.6999999934361,
      "SpecificCharacterSet": "ISO_IR 100",
      "StudyID": "1",
      "StudyTime": "163236.158000",
      "TransmitCoilName": "Body",
      "VariableFlipAngleFlag": "N",
      "WindowCenterWidthExplanation": "Algo1",
      "dBdt": 0.0},
    "slices": {}
  },
  "time": {
    "samples": {
      "AcquisitionNumber": [1, 2, 3, 4, 5, 6, 7, 8, 9, 10, 11, 12, 13, 14, 15, 16, 17, 18, 19, 20, 21, 22, 23, 24, 25, 26, 27, 28, 29, 30, 31, 32, 33, 34, 35, 36, 37, 38, 39, 40, 41, 42, 43, 44, 45, 46, 47, 48, 49, 50, 51, 52, 53, 54, 55, 56, 57, 58, 59, 60, 61, 62, 63, 64, 65, 66, 67, 68, 69, 70, 71, 72, 73, 74, 75, 76, 77, 78, 79, 80, 81, 82, 83, 84, 85, 86, 87, 88, 89, 90, 91, 92, 93, 94, 95, 96, 97, 98, 99, 100, 101, 102, 103],
      "AcquisitionTime": ["165157.102500", "165201.212500", "165205.322500", "165209.432500", "165213.542500", "165217.652500", "165221.762500", "165225.872500", "165229.982500", "165234.092500", "165238.202500", "165242.312500", "165246.422500", "165250.532500", "165254.642500", "165258.752500", "165302.862500", "165306.972500", "165311.082500", "165315.192500", "165319.302500", "165323.412500", "165327.522500", "165331.632500", "165335.742500", "165339.852500", "165343.962500", "165348.072500", "165352.182500", "165356.292500", "165400.402500", "165404.512500", "165408.622500", "165412.732500", "165416.842500", "165420.952500", "165425.062500", "165429.172500", "165433.282500", "165437.392500", "165441.502500", "165445.612500", "165449.722500", "165453.832500", "165457.942500", "165502.052500", "165506.162500", "165510.272500", "165514.382500", "165518.492500", "165522.602500", "165526.712500", "165530.822500", "165534.932500", "165539.042500", "165543.152500", "165547.262500", "165551.372500", "165555.482500", "165559.592500", "165603.702500", "165607.812500", "165611.922500", "165616.032500", "165620.142500", "165624.252500", "165628.362500", "165632.472500", "165636.582500", "165640.692500", "165644.802500", "165648.912500", "165653.022500", "165657.132500", "165701.242500", "165705.352500", "165709.462500", "165713.572500", "165717.682500", "165721.792500", "165725.902500", "165730.012500", "165734.122500", "165738.232500", "165742.342500", "165746.452500", "165750.562500", "165754.672500", "165758.782500", "165802.892500", "165807.002500", "165811.112500", "165815.222500", "165819.332500", "165823.442500", "165827.552500", "165831.662500", "165835.772500", "165839.882500", "165843.992500", "165848.102500", "165852.212500", "165856.322500"],
      "ContentTime": ["165326.177000", "165326.181000", "165326.185000", "165326.188000", "165326.191000", "165326.195000", "165326.198000", "165326.213000", "165326.216000", "165326.225000", "165326.229000", "165326.232000", "165326.237000", "165326.240000", "165326.250000", "165326.254000", "165326.257000", "165326.260000", "165326.264000", "165326.267000", "165326.270000", "165446.172000", "165446.176000", "165446.179000", "165446.183000", "165446.186000", "165446.190000", "165446.193000", "165446.196000", "165446.200000", "165446.203000", "165446.206000", "165446.210000", "165446.213000", "165446.216000", "165446.220000", "165446.223000", "165446.226000", "165446.230000", "165446.233000", "165446.237000", "165626.172000", "165626.176000", "165626.180000", "165626.183000", "165626.190000", "165626.194000", "165626.197000", "165626.200000", "165626.204000", "165626.207000", "165626.210000", "165626.214000", "165626.217000", "165626.220000", "165626.224000", "165626.227000", "165626.231000", "165626.234000", "165626.237000", "165626.241000", "165626.244000", "165626.247000", "165626.255000", "165626.259000", "165746.173000", "165746.176000", "165746.180000", "165746.183000", "165746.186000", "165746.189000", "165746.193000", "165746.196000", "165746.210000", "165746.214000", "165746.217000", "165746.221000", "165746.224000", "165746.227000", "165746.231000", "165746.234000", "165746.237000", "165746.241000", "165746.244000", "165900.616000", "165900.620000", "165900.624000", "165900.627000", "165900.631000", "165900.634000", "165900.639000", "165900.644000", "165900.648000", "165900.652000", "165900.658000", "165900.663000", "165900.668000", "165900.675000", "165900.678000", "165900.682000", "165900.688000", "165900.692000", "165900.696000"],
      "InstanceCreationTime": ["165326.177000", "165326.181000", "165326.185000", "165326.188000", "165326.191000", "165326.195000", "165326.198000", "165326.213000", "165326.216000", "165326.225000", "165326.229000", "165326.232000", "165326.237000", "165326.240000", "165326.250000", "165326.254000", "165326.257000", "165326.260000", "165326.264000", "165326.267000", "165326.270000", "165446.172000", "165446.176000", "165446.179000", "165446.183000", "165446.186000", "165446.190000", "165446.193000", "165446.196000", "165446.200000", "165446.203000", "165446.206000", "165446.210000", "165446.213000", "165446.216000", "165446.220000", "165446.223000", "165446.226000", "165446.230000", "165446.233000", "165446.237000", "165626.172000", "165626.176000", "165626.180000", "165626.183000", "165626.190000", "165626.194000", "165626.197000", "165626.200000", "165626.204000", "165626.207000", "165626.210000", "165626.214000", "165626.217000", "165626.220000", "165626.224000", "165626.227000", "165626.231000", "165626.234000", "165626.237000", "165626.241000", "165626.244000", "165626.247000", "165626.255000", "165626.259000", "165746.173000", "165746.176000", "165746.180000", "165746.183000", "165746.186000", "165746.189000", "165746.193000", "165746.196000", "165746.210000", "165746.214000", "165746.217000", "165746.221000", "165746.224000", "165746.227000", "165746.231000", "165746.234000", "165746.237000", "165746.241000", "165746.244000", "165900.616000", "165900.620000", "165900.624000", "165900.627000", "165900.631000", "165900.634000", "165900.639000", "165900.644000", "165900.648000", "165900.652000", "165900.658000", "165900.663000", "165900.668000", "165900.675000", "165900.678000", "165900.682000", "165900.688000", "165900.692000", "165900.696000"],
      "InstanceNumber": [1, 2, 3, 4, 5, 6, 7, 8, 9, 10, 11, 12, 13, 14, 15, 16, 17, 18, 19, 20, 21, 22, 23, 24, 25, 26, 27, 28, 29, 30, 31, 32, 33, 34, 35, 36, 37, 38, 39, 40, 41, 42, 43, 44, 45, 46, 47, 48, 49, 50, 51, 52, 53, 54, 55, 56, 57, 58, 59, 60, 61, 62, 63, 64, 65, 66, 67, 68, 69, 70, 71, 72, 73, 74, 75, 76, 77, 78, 79, 80, 81, 82, 83, 84, 85, 86, 87, 88, 89, 90, 91, 92, 93, 94, 95, 96, 97, 98, 99, 100, 101, 102, 103],
      "LargestImagePixelValue": [65535, 65535, 64489, 62862, 64383, 65535, 60885, 63940, 65535, 45141, 46541, 45437, 44417, 46368, 44086, 45410, 45170, 49269, 42899, 45027, 45545, 44032, 47575, 44786, 65535, 22165, 24991, 25056, 22921, 25248, 25155, 22044, 26519, 23187, 23024, 23879, 22499, 24203, 24559, 23411, 65535, 13492, 15725, 18354, 16730, 13011, 12450, 13275, 13608, 11785, 15308, 15615, 13109, 16823, 17352, 11311, 12988, 13114, 15774, 16249, 12142, 15387, 13563, 13261, 12892, 15086, 13006, 12572, 13292, 13236, 13359, 13478, 13861, 65535, 15269, 14133, 13511, 13326, 13658, 14985, 11419, 14616, 13007, 12806, 12349, 12560, 15185, 15529, 12908, 15495, 13807, 13351, 14004, 12314, 14822, 16463, 11923, 12924, 14219, 11456, 13238, 14556, 65535],
      "SequenceName": [
 "ep_b5#1",
 "ep_b5#1",
 "ep_b500#2",
 "ep_b500#3",
 "ep_b500#4",
 "ep_b505#5",
 "ep_b495#6",
 "ep_b500#7",
 "ep_b5#8",
 "ep_b1000#9",
 "ep_b1005#10",
 "ep_b1000#11",
 "ep_b1005#12",
 "ep_b995#13",
 "ep_b995#14",
 "ep_b1005#15",
 "ep_b995#16",
 "ep_b1000#17",
 "ep_b995#18",
 "ep_b1000#19",
 "ep_b995#20",
 "ep_b1000#21",
 "ep_b1005#22",
 "ep_b1005#23",
 "ep_b5#24",
 "ep_b2000#25",
 "ep_b2000#26",
 "ep_b1995#27",
 "ep_b1995#28",
 "ep_b2005#29",
 "ep_b2010#30",
 "ep_b2005#31",
 "ep_b2005#32",
 "ep_b1995#33",
 "ep_b1990#34",
 "ep_b1995#35",
 "ep_b2000#36",
 "ep_b2000#37",
 "ep_b2010#38",
 "ep_b2000#39",
 "ep_b5#40",
 "ep_b3000#41",
 "ep_b3005#42",
 "ep_b3010#43",
 "ep_b3010#44",
 "ep_b2995#45",
 "ep_b2995#46",
 "ep_b2990#47",
 "ep_b3000#48",
 "ep_b3000#49",
 "ep_b2990#50",
 "ep_b2990#51",
 "ep_b2995#52",
 "ep_b2995#53",
 "ep_b3010#54",
 "ep_b3000#55",
 "ep_b2995#56",
 "ep_b3000#57",
 "ep_b2990#58",
 "ep_b2990#59",
 "ep_b3005#60",
 "ep_b2990#61",
 "ep_b2990#62",
 "ep_b2995#63",
 "ep_b3005#64",
 "ep_b3010#65",
 "ep_b3000#66",
 "ep_b3005#67",
 "ep_b3010#68",
 "ep_b3005#69",
 "ep_b3005#70",
 "ep_b3010#71",
 "ep_b2990#72",
 "ep_b5#73",
 "ep_b3010#74",
 "ep_b3000#75",
 "ep_b3005#76",
 "ep_b3005#77",
 "ep_b2995#78",
 "ep_b3000#79",
 "ep_b3000#80",
 "ep_b3010#81",
 "ep_b3010#82",
 "ep_b3005#83",
 "ep_b3000#84",
 "ep_b3005#85",
 "ep_b3005#86",
 "ep_b3005#87",
 "ep_b2990#88",
 "ep_b3010#89",
 "ep_b2995#90",
 "ep_b3000#91",
 "ep_b2995#92",
 "ep_b2995#93",
 "ep_b3005#94",
 "ep_b3005#95",
 "ep_b2990#96",
 "ep_b3005#97",
 "ep_b2990#98",
 "ep_b3000#99",
 "ep_b3000#100",
 "ep_b2990#101",
 "ep_b5#102"
],
      "WindowCenter": [10672.0, 10675.0, 7942.0, 7949.0, 7935.0, 7865.0, 7958.0, 7975.0, 10660.0, 6118.0, 6047.0, 6104.0, 6060.0, 6116.0, 6141.0, 6071.0, 6166.0, 6146.0, 6145.0, 6096.0, 6169.0, 6106.0, 6118.0, 6118.0, 10689.0, 3941.0, 3934.0, 3923.0, 4030.0, 3918.0, 3897.0, 3926.0, 3920.0, 3971.0, 3996.0, 3984.0, 3877.0, 3942.0, 3955.0, 3932.0, 10690.0, 2795.0, 2758.0, 2834.0, 2774.0, 2760.0, 2778.0, 2795.0, 2740.0, 2709.0, 2760.0, 2803.0, 2784.0, 2869.0, 2839.0, 2696.0, 2777.0, 2733.0, 2856.0, 2821.0, 2745.0, 2795.0, 2836.0, 2821.0, 2787.0, 2832.0, 2737.0, 2742.0, 2770.0, 2763.0, 2760.0, 2810.0, 2846.0, 10726.0, 2769.0, 2799.0, 2688.0, 2732.0, 2723.0, 2750.0, 2677.0, 2739.0, 2770.0, 2712.0, 2761.0, 2763.0, 2734.0, 2734.0, 2763.0, 2755.0, 2811.0, 2757.0, 2754.0, 2788.0, 2759.0, 2828.0, 2802.0, 2722.0, 2816.0, 2703.0, 2773.0, 2846.0, 10737.0],
      "WindowWidth": [24005.0, 24007.0, 16800.0, 16821.0, 16775.0, 16658.0, 16837.0, 16866.0, 23958.0, 13005.0, 12928.0, 12986.0, 12925.0, 13037.0, 13076.0, 12954.0, 13101.0, 13061.0, 13063.0, 12964.0, 13109.0, 12992.0, 13037.0, 13013.0, 24048.0, 8800.0, 8780.0, 8756.0, 8952.0, 8761.0, 8729.0, 8773.0, 8758.0, 8845.0, 8907.0, 8889.0, 8682.0, 8789.0, 8826.0, 8775.0, 24045.0, 6614.0, 6483.0, 6647.0, 6513.0, 6536.0, 6576.0, 6592.0, 6470.0, 6464.0, 6472.0, 6559.0, 6595.0, 6736.0, 6669.0, 6440.0, 6600.0, 6473.0, 6692.0, 6601.0, 6528.0, 6569.0, 6681.0, 6659.0, 6614.0, 6666.0, 6492.0, 6517.0, 6561.0, 6575.0, 6560.0, 6641.0, 6680.0, 24196.0, 6513.0, 6602.0, 6368.0, 6479.0, 6421.0, 6484.0, 6389.0, 6451.0, 6561.0, 6444.0, 6563.0, 6571.0, 6436.0, 6431.0, 6521.0, 6483.0, 6642.0, 6504.0, 6486.0, 6616.0, 6520.0, 6659.0, 6641.0, 6463.0, 6617.0, 6438.0, 6580.0, 6695.0, 24221.0]
    },
    "slices": {}
  }
}