{
  "AcquisitionMatrixPE": 140,
  "AcquisitionNumber": 1,
  "AcquisitionTime": "15:01:23.522500",
  "BandwidthPerPixelPhaseEncode": 10.352,
  "BaseResolution": 140,
  "BodyPartExamined": "BRAIN",
  "ConsistencyInfo": "N4_VE11C_LATEST_20160120",
  "ConversionSoftware": "dcm2niix",
  "ConversionSoftwareVersion": "v1.0.20201102",
  "DerivedVendorReportedEchoSpacing": 0.000689998,
  "DeviceSerialNumber": "66112",
  "DiffusionScheme": "Monopolar",
  "DwellTime": 2.1e-06,
  "EchoTime": 0.088,
  "EchoTrainLength": 105,
  "EffectiveEchoSpacing": 0.000689998,
  "FlipAngle": 90,
  "ImageComments": "Unaliased MB3/PE3",
  "ImageOrientationPatientDICOM": [0.999791, -0.0158435, 0.012933, 0.0132625, 0.983628, 0.179721],
  "ImageType": [
    "ORIGINAL",
    "PRIMARY",
    "DIFFUSION",
    "NONE",
    "MB",
    "ND"
],
  "ImagingFrequency": 123.252,
  "InPlanePhaseEncodingDirectionDICOM": "COL",
  "InstitutionAddress": "Maynard 3,Hanover,NH,US,03755",
  "InstitutionName": "Dartmouth College - PBS",
  "InstitutionalDepartmentName": "Department",
  "IntendedFor": [
    "ses-01/dwi/sub-0034_ses-01_acq-96dirX6b0Xmb_dwi.nii.gz"
],
  "MRAcquisitionType": "2D",
  "MagneticFieldStrength": 3,
  "Manufacturer": "Siemens",
  "ManufacturersModelName": "Prisma",
  "Modality": "MR",
  "MultibandAccelerationFactor": 3,
  "PartialFourier": 0.75,
  "PatientPosition": "HFS",
  "PercentPhaseFOV": 100,
  "PercentSampling": 100,
  "PhaseEncodingDirection": "j",
  "PhaseEncodingSteps": 105,
  "PhaseResolution": 1,
  "PixelBandwidth": 1700,
  "ProcedureStepDescription": "Wager_Wager^1076_spacetop",
  "ProtocolName": "dwi_acq-discorr-PA",
  "PulseSequenceDetails": "%CustomerSeq%\\cmrr_mbep2d_diff",
  "ReceiveCoilActiveElements": "HEA;HEP",
  "ReceiveCoilName": "Head_32",
  "ReconMatrixPE": 140,
  "RepetitionTime": 4.1,
  "SAR": 0.163992,
  "ScanOptions": "PFP\\FS",
  "ScanningSequence": "EP",
  "SequenceName": "ep_b0",
  "SequenceVariant": "SK\\SS",
  "SeriesDescription": "dwi_acq-discorr-PA",
  "SeriesNumber": 6,
  "ShimSetting": [4123, -7772, -7188, 565, -149, -78, 178, 81],
  "SliceThickness": 1.7,
  "SliceTiming": [0, 2.125, 0.15625, 2.28125, 0.3125, 2.42188, 0.46875, 2.57812, 0.60938, 2.73438, 0.76562, 2.875, 0.92188, 3.03125, 1.0625, 3.1875, 1.21875, 3.32812, 1.35938, 3.48438, 1.51562, 3.64062, 1.67188, 3.78125, 1.82812, 3.9375, 1.96875, 0, 2.125, 0.15625, 2.28125, 0.3125, 2.42188, 0.46875, 2.57812, 0.60938, 2.73438, 0.76562, 2.875, 0.92188, 3.03125, 1.0625, 3.1875, 1.21875, 3.32812, 1.35938, 3.48438, 1.51562, 3.64062, 1.67188, 3.78125, 1.82812, 3.9375, 1.96875, 0, 2.125, 0.15625, 2.28125, 0.3125, 2.42188, 0.46875, 2.57812, 0.60938, 2.73438, 0.76562, 2.875, 0.92188, 3.03125, 1.0625, 3.1875, 1.21875, 3.32812, 1.35938, 3.48438, 1.51562, 3.64062, 1.67188, 3.78125, 1.82812, 3.9375, 1.96875],
  "SoftwareVersions": "syngo MR E11",
  "SpacingBetweenSlices": 1.7,
  "StationName": "AWP66112",
  "TotalReadoutTime": 0.0959097,
  "TxRefAmp": 262.906,
  "WipMemBlock": "46b3138e-1559-40ca-9979-aa6e8ca8eb2f||Sequence: R016 ve11c/master r/e634e98; Dec 19 2017 11:11:25 by eja",
  "dcmmeta_affine": [
    [-1.713927149772644, 0.02273578569293022, 0.026466846466064453, 122.22506713867188],
    [0.027160266414284706, 1.6862199306488037, 0.3051719665527344, -104.92012786865234],
    [0.02217092551290989, -0.3080926537513733, 1.6721725463867188, -14.828436851501465],
    [0.0, 0.0, 0.0, 1.0]
],
  "dcmmeta_reorient_transform": [
    [0.0, -1.0, 0.0, 139.0],
    [1.0, 0.0, 0.0, 0.0],
    [0.0, 0.0, -1.0, 80.0],
    [0.0, 0.0, 0.0, 1.0]
],
  "dcmmeta_shape": [140, 140, 81],
  "dcmmeta_slice_dim": 2,
  "dcmmeta_version": 0.6,
  "global": {
    "const": {
      "AccessionNumber": "A003798",
      "AcquisitionMatrix": [140, 0, 0, 140],
      "AcquisitionNumber": 1,
      "AngioFlag": "N",
      "BitsAllocated": 16,
      "BitsStored": 16,
      "BodyPartExamined": "BRAIN",
      "Columns": 140,
      "EchoNumbers": 1,
      "EchoTime": 88.0,
      "EchoTrainLength": 105,
      "FlipAngle": 90.0,
      "HighBit": 15,
      "ImageOrientationPatient": [0.99979083830529, -0.0158434884062, 0.01293303970152, 0.01326254185137, 0.9836282670408, 0.17972072017981],
      "ImageType": [
        "ORIGINAL",
        "PRIMARY",
        "DIFFUSION",
        "NONE",
        "MB",
        "ND"
],
      "ImagedNucleus": "1H",
      "ImagingFrequency": 123.252131,
      "InPlanePhaseEncodingDirection": "COL",
      "MRAcquisitionType": "2D",
      "MagneticFieldStrength": 3.0,
      "Manufacturer": "SIEMENS",
      "ManufacturerModelName": "Prisma",
      "Modality": "MR",
      "NumberOfAverages": 1.0,
      "NumberOfPhaseEncodingSteps": 105,
      "PercentPhaseFieldOfView": 100.0,
      "PercentSampling": 100.0,
      "PerformedProcedureStepStartTime": "144756.548000",
      "PhotometricInterpretation": "MONOCHROME2",
      "PixelBandwidth": 1700.0,
      "PixelRepresentation": 0,
      "PixelSpacing": [1.7142857313156, 1.7142857313156],
      "ProtocolName": "dwi_acq-discorr-PA",
      "RepetitionTime": 4100.0,
      "Rows": 140,
      "SAR": 0.16399228174935,
      "SamplesPerPixel": 1,
      "ScanOptions": [
        "PFP",
        "FS"
],
      "ScanningSequence": "EP",
      "SequenceName": "ep_b0",
      "SequenceVariant": [
        "SK",
        "SS"
],
      "SeriesDescription": "dwi_acq-discorr-PA",
      "SeriesNumber": 6,
      "SeriesTime": "150128.295000",
      "SliceThickness": 1.7000000476837,
      "SmallestImagePixelValue": 0,
      "SoftwareVersions": "syngo MR E11",
      "SpacingBetweenSlices": 1.7,
      "SpecificCharacterSet": "ISO_IR 100",
      "StudyID": "1",
      "StudyTime": "144756.431000",
      "TransmitCoilName": "Body",
      "VariableFlipAngleFlag": "N",
      "WindowCenterWidthExplanation": "Algo1",
      "dBdt": 0.0},
    "slices": {
      "AcquisitionTime": ["150123.522500", "150125.640000", "150123.675000", "150125.790000", "150123.825000", "150125.940000", "150123.977500", "150126.092500", "150124.127500", "150126.242500", "150124.280000", "150126.395000", "150124.430000", "150126.545000", "150124.580000", "150126.697500", "150124.732500", "150126.847500", "150124.882500", "150127.000000", "150125.035000", "150127.150000", "150125.185000", "150127.300000", "150125.337500", "150127.452500", "150125.487500", "150123.522500", "150125.640000", "150123.675000", "150125.790000", "150123.825000", "150125.940000", "150123.977500", "150126.092500", "150124.127500", "150126.242500", "150124.280000", "150126.395000", "150124.430000", "150126.545000", "150124.580000", "150126.697500", "150124.732500", "150126.847500", "150124.882500", "150127.000000", "150125.035000", "150127.150000", "150125.185000", "150127.300000", "150125.337500", "150127.452500", "150125.487500", "150123.522500", "150125.640000", "150123.675000", "150125.790000", "150123.825000", "150125.940000", "150123.977500", "150126.092500", "150124.127500", "150126.242500", "150124.280000", "150126.395000", "150124.430000", "150126.545000", "150124.580000", "150126.697500", "150124.732500", "150126.847500", "150124.882500", "150127.000000", "150125.035000", "150127.150000", "150125.185000", "150127.300000", "150125.337500", "150127.452500", "150125.487500"],
      "ContentTime": ["150128.300000", "150128.414000", "150128.311000", "150128.420000", "150128.318000", "150128.426000", "150128.325000", "150128.433000", "150128.340000", "150128.439000", "150128.347000", "150128.446000", "150128.353000", "150128.453000", "150128.360000", "150128.459000", "150128.367000", "150128.466000", "150128.374000", "150128.472000", "150128.381000", "150128.478000", "150128.387000", "150128.485000", "150128.394000", "150128.491000", "150128.400000", "150128.303000", "150128.416000", "150128.314000", "150128.422000", "150128.321000", "150128.429000", "150128.335000", "150128.435000", "150128.342000", "150128.441000", "150128.349000", "150128.448000", "150128.356000", "150128.455000", "150128.363000", "150128.461000", "150128.369000", "150128.468000", "150128.376000", "150128.474000", "150128.383000", "150128.481000", "150128.389000", "150128.487000", "150128.396000", "150128.493000", "150128.402000", "150128.309000", "150128.418000", "150128.316000", "150128.424000", "150128.323000", "150128.431000", "150128.338000", "150128.437000", "150128.345000", "150128.444000", "150128.351000", "150128.451000", "150128.358000", "150128.457000", "150128.365000", "150128.464000", "150128.372000", "150128.470000", "150128.379000", "150128.476000", "150128.385000", "150128.483000", "150128.392000", "150128.489000", "150128.398000", "150128.495000", "150128.412000"],
      "CsaImage.ICE_Dims": [
        "X_1_1_1_1_1_1_1_1_1_1_1_95",
        "X_1_1_1_1_1_1_42_1_1_2_1_95",
        "X_1_1_1_1_1_1_2_1_1_3_1_95",
        "X_1_1_1_1_1_1_43_1_1_4_1_95",
        "X_1_1_1_1_1_1_3_1_1_5_1_95",
        "X_1_1_1_1_1_1_44_1_1_6_1_95",
        "X_1_1_1_1_1_1_4_1_1_7_1_95",
        "X_1_1_1_1_1_1_45_1_1_8_1_95",
        "X_1_1_1_1_1_1_5_1_1_9_1_95",
        "X_1_1_1_1_1_1_46_1_1_10_1_95",
        "X_1_1_1_1_1_1_6_1_1_11_1_95",
        "X_1_1_1_1_1_1_47_1_1_12_1_95",
        "X_1_1_1_1_1_1_7_1_1_13_1_95",
        "X_1_1_1_1_1_1_48_1_1_14_1_95",
        "X_1_1_1_1_1_1_8_1_1_15_1_95",
        "X_1_1_1_1_1_1_49_1_1_16_1_95",
        "X_1_1_1_1_1_1_9_1_1_17_1_95",
        "X_1_1_1_1_1_1_50_1_1_18_1_95",
        "X_1_1_1_1_1_1_10_1_1_19_1_95",
        "X_1_1_1_1_1_1_51_1_1_20_1_95",
        "X_1_1_1_1_1_1_11_1_1_21_1_95",
        "X_1_1_1_1_1_1_52_1_1_22_1_95",
        "X_1_1_1_1_1_1_12_1_1_23_1_95",
        "X_1_1_1_1_1_1_53_1_1_24_1_95",
        "X_1_1_1_1_1_1_13_1_1_25_1_95",
        "X_1_1_1_1_1_1_54_1_1_26_1_95",
        "X_1_1_1_1_1_1_14_1_1_27_1_95",
        "X_1_1_1_1_1_1_55_1_1_28_1_95",
        "X_1_1_1_1_1_1_15_1_1_29_1_95",
        "X_1_1_1_1_1_1_56_1_1_30_1_95",
        "X_1_1_1_1_1_1_16_1_1_31_1_95",
        "X_1_1_1_1_1_1_57_1_1_32_1_95",
        "X_1_1_1_1_1_1_17_1_1_33_1_95",
        "X_1_1_1_1_1_1_58_1_1_34_1_95",
        "X_1_1_1_1_1_1_18_1_1_35_1_95",
        "X_1_1_1_1_1_1_59_1_1_36_1_95",
        "X_1_1_1_1_1_1_19_1_1_37_1_95",
        "X_1_1_1_1_1_1_60_1_1_38_1_95",
        "X_1_1_1_1_1_1_20_1_1_39_1_95",
        "X_1_1_1_1_1_1_61_1_1_40_1_95",
        "X_1_1_1_1_1_1_21_1_1_41_1_95",
        "X_1_1_1_1_1_1_62_1_1_42_1_95",
        "X_1_1_1_1_1_1_22_1_1_43_1_95",
        "X_1_1_1_1_1_1_63_1_1_44_1_95",
        "X_1_1_1_1_1_1_23_1_1_45_1_95",
        "X_1_1_1_1_1_1_64_1_1_46_1_95",
        "X_1_1_1_1_1_1_24_1_1_47_1_95",
        "X_1_1_1_1_1_1_65_1_1_48_1_95",
        "X_1_1_1_1_1_1_25_1_1_49_1_95",
        "X_1_1_1_1_1_1_66_1_1_50_1_95",
        "X_1_1_1_1_1_1_26_1_1_51_1_95",
        "X_1_1_1_1_1_1_67_1_1_52_1_95",
        "X_1_1_1_1_1_1_27_1_1_53_1_95",
        "X_1_1_1_1_1_1_68_1_1_54_1_95",
        "X_1_1_1_1_1_1_28_1_1_55_1_95",
        "X_1_1_1_1_1_1_69_1_1_56_1_95",
        "X_1_1_1_1_1_1_29_1_1_57_1_95",
        "X_1_1_1_1_1_1_70_1_1_58_1_95",
        "X_1_1_1_1_1_1_30_1_1_59_1_95",
        "X_1_1_1_1_1_1_71_1_1_60_1_95",
        "X_1_1_1_1_1_1_31_1_1_61_1_95",
        "X_1_1_1_1_1_1_72_1_1_62_1_95",
        "X_1_1_1_1_1_1_32_1_1_63_1_95",
        "X_1_1_1_1_1_1_73_1_1_64_1_95",
        "X_1_1_1_1_1_1_33_1_1_65_1_95",
        "X_1_1_1_1_1_1_74_1_1_66_1_95",
        "X_1_1_1_1_1_1_34_1_1_67_1_95",
        "X_1_1_1_1_1_1_75_1_1_68_1_95",
        "X_1_1_1_1_1_1_35_1_1_69_1_95",
        "X_1_1_1_1_1_1_76_1_1_70_1_95",
        "X_1_1_1_1_1_1_36_1_1_71_1_95",
        "X_1_1_1_1_1_1_77_1_1_72_1_95",
        "X_1_1_1_1_1_1_37_1_1_73_1_95",
        "X_1_1_1_1_1_1_78_1_1_74_1_95",
        "X_1_1_1_1_1_1_38_1_1_75_1_95",
        "X_1_1_1_1_1_1_79_1_1_76_1_95",
        "X_1_1_1_1_1_1_39_1_1_77_1_95",
        "X_1_1_1_1_1_1_80_1_1_78_1_95",
        "X_1_1_1_1_1_1_40_1_1_79_1_95",
        "X_1_1_1_1_1_1_81_1_1_80_1_95",
        "X_1_1_1_1_1_1_41_1_1_81_1_95"
],
      "CsaImage.ProtocolSliceNumber": [0, 1, 2, 3, 4, 5, 6, 7, 8, 9, 10, 11, 12, 13, 14, 15, 16, 17, 18, 19, 20, 21, 22, 23, 24, 25, 26, 27, 28, 29, 30, 31, 32, 33, 34, 35, 36, 37, 38, 39, 40, 41, 42, 43, 44, 45, 46, 47, 48, 49, 50, 51, 52, 53, 54, 55, 56, 57, 58, 59, 60, 61, 62, 63, 64, 65, 66, 67, 68, 69, 70, 71, 72, 73, 74, 75, 76, 77, 78, 79, 80],
      "CsaImage.RFSWDDataType": [
        "predicted",
        "predicted",
        "predicted",
        "predicted",
        "predicted",
        "predicted",
        "predicted",
        "predicted",
        "predicted",
        "predicted",
        "predicted",
        "predicted",
        "predicted",
        "predicted",
        "predicted",
        "predicted",
        "predicted",
        "predicted",
        "predicted",
        "predicted",
        "predicted",
        "predicted",
        "predicted",
        "predicted",
        "predicted",
        "measured",
        "predicted",
        "predicted",
        "predicted",
        "predicted",
        "predicted",
        "predicted",
        "predicted",
        "predicted",
        "predicted",
        "predicted",
        "predicted",
        "predicted",
        "predicted",
        "predicted",
        "predicted",
        "predicted",
        "predicted",
        "predicted",
        "predicted",
        "predicted",
        "predicted",
        "predicted",
        "predicted",
        "predicted",
        "predicted",
        "predicted",
        "measured",
        "predicted",
        "predicted",
        "predicted",
        "predicted",
        "predicted",
        "predicted",
        "predicted",
        "predicted",
        "predicted",
        "predicted",
        "predicted",
        "predicted",
        "predicted",
        "predicted",
        "predicted",
        "predicted",
        "predicted",
        "predicted",
        "predicted",
        "predicted",
        "predicted",
        "predicted",
        "predicted",
        "predicted",
        "predicted",
        "predicted",
        "measured",
        "predicted"
],
      "CsaImage.SlicePosition_PCS": [
        [-125.38533841, -129.46462274, -57.65350467],
        [-125.41180525, -129.7697928, -55.98132831],
        [-125.4382721, -130.07496191, -54.30915385],
        [-125.46473895, -130.38013196, -52.63697749],
        [-125.49120579, -130.68530202, -50.96480304],
        [-125.51767264, -130.99047113, -49.29262859],
        [-125.54413948, -131.29564119, -47.62045413],
        [-125.57060633, -131.60081029, -45.94827968],
        [-125.59707318, -131.90598035, -44.27610332],
        [-125.62354002, -132.21114946, -42.60392886],
        [-125.65000687, -132.51631952, -40.93175441],
        [-125.67647372, -132.82148958, -39.25957996],
        [-125.70294056, -133.12665773, -37.58740455],
        [-125.72940741, -133.43182779, -35.91522914],
        [-125.75587426, -133.73699785, -34.24305469],
        [-125.7823411, -134.04216791, -32.57087928],
        [-125.80880795, -134.34733606, -30.89870483],
        [-125.8352748, -134.65250612, -29.2265299],
        [-125.86174164, -134.95767618, -27.55435496],
        [-125.88820849, -135.26284624, -25.88218003],
        [-125.91467534, -135.5680163, -24.21000522],
        [-125.94114218, -135.87318445, -22.53783035],
        [-125.96760903, -136.17835451, -20.86565548],
        [-125.99407587, -136.48352457, -19.19348055],
        [-126.02054272, -136.78869462, -17.52130586],
        [-126.04700957, -137.09386278, -15.84913093],
        [-126.07347641, -137.39903284, -14.17695552],
        [-126.09994326, -137.70420289, -12.50478107],
        [-126.12641011, -138.00937295, -10.83260661],
        [-126.15287695, -138.31454111, -9.16043121],
        [-126.1793438, -138.61971117, -7.48825675],
        [-126.20581065, -138.92488122, -5.81608134],
        [-126.23227749, -139.23005128, -4.14390689],
        [-126.25874434, -139.53522134, -2.47173244],
        [-126.28521119, -139.84038949, -0.79955608],
        [-126.31167803, -140.14555955, 0.87261838],
        [-126.33814488, -140.45072961, 2.54479283],
        [-126.36461173, -140.75589967, 4.21696729],
        [-126.39107857, -141.06106782, 5.88914174],
        [-126.41754542, -141.36623788, 7.5613181],
        [-126.44401226, -141.67140794, 9.23349255],
        [-126.47047911, -141.976578, 10.90566892],
        [-126.49694596, -142.28174615, 12.57784146],
        [-126.5234128, -142.58691621, 14.25001782],
        [-126.54987965, -142.89208627, 15.92219037],
        [-126.5763465, -143.19725633, 17.59436673],
        [-126.60281334, -143.50242639, 19.26654309],
        [-126.62928019, -143.80759454, 20.93871564],
        [-126.65574704, -144.1127646, 22.610892],
        [-126.68221388, -144.41793466, 24.28306455],
        [-126.70868073, -144.72310472, 25.95524091],
        [-126.73514758, -145.02827287, 27.62741727],
        [-126.76161442, -145.33344293, 29.29958981],
        [-126.78808127, -145.63861299, 30.97176617],
        [-126.81454812, -145.94378305, 32.64394254],
        [-126.84101496, -146.2489512, 34.31611508],
        [-126.86748181, -146.55412126, 35.98829144],
        [-126.89394865, -146.85929132, 37.66046399],
        [-126.9204155, -147.16446138, 39.33264035],
        [-126.94688235, -147.46963144, 41.00481671],
        [-126.97334919, -147.77479959, 42.67698926],
        [-126.99981604, -148.07996965, 44.3491618],
        [-127.02628289, -148.38513971, 46.02134198],
        [-127.05274973, -148.69030786, 47.69351453],
        [-127.07921658, -148.99547983, 49.36568707],
        [-127.10568343, -149.30064798, 51.03786725],
        [-127.13215027, -149.60581613, 52.7100398],
        [-127.15861712, -149.9109881, 54.38221234],
        [-127.18508397, -150.21615625, 56.05439252],
        [-127.21155081, -150.52132822, 57.72656506],
        [-127.23801766, -150.82649637, 59.39873761],
        [-127.26448451, -151.13166452, 61.07091016],
        [-127.29095135, -151.43683649, 62.74309033],
        [-127.3174182, -151.74200464, 64.41526288],
        [-127.34388504, -152.0471766, 66.08743543],
        [-127.37035189, -152.35234476, 67.7596156],
        [-127.39681874, -152.65751291, 69.43178815],
        [-127.42328558, -152.96268487, 71.10396069],
        [-127.44975243, -153.26785303, 72.77614087],
        [-127.47621928, -153.57302118, 74.44831342],
        [-127.50268612, -153.87819314, 76.12048596]
],
      "CsaImage.TimeAfterStart": [16.4, 18.515, 16.5525, 18.6675, 16.7025, 18.8175, 16.8525, 18.97, 17.005, 19.12, 17.155, 19.2725, 17.3075, 19.4225, 17.4575, 19.5725, 17.61, 19.725, 17.76, 19.875, 17.9125, 20.0275, 18.0625, 20.1775, 18.2125, 20.33, 18.365, 16.4, 18.515, 16.5525, 18.6675, 16.7025, 18.8175, 16.8525, 18.97, 17.005, 19.12, 17.155, 19.2725, 17.3075, 19.4225, 17.4575, 19.5725, 17.61, 19.725, 17.76, 19.875, 17.9125, 20.0275, 18.0625, 20.1775, 18.2125, 20.33, 18.365, 16.4, 18.515, 16.5525, 18.6675, 16.7025, 18.8175, 16.8525, 18.97, 17.005, 19.12, 17.155, 19.2725, 17.3075, 19.4225, 17.4575, 19.5725, 17.61, 19.725, 17.76, 19.875, 17.9125, 20.0275, 18.0625, 20.1775, 18.2125, 20.33, 18.365],
      "ImagePositionPatient": [
        [-125.38533840604, -129.46462274047, -57.653504668595],
        [-125.41180525251, -129.76979279968, -55.981328307511],
        [-125.43827209897, -130.07496190521, -54.309153853776],
        [-125.46473894544, -130.38013196441, -52.636977492692],
        [-125.49120579191, -130.68530202361, -50.964803038956],
        [-125.51767263837, -130.99047112914, -49.292628585221],
        [-125.54413948484, -131.29564118835, -47.620454131486],
        [-125.5706063313, -131.60081029388, -45.94827967775],
        [-125.59707317777, -131.90598035308, -44.276103316666],
        [-125.62354002424, -132.21114945861, -42.603928862931],
        [-125.6500068707, -132.51631951782, -40.931754409196],
        [-125.67647371717, -132.82148957702, -39.25957995546],
        [-125.70294056364, -133.12665772887, -37.587404548051],
        [-125.7294074101, -133.43182778808, -35.915229140641],
        [-125.75587425657, -133.73699784728, -34.243054686906],
        [-125.78234110303, -134.04216790649, -32.570879279496],
        [-125.8088079495, -134.34733605834, -30.898704825761],
        [-125.83527479597, -134.65250611755, -29.226529895188],
        [-125.86174164243, -134.95767617675, -27.554354964616],
        [-125.8882084889, -135.26284623596, -25.882180034043],
        [-125.91467533536, -135.56801629516, -24.21000522268],
        [-125.94114218183, -135.87318444701, -22.537830351712],
        [-125.9676090283, -136.17835450622, -20.865655480744],
        [-125.99407587476, -136.48352456542, -19.193480550172],
        [-126.02054272123, -136.78869462463, -17.521305858018],
        [-126.04700956769, -137.09386277648, -15.849130927445],
        [-126.07347641416, -137.39903283569, -14.176955520036],
        [-126.09994326063, -137.70420289489, -12.5047810663],
        [-126.12641010709, -138.00937295409, -10.832606612565],
        [-126.15287695356, -138.31454110595, -9.1604312051551],
        [-126.17934380002, -138.61971116515, -7.4882567514198],
        [-126.20581064649, -138.92488122436, -5.8160813440101],
        [-126.23227749296, -139.23005128356, -4.1439068902748],
        [-126.25874433942, -139.53522134277, -2.4717324365394],
        [-126.28521118589, -139.84038949462, -0.7995560754554],
        [-126.31167803235, -140.14555955383, 0.87261837827991],
        [-126.33814487882, -140.45072961303, 2.5447928320153],
        [-126.36461172529, -140.75589967223, 4.2169672857506],
        [-126.39107857175, -141.06106782409, 5.889141739486],
        [-126.41754541822, -141.36623788329, 7.56131810057],
        [-126.44401226468, -141.6714079425, 9.2334925543053],
        [-126.47047911115, -141.9765780017, 10.905668915389],
        [-126.49694595762, -142.28174615356, 12.577841461776],
        [-126.52341280408, -142.58691621276, 14.25001782286],
        [-126.54987965055, -142.89208627197, 15.922190369247],
        [-126.57634649702, -143.19725633117, 17.594366730331],
        [-126.60281334348, -143.50242639037, 19.266543091415],
        [-126.62928018995, -143.80759454223, 20.938715637801],
        [-126.65574703641, -144.11276460143, 22.610891998885],
        [-126.68221388288, -144.41793466064, 24.283064545272],
        [-126.70868072935, -144.72310471984, 25.955240906356],
        [-126.73514757581, -145.0282728717, 27.62741726744],
        [-126.76161442228, -145.3334429309, 29.299589813827],
        [-126.78808126874, -145.63861299011, 30.971766174911],
        [-126.81454811521, -145.94378304931, 32.643942535995],
        [-126.84101496168, -146.24895120117, 34.316115082381],
        [-126.86748180814, -146.55412126037, 35.988291443465],
        [-126.89394865461, -146.85929131957, 37.660463989852],
        [-126.92041550107, -147.16446137878, 39.332640350936],
        [-126.94688234754, -147.46963143798, 41.00481671202],
        [-126.97334919401, -147.77479958984, 42.676989258407],
        [-126.99981604047, -148.07996964904, 44.349161804794],
        [-127.02628288694, -148.38513970825, 46.021341980575],
        [-127.0527497334, -148.6903078601, 47.693514526962],
        [-127.07921657987, -148.99547982665, 49.365687073348],
        [-127.10568342634, -149.30064797851, 51.03786724913],
        [-127.1321502728, -149.60581613036, 52.710039795516],
        [-127.15861711927, -149.91098809692, 54.382212341903],
        [-127.18508396573, -150.21615624877, 56.054392517684],
        [-127.2115508122, -150.52132821533, 57.726565064071],
        [-127.23801765867, -150.82649636718, 59.398737610458],
        [-127.26448450513, -151.13166451904, 61.070910156844],
        [-127.2909513516, -151.43683648559, 62.743090332626],
        [-127.31741819807, -151.74200463744, 64.415262879012],
        [-127.34388504453, -152.047176604, 66.087435425399],
        [-127.370351891, -152.35234475585, 67.75961560118],
        [-127.39681873746, -152.65751290771, 69.431788147567],
        [-127.42328558393, -152.96268487426, 71.103960693954],
        [-127.4497524304, -153.26785302612, 72.776140869735],
        [-127.47621927686, -153.57302117797, 74.448313416122],
        [-127.50268612333, -153.87819314452, 76.120485962508]
],
      "InstanceCreationTime": ["150128.300000", "150128.414000", "150128.311000", "150128.420000", "150128.318000", "150128.426000", "150128.325000", "150128.433000", "150128.340000", "150128.439000", "150128.347000", "150128.446000", "150128.353000", "150128.453000", "150128.360000", "150128.459000", "150128.367000", "150128.466000", "150128.374000", "150128.472000", "150128.381000", "150128.478000", "150128.387000", "150128.485000", "150128.394000", "150128.491000", "150128.400000", "150128.303000", "150128.416000", "150128.314000", "150128.422000", "150128.321000", "150128.429000", "150128.335000", "150128.435000", "150128.342000", "150128.441000", "150128.349000", "150128.448000", "150128.356000", "150128.455000", "150128.363000", "150128.461000", "150128.369000", "150128.468000", "150128.376000", "150128.474000", "150128.383000", "150128.481000", "150128.389000", "150128.487000", "150128.396000", "150128.493000", "150128.402000", "150128.309000", "150128.418000", "150128.316000", "150128.424000", "150128.323000", "150128.431000", "150128.338000", "150128.437000", "150128.345000", "150128.444000", "150128.351000", "150128.451000", "150128.358000", "150128.457000", "150128.365000", "150128.464000", "150128.372000", "150128.470000", "150128.379000", "150128.476000", "150128.385000", "150128.483000", "150128.392000", "150128.489000", "150128.398000", "150128.495000", "150128.412000"],
      "InstanceNumber": [1, 2, 3, 4, 5, 6, 7, 8, 9, 10, 11, 12, 13, 14, 15, 16, 17, 18, 19, 20, 21, 22, 23, 24, 25, 26, 27, 28, 29, 30, 31, 32, 33, 34, 35, 36, 37, 38, 39, 40, 41, 42, 43, 44, 45, 46, 47, 48, 49, 50, 51, 52, 53, 54, 55, 56, 57, 58, 59, 60, 61, 62, 63, 64, 65, 66, 67, 68, 69, 70, 71, 72, 73, 74, 75, 76, 77, 78, 79, 80, 81],
      "LargestImagePixelValue": [27107, 24372, 30301, 35730, 33129, 37560, 42517, 43578, 41407, 32053, 30653, 40818, 33601, 30694, 36418, 35383, 46277, 52890, 63597, 65186, 65535, 65535, 65535, 65535, 65535, 65535, 59110, 37970, 30343, 30969, 34733, 31767, 31670, 42558, 40284, 43642, 29603, 35428, 34866, 37333, 29940, 41489, 45125, 37891, 35843, 33758, 36517, 44502, 42340, 51296, 50827, 65384, 52000, 55302, 50634, 43465, 51948, 43339, 39779, 45861, 51375, 40812, 36352, 47591, 43628, 41153, 53690, 51198, 65192, 59179, 48114, 64274, 41637, 33012, 10394, 13196, 11834, 9837, 8115, 4307, 1808],
      "SliceLocation": [-31.517380147099, -29.817379252522, -28.11738040527, -26.417379510692, -24.717380492245, -23.017381644994, -21.317382626547, -19.617383779295, -17.917382884717, -16.217384037466, -14.517385019019, -12.817386000572, -11.11738638645, -9.417386429938, -7.7173874114908, -6.0173874549784, -4.3173887789225, -2.6173892914427, -0.917389803963, 0.78260968351682, 2.4826090537384, 4.1826081401979, 5.8826075690486, 7.5826070565284, 9.2826063094919, 10.98260545458, 12.682605411093, 14.38260442954, 16.082603447987, 17.782603062108, 19.482602080555, 21.182602037068, 22.882601055515, 24.582600073962, 26.282600626149, 27.982599644596, 29.682598663043, 31.38259768149, 33.082596357546, 34.782597252124, 36.482596270571, 38.182597165148, 39.882593965074, 41.582594859651, 43.282592001968, 44.982592896546, 46.682593791123, 48.382590591049, 50.082591485626, 51.782588627943, 53.482589522521, 55.182590074707, 56.882587217024, 58.582588111602, 60.282589006179, 61.982585806105, 63.682586700682, 65.382583842999, 67.082584737577, 68.782585632154, 70.48258243208, 72.182579574396, 73.882584221235, 75.58258102116, 77.282578505868, 78.982582810316, 80.682579610241, 82.382577094949, 84.082581399396, 85.782578884104, 87.48257568403, 89.182572483955, 90.882577473185, 92.58257427311, 94.282571757818, 95.982576062266, 97.682572862191, 99.382570346899, 101.08257465135, 102.78257145127, 104.48256893598],
      "WindowCenter": [6605.0, 6584.0, 7149.0, 7391.0, 7153.0, 7546.0, 7950.0, 7915.0, 7692.0, 7452.0, 7642.0, 7778.0, 7577.0, 7457.0, 7995.0, 8226.0, 8632.0, 8684.0, 8842.0, 8812.0, 8869.0, 9029.0, 9185.0, 9317.0, 9207.0, 9163.0, 8933.0, 8488.0, 8360.0, 8395.0, 8481.0, 8499.0, 8523.0, 8796.0, 8932.0, 9071.0, 8980.0, 9193.0, 9206.0, 9410.0, 9541.0, 9860.0, 9927.0, 10023.0, 9811.0, 9650.0, 9739.0, 9974.0, 10046.0, 10295.0, 10373.0, 10551.0, 10534.0, 10619.0, 9983.0, 9988.0, 10105.0, 9829.0, 9806.0, 9872.0, 9889.0, 9836.0, 9651.0, 9803.0, 9816.0, 9831.0, 10124.0, 10173.0, 10409.0, 10363.0, 10277.0, 10044.0, 8074.0, 4897.0, 1732.0, 2988.0, 2260.0, 1692.0, 1586.0, 1321.0, 1094.0],
      "WindowWidth": [14493.0, 14377.0, 15361.0, 15946.0, 15823.0, 16711.0, 17396.0, 17313.0, 16625.0, 16091.0, 16436.0, 16534.0, 16273.0, 16062.0, 17219.0, 17828.0, 18896.0, 19718.0, 20587.0, 20237.0, 20487.0, 21172.0, 21761.0, 22095.0, 21800.0, 21342.0, 20143.0, 18524.0, 17925.0, 17999.0, 18199.0, 18213.0, 18327.0, 18977.0, 19274.0, 19370.0, 19215.0, 19667.0, 19699.0, 20079.0, 20342.0, 21107.0, 21191.0, 21420.0, 20975.0, 20694.0, 20908.0, 21457.0, 21598.0, 22246.0, 22510.0, 23173.0, 23144.0, 23345.0, 21713.0, 21855.0, 22227.0, 21535.0, 21447.0, 21501.0, 21690.0, 21495.0, 21090.0, 21466.0, 21621.0, 21569.0, 22483.0, 22649.0, 23718.0, 23689.0, 23626.0, 22871.0, 17357.0, 11302.0, 5135.0, 7375.0, 6334.0, 5110.0, 4669.0, 3539.0, 2711.0]
    }
  }
}