{
  "AcquisitionMatrixPE": 82,
  "AcquisitionNumber": 1,
  "AcquisitionTime": "10:54:16.735000",
  "BandwidthPerPixelPhaseEncode": 24.888,
  "BaseResolution": 82,
  "BodyPartExamined": "BRAIN",
  "ConsistencyInfo": "N4_VE11E_LATEST_20181129",
  "ConversionSoftware": "dcm2niix",
  "ConversionSoftwareVersion": "v1.0.20201102",
  "DerivedVendorReportedEchoSpacing": 0.00049,
  "DeviceSerialNumber": "66112",
  "DwellTime": 2e-06,
  "EchoTime": 0.0272,
  "EchoTrainLength": 82,
  "EffectiveEchoSpacing": 0.00049,
  "FlipAngle": 44,
  "ImageComments": "Unaliased MB8/PE3",
  "ImageOrientationPatientDICOM": [0.998996, 0.0236396, -0.0380621, -0.0219726, 0.998806, 0.0436343],
  "ImageType": [
    "ORIGINAL",
    "PRIMARY",
    "M",
    "MB",
    "ND",
    "NORM",
    "MOSAIC"
],
  "ImagingFrequency": 123.259,
  "InPlanePhaseEncodingDirectionDICOM": "COL",
  "InstitutionAddress": "Maynard 3,Hanover,NH,US,03755",
  "InstitutionName": "Dartmouth College - PBS",
  "InstitutionalDepartmentName": "Department",
  "MRAcquisitionType": "2D",
  "MagneticFieldStrength": 3,
  "Manufacturer": "Siemens",
  "ManufacturersModelName": "Prisma",
  "Modality": "MR",
  "MultibandAccelerationFactor": 8,
  "PartialFourier": 1,
  "PatientPosition": "HFS",
  "PercentPhaseFOV": 100,
  "PercentSampling": 100,
  "PhaseEncodingDirection": "j-",
  "PhaseEncodingSteps": 82,
  "PhaseResolution": 1,
  "PixelBandwidth": 3050,
  "ProcedureStepDescription": "Wager_Wager^1076_spacetop",
  "ProtocolName": "func_run-01_task-alignvideo_acq-ap-mb8",
  "PulseSequenceDetails": "%CustomerSeq%\\cmrr_mbep2d_bold",
  "ReceiveCoilActiveElements": "HEA;HEP",
  "ReceiveCoilName": "Head_32",
  "ReconMatrixPE": 82,
  "RepetitionTime": 0.46,
  "SAR": 0.114757,
  "ScanOptions": "FS",
  "ScanningSequence": "EP",
  "SequenceName": "epfid2d1_82",
  "SequenceVariant": "SK\\SS",
  "SeriesDescription": "func_run-01_task-alignvideo_acq-ap-mb8",
  "SeriesNumber": 28,
  "ShimSetting": [4225, -7738, -7238, 110, -123, -1, 48, 117],
  "SliceThickness": 2.7,
  "SliceTiming": [0, 0.2525, 0.0625, 0.315, 0.125, 0.3775, 0.19, 0, 0.2525, 0.0625, 0.315, 0.125, 0.3775, 0.19, 0, 0.2525, 0.0625, 0.315, 0.125, 0.3775, 0.19, 0, 0.2525, 0.0625, 0.315, 0.125, 0.3775, 0.19, 0, 0.2525, 0.0625, 0.315, 0.125, 0.3775, 0.19, 0, 0.2525, 0.0625, 0.315, 0.125, 0.3775, 0.19, 0, 0.2525, 0.0625, 0.315, 0.125, 0.3775, 0.19, 0, 0.2525, 0.0625, 0.315, 0.125, 0.3775, 0.19],
  "SoftwareVersions": "syngo MR E11",
  "SpacingBetweenSlices": 2.7,
  "StationName": "AWP66112",
  "TaskName": "alignvideo",
  "TotalReadoutTime": 0.03969,
  "TxRefAmp": 250.264,
  "WipMemBlock": "2b0df657-e59a-4bab-a44d-4a272a30936c||Sequence: R016 ve11e/master r/434b28f1; Aug  7 2019 18:53:46 by eja",
  "dcmmeta_affine": [
    [-2.680232524871826, -0.05895082280039787, -0.10542987287044525, 115.6444091796875],
    [-0.06342318654060364, 2.6797232627868652, 0.11543627083301544, -89.45616149902344],
    [-0.10211770981550217, -0.11706767976284027, 2.695470094680786, -60.06181716918945],
    [0.0, 0.0, 0.0, 1.0]
],
  "dcmmeta_reorient_transform": [
    [0.0, -1.0, 0.0, 81.0],
    [1.0, 0.0, 0.0, 0.0],
    [0.0, 0.0, 1.0, 0.0],
    [0.0, 0.0, 0.0, 1.0]
],
  "dcmmeta_shape": [82, 82, 56, 839],
  "dcmmeta_slice_dim": 2,
  "dcmmeta_version": 0.6,
  "global": {
    "const": {
      "AccessionNumber": "A004825",
      "AcquisitionMatrix": [82, 0, 0, 82],
      "AngioFlag": "N",
      "BitsAllocated": 16,
      "BitsStored": 16,
      "BodyPartExamined": "BRAIN",
      "Columns": 656,
      "EchoNumbers": 1,
      "EchoTime": 27.2,
      "EchoTrainLength": 82,
      "FlipAngle": 44.0,
      "HighBit": 15,
      "ImageOrientationPatient": [0.99899572146336, 0.02363955200483, -0.0380620556317, -0.0219725791259, 0.99880591316354, 0.04363431672553],
      "ImagePositionPatient": [-863.17723300379, -914.88444561773, -73.834940587492],
      "ImageType": [
        "ORIGINAL",
        "PRIMARY",
        "M",
        "MB",
        "ND",
        "NORM",
        "MOSAIC"
],
      "ImagedNucleus": "1H",
      "ImagingFrequency": 123.259278,
      "InPlanePhaseEncodingDirection": "COL",
      "MRAcquisitionType": "2D",
      "MagneticFieldStrength": 3.0,
      "Manufacturer": "SIEMENS",
      "ManufacturerModelName": "Prisma",
      "Modality": "MR",
      "NumberOfAverages": 1.0,
      "NumberOfPhaseEncodingSteps": 82,
      "PercentPhaseFieldOfView": 100.0,
      "PercentSampling": 100.0,
      "PerformedProcedureStepStartTime": "093651.344000",
      "PhotometricInterpretation": "MONOCHROME2",
      "PixelBandwidth": 3050.0,
      "PixelRepresentation": 0,
      "PixelSpacing": [2.6829268932343, 2.6829268932343],
      "ProtocolName": "func_run-01_task-alignvideo_acq-ap-mb8",
      "RepetitionTime": 460.0,
      "Rows": 656,
      "SAR": 0.11475681190793,
      "SamplesPerPixel": 1,
      "ScanOptions": "FS",
      "ScanningSequence": "EP",
      "SequenceName": "epfid2d1_82",
      "SequenceVariant": [
        "SK",
        "SS"
],
      "SeriesDescription": "func_run-01_task-alignvideo_acq-ap-mb8",
      "SeriesNumber": 28,
      "SeriesTime": "105430.848000",
      "SliceLocation": -68.301368069258,
      "SliceThickness": 2.7000000476837,
      "SmallestImagePixelValue": 0,
      "SoftwareVersions": "syngo MR E11",
      "SpacingBetweenSlices": 2.6999999908431,
      "SpecificCharacterSet": "ISO_IR 100",
      "StudyID": "2",
      "StudyTime": "093651.267000",
      "TransmitCoilName": "Body",
      "VariableFlipAngleFlag": "N",
      "WindowCenterWidthExplanation": "Algo1"
    },
    "slices": {}
  },
  "time": {
    "samples": {
      "AcquisitionNumber": [1, 2, 3, 4, 5, 6, 7, 8, 9, 10, 11, 12, 13, 14, 15, 16, 17, 18, 19, 20, 21, 22, 23, 24, 25, 26, 27, 28, 29, 30, 31, 32, 33, 34, 35, 36, 37, 38, 39, 40, 41, 42, 43, 44, 45, 46, 47, 48, 49, 50, 51, 52, 53, 54, 55, 56, 57, 58, 59, 60, 61, 62, 63, 64, 65, 66, 67, 68, 69, 70, 71, 72, 73, 74, 75, 76, 77, 78, 79, 80, 81, 82, 83, 84, 85, 86, 87, 88, 89, 90, 91, 92, 93, 94, 95, 96, 97, 98, 99, 100, 101, 102, 103, 104, 105, 106, 107, 108, 109, 110, 111, 112, 113, 114, 115, 116, 117, 118, 119, 120, 121, 122, 123, 124, 125, 126, 127, 128, 129, 130, 131, 132, 133, 134, 135, 136, 137, 138, 139, 140, 141, 142, 143, 144, 145, 146, 147, 148, 149, 150, 151, 152, 153, 154, 155, 156, 157, 158, 159, 160, 161, 162, 163, 164, 165, 166, 167, 168, 169, 170, 171, 172, 173, 174, 175, 176, 177, 178, 179, 180, 181, 182, 183, 184, 185, 186, 187, 188, 189, 190, 191, 192, 193, 194, 195, 196, 197, 198, 199, 200, 201, 202, 203, 204, 205, 206, 207, 208, 209, 210, 211, 212, 213, 214, 215, 216, 217, 218, 219, 220, 221, 222, 223, 224, 225, 226, 227, 228, 229, 230, 231, 232, 233, 234, 235, 236, 237, 238, 239, 240, 241, 242, 243, 244, 245, 246, 247, 248, 249, 250, 251, 252, 253, 254, 255, 256, 257, 258, 259, 260, 261, 262, 263, 264, 265, 266, 267, 268, 269, 270, 271, 272, 273, 274, 275, 276, 277, 278, 279, 280, 281, 282, 283, 284, 285, 286, 287, 288, 289, 290, 291, 292, 293, 294, 295, 296, 297, 298, 299, 300, 301, 302, 303, 304, 305, 306, 307, 308, 309, 310, 311, 312, 313, 314, 315, 316, 317, 318, 319, 320, 321, 322, 323, 324, 325, 326, 327, 328, 329, 330, 331, 332, 333, 334, 335, 336, 337, 338, 339, 340, 341, 342, 343, 344, 345, 346, 347, 348, 349, 350, 351, 352, 353, 354, 355, 356, 357, 358, 359, 360, 361, 362, 363, 364, 365, 366, 367, 368, 369, 370, 371, 372, 373, 374, 375, 376, 377, 378, 379, 380, 381, 382, 383, 384, 385, 386, 387, 388, 389, 390, 391, 392, 393, 394, 395, 396, 397, 398, 399, 400, 401, 402, 403, 404, 405, 406, 407, 408, 409, 410, 411, 412, 413, 414, 415, 416, 417, 418, 419, 420, 421, 422, 423, 424, 425, 426, 427, 428, 429, 430, 431, 432, 433, 434, 435, 436, 437, 438, 439, 440, 441, 442, 443, 444, 445, 446, 447, 448, 449, 450, 451, 452, 453, 454, 455, 456, 457, 458, 459, 460, 461, 462, 463, 464, 465, 466, 467, 468, 469, 470, 471, 472, 473, 474, 475, 476, 477, 478, 479, 480, 481, 482, 483, 484, 485, 486, 487, 488, 489, 490, 491, 492, 493, 494, 495, 496, 497, 498, 499, 500, 501, 502, 503, 504, 505, 506, 507, 508, 509, 510, 511, 512, 513, 514, 515, 516, 517, 518, 519, 520, 521, 522, 523, 524, 525, 526, 527, 528, 529, 530, 531, 532, 533, 534, 535, 536, 537, 538, 539, 540, 541, 542, 543, 544, 545, 546, 547, 548, 549, 550, 551, 552, 553, 554, 555, 556, 557, 558, 559, 560, 561, 562, 563, 564, 565, 566, 567, 568, 569, 570, 571, 572, 573, 574, 575, 576, 577, 578, 579, 580, 581, 582, 583, 584, 585, 586, 587, 588, 589, 590, 591, 592, 593, 594, 595, 596, 597, 598, 599, 600, 601, 602, 603, 604, 605, 606, 607, 608, 609, 610, 611, 612, 613, 614, 615, 616, 617, 618, 619, 620, 621, 622, 623, 624, 625, 626, 627, 628, 629, 630, 631, 632, 633, 634, 635, 636, 637, 638, 639, 640, 641, 642, 643, 644, 645, 646, 647, 648, 649, 650, 651, 652, 653, 654, 655, 656, 657, 658, 659, 660, 661, 662, 663, 664, 665, 666, 667, 668, 669, 670, 671, 672, 673, 674, 675, 676, 677, 678, 679, 680, 681, 682, 683, 684, 685, 686, 687, 688, 689, 690, 691, 692, 693, 694, 695, 696, 697, 698, 699, 700, 701, 702, 703, 704, 705, 706, 707, 708, 709, 710, 711, 712, 713, 714, 715, 716, 717, 718, 719, 720, 721, 722, 723, 724, 725, 726, 727, 728, 729, 730, 731, 732, 733, 734, 735, 736, 737, 738, 739, 740, 741, 742, 743, 744, 745, 746, 747, 748, 749, 750, 751, 752, 753, 754, 755, 756, 757, 758, 759, 760, 761, 762, 763, 764, 765, 766, 767, 768, 769, 770, 771, 772, 773, 774, 775, 776, 777, 778, 779, 780, 781, 782, 783, 784, 785, 786, 787, 788, 789, 790, 791, 792, 793, 794, 795, 796, 797, 798, 799, 800, 801, 802, 803, 804, 805, 806, 807, 808, 809, 810, 811, 812, 813, 814, 815, 816, 817, 818, 819, 820, 821, 822, 823, 824, 825, 826, 827, 828, 829, 830, 831, 832, 833, 834, 835, 836, 837, 838, 839],
      "AcquisitionTime": ["105416.735000", "105417.195000", "105417.655000", "105418.115000", "105418.575000", "105419.035000", "105419.495000", "105419.955000", "105420.415000", "105420.875000", "105421.335000", "105421.795000", "105422.255000", "105422.715000", "105423.175000", "105423.635000", "105424.095000", "105424.555000", "105425.015000", "105425.475000", "105425.935000", "105426.395000", "105426.855000", "105427.315000", "105427.775000", "105428.235000", "105428.695000", "105429.155000", "105429.615000", "105430.075000", "105430.535000", "105430.995000", "105431.455000", "105431.915000", "105432.375000", "105432.835000", "105433.295000", "105433.755000", "105434.215000", "105434.675000", "105435.135000", "105435.595000", "105436.055000", "105436.515000", "105436.975000", "105437.435000", "105437.895000", "105438.355000", "105438.815000", "105439.275000", "105439.735000", "105440.195000", "105440.655000", "105441.115000", "105441.575000", "105442.035000", "105442.495000", "105442.955000", "105443.415000", "105443.875000", "105444.335000", "105444.795000", "105445.255000", "105445.715000", "105446.175000", "105446.635000", "105447.095000", "105447.555000", "105448.015000", "105448.475000", "105448.935000", "105449.395000", "105449.855000", "105450.315000", "105450.775000", "105451.235000", "105451.695000", "105452.155000", "105452.615000", "105453.075000", "105453.535000", "105453.995000", "105454.455000", "105454.915000", "105455.375000", "105455.835000", "105456.295000", "105456.755000", "105457.215000", "105457.675000", "105458.135000", "105458.595000", "105459.055000", "105459.515000", "105459.975000", "105500.435000", "105500.895000", "105501.355000", "105501.815000", "105502.275000", "105502.735000", "105503.195000", "105503.655000", "105504.115000", "105504.575000", "105505.035000", "105505.495000", "105505.955000", "105506.415000", "105506.875000", "105507.335000", "105507.795000", "105508.255000", "105508.715000", "105509.175000", "105509.635000", "105510.095000", "105510.555000", "105511.015000", "105511.475000", "105511.935000", "105512.395000", "105512.855000", "105513.315000", "105513.775000", "105514.235000", "105514.695000", "105515.155000", "105515.615000", "105516.075000", "105516.535000", "105516.995000", "105517.455000", "105517.915000", "105518.375000", "105518.835000", "105519.295000", "105519.755000", "105520.215000", "105520.675000", "105521.135000", "105521.595000", "105522.055000", "105522.515000", "105522.975000", "105523.435000", "105523.895000", "105524.355000", "105524.815000", "105525.275000", "105525.735000", "105526.195000", "105526.655000", "105527.115000", "105527.575000", "105528.035000", "105528.495000", "105528.955000", "105529.415000", "105529.875000", "105530.335000", "105530.795000", "105531.255000", "105531.715000", "105532.175000", "105532.635000", "105533.095000", "105533.555000", "105534.015000", "105534.475000", "105534.935000", "105535.395000", "105535.855000", "105536.315000", "105536.775000", "105537.235000", "105537.695000", "105538.155000", "105538.615000", "105539.075000", "105539.535000", "105539.995000", "105540.455000", "105540.915000", "105541.375000", "105541.835000", "105542.295000", "105542.755000", "105543.215000", "105543.675000", "105544.135000", "105544.595000", "105545.055000", "105545.515000", "105545.975000", "105546.435000", "105546.895000", "105547.355000", "105547.815000", "105548.275000", "105548.735000", "105549.195000", "105549.655000", "105550.115000", "105550.575000", "105551.035000", "105551.495000", "105551.955000", "105552.415000", "105552.875000", "105553.335000", "105553.795000", "105554.255000", "105554.715000", "105555.175000", "105555.635000", "105556.095000", "105556.555000", "105557.015000", "105557.475000", "105557.935000", "105558.395000", "105558.855000", "105559.315000", "105559.775000", "105600.235000", "105600.695000", "105601.155000", "105601.615000", "105602.075000", "105602.535000", "105602.995000", "105603.455000", "105603.915000", "105604.375000", "105604.835000", "105605.295000", "105605.755000", "105606.215000", "105606.675000", "105607.135000", "105607.595000", "105608.055000", "105608.515000", "105608.975000", "105609.435000", "105609.895000", "105610.355000", "105610.815000", "105611.275000", "105611.735000", "105612.195000", "105612.655000", "105613.115000", "105613.575000", "105614.035000", "105614.495000", "105614.955000", "105615.415000", "105615.875000", "105616.335000", "105616.795000", "105617.255000", "105617.715000", "105618.175000", "105618.635000", "105619.095000", "105619.555000", "105620.015000", "105620.475000", "105620.935000", "105621.395000", "105621.855000", "105622.315000", "105622.775000", "105623.235000", "105623.695000", "105624.155000", "105624.615000", "105625.075000", "105625.535000", "105625.995000", "105626.455000", "105626.915000", "105627.375000", "105627.835000", "105628.295000", "105628.755000", "105629.215000", "105629.675000", "105630.135000", "105630.595000", "105631.055000", "105631.515000", "105631.975000", "105632.435000", "105632.895000", "105633.355000", "105633.815000", "105634.275000", "105634.735000", "105635.195000", "105635.655000", "105636.115000", "105636.575000", "105637.035000", "105637.495000", "105637.955000", "105638.415000", "105638.875000", "105639.335000", "105639.795000", "105640.255000", "105640.715000", "105641.175000", "105641.635000", "105642.095000", "105642.555000", "105643.015000", "105643.475000", "105643.935000", "105644.395000", "105644.855000", "105645.315000", "105645.775000", "105646.235000", "105646.695000", "105647.155000", "105647.615000", "105648.075000", "105648.535000", "105648.995000", "105649.455000", "105649.915000", "105650.375000", "105650.835000", "105651.295000", "105651.755000", "105652.215000", "105652.675000", "105653.135000", "105653.595000", "105654.055000", "105654.515000", "105654.975000", "105655.435000", "105655.895000", "105656.355000", "105656.815000", "105657.275000", "105657.735000", "105658.195000", "105658.655000", "105659.115000", "105659.575000", "105700.035000", "105700.495000", "105700.955000", "105701.415000", "105701.875000", "105702.335000", "105702.795000", "105703.255000", "105703.715000", "105704.175000", "105704.635000", "105705.095000", "105705.555000", "105706.015000", "105706.475000", "105706.935000", "105707.395000", "105707.855000", "105708.315000", "105708.775000", "105709.235000", "105709.695000", "105710.155000", "105710.615000", "105711.075000", "105711.535000", "105711.995000", "105712.455000", "105712.915000", "105713.375000", "105713.835000", "105714.295000", "105714.755000", "105715.215000", "105715.675000", "105716.135000", "105716.595000", "105717.055000", "105717.515000", "105717.975000", "105718.435000", "105718.895000", "105719.355000", "105719.815000", "105720.275000", "105720.735000", "105721.195000", "105721.655000", "105722.115000", "105722.575000", "105723.035000", "105723.495000", "105723.955000", "105724.415000", "105724.875000", "105725.335000", "105725.795000", "105726.255000", "105726.715000", "105727.175000", "105727.635000", "105728.095000", "105728.555000", "105729.015000", "105729.475000", "105729.935000", "105730.395000", "105730.855000", "105731.315000", "105731.775000", "105732.235000", "105732.695000", "105733.155000", "105733.615000", "105734.075000", "105734.535000", "105734.995000", "105735.455000", "105735.915000", "105736.375000", "105736.835000", "105737.295000", "105737.755000", "105738.215000", "105738.675000", "105739.135000", "105739.595000", "105740.055000", "105740.515000", "105740.975000", "105741.435000", "105741.895000", "105742.355000", "105742.815000", "105743.275000", "105743.735000", "105744.195000", "105744.655000", "105745.115000", "105745.575000", "105746.035000", "105746.495000", "105746.955000", "105747.415000", "105747.875000", "105748.335000", "105748.795000", "105749.255000", "105749.715000", "105750.175000", "105750.635000", "105751.095000", "105751.555000", "105752.015000", "105752.475000", "105752.935000", "105753.395000", "105753.855000", "105754.315000", "105754.775000", "105755.235000", "105755.695000", "105756.155000", "105756.615000", "105757.075000", "105757.535000", "105757.995000", "105758.455000", "105758.915000", "105759.375000", "105759.835000", "105800.295000", "105800.755000", "105801.215000", "105801.675000", "105802.135000", "105802.595000", "105803.055000", "105803.515000", "105803.975000", "105804.435000", "105804.895000", "105805.355000", "105805.815000", "105806.275000", "105806.735000", "105807.195000", "105807.655000", "105808.115000", "105808.575000", "105809.035000", "105809.495000", "105809.955000", "105810.415000", "105810.875000", "105811.335000", "105811.795000", "105812.255000", "105812.715000", "105813.175000", "105813.635000", "105814.095000", "105814.555000", "105815.015000", "105815.475000", "105815.935000", "105816.395000", "105816.855000", "105817.315000", "105817.775000", "105818.235000", "105818.695000", "105819.155000", "105819.615000", "105820.075000", "105820.535000", "105820.995000", "105821.455000", "105821.915000", "105822.375000", "105822.835000", "105823.295000", "105823.755000", "105824.215000", "105824.675000", "105825.135000", "105825.595000", "105826.055000", "105826.515000", "105826.975000", "105827.435000", "105827.895000", "105828.355000", "105828.815000", "105829.275000", "105829.735000", "105830.195000", "105830.655000", "105831.115000", "105831.575000", "105832.035000", "105832.495000", "105832.955000", "105833.415000", "105833.875000", "105834.335000", "105834.795000", "105835.255000", "105835.715000", "105836.175000", "105836.635000", "105837.095000", "105837.555000", "105838.015000", "105838.475000", "105838.935000", "105839.395000", "105839.855000", "105840.315000", "105840.775000", "105841.235000", "105841.695000", "105842.155000", "105842.615000", "105843.075000", "105843.535000", "105843.995000", "105844.455000", "105844.915000", "105845.375000", "105845.835000", "105846.295000", "105846.755000", "105847.215000", "105847.675000", "105848.135000", "105848.595000", "105849.055000", "105849.515000", "105849.975000", "105850.435000", "105850.895000", "105851.355000", "105851.815000", "105852.275000", "105852.735000", "105853.195000", "105853.655000", "105854.115000", "105854.575000", "105855.035000", "105855.495000", "105855.955000", "105856.415000", "105856.875000", "105857.335000", "105857.795000", "105858.255000", "105858.715000", "105859.175000", "105859.635000", "105900.095000", "105900.555000", "105901.015000", "105901.475000", "105901.935000", "105902.395000", "105902.855000", "105903.315000", "105903.775000", "105904.235000", "105904.695000", "105905.155000", "105905.615000", "105906.075000", "105906.535000", "105906.995000", "105907.455000", "105907.915000", "105908.375000", "105908.835000", "105909.295000", "105909.755000", "105910.215000", "105910.675000", "105911.135000", "105911.595000", "105912.055000", "105912.515000", "105912.975000", "105913.435000", "105913.895000", "105914.355000", "105914.815000", "105915.275000", "105915.735000", "105916.195000", "105916.655000", "105917.115000", "105917.575000", "105918.035000", "105918.495000", "105918.955000", "105919.415000", "105919.875000", "105920.335000", "105920.795000", "105921.255000", "105921.715000", "105922.175000", "105922.635000", "105923.095000", "105923.555000", "105924.015000", "105924.475000", "105924.935000", "105925.395000", "105925.855000", "105926.315000", "105926.775000", "105927.235000", "105927.695000", "105928.155000", "105928.615000", "105929.075000", "105929.535000", "105929.995000", "105930.455000", "105930.915000", "105931.375000", "105931.835000", "105932.295000", "105932.755000", "105933.215000", "105933.675000", "105934.135000", "105934.595000", "105935.055000", "105935.515000", "105935.975000", "105936.435000", "105936.895000", "105937.355000", "105937.815000", "105938.275000", "105938.735000", "105939.195000", "105939.655000", "105940.115000", "105940.575000", "105941.035000", "105941.495000", "105941.955000", "105942.415000", "105942.875000", "105943.335000", "105943.795000", "105944.255000", "105944.715000", "105945.175000", "105945.635000", "105946.095000", "105946.555000", "105947.015000", "105947.475000", "105947.935000", "105948.395000", "105948.855000", "105949.315000", "105949.775000", "105950.235000", "105950.695000", "105951.155000", "105951.615000", "105952.075000", "105952.535000", "105952.995000", "105953.455000", "105953.915000", "105954.375000", "105954.835000", "105955.295000", "105955.755000", "105956.215000", "105956.675000", "105957.135000", "105957.595000", "105958.055000", "105958.515000", "105958.975000", "105959.435000", "105959.895000", "110000.355000", "110000.815000", "110001.275000", "110001.735000", "110002.195000", "110002.655000", "110003.115000", "110003.575000", "110004.035000", "110004.495000", "110004.955000", "110005.415000", "110005.875000", "110006.335000", "110006.795000", "110007.255000", "110007.715000", "110008.175000", "110008.635000", "110009.095000", "110009.555000", "110010.015000", "110010.475000", "110010.935000", "110011.395000", "110011.855000", "110012.315000", "110012.775000", "110013.235000", "110013.695000", "110014.155000", "110014.615000", "110015.075000", "110015.535000", "110015.995000", "110016.455000", "110016.915000", "110017.375000", "110017.835000", "110018.295000", "110018.755000", "110019.215000", "110019.675000", "110020.135000", "110020.595000", "110021.055000", "110021.515000", "110021.975000", "110022.435000", "110022.895000", "110023.355000", "110023.815000", "110024.275000", "110024.735000", "110025.195000", "110025.655000", "110026.115000", "110026.575000", "110027.035000", "110027.495000", "110027.955000", "110028.415000", "110028.875000", "110029.335000", "110029.795000", "110030.255000", "110030.715000", "110031.175000", "110031.635000", "110032.095000", "110032.555000", "110033.015000", "110033.475000", "110033.935000", "110034.395000", "110034.855000", "110035.315000", "110035.775000", "110036.235000", "110036.695000", "110037.155000", "110037.615000", "110038.075000", "110038.535000", "110038.995000", "110039.455000", "110039.915000", "110040.375000", "110040.835000", "110041.295000", "110041.755000", "110042.215000"],
