{
  "AcquisitionMatrixPE": 82,
  "AcquisitionNumber": 1,
  "AcquisitionTime": "11:29:53.142500",
  "BandwidthPerPixelPhaseEncode": 24.888,
  "BaseResolution": 82,
  "BodyPartExamined": "BRAIN",
  "ConsistencyInfo": "N4_VE11E_LATEST_20181129",
  "ConversionSoftware": "dcm2niix",
  "ConversionSoftwareVersion": "v1.0.20201102",
  "DerivedVendorReportedEchoSpacing": 0.00049,
  "DeviceSerialNumber": "66112",
  "DwellTime": 2e-06,
  "EchoTime": 0.0272,
  "EchoTrainLength": 82,
  "EffectiveEchoSpacing": 0.00049,
  "FlipAngle": 44,
  "ImageComments": "Unaliased MB8/PE3",
  "ImageOrientationPatientDICOM": [0.999177, -0.0398778, 0.00747922, 0.0396071, 0.998657, 0.0333893],
  "ImageType": [
    "ORIGINAL",
    "PRIMARY",
    "M",
    "MB",
    "ND",
    "NORM",
    "MOSAIC"
],
  "ImagingFrequency": 123.259,
  "InPlanePhaseEncodingDirectionDICOM": "COL",
  "InstitutionAddress": "Maynard 3,Hanover,NH,US,03755",
  "InstitutionName": "Dartmouth College - PBS",
  "InstitutionalDepartmentName": "Department",
  "MRAcquisitionType": "2D",
  "MagneticFieldStrength": 3,
  "Manufacturer": "Siemens",
  "ManufacturersModelName": "Prisma",
  "Modality": "MR",
  "MultibandAccelerationFactor": 8,
  "PartialFourier": 1,
  "PatientPosition": "HFS",
  "PercentPhaseFOV": 100,
  "PercentSampling": 100,
  "PhaseEncodingDirection": "j-",
  "PhaseEncodingSteps": 82,
  "PhaseResolution": 1,
  "PixelBandwidth": 3050,
  "ProcedureStepDescription": "Wager_Wager^1076_spacetop",
  "ProtocolName": "func_run-01_task-social_acq-ap-mb8",
  "PulseSequenceDetails": "%CustomerSeq%\\cmrr_mbep2d_bold",
  "ReceiveCoilActiveElements": "HEA;HEP",
  "ReceiveCoilName": "Head_32",
  "ReconMatrixPE": 82,
  "RepetitionTime": 0.46,
  "SAR": 0.112665,
  "ScanOptions": "FS",
  "ScanningSequence": "EP",
  "SequenceName": "epfid2d1_82",
  "SequenceVariant": "SK\\SS",
  "SeriesDescription": "func_run-01_task-social_acq-ap-mb8",
  "SeriesNumber": 12,
  "ShimSetting": [4204, -7781, -7196, 393, -191, -136, -32, 92],
  "SliceThickness": 2.7,
  "SliceTiming": [0, 0.25, 0.0625, 0.3125, 0.125, 0.3775, 0.1875, 0, 0.25, 0.0625, 0.3125, 0.125, 0.3775, 0.1875, 0, 0.25, 0.0625, 0.3125, 0.125, 0.3775, 0.1875, 0, 0.25, 0.0625, 0.3125, 0.125, 0.3775, 0.1875, 0, 0.25, 0.0625, 0.3125, 0.125, 0.3775, 0.1875, 0, 0.25, 0.0625, 0.3125, 0.125, 0.3775, 0.1875, 0, 0.25, 0.0625, 0.3125, 0.125, 0.3775, 0.1875, 0, 0.25, 0.0625, 0.3125, 0.125, 0.3775, 0.1875],
  "SoftwareVersions": "syngo MR E11",
  "SpacingBetweenSlices": 2.7,
  "StationName": "AWP66112",
  "TaskName": "social",
  "TotalReadoutTime": 0.03969,
  "TxRefAmp": 266.607,
  "WipMemBlock": "180bcb39-5dad-4f16-b4c9-454732b99c32||Sequence: R016 ve11e/master r/434b28f1; Aug  7 2019 18:53:46 by eja",
  "dcmmeta_affine": [
    [-2.680717706680298, 0.10626296699047089, 0.023761793971061707, 107.3648910522461],
    [0.10698911547660828, 2.6793246269226074, 0.08927701413631439, -109.53044128417969],
    [0.020066192373633385, -0.08958100527524948, 2.6984190940856934, -57.954261779785156],
    [0.0, 0.0, 0.0, 1.0]
],
  "dcmmeta_reorient_transform": [
    [0.0, -1.0, 0.0, 81.0],
    [1.0, 0.0, 0.0, 0.0],
    [0.0, 0.0, 1.0, 0.0],
    [0.0, 0.0, 0.0, 1.0]
],
  "dcmmeta_shape": [82, 82, 56, 872],
  "dcmmeta_slice_dim": 2,
  "dcmmeta_version": 0.6,
  "global": {
    "const": {
      "AccessionNumber": "A004460",
      "AcquisitionMatrix": [82, 0, 0, 82],
      "AngioFlag": "N",
      "BitsAllocated": 16,
      "BitsStored": 16,
      "BodyPartExamined": "BRAIN",
      "Columns": 656,
      "EchoNumbers": 1,
      "EchoTime": 27.2,
      "EchoTrainLength": 82,
      "FlipAngle": 44.0,
      "HighBit": 15,
      "ImageOrientationPatient": [0.999176573705, -0.0398777616096, 0.0074792170812, 0.03960710617041, 0.99865731503581, 0.03338928370402],
      "ImagePositionPatient": [-915.83564682311, -845.75512492651, -96.679068077996],
      "ImageType": [
        "ORIGINAL",
        "PRIMARY",
        "M",
        "MB",
        "ND",
        "NORM",
        "MOSAIC"
],
      "ImagedNucleus": "1H",
      "ImagingFrequency": 123.259042,
      "InPlanePhaseEncodingDirection": "COL",
      "MRAcquisitionType": "2D",
      "MagneticFieldStrength": 3.0,
      "Manufacturer": "SIEMENS",
      "ManufacturerModelName": "Prisma",
      "Modality": "MR",
      "NumberOfAverages": 1.0,
      "NumberOfPhaseEncodingSteps": 82,
      "PercentPhaseFieldOfView": 100.0,
      "PercentSampling": 100.0,
      "PerformedProcedureStepStartTime": "105328.063000",
      "PhotometricInterpretation": "MONOCHROME2",
      "PixelBandwidth": 3050.0,
      "PixelRepresentation": 0,
      "PixelSpacing": [2.6829268932343, 2.6829268932343],
      "ProtocolName": "func_run-01_task-social_acq-ap-mb8",
      "RepetitionTime": 460.0,
      "Rows": 656,
      "SAR": 0.11266464437134,
      "SamplesPerPixel": 1,
      "ScanOptions": "FS",
      "ScanningSequence": "EP",
      "SequenceName": "epfid2d1_82",
      "SequenceVariant": [
        "SK",
        "SS"
],
      "SeriesDescription": "func_run-01_task-social_acq-ap-mb8",
      "SeriesNumber": 12,
      "SeriesTime": "113013.932000",
      "SliceLocation": -60.597127129771,
      "SliceThickness": 2.7000000476837,
      "SmallestImagePixelValue": 0,
      "SoftwareVersions": "syngo MR E11",
      "SpacingBetweenSlices": 2.7000000012354,
      "SpecificCharacterSet": "ISO_IR 100",
      "StudyID": "1",
      "StudyTime": "105327.998000",
      "TransmitCoilName": "Body",
      "VariableFlipAngleFlag": "N",
      "WindowCenterWidthExplanation": "Algo1"
    },
    "slices": {}
  },
  "time": {
    "samples": {
      "AcquisitionNumber": [1, 2, 3, 4, 5, 6, 7, 8, 9, 10, 11, 12, 13, 14, 15, 16, 17, 18, 19, 20, 21, 22, 23, 24, 25, 26, 27, 28, 29, 30, 31, 32, 33, 34, 35, 36, 37, 38, 39, 40, 41, 42, 43, 44, 45, 46, 47, 48, 49, 50, 51, 52, 53, 54, 55, 56, 57, 58, 59, 60, 61, 62, 63, 64, 65, 66, 67, 68, 69, 70, 71, 72, 73, 74, 75, 76, 77, 78, 79, 80, 81, 82, 83, 84, 85, 86, 87, 88, 89, 90, 91, 92, 93, 94, 95, 96, 97, 98, 99, 100, 101, 102, 103, 104, 105, 106, 107, 108, 109, 110, 111, 112, 113, 114, 115, 116, 117, 118, 119, 120, 121, 122, 123, 124, 125, 126, 127, 128, 129, 130, 131, 132, 133, 134, 135, 136, 137, 138, 139, 140, 141, 142, 143, 144, 145, 146, 147, 148, 149, 150, 151, 152, 153, 154, 155, 156, 157, 158, 159, 160, 161, 162, 163, 164, 165, 166, 167, 168, 169, 170, 171, 172, 173, 174, 175, 176, 177, 178, 179, 180, 181, 182, 183, 184, 185, 186, 187, 188, 189, 190, 191, 192, 193, 194, 195, 196, 197, 198, 199, 200, 201, 202, 203, 204, 205, 206, 207, 208, 209, 210, 211, 212, 213, 214, 215, 216, 217, 218, 219, 220, 221, 222, 223, 224, 225, 226, 227, 228, 229, 230, 231, 232, 233, 234, 235, 236, 237, 238, 239, 240, 241, 242, 243, 244, 245, 246, 247, 248, 249, 250, 251, 252, 253, 254, 255, 256, 257, 258, 259, 260, 261, 262, 263, 264, 265, 266, 267, 268, 269, 270, 271, 272, 273, 274, 275, 276, 277, 278, 279, 280, 281, 282, 283, 284, 285, 286, 287, 288, 289, 290, 291, 292, 293, 294, 295, 296, 297, 298, 299, 300, 301, 302, 303, 304, 305, 306, 307, 308, 309, 310, 311, 312, 313, 314, 315, 316, 317, 318, 319, 320, 321, 322, 323, 324, 325, 326, 327, 328, 329, 330, 331, 332, 333, 334, 335, 336, 337, 338, 339, 340, 341, 342, 343, 344, 345, 346, 347, 348, 349, 350, 351, 352, 353, 354, 355, 356, 357, 358, 359, 360, 361, 362, 363, 364, 365, 366, 367, 368, 369, 370, 371, 372, 373, 374, 375, 376, 377, 378, 379, 380, 381, 382, 383, 384, 385, 386, 387, 388, 389, 390, 391, 392, 393, 394, 395, 396, 397, 398, 399, 400, 401, 402, 403, 404, 405, 406, 407, 408, 409, 410, 411, 412, 413, 414, 415, 416, 417, 418, 419, 420, 421, 422, 423, 424, 425, 426, 427, 428, 429, 430, 431, 432, 433, 434, 435, 436, 437, 438, 439, 440, 441, 442, 443, 444, 445, 446, 447, 448, 449, 450, 451, 452, 453, 454, 455, 456, 457, 458, 459, 460, 461, 462, 463, 464, 465, 466, 467, 468, 469, 470, 471, 472, 473, 474, 475, 476, 477, 478, 479, 480, 481, 482, 483, 484, 485, 486, 487, 488, 489, 490, 491, 492, 493, 494, 495, 496, 497, 498, 499, 500, 501, 502, 503, 504, 505, 506, 507, 508, 509, 510, 511, 512, 513, 514, 515, 516, 517, 518, 519, 520, 521, 522, 523, 524, 525, 526, 527, 528, 529, 530, 531, 532, 533, 534, 535, 536, 537, 538, 539, 540, 541, 542, 543, 544, 545, 546, 547, 548, 549, 550, 551, 552, 553, 554, 555, 556, 557, 558, 559, 560, 561, 562, 563, 564, 565, 566, 567, 568, 569, 570, 571, 572, 573, 574, 575, 576, 577, 578, 579, 580, 581, 582, 583, 584, 585, 586, 587, 588, 589, 590, 591, 592, 593, 594, 595, 596, 597, 598, 599, 600, 601, 602, 603, 604, 605, 606, 607, 608, 609, 610, 611, 612, 613, 614, 615, 616, 617, 618, 619, 620, 621, 622, 623, 624, 625, 626, 627, 628, 629, 630, 631, 632, 633, 634, 635, 636, 637, 638, 639, 640, 641, 642, 643, 644, 645, 646, 647, 648, 649, 650, 651, 652, 653, 654, 655, 656, 657, 658, 659, 660, 661, 662, 663, 664, 665, 666, 667, 668, 669, 670, 671, 672, 673, 674, 675, 676, 677, 678, 679, 680, 681, 682, 683, 684, 685, 686, 687, 688, 689, 690, 691, 692, 693, 694, 695, 696, 697, 698, 699, 700, 701, 702, 703, 704, 705, 706, 707, 708, 709, 710, 711, 712, 713, 714, 715, 716, 717, 718, 719, 720, 721, 722, 723, 724, 725, 726, 727, 728, 729, 730, 731, 732, 733, 734, 735, 736, 737, 738, 739, 740, 741, 742, 743, 744, 745, 746, 747, 748, 749, 750, 751, 752, 753, 754, 755, 756, 757, 758, 759, 760, 761, 762, 763, 764, 765, 766, 767, 768, 769, 770, 771, 772, 773, 774, 775, 776, 777, 778, 779, 780, 781, 782, 783, 784, 785, 786, 787, 788, 789, 790, 791, 792, 793, 794, 795, 796, 797, 798, 799, 800, 801, 802, 803, 804, 805, 806, 807, 808, 809, 810, 811, 812, 813, 814, 815, 816, 817, 818, 819, 820, 821, 822, 823, 824, 825, 826, 827, 828, 829, 830, 831, 832, 833, 834, 835, 836, 837, 838, 839, 840, 841, 842, 843, 844, 845, 846, 847, 848, 849, 850, 851, 852, 853, 854, 855, 856, 857, 858, 859, 860, 861, 862, 863, 864, 865, 866, 867, 868, 869, 870, 871, 872],
      "AcquisitionTime": ["112953.142500", "112953.602500", "112954.062500", "112954.522500", "112954.982500", "112955.442500", "112955.902500", "112956.362500", "112956.822500", "112957.282500", "112957.742500", "112958.202500", "112958.662500", "112959.122500", "112959.582500", "113000.042500", "113000.502500", "113000.962500", "113001.422500", "113001.882500", "113002.342500", "113002.802500", "113003.262500", "113003.722500", "113004.182500", "113004.642500", "113005.102500", "113005.562500", "113006.022500", "113006.482500", "113006.942500", "113007.402500", "113007.862500", "113008.322500", "113008.782500", "113009.242500", "113009.702500", "113010.162500", "113010.622500", "113011.082500", "113011.542500", "113012.002500", "113012.462500", "113012.922500", "113013.382500", "113013.842500", "113014.302500", "113014.762500", "113015.222500", "113015.682500", "113016.142500", "113016.602500", "113017.062500", "113017.522500", "113017.982500", "113018.442500", "113018.902500", "113019.362500", "113019.822500", "113020.282500", "113020.742500", "113021.202500", "113021.662500", "113022.122500", "113022.582500", "113023.042500", "113023.502500", "113023.962500", "113024.422500", "113024.882500", "113025.342500", "113025.802500", "113026.262500", "113026.722500", "113027.182500", "113027.642500", "113028.102500", "113028.562500", "113029.022500", "113029.482500", "113029.942500", "113030.402500", "113030.862500", "113031.322500", "113031.782500", "113032.242500", "113032.702500", "113033.162500", "113033.622500", "113034.082500", "113034.542500", "113035.002500", "113035.462500", "113035.922500", "113036.382500", "113036.842500", "113037.302500", "113037.762500", "113038.222500", "113038.682500", "113039.142500", "113039.602500", "113040.062500", "113040.522500", "113040.982500", "113041.442500", "113041.902500", "113042.362500", "113042.822500", "113043.282500", "113043.742500", "113044.202500", "113044.662500", "113045.122500", "113045.582500", "113046.042500", "113046.502500", "113046.962500", "113047.422500", "113047.882500", "113048.342500", "113048.802500", "113049.262500", "113049.722500", "113050.182500", "113050.642500", "113051.102500", "113051.562500", "113052.022500", "113052.482500", "113052.942500", "113053.402500", "113053.862500", "113054.322500", "113054.782500", "113055.242500", "113055.702500", "113056.162500", "113056.622500", "113057.082500", "113057.542500", "113058.002500", "113058.462500", "113058.922500", "113059.382500", "113059.842500", "113100.302500", "113100.762500", "113101.222500", "113101.682500", "113102.142500", "113102.602500", "113103.062500", "113103.522500", "113103.982500", "113104.442500", "113104.902500", "113105.362500", "113105.822500", "113106.282500", "113106.742500", "113107.202500", "113107.662500", "113108.122500", "113108.582500", "113109.042500", "113109.502500", "113109.962500", "113110.422500", "113110.882500", "113111.342500", "113111.802500", "113112.262500", "113112.722500", "113113.182500", "113113.642500", "113114.102500", "113114.562500", "113115.022500", "113115.482500", "113115.942500", "113116.402500", "113116.862500", "113117.322500", "113117.782500", "113118.242500", "113118.702500", "113119.162500", "113119.622500", "113120.082500", "113120.542500", "113121.002500", "113121.462500", "113121.922500", "113122.382500", "113122.842500", "113123.302500", "113123.762500", "113124.222500", "113124.682500", "113125.142500", "113125.602500", "113126.062500", "113126.522500", "113126.982500", "113127.442500", "113127.902500", "113128.362500", "113128.822500", "113129.282500", "113129.742500", "113130.202500", "113130.662500", "113131.122500", "113131.582500", "113132.042500", "113132.502500", "113132.962500", "113133.422500", "113133.882500", "113134.342500", "113134.802500", "113135.262500", "113135.722500", "113136.182500", "113136.642500", "113137.102500", "113137.562500", "113138.022500", "113138.482500", "113138.942500", "113139.402500", "113139.862500", "113140.322500", "113140.782500", "113141.242500", "113141.702500", "113142.162500", "113142.622500", "113143.082500", "113143.542500", "113144.002500", "113144.462500", "113144.922500", "113145.382500", "113145.842500", "113146.302500", "113146.762500", "113147.222500", "113147.682500", "113148.142500", "113148.602500", "113149.062500", "113149.522500", "113149.982500", "113150.442500", "113150.902500", "113151.362500", "113151.822500", "113152.282500", "113152.742500", "113153.202500", "113153.662500", "113154.122500", "113154.582500", "113155.042500", "113155.502500", "113155.962500", "113156.422500", "113156.882500", "113157.342500", "113157.802500", "113158.262500", "113158.722500", "113159.182500", "113159.642500", "113200.102500", "113200.562500", "113201.022500", "113201.482500", "113201.942500", "113202.402500", "113202.862500", "113203.322500", "113203.782500", "113204.242500", "113204.702500", "113205.162500", "113205.622500", "113206.082500", "113206.542500", "113207.002500", "113207.462500", "113207.922500", "113208.382500", "113208.842500", "113209.302500", "113209.762500", "113210.222500", "113210.682500", "113211.142500", "113211.602500", "113212.062500", "113212.522500", "113212.982500", "113213.442500", "113213.902500", "113214.362500", "113214.822500", "113215.282500", "113215.742500", "113216.202500", "113216.662500", "113217.122500", "113217.582500", "113218.042500", "113218.502500", "113218.962500", "113219.422500", "113219.882500", "113220.342500", "113220.802500", "113221.262500", "113221.722500", "113222.182500", "113222.642500", "113223.102500", "113223.562500", "113224.022500", "113224.482500", "113224.942500", "113225.402500", "113225.862500", "113226.322500", "113226.782500", "113227.242500", "113227.702500", "113228.162500", "113228.622500", "113229.082500", "113229.542500", "113230.002500", "113230.462500", "113230.922500", "113231.382500", "113231.842500", "113232.302500", "113232.762500", "113233.222500", "113233.682500", "113234.142500", "113234.602500", "113235.062500", "113235.522500", "113235.982500", "113236.442500", "113236.902500", "113237.362500", "113237.822500", "113238.282500", "113238.742500", "113239.202500", "113239.662500", "113240.122500", "113240.582500", "113241.042500", "113241.502500", "113241.962500", "113242.422500", "113242.882500", "113243.342500", "113243.802500", "113244.262500", "113244.722500", "113245.182500", "113245.642500", "113246.102500", "113246.562500", "113247.022500", "113247.482500", "113247.942500", "113248.402500", "113248.862500", "113249.322500", "113249.782500", "113250.242500", "113250.702500", "113251.162500", "113251.622500", "113252.082500", "113252.542500", "113253.002500", "113253.462500", "113253.922500", "113254.382500", "113254.842500", "113255.302500", "113255.762500", "113256.222500", "113256.682500", "113257.142500", "113257.602500", "113258.062500", "113258.522500", "113258.982500", "113259.442500", "113259.902500", "113300.362500", "113300.822500", "113301.282500", "113301.742500", "113302.202500", "113302.662500", "113303.122500", "113303.582500", "113304.042500", "113304.502500", "113304.962500", "113305.422500", "113305.882500", "113306.342500", "113306.802500", "113307.262500", "113307.722500", "113308.182500", "113308.642500", "113309.102500", "113309.562500", "113310.022500", "113310.482500", "113310.942500", "113311.402500", "113311.862500", "113312.322500", "113312.782500", "113313.242500", "113313.702500", "113314.162500", "113314.622500", "113315.082500", "113315.542500", "113316.002500", "113316.462500", "113316.922500", "113317.382500", "113317.842500", "113318.302500", "113318.762500", "113319.222500", "113319.682500", "113320.142500", "113320.602500", "113321.062500", "113321.522500", "113321.982500", "113322.442500", "113322.902500", "113323.362500", "113323.822500", "113324.282500", "113324.742500", "113325.202500", "113325.662500", "113326.122500", "113326.582500", "113327.042500", "113327.502500", "113327.962500", "113328.422500", "113328.882500", "113329.342500", "113329.802500", "113330.262500", "113330.722500", "113331.182500", "113331.642500", "113332.102500", "113332.562500", "113333.022500", "113333.482500", "113333.942500", "113334.402500", "113334.862500", "113335.322500", "113335.782500", "113336.242500", "113336.702500", "113337.162500", "113337.622500", "113338.082500", "113338.542500", "113339.002500", "113339.462500", "113339.922500", "113340.382500", "113340.842500", "113341.302500", "113341.762500", "113342.222500", "113342.682500", "113343.142500", "113343.602500", "113344.062500", "113344.522500", "113344.982500", "113345.442500", "113345.902500", "113346.362500", "113346.822500", "113347.282500", "113347.742500", "113348.202500", "113348.662500", "113349.122500", "113349.582500", "113350.042500", "113350.502500", "113350.962500", "113351.422500", "113351.882500", "113352.342500", "113352.802500", "113353.262500", "113353.722500", "113354.182500", "113354.642500", "113355.102500", "113355.562500", "113356.022500", "113356.482500", "113356.942500", "113357.402500", "113357.862500", "113358.322500", "113358.782500", "113359.242500", "113359.702500", "113400.162500", "113400.622500", "113401.082500", "113401.542500", "113402.002500", "113402.462500", "113402.922500", "113403.382500", "113403.842500", "113404.302500", "113404.762500", "113405.222500", "113405.682500", "113406.142500", "113406.602500", "113407.062500", "113407.522500", "113407.982500", "113408.442500", "113408.902500", "113409.362500", "113409.822500", "113410.282500", "113410.742500", "113411.202500", "113411.662500", "113412.122500", "113412.582500", "113413.042500", "113413.502500", "113413.962500", "113414.422500", "113414.882500", "113415.342500", "113415.802500", "113416.262500", "113416.722500", "113417.182500", "113417.642500", "113418.102500", "113418.562500", "113419.022500", "113419.482500", "113419.942500", "113420.402500", "113420.862500", "113421.322500", "113421.782500", "113422.242500", "113422.702500", "113423.162500", "113423.622500", "113424.082500", "113424.542500", "113425.002500", "113425.462500", "113425.922500", "113426.382500", "113426.842500", "113427.302500", "113427.762500", "113428.222500", "113428.682500", "113429.142500", "113429.602500", "113430.062500", "113430.522500", "113430.982500", "113431.442500", "113431.902500", "113432.362500", "113432.822500", "113433.282500", "113433.742500", "113434.202500", "113434.662500", "113435.122500", "113435.582500", "113436.042500", "113436.502500", "113436.962500", "113437.422500", "113437.882500", "113438.342500", "113438.802500", "113439.262500", "113439.722500", "113440.182500", "113440.642500", "113441.102500", "113441.562500", "113442.022500", "113442.482500", "113442.942500", "113443.402500", "113443.862500", "113444.322500", "113444.782500", "113445.242500", "113445.702500", "113446.162500", "113446.622500", "113447.082500", "113447.542500", "113448.002500", "113448.462500", "113448.922500", "113449.382500", "113449.842500", "113450.302500", "113450.762500", "113451.222500", "113451.682500", "113452.142500", "113452.602500", "113453.062500", "113453.522500", "113453.982500", "113454.442500", "113454.902500", "113455.362500", "113455.822500", "113456.282500", "113456.742500", "113457.202500", "113457.662500", "113458.122500", "113458.582500", "113459.042500", "113459.502500", "113459.962500", "113500.422500", "113500.882500", "113501.342500", "113501.802500", "113502.262500", "113502.722500", "113503.182500", "113503.642500", "113504.102500", "113504.562500", "113505.022500", "113505.482500", "113505.942500", "113506.402500", "113506.862500", "113507.322500", "113507.782500", "113508.242500", "113508.702500", "113509.162500", "113509.622500", "113510.082500", "113510.542500", "113511.002500", "113511.462500", "113511.922500", "113512.382500", "113512.842500", "113513.302500", "113513.762500", "113514.222500", "113514.682500", "113515.142500", "113515.602500", "113516.062500", "113516.522500", "113516.982500", "113517.442500", "113517.902500", "113518.362500", "113518.822500", "113519.282500", "113519.742500", "113520.202500", "113520.662500", "113521.122500", "113521.582500", "113522.042500", "113522.502500", "113522.962500", "113523.422500", "113523.882500", "113524.342500", "113524.802500", "113525.262500", "113525.722500", "113526.182500", "113526.642500", "113527.102500", "113527.562500", "113528.022500", "113528.482500", "113528.942500", "113529.402500", "113529.862500", "113530.322500", "113530.782500", "113531.242500", "113531.702500", "113532.162500", "113532.622500", "113533.082500", "113533.542500", "113534.002500", "113534.462500", "113534.922500", "113535.382500", "113535.842500", "113536.302500", "113536.762500", "113537.222500", "113537.682500", "113538.142500", "113538.602500", "113539.062500", "113539.522500", "113539.982500", "113540.442500", "113540.902500", "113541.362500", "113541.822500", "113542.282500", "113542.742500", "113543.202500", "113543.662500", "113544.122500", "113544.582500", "113545.042500", "113545.502500", "113545.962500", "113546.422500", "113546.882500", "113547.342500", "113547.802500", "113548.262500", "113548.722500", "113549.182500", "113549.642500", "113550.102500", "113550.562500", "113551.022500", "113551.482500", "113551.942500", "113552.402500", "113552.862500", "113553.322500", "113553.782500", "113554.242500", "113554.702500", "113555.162500", "113555.622500", "113556.082500", "113556.542500", "113557.002500", "113557.462500", "113557.922500", "113558.382500", "113558.842500", "113559.302500", "113559.762500", "113600.222500", "113600.682500", "113601.142500", "113601.602500", "113602.062500", "113602.522500", "113602.982500", "113603.442500", "113603.902500", "113604.362500", "113604.822500", "113605.282500", "113605.742500", "113606.202500", "113606.662500", "113607.122500", "113607.582500", "113608.042500", "113608.502500", "113608.962500", "113609.422500", "113609.882500", "113610.342500", "113610.802500", "113611.262500", "113611.722500", "113612.182500", "113612.642500", "113613.102500", "113613.562500", "113614.022500", "113614.482500", "113614.942500", "113615.402500", "113615.862500", "113616.322500", "113616.782500", "113617.242500", "113617.702500", "113618.162500", "113618.622500", "113619.082500", "113619.542500", "113620.002500", "113620.462500", "113620.922500", "113621.382500", "113621.842500", "113622.302500", "113622.762500", "113623.222500", "113623.682500", "113624.142500", "113624.602500", "113625.062500", "113625.522500", "113625.982500", "113626.442500", "113626.902500", "113627.362500", "113627.822500", "113628.282500", "113628.742500", "113629.202500", "113629.662500", "113630.122500", "113630.582500", "113631.042500", "113631.502500", "113631.962500", "113632.422500", "113632.882500", "113633.342500", "113633.802500"],
