{
  "AcquisitionMatrixPE": 82,
  "AcquisitionNumber": 1,
  "AcquisitionTime": "11:51:16.352500",
  "BandwidthPerPixelPhaseEncode": 24.888,
  "BaseResolution": 82,
  "BodyPartExamined": "BRAIN",
  "ConsistencyInfo": "N4_VE11E_LATEST_20181129",
  "ConversionSoftware": "dcm2niix",
  "ConversionSoftwareVersion": "v1.0.20201102",
  "DerivedVendorReportedEchoSpacing": 0.00049,
  "DeviceSerialNumber": "66112",
  "DwellTime": 2e-06,
  "EchoTime": 0.0272,
  "EchoTrainLength": 82,
  "EffectiveEchoSpacing": 0.00049,
  "FlipAngle": 44,
  "ImageComments": "Unaliased MB8/PE3",
  "ImageOrientationPatientDICOM": [0.999177, -0.0398778, 0.00747922, 0.0396071, 0.998657, 0.0333893],
  "ImageType": [
    "ORIGINAL",
    "PRIMARY",
    "M",
    "MB",
    "ND",
    "NORM",
    "MOSAIC"
],
  "ImagingFrequency": 123.259,
  "InPlanePhaseEncodingDirectionDICOM": "COL",
  "InstitutionAddress": "Maynard 3,Hanover,NH,US,03755",
  "InstitutionName": "Dartmouth College - PBS",
  "InstitutionalDepartmentName": "Department",
  "MRAcquisitionType": "2D",
  "MagneticFieldStrength": 3,
  "Manufacturer": "Siemens",
  "ManufacturersModelName": "Prisma",
  "Modality": "MR",
  "MultibandAccelerationFactor": 8,
  "PartialFourier": 1,
  "PatientPosition": "HFS",
  "PercentPhaseFOV": 100,
  "PercentSampling": 100,
  "PhaseEncodingDirection": "j-",
  "PhaseEncodingSteps": 82,
  "PhaseResolution": 1,
  "PixelBandwidth": 3050,
  "ProcedureStepDescription": "Wager_Wager^1076_spacetop",
  "ProtocolName": "func_run-04_task-social_acq-ap-mb8",
  "PulseSequenceDetails": "%CustomerSeq%\\cmrr_mbep2d_bold",
  "ReceiveCoilActiveElements": "HEA;HEP",
  "ReceiveCoilName": "Head_32",
  "ReconMatrixPE": 82,
  "RepetitionTime": 0.46,
  "SAR": 0.112665,
  "ScanOptions": "FS",
  "ScanningSequence": "EP",
  "SequenceName": "epfid2d1_82",
  "SequenceVariant": "SK\\SS",
  "SeriesDescription": "func_run-04_task-social_acq-ap-mb8",
  "SeriesNumber": 18,
  "ShimSetting": [4204, -7781, -7196, 393, -191, -136, -32, 92],
  "SliceThickness": 2.7,
  "SliceTiming": [0, 0.2525, 0.065, 0.315, 0.1275, 0.3775, 0.19, 0, 0.2525, 0.065, 0.315, 0.1275, 0.3775, 0.19, 0, 0.2525, 0.065, 0.315, 0.1275, 0.3775, 0.19, 0, 0.2525, 0.065, 0.315, 0.1275, 0.3775, 0.19, 0, 0.2525, 0.065, 0.315, 0.1275, 0.3775, 0.19, 0, 0.2525, 0.065, 0.315, 0.1275, 0.3775, 0.19, 0, 0.2525, 0.065, 0.315, 0.1275, 0.3775, 0.19, 0, 0.2525, 0.065, 0.315, 0.1275, 0.3775, 0.19],
  "SoftwareVersions": "syngo MR E11",
  "SpacingBetweenSlices": 2.7,
  "StationName": "AWP66112",
  "TaskName": "social",
  "TotalReadoutTime": 0.03969,
  "TxRefAmp": 266.607,
  "WipMemBlock": "0bd2fe03-d3bf-4e24-a9d7-1374ed864389||Sequence: R016 ve11e/master r/434b28f1; Aug  7 2019 18:53:46 by eja",
  "dcmmeta_affine": [
    [-2.680717706680298, 0.10626296699047089, 0.023761793971061707, 107.3648910522461],
    [0.10698911547660828, 2.6793246269226074, 0.08927701413631439, -109.53044128417969],
    [0.020066192373633385, -0.08958100527524948, 2.6984190940856934, -57.954261779785156],
    [0.0, 0.0, 0.0, 1.0]
],
  "dcmmeta_reorient_transform": [
    [0.0, -1.0, 0.0, 81.0],
    [1.0, 0.0, 0.0, 0.0],
    [0.0, 0.0, 1.0, 0.0],
    [0.0, 0.0, 0.0, 1.0]
],
  "dcmmeta_shape": [82, 82, 56, 872],
  "dcmmeta_slice_dim": 2,
  "dcmmeta_version": 0.6,
  "global": {
    "const": {
      "AccessionNumber": "A004460",
      "AcquisitionMatrix": [82, 0, 0, 82],
      "AngioFlag": "N",
      "BitsAllocated": 16,
      "BitsStored": 16,
      "BodyPartExamined": "BRAIN",
      "Columns": 656,
      "EchoNumbers": 1,
      "EchoTime": 27.2,
      "EchoTrainLength": 82,
      "FlipAngle": 44.0,
      "HighBit": 15,
      "ImageOrientationPatient": [0.999176573705, -0.0398777616096, 0.0074792170812, 0.03960710617041, 0.99865731503581, 0.03338928370402],
      "ImagePositionPatient": [-915.83564682311, -845.75512492651, -96.679068077996],
      "ImageType": [
        "ORIGINAL",
        "PRIMARY",
        "M",
        "MB",
        "ND",
        "NORM",
        "MOSAIC"
],
      "ImagedNucleus": "1H",
      "ImagingFrequency": 123.259048,
      "InPlanePhaseEncodingDirection": "COL",
      "MRAcquisitionType": "2D",
      "MagneticFieldStrength": 3.0,
      "Manufacturer": "SIEMENS",
      "ManufacturerModelName": "Prisma",
      "Modality": "MR",
      "NumberOfAverages": 1.0,
      "NumberOfPhaseEncodingSteps": 82,
      "PercentPhaseFieldOfView": 100.0,
      "PercentSampling": 100.0,
      "PerformedProcedureStepStartTime": "105328.063000",
      "PhotometricInterpretation": "MONOCHROME2",
      "PixelBandwidth": 3050.0,
      "PixelRepresentation": 0,
      "PixelSpacing": [2.6829268932343, 2.6829268932343],
      "ProtocolName": "func_run-04_task-social_acq-ap-mb8",
      "RepetitionTime": 460.0,
      "Rows": 656,
      "SAR": 0.11266464437134,
      "SamplesPerPixel": 1,
      "ScanOptions": "FS",
      "ScanningSequence": "EP",
      "SequenceName": "epfid2d1_82",
      "SequenceVariant": [
        "SK",
        "SS"
],
      "SeriesDescription": "func_run-04_task-social_acq-ap-mb8",
      "SeriesNumber": 18,
      "SeriesTime": "115133.928000",
      "SliceLocation": -60.597127129771,
      "SliceThickness": 2.7000000476837,
      "SmallestImagePixelValue": 0,
      "SoftwareVersions": "syngo MR E11",
      "SpacingBetweenSlices": 2.7000000012354,
      "SpecificCharacterSet": "ISO_IR 100",
      "StudyID": "1",
      "StudyTime": "105327.998000",
      "TransmitCoilName": "Body",
      "VariableFlipAngleFlag": "N",
      "WindowCenterWidthExplanation": "Algo1"
    },
    "slices": {}
  },
  "time": {
    "samples": {
      "AcquisitionNumber": [1, 2, 3, 4, 5, 6, 7, 8, 9, 10, 11, 12, 13, 14, 15, 16, 17, 18, 19, 20, 21, 22, 23, 24, 25, 26, 27, 28, 29, 30, 31, 32, 33, 34, 35, 36, 37, 38, 39, 40, 41, 42, 43, 44, 45, 46, 47, 48, 49, 50, 51, 52, 53, 54, 55, 56, 57, 58, 59, 60, 61, 62, 63, 64, 65, 66, 67, 68, 69, 70, 71, 72, 73, 74, 75, 76, 77, 78, 79, 80, 81, 82, 83, 84, 85, 86, 87, 88, 89, 90, 91, 92, 93, 94, 95, 96, 97, 98, 99, 100, 101, 102, 103, 104, 105, 106, 107, 108, 109, 110, 111, 112, 113, 114, 115, 116, 117, 118, 119, 120, 121, 122, 123, 124, 125, 126, 127, 128, 129, 130, 131, 132, 133, 134, 135, 136, 137, 138, 139, 140, 141, 142, 143, 144, 145, 146, 147, 148, 149, 150, 151, 152, 153, 154, 155, 156, 157, 158, 159, 160, 161, 162, 163, 164, 165, 166, 167, 168, 169, 170, 171, 172, 173, 174, 175, 176, 177, 178, 179, 180, 181, 182, 183, 184, 185, 186, 187, 188, 189, 190, 191, 192, 193, 194, 195, 196, 197, 198, 199, 200, 201, 202, 203, 204, 205, 206, 207, 208, 209, 210, 211, 212, 213, 214, 215, 216, 217, 218, 219, 220, 221, 222, 223, 224, 225, 226, 227, 228, 229, 230, 231, 232, 233, 234, 235, 236, 237, 238, 239, 240, 241, 242, 243, 244, 245, 246, 247, 248, 249, 250, 251, 252, 253, 254, 255, 256, 257, 258, 259, 260, 261, 262, 263, 264, 265, 266, 267, 268, 269, 270, 271, 272, 273, 274, 275, 276, 277, 278, 279, 280, 281, 282, 283, 284, 285, 286, 287, 288, 289, 290, 291, 292, 293, 294, 295, 296, 297, 298, 299, 300, 301, 302, 303, 304, 305, 306, 307, 308, 309, 310, 311, 312, 313, 314, 315, 316, 317, 318, 319, 320, 321, 322, 323, 324, 325, 326, 327, 328, 329, 330, 331, 332, 333, 334, 335, 336, 337, 338, 339, 340, 341, 342, 343, 344, 345, 346, 347, 348, 349, 350, 351, 352, 353, 354, 355, 356, 357, 358, 359, 360, 361, 362, 363, 364, 365, 366, 367, 368, 369, 370, 371, 372, 373, 374, 375, 376, 377, 378, 379, 380, 381, 382, 383, 384, 385, 386, 387, 388, 389, 390, 391, 392, 393, 394, 395, 396, 397, 398, 399, 400, 401, 402, 403, 404, 405, 406, 407, 408, 409, 410, 411, 412, 413, 414, 415, 416, 417, 418, 419, 420, 421, 422, 423, 424, 425, 426, 427, 428, 429, 430, 431, 432, 433, 434, 435, 436, 437, 438, 439, 440, 441, 442, 443, 444, 445, 446, 447, 448, 449, 450, 451, 452, 453, 454, 455, 456, 457, 458, 459, 460, 461, 462, 463, 464, 465, 466, 467, 468, 469, 470, 471, 472, 473, 474, 475, 476, 477, 478, 479, 480, 481, 482, 483, 484, 485, 486, 487, 488, 489, 490, 491, 492, 493, 494, 495, 496, 497, 498, 499, 500, 501, 502, 503, 504, 505, 506, 507, 508, 509, 510, 511, 512, 513, 514, 515, 516, 517, 518, 519, 520, 521, 522, 523, 524, 525, 526, 527, 528, 529, 530, 531, 532, 533, 534, 535, 536, 537, 538, 539, 540, 541, 542, 543, 544, 545, 546, 547, 548, 549, 550, 551, 552, 553, 554, 555, 556, 557, 558, 559, 560, 561, 562, 563, 564, 565, 566, 567, 568, 569, 570, 571, 572, 573, 574, 575, 576, 577, 578, 579, 580, 581, 582, 583, 584, 585, 586, 587, 588, 589, 590, 591, 592, 593, 594, 595, 596, 597, 598, 599, 600, 601, 602, 603, 604, 605, 606, 607, 608, 609, 610, 611, 612, 613, 614, 615, 616, 617, 618, 619, 620, 621, 622, 623, 624, 625, 626, 627, 628, 629, 630, 631, 632, 633, 634, 635, 636, 637, 638, 639, 640, 641, 642, 643, 644, 645, 646, 647, 648, 649, 650, 651, 652, 653, 654, 655, 656, 657, 658, 659, 660, 661, 662, 663, 664, 665, 666, 667, 668, 669, 670, 671, 672, 673, 674, 675, 676, 677, 678, 679, 680, 681, 682, 683, 684, 685, 686, 687, 688, 689, 690, 691, 692, 693, 694, 695, 696, 697, 698, 699, 700, 701, 702, 703, 704, 705, 706, 707, 708, 709, 710, 711, 712, 713, 714, 715, 716, 717, 718, 719, 720, 721, 722, 723, 724, 725, 726, 727, 728, 729, 730, 731, 732, 733, 734, 735, 736, 737, 738, 739, 740, 741, 742, 743, 744, 745, 746, 747, 748, 749, 750, 751, 752, 753, 754, 755, 756, 757, 758, 759, 760, 761, 762, 763, 764, 765, 766, 767, 768, 769, 770, 771, 772, 773, 774, 775, 776, 777, 778, 779, 780, 781, 782, 783, 784, 785, 786, 787, 788, 789, 790, 791, 792, 793, 794, 795, 796, 797, 798, 799, 800, 801, 802, 803, 804, 805, 806, 807, 808, 809, 810, 811, 812, 813, 814, 815, 816, 817, 818, 819, 820, 821, 822, 823, 824, 825, 826, 827, 828, 829, 830, 831, 832, 833, 834, 835, 836, 837, 838, 839, 840, 841, 842, 843, 844, 845, 846, 847, 848, 849, 850, 851, 852, 853, 854, 855, 856, 857, 858, 859, 860, 861, 862, 863, 864, 865, 866, 867, 868, 869, 870, 871, 872],
      "AcquisitionTime": ["115116.352500", "115116.812500", "115117.272500", "115117.732500", "115118.192500", "115118.652500", "115119.112500", "115119.572500", "115120.032500", "115120.492500", "115120.952500", "115121.412500", "115121.872500", "115122.332500", "115122.792500", "115123.252500", "115123.712500", "115124.172500", "115124.632500", "115125.092500", "115125.552500", "115126.012500", "115126.472500", "115126.932500", "115127.392500", "115127.852500", "115128.312500", "115128.772500", "115129.232500", "115129.692500", "115130.152500", "115130.612500", "115131.072500", "115131.532500", "115131.992500", "115132.452500", "115132.912500", "115133.372500", "115133.832500", "115134.292500", "115134.752500", "115135.212500", "115135.672500", "115136.132500", "115136.592500", "115137.052500", "115137.512500", "115137.972500", "115138.432500", "115138.892500", "115139.352500", "115139.812500", "115140.272500", "115140.732500", "115141.192500", "115141.652500", "115142.112500", "115142.572500", "115143.032500", "115143.492500", "115143.952500", "115144.412500", "115144.872500", "115145.332500", "115145.792500", "115146.252500", "115146.712500", "115147.172500", "115147.632500", "115148.092500", "115148.552500", "115149.012500", "115149.472500", "115149.932500", "115150.392500", "115150.852500", "115151.312500", "115151.772500", "115152.232500", "115152.692500", "115153.152500", "115153.612500", "115154.072500", "115154.532500", "115154.992500", "115155.452500", "115155.912500", "115156.372500", "115156.832500", "115157.292500", "115157.752500", "115158.212500", "115158.672500", "115159.132500", "115159.592500", "115200.052500", "115200.512500", "115200.972500", "115201.432500", "115201.892500", "115202.352500", "115202.812500", "115203.272500", "115203.732500", "115204.192500", "115204.652500", "115205.112500", "115205.572500", "115206.032500", "115206.492500", "115206.952500", "115207.412500", "115207.872500", "115208.332500", "115208.792500", "115209.252500", "115209.712500", "115210.172500", "115210.632500", "115211.092500", "115211.552500", "115212.012500", "115212.472500", "115212.932500", "115213.392500", "115213.852500", "115214.312500", "115214.772500", "115215.232500", "115215.692500", "115216.152500", "115216.612500", "115217.072500", "115217.532500", "115217.992500", "115218.452500", "115218.912500", "115219.372500", "115219.832500", "115220.292500", "115220.752500", "115221.212500", "115221.672500", "115222.132500", "115222.592500", "115223.052500", "115223.512500", "115223.972500", "115224.432500", "115224.892500", "115225.352500", "115225.812500", "115226.272500", "115226.732500", "115227.192500", "115227.652500", "115228.112500", "115228.572500", "115229.032500", "115229.492500", "115229.952500", "115230.412500", "115230.872500", "115231.332500", "115231.792500", "115232.252500", "115232.712500", "115233.172500", "115233.632500", "115234.092500", "115234.552500", "115235.012500", "115235.472500", "115235.932500", "115236.392500", "115236.852500", "115237.312500", "115237.772500", "115238.232500", "115238.692500", "115239.152500", "115239.612500", "115240.072500", "115240.532500", "115240.992500", "115241.452500", "115241.912500", "115242.372500", "115242.832500", "115243.292500", "115243.752500", "115244.212500", "115244.672500", "115245.132500", "115245.592500", "115246.052500", "115246.512500", "115246.972500", "115247.432500", "115247.892500", "115248.352500", "115248.812500", "115249.272500", "115249.732500", "115250.192500", "115250.652500", "115251.112500", "115251.572500", "115252.032500", "115252.492500", "115252.952500", "115253.412500", "115253.872500", "115254.332500", "115254.792500", "115255.252500", "115255.712500", "115256.172500", "115256.632500", "115257.092500", "115257.552500", "115258.012500", "115258.472500", "115258.932500", "115259.392500", "115259.852500", "115300.312500", "115300.772500", "115301.232500", "115301.692500", "115302.152500", "115302.612500", "115303.072500", "115303.532500", "115303.992500", "115304.452500", "115304.912500", "115305.372500", "115305.832500", "115306.292500", "115306.752500", "115307.212500", "115307.672500", "115308.132500", "115308.592500", "115309.052500", "115309.512500", "115309.972500", "115310.432500", "115310.892500", "115311.352500", "115311.812500", "115312.272500", "115312.732500", "115313.192500", "115313.652500", "115314.112500", "115314.572500", "115315.032500", "115315.492500", "115315.952500", "115316.412500", "115316.872500", "115317.332500", "115317.792500", "115318.252500", "115318.712500", "115319.172500", "115319.632500", "115320.092500", "115320.552500", "115321.012500", "115321.472500", "115321.932500", "115322.392500", "115322.852500", "115323.312500", "115323.772500", "115324.232500", "115324.692500", "115325.152500", "115325.612500", "115326.072500", "115326.532500", "115326.992500", "115327.452500", "115327.912500", "115328.372500", "115328.832500", "115329.292500", "115329.752500", "115330.212500", "115330.672500", "115331.132500", "115331.592500", "115332.052500", "115332.512500", "115332.972500", "115333.432500", "115333.892500", "115334.352500", "115334.812500", "115335.272500", "115335.732500", "115336.192500", "115336.652500", "115337.112500", "115337.572500", "115338.032500", "115338.492500", "115338.952500", "115339.412500", "115339.872500", "115340.332500", "115340.792500", "115341.252500", "115341.712500", "115342.172500", "115342.632500", "115343.092500", "115343.552500", "115344.012500", "115344.472500", "115344.932500", "115345.392500", "115345.852500", "115346.312500", "115346.772500", "115347.232500", "115347.692500", "115348.152500", "115348.612500", "115349.072500", "115349.532500", "115349.992500", "115350.452500", "115350.912500", "115351.372500", "115351.832500", "115352.292500", "115352.752500", "115353.212500", "115353.672500", "115354.132500", "115354.592500", "115355.052500", "115355.512500", "115355.972500", "115356.432500", "115356.892500", "115357.352500", "115357.812500", "115358.272500", "115358.732500", "115359.192500", "115359.652500", "115400.112500", "115400.572500", "115401.032500", "115401.492500", "115401.952500", "115402.412500", "115402.872500", "115403.332500", "115403.792500", "115404.252500", "115404.712500", "115405.172500", "115405.632500", "115406.092500", "115406.552500", "115407.012500", "115407.472500", "115407.932500", "115408.392500", "115408.852500", "115409.312500", "115409.772500", "115410.232500", "115410.692500", "115411.152500", "115411.612500", "115412.072500", "115412.532500", "115412.992500", "115413.452500", "115413.912500", "115414.372500", "115414.832500", "115415.292500", "115415.752500", "115416.212500", "115416.672500", "115417.132500", "115417.592500", "115418.052500", "115418.512500", "115418.972500", "115419.432500", "115419.892500", "115420.352500", "115420.812500", "115421.272500", "115421.732500", "115422.192500", "115422.652500", "115423.112500", "115423.572500", "115424.032500", "115424.492500", "115424.952500", "115425.412500", "115425.872500", "115426.332500", "115426.792500", "115427.252500", "115427.712500", "115428.172500", "115428.632500", "115429.092500", "115429.552500", "115430.012500", "115430.472500", "115430.932500", "115431.392500", "115431.852500", "115432.312500", "115432.772500", "115433.232500", "115433.692500", "115434.152500", "115434.612500", "115435.072500", "115435.532500", "115435.992500", "115436.452500", "115436.912500", "115437.372500", "115437.832500", "115438.292500", "115438.752500", "115439.212500", "115439.672500", "115440.132500", "115440.592500", "115441.052500", "115441.512500", "115441.972500", "115442.432500", "115442.892500", "115443.352500", "115443.812500", "115444.272500", "115444.732500", "115445.192500", "115445.652500", "115446.112500", "115446.572500", "115447.032500", "115447.492500", "115447.952500", "115448.412500", "115448.872500", "115449.332500", "115449.792500", "115450.252500", "115450.712500", "115451.172500", "115451.632500", "115452.092500", "115452.552500", "115453.012500", "115453.472500", "115453.932500", "115454.392500", "115454.852500", "115455.312500", "115455.772500", "115456.232500", "115456.692500", "115457.152500", "115457.612500", "115458.072500", "115458.532500", "115458.992500", "115459.452500", "115459.912500", "115500.372500", "115500.832500", "115501.292500", "115501.752500", "115502.212500", "115502.672500", "115503.132500", "115503.592500", "115504.052500", "115504.512500", "115504.972500", "115505.432500", "115505.892500", "115506.352500", "115506.812500", "115507.272500", "115507.732500", "115508.192500", "115508.652500", "115509.112500", "115509.572500", "115510.032500", "115510.492500", "115510.952500", "115511.412500", "115511.872500", "115512.332500", "115512.792500", "115513.252500", "115513.712500", "115514.172500", "115514.632500", "115515.092500", "115515.552500", "115516.012500", "115516.472500", "115516.932500", "115517.392500", "115517.852500", "115518.312500", "115518.772500", "115519.232500", "115519.692500", "115520.152500", "115520.612500", "115521.072500", "115521.532500", "115521.992500", "115522.452500", "115522.912500", "115523.372500", "115523.832500", "115524.292500", "115524.752500", "115525.212500", "115525.672500", "115526.132500", "115526.592500", "115527.052500", "115527.512500", "115527.972500", "115528.432500", "115528.892500", "115529.352500", "115529.812500", "115530.272500", "115530.732500", "115531.192500", "115531.652500", "115532.112500", "115532.572500", "115533.032500", "115533.492500", "115533.952500", "115534.412500", "115534.872500", "115535.332500", "115535.792500", "115536.252500", "115536.712500", "115537.172500", "115537.632500", "115538.092500", "115538.552500", "115539.012500", "115539.472500", "115539.932500", "115540.392500", "115540.852500", "115541.312500", "115541.772500", "115542.232500", "115542.692500", "115543.152500", "115543.612500", "115544.072500", "115544.532500", "115544.992500", "115545.452500", "115545.912500", "115546.372500", "115546.832500", "115547.292500", "115547.752500", "115548.212500", "115548.672500", "115549.132500", "115549.592500", "115550.052500", "115550.512500", "115550.972500", "115551.432500", "115551.892500", "115552.352500", "115552.812500", "115553.272500", "115553.732500", "115554.192500", "115554.652500", "115555.112500", "115555.572500", "115556.032500", "115556.492500", "115556.952500", "115557.412500", "115557.872500", "115558.332500", "115558.792500", "115559.252500", "115559.712500", "115600.172500", "115600.632500", "115601.092500", "115601.552500", "115602.012500", "115602.472500", "115602.932500", "115603.392500", "115603.852500", "115604.312500", "115604.772500", "115605.232500", "115605.692500", "115606.152500", "115606.612500", "115607.072500", "115607.532500", "115607.992500", "115608.452500", "115608.912500", "115609.372500", "115609.832500", "115610.292500", "115610.752500", "115611.212500", "115611.672500", "115612.132500", "115612.592500", "115613.052500", "115613.512500", "115613.972500", "115614.432500", "115614.892500", "115615.352500", "115615.812500", "115616.272500", "115616.732500", "115617.192500", "115617.652500", "115618.112500", "115618.572500", "115619.032500", "115619.492500", "115619.952500", "115620.412500", "115620.872500", "115621.332500", "115621.792500", "115622.252500", "115622.712500", "115623.172500", "115623.632500", "115624.092500", "115624.552500", "115625.012500", "115625.472500", "115625.932500", "115626.392500", "115626.852500", "115627.312500", "115627.772500", "115628.232500", "115628.692500", "115629.152500", "115629.612500", "115630.072500", "115630.532500", "115630.992500", "115631.452500", "115631.912500", "115632.372500", "115632.832500", "115633.292500", "115633.752500", "115634.212500", "115634.672500", "115635.132500", "115635.592500", "115636.052500", "115636.512500", "115636.972500", "115637.432500", "115637.892500", "115638.352500", "115638.812500", "115639.272500", "115639.732500", "115640.192500", "115640.652500", "115641.112500", "115641.572500", "115642.032500", "115642.492500", "115642.952500", "115643.412500", "115643.872500", "115644.332500", "115644.792500", "115645.252500", "115645.712500", "115646.172500", "115646.632500", "115647.092500", "115647.552500", "115648.012500", "115648.472500", "115648.932500", "115649.392500", "115649.852500", "115650.312500", "115650.772500", "115651.232500", "115651.692500", "115652.152500", "115652.612500", "115653.072500", "115653.532500", "115653.992500", "115654.452500", "115654.912500", "115655.372500", "115655.832500", "115656.292500", "115656.752500", "115657.212500", "115657.672500", "115658.132500", "115658.592500", "115659.052500", "115659.512500", "115659.972500", "115700.432500", "115700.892500", "115701.352500", "115701.812500", "115702.272500", "115702.732500", "115703.192500", "115703.652500", "115704.112500", "115704.572500", "115705.032500", "115705.492500", "115705.952500", "115706.412500", "115706.872500", "115707.332500", "115707.792500", "115708.252500", "115708.712500", "115709.172500", "115709.632500", "115710.092500", "115710.552500", "115711.012500", "115711.472500", "115711.932500", "115712.392500", "115712.852500", "115713.312500", "115713.772500", "115714.232500", "115714.692500", "115715.152500", "115715.612500", "115716.072500", "115716.532500", "115716.992500", "115717.452500", "115717.912500", "115718.372500", "115718.832500", "115719.292500", "115719.752500", "115720.212500", "115720.672500", "115721.132500", "115721.592500", "115722.052500", "115722.512500", "115722.972500", "115723.432500", "115723.892500", "115724.352500", "115724.812500", "115725.272500", "115725.732500", "115726.192500", "115726.652500", "115727.112500", "115727.572500", "115728.032500", "115728.492500", "115728.952500", "115729.412500", "115729.872500", "115730.332500", "115730.792500", "115731.252500", "115731.712500", "115732.172500", "115732.632500", "115733.092500", "115733.552500", "115734.012500", "115734.472500", "115734.932500", "115735.392500", "115735.852500", "115736.312500", "115736.772500", "115737.232500", "115737.692500", "115738.152500", "115738.612500", "115739.072500", "115739.532500", "115739.992500", "115740.452500", "115740.912500", "115741.372500", "115741.832500", "115742.292500", "115742.752500", "115743.212500", "115743.672500", "115744.132500", "115744.592500", "115745.052500", "115745.512500", "115745.972500", "115746.432500", "115746.892500", "115747.352500", "115747.812500", "115748.272500", "115748.732500", "115749.192500", "115749.652500", "115750.112500", "115750.572500", "115751.032500", "115751.492500", "115751.952500", "115752.412500", "115752.872500", "115753.332500", "115753.792500", "115754.252500", "115754.712500", "115755.172500", "115755.632500", "115756.092500", "115756.552500", "115757.012500"],
