{
  "AcquisitionMatrixPE": 82,
  "AcquisitionNumber": 1,
  "AcquisitionTime": "12:33:27.145000",
  "BandwidthPerPixelPhaseEncode": 24.888,
  "BaseResolution": 82,
  "BodyPartExamined": "BRAIN",
  "ConsistencyInfo": "N4_VE11E_LATEST_20181129",
  "ConversionSoftware": "dcm2niix",
  "ConversionSoftwareVersion": "v1.0.20201102",
  "DerivedVendorReportedEchoSpacing": 0.00049,
  "DeviceSerialNumber": "66112",
  "DwellTime": 2e-06,
  "EchoTime": 0.0272,
  "EchoTrainLength": 82,
  "EffectiveEchoSpacing": 0.00049,
  "FlipAngle": 44,
  "ImageComments": "Unaliased MB8/PE3",
  "ImageOrientationPatientDICOM": [0.999381, 0.0222173, 0.0272819, -0.0244244, 0.996215, 0.083427],
  "ImageType": [
    "ORIGINAL",
    "PRIMARY",
    "M",
    "MB",
    "ND",
    "NORM",
    "MOSAIC"
],
  "ImagingFrequency": 123.259,
  "InPlanePhaseEncodingDirectionDICOM": "COL",
  "InstitutionAddress": "Maynard 3,Hanover,NH,US,03755",
  "InstitutionName": "Dartmouth College - PBS",
  "InstitutionalDepartmentName": "Department",
  "MRAcquisitionType": "2D",
  "MagneticFieldStrength": 3,
  "Manufacturer": "Siemens",
  "ManufacturersModelName": "Prisma",
  "Modality": "MR",
  "MultibandAccelerationFactor": 8,
  "PartialFourier": 1,
  "PatientPosition": "HFS",
  "PercentPhaseFOV": 100,
  "PercentSampling": 100,
  "PhaseEncodingDirection": "j-",
  "PhaseEncodingSteps": 82,
  "PhaseResolution": 1,
  "PixelBandwidth": 3050,
  "ProcedureStepDescription": "Wager_Wager^1076_spacetop",
  "ProtocolName": "func_run-02_task-alignvideo_acq-ap-mb8",
  "PulseSequenceDetails": "%CustomerSeq%\\cmrr_mbep2d_bold",
  "ReceiveCoilActiveElements": "HEA;HEP",
  "ReceiveCoilName": "Head_32",
  "ReconMatrixPE": 82,
  "RepetitionTime": 0.46,
  "SAR": 0.112705,
  "ScanOptions": "FS",
  "ScanningSequence": "EP",
  "SequenceName": "epfid2d1_82",
  "SequenceVariant": "SK\\SS",
  "SeriesDescription": "func_run-02_task-alignvideo_acq-ap-mb8",
  "SeriesNumber": 34,
  "ShimSetting": [4204, -7776, -7196, 365, -190, -103, -27, 90],
  "SliceThickness": 2.7,
  "SliceTiming": [0, 0.25, 0.0625, 0.3125, 0.125, 0.375, 0.1875, 0, 0.25, 0.0625, 0.3125, 0.125, 0.375, 0.1875, 0, 0.25, 0.0625, 0.3125, 0.125, 0.375, 0.1875, 0, 0.25, 0.0625, 0.3125, 0.125, 0.375, 0.1875, 0, 0.25, 0.0625, 0.3125, 0.125, 0.375, 0.1875, 0, 0.25, 0.0625, 0.3125, 0.125, 0.375, 0.1875, 0, 0.25, 0.0625, 0.3125, 0.125, 0.375, 0.1875, 0, 0.25, 0.0625, 0.3125, 0.125, 0.375, 0.1875],
  "SoftwareVersions": "syngo MR E11",
  "SpacingBetweenSlices": 2.7,
  "StationName": "AWP66112",
  "TaskName": "alignvideo",
  "TotalReadoutTime": 0.03969,
  "TxRefAmp": 266.607,
  "WipMemBlock": "648a6581-9fe4-4454-9933-c15f31277a87||Sequence: R016 ve11e/master r/434b28f1; Aug  7 2019 18:53:46 by eja",
  "dcmmeta_affine": [
    [-2.6812658309936523, -0.06552881002426147, 0.06837765872478485, 112.40001678466797],
    [-0.05960742011666298, 2.6727707386016846, 0.2269124984741211, -107.0169677734375],
    [0.07319522649049759, -0.2238284796476364, 2.6895790100097656, -50.821685791015625],
    [0.0, 0.0, 0.0, 1.0]
],
  "dcmmeta_reorient_transform": [
    [0.0, -1.0, 0.0, 81.0],
    [1.0, 0.0, 0.0, 0.0],
    [0.0, 0.0, 1.0, 0.0],
    [0.0, 0.0, 0.0, 1.0]
],
  "dcmmeta_shape": [82, 82, 56, 926],
  "dcmmeta_slice_dim": 2,
  "dcmmeta_version": 0.6,
  "global": {
    "const": {
      "AccessionNumber": "A004460",
      "AcquisitionMatrix": [82, 0, 0, 82],
      "AngioFlag": "N",
      "BitsAllocated": 16,
      "BitsStored": 16,
      "BodyPartExamined": "BRAIN",
      "Columns": 656,
      "EchoNumbers": 1,
      "EchoTime": 27.2,
      "EchoTrainLength": 82,
      "FlipAngle": 44.0,
      "HighBit": 15,
      "ImageOrientationPatient": [0.99938085405338, 0.02221731069101, 0.02728185582375, -0.0244243727825, 0.99621452971214, 0.08342697887733],
      "ImagePositionPatient": [-857.808693623, -893.67000258461, -154.19759964413],
      "ImageType": [
        "ORIGINAL",
        "PRIMARY",
        "M",
        "MB",
        "ND",
        "NORM",
        "MOSAIC"
],
      "ImagedNucleus": "1H",
      "ImagingFrequency": 123.259042,
      "InPlanePhaseEncodingDirection": "COL",
      "MRAcquisitionType": "2D",
      "MagneticFieldStrength": 3.0,
      "Manufacturer": "SIEMENS",
      "ManufacturerModelName": "Prisma",
      "Modality": "MR",
      "NumberOfAverages": 1.0,
      "NumberOfPhaseEncodingSteps": 82,
      "PercentPhaseFieldOfView": 100.0,
      "PercentSampling": 100.0,
      "PerformedProcedureStepStartTime": "105328.063000",
      "PhotometricInterpretation": "MONOCHROME2",
      "PixelBandwidth": 3050.0,
      "PixelRepresentation": 0,
      "PixelSpacing": [2.6829268932343, 2.6829268932343],
      "ProtocolName": "func_run-02_task-alignvideo_acq-ap-mb8",
      "RepetitionTime": 460.0,
      "Rows": 656,
      "SAR": 0.11270545503304,
      "SamplesPerPixel": 1,
      "ScanOptions": "FS",
      "ScanningSequence": "EP",
      "SequenceName": "epfid2d1_82",
      "SequenceVariant": [
        "SK",
        "SS"
],
      "SeriesDescription": "func_run-02_task-alignvideo_acq-ap-mb8",
      "SeriesNumber": 34,
      "SeriesTime": "123333.823000",
      "SliceLocation": -56.772881891335,
      "SliceThickness": 2.7000000476837,
      "SmallestImagePixelValue": 0,
      "SoftwareVersions": "syngo MR E11",
      "SpacingBetweenSlices": 2.7000000083575,
      "SpecificCharacterSet": "ISO_IR 100",
      "StudyID": "1",
      "StudyTime": "105327.998000",
      "TransmitCoilName": "Body",
      "VariableFlipAngleFlag": "N",
      "WindowCenterWidthExplanation": "Algo1"
    },
    "slices": {}
  },
  "time": {
    "samples": {
      "AcquisitionNumber": [1, 2, 3, 4, 5, 6, 7, 8, 9, 10, 11, 12, 13, 14, 15, 16, 17, 18, 19, 20, 21, 22, 23, 24, 25, 26, 27, 28, 29, 30, 31, 32, 33, 34, 35, 36, 37, 38, 39, 40, 41, 42, 43, 44, 45, 46, 47, 48, 49, 50, 51, 52, 53, 54, 55, 56, 57, 58, 59, 60, 61, 62, 63, 64, 65, 66, 67, 68, 69, 70, 71, 72, 73, 74, 75, 76, 77, 78, 79, 80, 81, 82, 83, 84, 85, 86, 87, 88, 89, 90, 91, 92, 93, 94, 95, 96, 97, 98, 99, 100, 101, 102, 103, 104, 105, 106, 107, 108, 109, 110, 111, 112, 113, 114, 115, 116, 117, 118, 119, 120, 121, 122, 123, 124, 125, 126, 127, 128, 129, 130, 131, 132, 133, 134, 135, 136, 137, 138, 139, 140, 141, 142, 143, 144, 145, 146, 147, 148, 149, 150, 151, 152, 153, 154, 155, 156, 157, 158, 159, 160, 161, 162, 163, 164, 165, 166, 167, 168, 169, 170, 171, 172, 173, 174, 175, 176, 177, 178, 179, 180, 181, 182, 183, 184, 185, 186, 187, 188, 189, 190, 191, 192, 193, 194, 195, 196, 197, 198, 199, 200, 201, 202, 203, 204, 205, 206, 207, 208, 209, 210, 211, 212, 213, 214, 215, 216, 217, 218, 219, 220, 221, 222, 223, 224, 225, 226, 227, 228, 229, 230, 231, 232, 233, 234, 235, 236, 237, 238, 239, 240, 241, 242, 243, 244, 245, 246, 247, 248, 249, 250, 251, 252, 253, 254, 255, 256, 257, 258, 259, 260, 261, 262, 263, 264, 265, 266, 267, 268, 269, 270, 271, 272, 273, 274, 275, 276, 277, 278, 279, 280, 281, 282, 283, 284, 285, 286, 287, 288, 289, 290, 291, 292, 293, 294, 295, 296, 297, 298, 299, 300, 301, 302, 303, 304, 305, 306, 307, 308, 309, 310, 311, 312, 313, 314, 315, 316, 317, 318, 319, 320, 321, 322, 323, 324, 325, 326, 327, 328, 329, 330, 331, 332, 333, 334, 335, 336, 337, 338, 339, 340, 341, 342, 343, 344, 345, 346, 347, 348, 349, 350, 351, 352, 353, 354, 355, 356, 357, 358, 359, 360, 361, 362, 363, 364, 365, 366, 367, 368, 369, 370, 371, 372, 373, 374, 375, 376, 377, 378, 379, 380, 381, 382, 383, 384, 385, 386, 387, 388, 389, 390, 391, 392, 393, 394, 395, 396, 397, 398, 399, 400, 401, 402, 403, 404, 405, 406, 407, 408, 409, 410, 411, 412, 413, 414, 415, 416, 417, 418, 419, 420, 421, 422, 423, 424, 425, 426, 427, 428, 429, 430, 431, 432, 433, 434, 435, 436, 437, 438, 439, 440, 441, 442, 443, 444, 445, 446, 447, 448, 449, 450, 451, 452, 453, 454, 455, 456, 457, 458, 459, 460, 461, 462, 463, 464, 465, 466, 467, 468, 469, 470, 471, 472, 473, 474, 475, 476, 477, 478, 479, 480, 481, 482, 483, 484, 485, 486, 487, 488, 489, 490, 491, 492, 493, 494, 495, 496, 497, 498, 499, 500, 501, 502, 503, 504, 505, 506, 507, 508, 509, 510, 511, 512, 513, 514, 515, 516, 517, 518, 519, 520, 521, 522, 523, 524, 525, 526, 527, 528, 529, 530, 531, 532, 533, 534, 535, 536, 537, 538, 539, 540, 541, 542, 543, 544, 545, 546, 547, 548, 549, 550, 551, 552, 553, 554, 555, 556, 557, 558, 559, 560, 561, 562, 563, 564, 565, 566, 567, 568, 569, 570, 571, 572, 573, 574, 575, 576, 577, 578, 579, 580, 581, 582, 583, 584, 585, 586, 587, 588, 589, 590, 591, 592, 593, 594, 595, 596, 597, 598, 599, 600, 601, 602, 603, 604, 605, 606, 607, 608, 609, 610, 611, 612, 613, 614, 615, 616, 617, 618, 619, 620, 621, 622, 623, 624, 625, 626, 627, 628, 629, 630, 631, 632, 633, 634, 635, 636, 637, 638, 639, 640, 641, 642, 643, 644, 645, 646, 647, 648, 649, 650, 651, 652, 653, 654, 655, 656, 657, 658, 659, 660, 661, 662, 663, 664, 665, 666, 667, 668, 669, 670, 671, 672, 673, 674, 675, 676, 677, 678, 679, 680, 681, 682, 683, 684, 685, 686, 687, 688, 689, 690, 691, 692, 693, 694, 695, 696, 697, 698, 699, 700, 701, 702, 703, 704, 705, 706, 707, 708, 709, 710, 711, 712, 713, 714, 715, 716, 717, 718, 719, 720, 721, 722, 723, 724, 725, 726, 727, 728, 729, 730, 731, 732, 733, 734, 735, 736, 737, 738, 739, 740, 741, 742, 743, 744, 745, 746, 747, 748, 749, 750, 751, 752, 753, 754, 755, 756, 757, 758, 759, 760, 761, 762, 763, 764, 765, 766, 767, 768, 769, 770, 771, 772, 773, 774, 775, 776, 777, 778, 779, 780, 781, 782, 783, 784, 785, 786, 787, 788, 789, 790, 791, 792, 793, 794, 795, 796, 797, 798, 799, 800, 801, 802, 803, 804, 805, 806, 807, 808, 809, 810, 811, 812, 813, 814, 815, 816, 817, 818, 819, 820, 821, 822, 823, 824, 825, 826, 827, 828, 829, 830, 831, 832, 833, 834, 835, 836, 837, 838, 839, 840, 841, 842, 843, 844, 845, 846, 847, 848, 849, 850, 851, 852, 853, 854, 855, 856, 857, 858, 859, 860, 861, 862, 863, 864, 865, 866, 867, 868, 869, 870, 871, 872, 873, 874, 875, 876, 877, 878, 879, 880, 881, 882, 883, 884, 885, 886, 887, 888, 889, 890, 891, 892, 893, 894, 895, 896, 897, 898, 899, 900, 901, 902, 903, 904, 905, 906, 907, 908, 909, 910, 911, 912, 913, 914, 915, 916, 917, 918, 919, 920, 921, 922, 923, 924, 925, 926],
      "AcquisitionTime": ["123327.145000", "123327.605000", "123328.065000", "123328.525000", "123328.985000", "123329.445000", "123329.905000", "123330.365000", "123330.825000", "123331.285000", "123331.745000", "123332.205000", "123332.665000", "123333.125000", "123333.585000", "123334.045000", "123334.505000", "123334.965000", "123335.425000", "123335.885000", "123336.345000", "123336.805000", "123337.265000", "123337.725000", "123338.185000", "123338.645000", "123339.105000", "123339.565000", "123340.025000", "123340.485000", "123340.945000", "123341.405000", "123341.865000", "123342.325000", "123342.785000", "123343.245000", "123343.705000", "123344.165000", "123344.625000", "123345.085000", "123345.545000", "123346.005000", "123346.465000", "123346.925000", "123347.385000", "123347.845000", "123348.305000", "123348.765000", "123349.225000", "123349.685000", "123350.145000", "123350.605000", "123351.065000", "123351.525000", "123351.985000", "123352.445000", "123352.905000", "123353.365000", "123353.825000", "123354.285000", "123354.745000", "123355.205000", "123355.665000", "123356.125000", "123356.585000", "123357.045000", "123357.505000", "123357.965000", "123358.425000", "123358.885000", "123359.345000", "123359.805000", "123400.265000", "123400.725000", "123401.185000", "123401.645000", "123402.105000", "123402.565000", "123403.025000", "123403.485000", "123403.945000", "123404.405000", "123404.865000", "123405.325000", "123405.785000", "123406.245000", "123406.705000", "123407.165000", "123407.625000", "123408.085000", "123408.545000", "123409.005000", "123409.465000", "123409.925000", "123410.385000", "123410.845000", "123411.305000", "123411.765000", "123412.225000", "123412.685000", "123413.145000", "123413.605000", "123414.065000", "123414.525000", "123414.985000", "123415.445000", "123415.905000", "123416.365000", "123416.825000", "123417.285000", "123417.745000", "123418.205000", "123418.665000", "123419.125000", "123419.585000", "123420.045000", "123420.505000", "123420.965000", "123421.425000", "123421.885000", "123422.345000", "123422.805000", "123423.265000", "123423.725000", "123424.185000", "123424.645000", "123425.105000", "123425.565000", "123426.025000", "123426.485000", "123426.945000", "123427.405000", "123427.865000", "123428.325000", "123428.785000", "123429.245000", "123429.705000", "123430.165000", "123430.625000", "123431.085000", "123431.545000", "123432.005000", "123432.465000", "123432.925000", "123433.385000", "123433.845000", "123434.305000", "123434.765000", "123435.225000", "123435.685000", "123436.145000", "123436.605000", "123437.065000", "123437.525000", "123437.985000", "123438.445000", "123438.905000", "123439.365000", "123439.825000", "123440.285000", "123440.745000", "123441.205000", "123441.665000", "123442.125000", "123442.585000", "123443.045000", "123443.505000", "123443.965000", "123444.425000", "123444.885000", "123445.345000", "123445.805000", "123446.265000", "123446.725000", "123447.185000", "123447.645000", "123448.105000", "123448.565000", "123449.025000", "123449.485000", "123449.945000", "123450.405000", "123450.865000", "123451.325000", "123451.785000", "123452.245000", "123452.705000", "123453.165000", "123453.625000", "123454.085000", "123454.545000", "123455.005000", "123455.465000", "123455.925000", "123456.385000", "123456.845000", "123457.305000", "123457.765000", "123458.225000", "123458.685000", "123459.145000", "123459.605000", "123500.065000", "123500.525000", "123500.985000", "123501.445000", "123501.905000", "123502.365000", "123502.825000", "123503.285000", "123503.745000", "123504.205000", "123504.665000", "123505.125000", "123505.585000", "123506.045000", "123506.505000", "123506.965000", "123507.425000", "123507.885000", "123508.345000", "123508.805000", "123509.265000", "123509.725000", "123510.185000", "123510.645000", "123511.105000", "123511.565000", "123512.025000", "123512.485000", "123512.945000", "123513.405000", "123513.865000", "123514.325000", "123514.785000", "123515.245000", "123515.705000", "123516.165000", "123516.625000", "123517.085000", "123517.545000", "123518.005000", "123518.465000", "123518.925000", "123519.385000", "123519.845000", "123520.305000", "123520.765000", "123521.225000", "123521.685000", "123522.145000", "123522.605000", "123523.065000", "123523.525000", "123523.985000", "123524.445000", "123524.905000", "123525.365000", "123525.825000", "123526.285000", "123526.745000", "123527.205000", "123527.665000", "123528.125000", "123528.585000", "123529.045000", "123529.505000", "123529.965000", "123530.425000", "123530.885000", "123531.345000", "123531.805000", "123532.265000", "123532.725000", "123533.185000", "123533.645000", "123534.105000", "123534.565000", "123535.025000", "123535.485000", "123535.945000", "123536.405000", "123536.865000", "123537.325000", "123537.785000", "123538.245000", "123538.705000", "123539.165000", "123539.625000", "123540.085000", "123540.545000", "123541.005000", "123541.465000", "123541.925000", "123542.385000", "123542.845000", "123543.305000", "123543.765000", "123544.225000", "123544.685000", "123545.145000", "123545.605000", "123546.065000", "123546.525000", "123546.985000", "123547.445000", "123547.905000", "123548.365000", "123548.825000", "123549.285000", "123549.745000", "123550.205000", "123550.665000", "123551.125000", "123551.585000", "123552.045000", "123552.505000", "123552.965000", "123553.425000", "123553.885000", "123554.345000", "123554.805000", "123555.265000", "123555.725000", "123556.185000", "123556.645000", "123557.105000", "123557.565000", "123558.025000", "123558.485000", "123558.945000", "123559.405000", "123559.865000", "123600.325000", "123600.785000", "123601.245000", "123601.705000", "123602.165000", "123602.625000", "123603.085000", "123603.545000", "123604.005000", "123604.465000", "123604.925000", "123605.385000", "123605.845000", "123606.305000", "123606.765000", "123607.225000", "123607.685000", "123608.145000", "123608.605000", "123609.065000", "123609.525000", "123609.985000", "123610.445000", "123610.905000", "123611.365000", "123611.825000", "123612.285000", "123612.745000", "123613.205000", "123613.665000", "123614.125000", "123614.585000", "123615.045000", "123615.505000", "123615.965000", "123616.425000", "123616.885000", "123617.345000", "123617.805000", "123618.265000", "123618.725000", "123619.185000", "123619.645000", "123620.105000", "123620.565000", "123621.025000", "123621.485000", "123621.945000", "123622.405000", "123622.865000", "123623.325000", "123623.785000", "123624.245000", "123624.705000", "123625.165000", "123625.625000", "123626.085000", "123626.545000", "123627.005000", "123627.465000", "123627.925000", "123628.385000", "123628.845000", "123629.305000", "123629.765000", "123630.225000", "123630.685000", "123631.145000", "123631.605000", "123632.065000", "123632.525000", "123632.985000", "123633.445000", "123633.905000", "123634.365000", "123634.825000", "123635.285000", "123635.745000", "123636.205000", "123636.665000", "123637.125000", "123637.585000", "123638.045000", "123638.505000", "123638.965000", "123639.425000", "123639.885000", "123640.345000", "123640.805000", "123641.265000", "123641.725000", "123642.185000", "123642.645000", "123643.105000", "123643.565000", "123644.025000", "123644.485000", "123644.945000", "123645.405000", "123645.865000", "123646.325000", "123646.785000", "123647.245000", "123647.705000", "123648.165000", "123648.625000", "123649.085000", "123649.545000", "123650.005000", "123650.465000", "123650.925000", "123651.385000", "123651.845000", "123652.305000", "123652.765000", "123653.225000", "123653.685000", "123654.145000", "123654.605000", "123655.065000", "123655.525000", "123655.985000", "123656.445000", "123656.905000", "123657.365000", "123657.825000", "123658.285000", "123658.745000", "123659.205000", "123659.665000", "123700.125000", "123700.585000", "123701.045000", "123701.505000", "123701.965000", "123702.425000", "123702.885000", "123703.345000", "123703.805000", "123704.265000", "123704.725000", "123705.185000", "123705.645000", "123706.105000", "123706.565000", "123707.025000", "123707.485000", "123707.945000", "123708.405000", "123708.865000", "123709.325000", "123709.785000", "123710.245000", "123710.705000", "123711.165000", "123711.625000", "123712.085000", "123712.545000", "123713.005000", "123713.465000", "123713.925000", "123714.385000", "123714.845000", "123715.305000", "123715.765000", "123716.225000", "123716.685000", "123717.145000", "123717.605000", "123718.065000", "123718.525000", "123718.985000", "123719.445000", "123719.905000", "123720.365000", "123720.825000", "123721.285000", "123721.745000", "123722.205000", "123722.665000", "123723.125000", "123723.585000", "123724.045000", "123724.505000", "123724.965000", "123725.425000", "123725.885000", "123726.345000", "123726.805000", "123727.265000", "123727.725000", "123728.185000", "123728.645000", "123729.105000", "123729.565000", "123730.025000", "123730.485000", "123730.945000", "123731.405000", "123731.865000", "123732.325000", "123732.785000", "123733.245000", "123733.705000", "123734.165000", "123734.625000", "123735.085000", "123735.545000", "123736.005000", "123736.465000", "123736.925000", "123737.385000", "123737.845000", "123738.305000", "123738.765000", "123739.225000", "123739.685000", "123740.145000", "123740.605000", "123741.065000", "123741.525000", "123741.985000", "123742.445000", "123742.905000", "123743.365000", "123743.825000", "123744.285000", "123744.745000", "123745.205000", "123745.665000", "123746.125000", "123746.585000", "123747.045000", "123747.505000", "123747.965000", "123748.425000", "123748.885000", "123749.345000", "123749.805000", "123750.265000", "123750.725000", "123751.185000", "123751.645000", "123752.105000", "123752.565000", "123753.025000", "123753.485000", "123753.945000", "123754.405000", "123754.865000", "123755.325000", "123755.785000", "123756.245000", "123756.705000", "123757.165000", "123757.625000", "123758.085000", "123758.545000", "123759.005000", "123759.465000", "123759.925000", "123800.385000", "123800.845000", "123801.305000", "123801.765000", "123802.225000", "123802.685000", "123803.145000", "123803.605000", "123804.065000", "123804.525000", "123804.985000", "123805.445000", "123805.905000", "123806.365000", "123806.825000", "123807.285000", "123807.745000", "123808.205000", "123808.665000", "123809.125000", "123809.585000", "123810.045000", "123810.505000", "123810.965000", "123811.425000", "123811.885000", "123812.345000", "123812.805000", "123813.265000", "123813.725000", "123814.185000", "123814.645000", "123815.105000", "123815.565000", "123816.025000", "123816.485000", "123816.945000", "123817.405000", "123817.865000", "123818.325000", "123818.785000", "123819.245000", "123819.705000", "123820.165000", "123820.625000", "123821.085000", "123821.545000", "123822.005000", "123822.465000", "123822.925000", "123823.385000", "123823.845000", "123824.305000", "123824.765000", "123825.225000", "123825.685000", "123826.145000", "123826.605000", "123827.065000", "123827.525000", "123827.985000", "123828.445000", "123828.905000", "123829.365000", "123829.825000", "123830.285000", "123830.745000", "123831.205000", "123831.665000", "123832.125000", "123832.585000", "123833.045000", "123833.505000", "123833.965000", "123834.425000", "123834.885000", "123835.345000", "123835.805000", "123836.265000", "123836.725000", "123837.185000", "123837.645000", "123838.105000", "123838.565000", "123839.025000", "123839.485000", "123839.945000", "123840.405000", "123840.865000", "123841.325000", "123841.785000", "123842.245000", "123842.705000", "123843.165000", "123843.625000", "123844.085000", "123844.545000", "123845.005000", "123845.465000", "123845.925000", "123846.385000", "123846.845000", "123847.305000", "123847.765000", "123848.225000", "123848.685000", "123849.145000", "123849.605000", "123850.065000", "123850.525000", "123850.985000", "123851.445000", "123851.905000", "123852.365000", "123852.825000", "123853.285000", "123853.745000", "123854.205000", "123854.665000", "123855.125000", "123855.585000", "123856.045000", "123856.505000", "123856.965000", "123857.425000", "123857.885000", "123858.345000", "123858.805000", "123859.265000", "123859.725000", "123900.185000", "123900.645000", "123901.105000", "123901.565000", "123902.025000", "123902.485000", "123902.945000", "123903.405000", "123903.865000", "123904.325000", "123904.785000", "123905.245000", "123905.705000", "123906.165000", "123906.625000", "123907.085000", "123907.545000", "123908.005000", "123908.465000", "123908.925000", "123909.385000", "123909.845000", "123910.305000", "123910.765000", "123911.225000", "123911.685000", "123912.145000", "123912.605000", "123913.065000", "123913.525000", "123913.985000", "123914.445000", "123914.905000", "123915.365000", "123915.825000", "123916.285000", "123916.745000", "123917.205000", "123917.665000", "123918.125000", "123918.585000", "123919.045000", "123919.505000", "123919.965000", "123920.425000", "123920.885000", "123921.345000", "123921.805000", "123922.265000", "123922.725000", "123923.185000", "123923.645000", "123924.105000", "123924.565000", "123925.025000", "123925.485000", "123925.945000", "123926.405000", "123926.865000", "123927.325000", "123927.785000", "123928.245000", "123928.705000", "123929.165000", "123929.625000", "123930.085000", "123930.545000", "123931.005000", "123931.465000", "123931.925000", "123932.385000", "123932.845000", "123933.305000", "123933.765000", "123934.225000", "123934.685000", "123935.145000", "123935.605000", "123936.065000", "123936.525000", "123936.985000", "123937.445000", "123937.905000", "123938.365000", "123938.825000", "123939.285000", "123939.745000", "123940.205000", "123940.665000", "123941.125000", "123941.585000", "123942.045000", "123942.505000", "123942.965000", "123943.425000", "123943.885000", "123944.345000", "123944.805000", "123945.265000", "123945.725000", "123946.185000", "123946.645000", "123947.105000", "123947.565000", "123948.025000", "123948.485000", "123948.945000", "123949.405000", "123949.865000", "123950.325000", "123950.785000", "123951.245000", "123951.705000", "123952.165000", "123952.625000", "123953.085000", "123953.545000", "123954.005000", "123954.465000", "123954.925000", "123955.385000", "123955.845000", "123956.305000", "123956.765000", "123957.225000", "123957.685000", "123958.145000", "123958.605000", "123959.065000", "123959.525000", "123959.985000", "124000.445000", "124000.905000", "124001.365000", "124001.825000", "124002.285000", "124002.745000", "124003.205000", "124003.665000", "124004.125000", "124004.585000", "124005.045000", "124005.505000", "124005.965000", "124006.425000", "124006.885000", "124007.345000", "124007.805000", "124008.265000", "124008.725000", "124009.185000", "124009.645000", "124010.105000", "124010.565000", "124011.025000", "124011.485000", "124011.945000", "124012.405000", "124012.865000", "124013.325000", "124013.785000", "124014.245000", "124014.705000", "124015.165000", "124015.625000", "124016.085000", "124016.545000", "124017.005000", "124017.465000", "124017.925000", "124018.385000", "124018.845000", "124019.305000", "124019.765000", "124020.225000", "124020.685000", "124021.145000", "124021.605000", "124022.065000", "124022.525000", "124022.985000", "124023.445000", "124023.905000", "124024.365000", "124024.825000", "124025.285000", "124025.745000", "124026.205000", "124026.665000", "124027.125000", "124027.585000", "124028.045000", "124028.505000", "124028.965000", "124029.425000", "124029.885000", "124030.345000", "124030.805000", "124031.265000", "124031.725000", "124032.185000", "124032.645000"],
