{
  "AcquisitionMatrixPE": 82,
  "AcquisitionNumber": 1,
  "AcquisitionTime": "11:44:14.415000",
  "BandwidthPerPixelPhaseEncode": 24.888,
  "BaseResolution": 82,
  "BodyPartExamined": "BRAIN",
  "ConsistencyInfo": "N4_VE11E_LATEST_20181129",
  "ConversionSoftware": "dcm2niix",
  "ConversionSoftwareVersion": "v1.0.20201102",
  "DerivedVendorReportedEchoSpacing": 0.00049,
  "DeviceSerialNumber": "66112",
  "DwellTime": 2e-06,
  "EchoTime": 0.0272,
  "EchoTrainLength": 82,
  "EffectiveEchoSpacing": 0.00049,
  "FlipAngle": 44,
  "ImageComments": "Unaliased MB8/PE3",
  "ImageOrientationPatientDICOM": [0.999177, -0.0398778, 0.00747922, 0.0396071, 0.998657, 0.0333893],
  "ImageType": [
    "ORIGINAL",
    "PRIMARY",
    "M",
    "MB",
    "ND",
    "NORM",
    "MOSAIC"
],
  "ImagingFrequency": 123.259,
  "InPlanePhaseEncodingDirectionDICOM": "COL",
  "InstitutionAddress": "Maynard 3,Hanover,NH,US,03755",
  "InstitutionName": "Dartmouth College - PBS",
  "InstitutionalDepartmentName": "Department",
  "MRAcquisitionType": "2D",
  "MagneticFieldStrength": 3,
  "Manufacturer": "Siemens",
  "ManufacturersModelName": "Prisma",
  "Modality": "MR",
  "MultibandAccelerationFactor": 8,
  "PartialFourier": 1,
  "PatientPosition": "HFS",
  "PercentPhaseFOV": 100,
  "PercentSampling": 100,
  "PhaseEncodingDirection": "j-",
  "PhaseEncodingSteps": 82,
  "PhaseResolution": 1,
  "PixelBandwidth": 3050,
  "ProcedureStepDescription": "Wager_Wager^1076_spacetop",
  "ProtocolName": "func_run-03_task-social_acq-ap-mb8",
  "PulseSequenceDetails": "%CustomerSeq%\\cmrr_mbep2d_bold",
  "ReceiveCoilActiveElements": "HEA;HEP",
  "ReceiveCoilName": "Head_32",
  "ReconMatrixPE": 82,
  "RepetitionTime": 0.46,
  "SAR": 0.112665,
  "ScanOptions": "FS",
  "ScanningSequence": "EP",
  "SequenceName": "epfid2d1_82",
  "SequenceVariant": "SK\\SS",
  "SeriesDescription": "func_run-03_task-social_acq-ap-mb8",
  "SeriesNumber": 16,
  "ShimSetting": [4204, -7781, -7196, 393, -191, -136, -32, 92],
  "SliceThickness": 2.7,
  "SliceTiming": [0, 0.25, 0.0625, 0.315, 0.125, 0.3775, 0.1875, 0, 0.25, 0.0625, 0.315, 0.125, 0.3775, 0.1875, 0, 0.25, 0.0625, 0.315, 0.125, 0.3775, 0.1875, 0, 0.25, 0.0625, 0.315, 0.125, 0.3775, 0.1875, 0, 0.25, 0.0625, 0.315, 0.125, 0.3775, 0.1875, 0, 0.25, 0.0625, 0.315, 0.125, 0.3775, 0.1875, 0, 0.25, 0.0625, 0.315, 0.125, 0.3775, 0.1875, 0, 0.25, 0.0625, 0.315, 0.125, 0.3775, 0.1875],
  "SoftwareVersions": "syngo MR E11",
  "SpacingBetweenSlices": 2.7,
  "StationName": "AWP66112",
  "TaskName": "social",
  "TotalReadoutTime": 0.03969,
  "TxRefAmp": 266.607,
  "WipMemBlock": "093e80be-7572-41b6-b04b-ac33c31dd712||Sequence: R016 ve11e/master r/434b28f1; Aug  7 2019 18:53:46 by eja",
  "dcmmeta_affine": [
    [-2.680717706680298, 0.10626296699047089, 0.023761793971061707, 107.3648910522461],
    [0.10698911547660828, 2.6793246269226074, 0.08927701413631439, -109.53044128417969],
    [0.020066192373633385, -0.08958100527524948, 2.6984190940856934, -57.954261779785156],
    [0.0, 0.0, 0.0, 1.0]
],
  "dcmmeta_reorient_transform": [
    [0.0, -1.0, 0.0, 81.0],
    [1.0, 0.0, 0.0, 0.0],
    [0.0, 0.0, 1.0, 0.0],
    [0.0, 0.0, 0.0, 1.0]
],
  "dcmmeta_shape": [82, 82, 56, 872],
  "dcmmeta_slice_dim": 2,
  "dcmmeta_version": 0.6,
  "global": {
    "const": {
      "AccessionNumber": "A004460",
      "AcquisitionMatrix": [82, 0, 0, 82],
      "AngioFlag": "N",
      "BitsAllocated": 16,
      "BitsStored": 16,
      "BodyPartExamined": "BRAIN",
      "Columns": 656,
      "EchoNumbers": 1,
      "EchoTime": 27.2,
      "EchoTrainLength": 82,
      "FlipAngle": 44.0,
      "HighBit": 15,
      "ImageOrientationPatient": [0.999176573705, -0.0398777616096, 0.0074792170812, 0.03960710617041, 0.99865731503581, 0.03338928370402],
      "ImagePositionPatient": [-915.83564682311, -845.75512492651, -96.679068077996],
      "ImageType": [
        "ORIGINAL",
        "PRIMARY",
        "M",
        "MB",
        "ND",
        "NORM",
        "MOSAIC"
],
      "ImagedNucleus": "1H",
      "ImagingFrequency": 123.259046,
      "InPlanePhaseEncodingDirection": "COL",
      "MRAcquisitionType": "2D",
      "MagneticFieldStrength": 3.0,
      "Manufacturer": "SIEMENS",
      "ManufacturerModelName": "Prisma",
      "Modality": "MR",
      "NumberOfAverages": 1.0,
      "NumberOfPhaseEncodingSteps": 82,
      "PercentPhaseFieldOfView": 100.0,
      "PercentSampling": 100.0,
      "PerformedProcedureStepStartTime": "105328.063000",
      "PhotometricInterpretation": "MONOCHROME2",
      "PixelBandwidth": 3050.0,
      "PixelRepresentation": 0,
      "PixelSpacing": [2.6829268932343, 2.6829268932343],
      "ProtocolName": "func_run-03_task-social_acq-ap-mb8",
      "RepetitionTime": 460.0,
      "Rows": 656,
      "SAR": 0.11266464437134,
      "SamplesPerPixel": 1,
      "ScanOptions": "FS",
      "ScanningSequence": "EP",
      "SequenceName": "epfid2d1_82",
      "SequenceVariant": [
        "SK",
        "SS"
],
      "SeriesDescription": "func_run-03_task-social_acq-ap-mb8",
      "SeriesNumber": 16,
      "SeriesTime": "114433.823000",
      "SliceLocation": -60.597127129771,
      "SliceThickness": 2.7000000476837,
      "SmallestImagePixelValue": 0,
      "SoftwareVersions": "syngo MR E11",
      "SpacingBetweenSlices": 2.7000000012354,
      "SpecificCharacterSet": "ISO_IR 100",
      "StudyID": "1",
      "StudyTime": "105327.998000",
      "TransmitCoilName": "Body",
      "VariableFlipAngleFlag": "N",
      "WindowCenterWidthExplanation": "Algo1"
    },
    "slices": {}
  },
  "time": {
    "samples": {
      "AcquisitionNumber": [1, 2, 3, 4, 5, 6, 7, 8, 9, 10, 11, 12, 13, 14, 15, 16, 17, 18, 19, 20, 21, 22, 23, 24, 25, 26, 27, 28, 29, 30, 31, 32, 33, 34, 35, 36, 37, 38, 39, 40, 41, 42, 43, 44, 45, 46, 47, 48, 49, 50, 51, 52, 53, 54, 55, 56, 57, 58, 59, 60, 61, 62, 63, 64, 65, 66, 67, 68, 69, 70, 71, 72, 73, 74, 75, 76, 77, 78, 79, 80, 81, 82, 83, 84, 85, 86, 87, 88, 89, 90, 91, 92, 93, 94, 95, 96, 97, 98, 99, 100, 101, 102, 103, 104, 105, 106, 107, 108, 109, 110, 111, 112, 113, 114, 115, 116, 117, 118, 119, 120, 121, 122, 123, 124, 125, 126, 127, 128, 129, 130, 131, 132, 133, 134, 135, 136, 137, 138, 139, 140, 141, 142, 143, 144, 145, 146, 147, 148, 149, 150, 151, 152, 153, 154, 155, 156, 157, 158, 159, 160, 161, 162, 163, 164, 165, 166, 167, 168, 169, 170, 171, 172, 173, 174, 175, 176, 177, 178, 179, 180, 181, 182, 183, 184, 185, 186, 187, 188, 189, 190, 191, 192, 193, 194, 195, 196, 197, 198, 199, 200, 201, 202, 203, 204, 205, 206, 207, 208, 209, 210, 211, 212, 213, 214, 215, 216, 217, 218, 219, 220, 221, 222, 223, 224, 225, 226, 227, 228, 229, 230, 231, 232, 233, 234, 235, 236, 237, 238, 239, 240, 241, 242, 243, 244, 245, 246, 247, 248, 249, 250, 251, 252, 253, 254, 255, 256, 257, 258, 259, 260, 261, 262, 263, 264, 265, 266, 267, 268, 269, 270, 271, 272, 273, 274, 275, 276, 277, 278, 279, 280, 281, 282, 283, 284, 285, 286, 287, 288, 289, 290, 291, 292, 293, 294, 295, 296, 297, 298, 299, 300, 301, 302, 303, 304, 305, 306, 307, 308, 309, 310, 311, 312, 313, 314, 315, 316, 317, 318, 319, 320, 321, 322, 323, 324, 325, 326, 327, 328, 329, 330, 331, 332, 333, 334, 335, 336, 337, 338, 339, 340, 341, 342, 343, 344, 345, 346, 347, 348, 349, 350, 351, 352, 353, 354, 355, 356, 357, 358, 359, 360, 361, 362, 363, 364, 365, 366, 367, 368, 369, 370, 371, 372, 373, 374, 375, 376, 377, 378, 379, 380, 381, 382, 383, 384, 385, 386, 387, 388, 389, 390, 391, 392, 393, 394, 395, 396, 397, 398, 399, 400, 401, 402, 403, 404, 405, 406, 407, 408, 409, 410, 411, 412, 413, 414, 415, 416, 417, 418, 419, 420, 421, 422, 423, 424, 425, 426, 427, 428, 429, 430, 431, 432, 433, 434, 435, 436, 437, 438, 439, 440, 441, 442, 443, 444, 445, 446, 447, 448, 449, 450, 451, 452, 453, 454, 455, 456, 457, 458, 459, 460, 461, 462, 463, 464, 465, 466, 467, 468, 469, 470, 471, 472, 473, 474, 475, 476, 477, 478, 479, 480, 481, 482, 483, 484, 485, 486, 487, 488, 489, 490, 491, 492, 493, 494, 495, 496, 497, 498, 499, 500, 501, 502, 503, 504, 505, 506, 507, 508, 509, 510, 511, 512, 513, 514, 515, 516, 517, 518, 519, 520, 521, 522, 523, 524, 525, 526, 527, 528, 529, 530, 531, 532, 533, 534, 535, 536, 537, 538, 539, 540, 541, 542, 543, 544, 545, 546, 547, 548, 549, 550, 551, 552, 553, 554, 555, 556, 557, 558, 559, 560, 561, 562, 563, 564, 565, 566, 567, 568, 569, 570, 571, 572, 573, 574, 575, 576, 577, 578, 579, 580, 581, 582, 583, 584, 585, 586, 587, 588, 589, 590, 591, 592, 593, 594, 595, 596, 597, 598, 599, 600, 601, 602, 603, 604, 605, 606, 607, 608, 609, 610, 611, 612, 613, 614, 615, 616, 617, 618, 619, 620, 621, 622, 623, 624, 625, 626, 627, 628, 629, 630, 631, 632, 633, 634, 635, 636, 637, 638, 639, 640, 641, 642, 643, 644, 645, 646, 647, 648, 649, 650, 651, 652, 653, 654, 655, 656, 657, 658, 659, 660, 661, 662, 663, 664, 665, 666, 667, 668, 669, 670, 671, 672, 673, 674, 675, 676, 677, 678, 679, 680, 681, 682, 683, 684, 685, 686, 687, 688, 689, 690, 691, 692, 693, 694, 695, 696, 697, 698, 699, 700, 701, 702, 703, 704, 705, 706, 707, 708, 709, 710, 711, 712, 713, 714, 715, 716, 717, 718, 719, 720, 721, 722, 723, 724, 725, 726, 727, 728, 729, 730, 731, 732, 733, 734, 735, 736, 737, 738, 739, 740, 741, 742, 743, 744, 745, 746, 747, 748, 749, 750, 751, 752, 753, 754, 755, 756, 757, 758, 759, 760, 761, 762, 763, 764, 765, 766, 767, 768, 769, 770, 771, 772, 773, 774, 775, 776, 777, 778, 779, 780, 781, 782, 783, 784, 785, 786, 787, 788, 789, 790, 791, 792, 793, 794, 795, 796, 797, 798, 799, 800, 801, 802, 803, 804, 805, 806, 807, 808, 809, 810, 811, 812, 813, 814, 815, 816, 817, 818, 819, 820, 821, 822, 823, 824, 825, 826, 827, 828, 829, 830, 831, 832, 833, 834, 835, 836, 837, 838, 839, 840, 841, 842, 843, 844, 845, 846, 847, 848, 849, 850, 851, 852, 853, 854, 855, 856, 857, 858, 859, 860, 861, 862, 863, 864, 865, 866, 867, 868, 869, 870, 871, 872],
      "AcquisitionTime": ["114414.415000", "114414.875000", "114415.335000", "114415.795000", "114416.255000", "114416.715000", "114417.175000", "114417.635000", "114418.095000", "114418.555000", "114419.015000", "114419.475000", "114419.935000", "114420.395000", "114420.855000", "114421.315000", "114421.775000", "114422.235000", "114422.695000", "114423.155000", "114423.615000", "114424.075000", "114424.535000", "114424.995000", "114425.455000", "114425.915000", "114426.375000", "114426.835000", "114427.295000", "114427.755000", "114428.215000", "114428.675000", "114429.135000", "114429.595000", "114430.055000", "114430.515000", "114430.975000", "114431.435000", "114431.895000", "114432.355000", "114432.815000", "114433.275000", "114433.735000", "114434.195000", "114434.655000", "114435.115000", "114435.575000", "114436.035000", "114436.495000", "114436.955000", "114437.415000", "114437.875000", "114438.335000", "114438.795000", "114439.255000", "114439.715000", "114440.175000", "114440.635000", "114441.095000", "114441.555000", "114442.015000", "114442.475000", "114442.935000", "114443.395000", "114443.855000", "114444.315000", "114444.775000", "114445.235000", "114445.695000", "114446.155000", "114446.615000", "114447.075000", "114447.535000", "114447.995000", "114448.455000", "114448.915000", "114449.375000", "114449.835000", "114450.295000", "114450.755000", "114451.215000", "114451.675000", "114452.135000", "114452.595000", "114453.055000", "114453.515000", "114453.975000", "114454.435000", "114454.895000", "114455.355000", "114455.815000", "114456.275000", "114456.735000", "114457.195000", "114457.655000", "114458.115000", "114458.575000", "114459.035000", "114459.495000", "114459.955000", "114500.415000", "114500.875000", "114501.335000", "114501.795000", "114502.255000", "114502.715000", "114503.175000", "114503.635000", "114504.095000", "114504.555000", "114505.015000", "114505.475000", "114505.935000", "114506.395000", "114506.855000", "114507.315000", "114507.775000", "114508.235000", "114508.695000", "114509.155000", "114509.615000", "114510.075000", "114510.535000", "114510.995000", "114511.455000", "114511.915000", "114512.375000", "114512.835000", "114513.295000", "114513.755000", "114514.215000", "114514.675000", "114515.135000", "114515.595000", "114516.055000", "114516.515000", "114516.975000", "114517.435000", "114517.895000", "114518.355000", "114518.815000", "114519.275000", "114519.735000", "114520.195000", "114520.655000", "114521.115000", "114521.575000", "114522.035000", "114522.495000", "114522.955000", "114523.415000", "114523.875000", "114524.335000", "114524.795000", "114525.255000", "114525.715000", "114526.175000", "114526.635000", "114527.095000", "114527.555000", "114528.015000", "114528.475000", "114528.935000", "114529.395000", "114529.855000", "114530.315000", "114530.775000", "114531.235000", "114531.695000", "114532.155000", "114532.615000", "114533.075000", "114533.535000", "114533.995000", "114534.455000", "114534.915000", "114535.375000", "114535.835000", "114536.295000", "114536.755000", "114537.215000", "114537.675000", "114538.135000", "114538.595000", "114539.055000", "114539.515000", "114539.975000", "114540.435000", "114540.895000", "114541.355000", "114541.815000", "114542.275000", "114542.735000", "114543.195000", "114543.655000", "114544.115000", "114544.575000", "114545.035000", "114545.495000", "114545.955000", "114546.415000", "114546.875000", "114547.335000", "114547.795000", "114548.255000", "114548.715000", "114549.175000", "114549.635000", "114550.095000", "114550.555000", "114551.015000", "114551.475000", "114551.935000", "114552.395000", "114552.855000", "114553.315000", "114553.775000", "114554.235000", "114554.695000", "114555.155000", "114555.615000", "114556.075000", "114556.535000", "114556.995000", "114557.455000", "114557.915000", "114558.375000", "114558.835000", "114559.295000", "114559.755000", "114600.215000", "114600.675000", "114601.135000", "114601.595000", "114602.055000", "114602.515000", "114602.975000", "114603.435000", "114603.895000", "114604.355000", "114604.815000", "114605.275000", "114605.735000", "114606.195000", "114606.655000", "114607.115000", "114607.575000", "114608.035000", "114608.495000", "114608.955000", "114609.415000", "114609.875000", "114610.335000", "114610.795000", "114611.255000", "114611.715000", "114612.175000", "114612.635000", "114613.095000", "114613.555000", "114614.015000", "114614.475000", "114614.935000", "114615.395000", "114615.855000", "114616.315000", "114616.775000", "114617.235000", "114617.695000", "114618.155000", "114618.615000", "114619.075000", "114619.535000", "114619.995000", "114620.455000", "114620.915000", "114621.375000", "114621.835000", "114622.295000", "114622.755000", "114623.215000", "114623.675000", "114624.135000", "114624.595000", "114625.055000", "114625.515000", "114625.975000", "114626.435000", "114626.895000", "114627.355000", "114627.815000", "114628.275000", "114628.735000", "114629.195000", "114629.655000", "114630.115000", "114630.575000", "114631.035000", "114631.495000", "114631.955000", "114632.415000", "114632.875000", "114633.335000", "114633.795000", "114634.255000", "114634.715000", "114635.175000", "114635.635000", "114636.095000", "114636.555000", "114637.015000", "114637.475000", "114637.935000", "114638.395000", "114638.855000", "114639.315000", "114639.775000", "114640.235000", "114640.695000", "114641.155000", "114641.615000", "114642.075000", "114642.535000", "114642.995000", "114643.455000", "114643.915000", "114644.375000", "114644.835000", "114645.295000", "114645.755000", "114646.215000", "114646.675000", "114647.135000", "114647.595000", "114648.055000", "114648.515000", "114648.975000", "114649.435000", "114649.895000", "114650.355000", "114650.815000", "114651.275000", "114651.735000", "114652.195000", "114652.655000", "114653.115000", "114653.575000", "114654.035000", "114654.495000", "114654.955000", "114655.415000", "114655.875000", "114656.335000", "114656.795000", "114657.255000", "114657.715000", "114658.175000", "114658.635000", "114659.095000", "114659.555000", "114700.015000", "114700.475000", "114700.935000", "114701.395000", "114701.855000", "114702.315000", "114702.775000", "114703.235000", "114703.695000", "114704.155000", "114704.615000", "114705.075000", "114705.535000", "114705.995000", "114706.455000", "114706.915000", "114707.375000", "114707.835000", "114708.295000", "114708.755000", "114709.215000", "114709.675000", "114710.135000", "114710.595000", "114711.055000", "114711.515000", "114711.975000", "114712.435000", "114712.895000", "114713.355000", "114713.815000", "114714.275000", "114714.735000", "114715.195000", "114715.655000", "114716.115000", "114716.575000", "114717.035000", "114717.495000", "114717.955000", "114718.415000", "114718.875000", "114719.335000", "114719.795000", "114720.255000", "114720.715000", "114721.175000", "114721.635000", "114722.095000", "114722.555000", "114723.015000", "114723.475000", "114723.935000", "114724.395000", "114724.855000", "114725.315000", "114725.775000", "114726.235000", "114726.695000", "114727.155000", "114727.615000", "114728.075000", "114728.535000", "114728.995000", "114729.455000", "114729.915000", "114730.375000", "114730.835000", "114731.295000", "114731.755000", "114732.215000", "114732.675000", "114733.135000", "114733.595000", "114734.055000", "114734.515000", "114734.975000", "114735.435000", "114735.895000", "114736.355000", "114736.815000", "114737.275000", "114737.735000", "114738.195000", "114738.655000", "114739.115000", "114739.575000", "114740.035000", "114740.495000", "114740.955000", "114741.415000", "114741.875000", "114742.335000", "114742.795000", "114743.255000", "114743.715000", "114744.175000", "114744.635000", "114745.095000", "114745.555000", "114746.015000", "114746.475000", "114746.935000", "114747.395000", "114747.855000", "114748.315000", "114748.775000", "114749.235000", "114749.695000", "114750.155000", "114750.615000", "114751.075000", "114751.535000", "114751.995000", "114752.455000", "114752.915000", "114753.375000", "114753.835000", "114754.295000", "114754.755000", "114755.215000", "114755.675000", "114756.135000", "114756.595000", "114757.055000", "114757.515000", "114757.975000", "114758.435000", "114758.895000", "114759.355000", "114759.815000", "114800.275000", "114800.735000", "114801.195000", "114801.655000", "114802.115000", "114802.575000", "114803.035000", "114803.495000", "114803.955000", "114804.415000", "114804.875000", "114805.335000", "114805.795000", "114806.255000", "114806.715000", "114807.175000", "114807.635000", "114808.095000", "114808.555000", "114809.015000", "114809.475000", "114809.935000", "114810.395000", "114810.855000", "114811.315000", "114811.775000", "114812.235000", "114812.695000", "114813.155000", "114813.615000", "114814.075000", "114814.535000", "114814.995000", "114815.455000", "114815.915000", "114816.375000", "114816.835000", "114817.295000", "114817.755000", "114818.215000", "114818.675000", "114819.135000", "114819.595000", "114820.055000", "114820.515000", "114820.975000", "114821.435000", "114821.895000", "114822.355000", "114822.815000", "114823.275000", "114823.735000", "114824.195000", "114824.655000", "114825.115000", "114825.575000", "114826.035000", "114826.495000", "114826.955000", "114827.415000", "114827.875000", "114828.335000", "114828.795000", "114829.255000", "114829.715000", "114830.175000", "114830.635000", "114831.095000", "114831.555000", "114832.015000", "114832.475000", "114832.935000", "114833.395000", "114833.855000", "114834.315000", "114834.775000", "114835.235000", "114835.695000", "114836.155000", "114836.615000", "114837.075000", "114837.535000", "114837.995000", "114838.455000", "114838.915000", "114839.375000", "114839.835000", "114840.295000", "114840.755000", "114841.215000", "114841.675000", "114842.135000", "114842.595000", "114843.055000", "114843.515000", "114843.975000", "114844.435000", "114844.895000", "114845.355000", "114845.815000", "114846.275000", "114846.735000", "114847.195000", "114847.655000", "114848.115000", "114848.575000", "114849.035000", "114849.495000", "114849.955000", "114850.415000", "114850.875000", "114851.335000", "114851.795000", "114852.255000", "114852.715000", "114853.175000", "114853.635000", "114854.095000", "114854.555000", "114855.015000", "114855.475000", "114855.935000", "114856.395000", "114856.855000", "114857.315000", "114857.775000", "114858.235000", "114858.695000", "114859.155000", "114859.615000", "114900.075000", "114900.535000", "114900.995000", "114901.455000", "114901.915000", "114902.375000", "114902.835000", "114903.295000", "114903.755000", "114904.215000", "114904.675000", "114905.135000", "114905.595000", "114906.055000", "114906.515000", "114906.975000", "114907.435000", "114907.895000", "114908.355000", "114908.815000", "114909.275000", "114909.735000", "114910.195000", "114910.655000", "114911.115000", "114911.575000", "114912.035000", "114912.495000", "114912.955000", "114913.415000", "114913.875000", "114914.335000", "114914.795000", "114915.255000", "114915.715000", "114916.175000", "114916.635000", "114917.095000", "114917.555000", "114918.015000", "114918.475000", "114918.935000", "114919.395000", "114919.855000", "114920.315000", "114920.775000", "114921.235000", "114921.695000", "114922.155000", "114922.615000", "114923.075000", "114923.535000", "114923.995000", "114924.455000", "114924.915000", "114925.375000", "114925.835000", "114926.295000", "114926.755000", "114927.215000", "114927.675000", "114928.135000", "114928.595000", "114929.055000", "114929.515000", "114929.975000", "114930.435000", "114930.895000", "114931.355000", "114931.815000", "114932.275000", "114932.735000", "114933.195000", "114933.655000", "114934.115000", "114934.575000", "114935.035000", "114935.495000", "114935.955000", "114936.415000", "114936.875000", "114937.335000", "114937.795000", "114938.255000", "114938.715000", "114939.175000", "114939.635000", "114940.095000", "114940.555000", "114941.015000", "114941.475000", "114941.935000", "114942.395000", "114942.855000", "114943.315000", "114943.775000", "114944.235000", "114944.695000", "114945.155000", "114945.615000", "114946.075000", "114946.535000", "114946.995000", "114947.455000", "114947.915000", "114948.375000", "114948.835000", "114949.295000", "114949.755000", "114950.215000", "114950.675000", "114951.135000", "114951.595000", "114952.055000", "114952.515000", "114952.975000", "114953.435000", "114953.895000", "114954.355000", "114954.815000", "114955.275000", "114955.735000", "114956.195000", "114956.655000", "114957.115000", "114957.575000", "114958.035000", "114958.495000", "114958.955000", "114959.415000", "114959.875000", "115000.335000", "115000.795000", "115001.255000", "115001.715000", "115002.175000", "115002.635000", "115003.095000", "115003.555000", "115004.015000", "115004.475000", "115004.935000", "115005.395000", "115005.855000", "115006.315000", "115006.775000", "115007.235000", "115007.695000", "115008.155000", "115008.615000", "115009.075000", "115009.535000", "115009.995000", "115010.455000", "115010.915000", "115011.375000", "115011.835000", "115012.295000", "115012.755000", "115013.215000", "115013.675000", "115014.135000", "115014.595000", "115015.055000", "115015.515000", "115015.975000", "115016.435000", "115016.895000", "115017.355000", "115017.815000", "115018.275000", "115018.735000", "115019.195000", "115019.655000", "115020.115000", "115020.575000", "115021.035000", "115021.495000", "115021.955000", "115022.415000", "115022.875000", "115023.335000", "115023.795000", "115024.255000", "115024.715000", "115025.175000", "115025.635000", "115026.095000", "115026.555000", "115027.015000", "115027.475000", "115027.935000", "115028.395000", "115028.855000", "115029.315000", "115029.775000", "115030.235000", "115030.695000", "115031.155000", "115031.615000", "115032.075000", "115032.535000", "115032.995000", "115033.455000", "115033.915000", "115034.375000", "115034.835000", "115035.295000", "115035.755000", "115036.215000", "115036.675000", "115037.135000", "115037.595000", "115038.055000", "115038.515000", "115038.975000", "115039.435000", "115039.895000", "115040.355000", "115040.815000", "115041.275000", "115041.735000", "115042.195000", "115042.655000", "115043.115000", "115043.575000", "115044.035000", "115044.495000", "115044.955000", "115045.415000", "115045.875000", "115046.335000", "115046.795000", "115047.255000", "115047.715000", "115048.175000", "115048.635000", "115049.095000", "115049.555000", "115050.015000", "115050.475000", "115050.935000", "115051.395000", "115051.855000", "115052.315000", "115052.775000", "115053.235000", "115053.695000", "115054.155000", "115054.615000", "115055.075000"],
