{
  "AcquisitionMatrixPE": 82,
  "AcquisitionNumber": 1,
  "AcquisitionTime": "12:14:17.360000",
  "BandwidthPerPixelPhaseEncode": 24.888,
  "BaseResolution": 82,
  "BodyPartExamined": "BRAIN",
  "ConsistencyInfo": "N4_VE11E_LATEST_20181129",
  "ConversionSoftware": "dcm2niix",
  "ConversionSoftwareVersion": "v1.0.20201102",
  "DerivedVendorReportedEchoSpacing": 0.00049,
  "DeviceSerialNumber": "66112",
  "DwellTime": 2e-06,
  "EchoTime": 0.0272,
  "EchoTrainLength": 82,
  "EffectiveEchoSpacing": 0.00049,
  "FlipAngle": 44,
  "ImageComments": "Unaliased MB8/PE3",
  "ImageOrientationPatientDICOM": [0.999177, -0.0398778, 0.00747922, 0.0396071, 0.998657, 0.0333893],
  "ImageType": [
    "ORIGINAL",
    "PRIMARY",
    "M",
    "MB",
    "ND",
    "NORM",
    "MOSAIC"
],
  "ImagingFrequency": 123.259,
  "InPlanePhaseEncodingDirectionDICOM": "COL",
  "InstitutionAddress": "Maynard 3,Hanover,NH,US,03755",
  "InstitutionName": "Dartmouth College - PBS",
  "InstitutionalDepartmentName": "Department",
  "MRAcquisitionType": "2D",
  "MagneticFieldStrength": 3,
  "Manufacturer": "Siemens",
  "ManufacturersModelName": "Prisma",
  "Modality": "MR",
  "MultibandAccelerationFactor": 8,
  "PartialFourier": 1,
  "PatientPosition": "HFS",
  "PercentPhaseFOV": 100,
  "PercentSampling": 100,
  "PhaseEncodingDirection": "j-",
  "PhaseEncodingSteps": 82,
  "PhaseResolution": 1,
  "PixelBandwidth": 3050,
  "ProcedureStepDescription": "Wager_Wager^1076_spacetop",
  "ProtocolName": "func_run-06_task-social_acq-ap-mb8",
  "PulseSequenceDetails": "%CustomerSeq%\\cmrr_mbep2d_bold",
  "ReceiveCoilActiveElements": "HEA;HEP",
  "ReceiveCoilName": "Head_32",
  "ReconMatrixPE": 82,
  "RepetitionTime": 0.46,
  "SAR": 0.112665,
  "ScanOptions": "FS",
  "ScanningSequence": "EP",
  "SequenceName": "epfid2d1_82",
  "SequenceVariant": "SK\\SS",
  "SeriesDescription": "func_run-06_task-social_acq-ap-mb8",
  "SeriesNumber": 24,
  "ShimSetting": [4204, -7781, -7196, 393, -191, -136, -32, 92],
  "SliceThickness": 2.7,
  "SliceTiming": [0, 0.25, 0.0625, 0.3125, 0.125, 0.3775, 0.1875, 0, 0.25, 0.0625, 0.3125, 0.125, 0.3775, 0.1875, 0, 0.25, 0.0625, 0.3125, 0.125, 0.3775, 0.1875, 0, 0.25, 0.0625, 0.3125, 0.125, 0.3775, 0.1875, 0, 0.25, 0.0625, 0.3125, 0.125, 0.3775, 0.1875, 0, 0.25, 0.0625, 0.3125, 0.125, 0.3775, 0.1875, 0, 0.25, 0.0625, 0.3125, 0.125, 0.3775, 0.1875, 0, 0.25, 0.0625, 0.3125, 0.125, 0.3775, 0.1875],
  "SoftwareVersions": "syngo MR E11",
  "SpacingBetweenSlices": 2.7,
  "StationName": "AWP66112",
  "TaskName": "social",
  "TotalReadoutTime": 0.03969,
  "TxRefAmp": 266.607,
  "WipMemBlock": "afc91e80-eab1-4272-8c23-739f254bd760||Sequence: R016 ve11e/master r/434b28f1; Aug  7 2019 18:53:46 by eja",
  "dcmmeta_affine": [
    [-2.680717706680298, 0.10626296699047089, 0.023761793971061707, 107.3648910522461],
    [0.10698911547660828, 2.6793246269226074, 0.08927701413631439, -109.53044128417969],
    [0.020066192373633385, -0.08958100527524948, 2.6984190940856934, -57.954261779785156],
    [0.0, 0.0, 0.0, 1.0]
],
  "dcmmeta_reorient_transform": [
    [0.0, -1.0, 0.0, 81.0],
    [1.0, 0.0, 0.0, 0.0],
    [0.0, 0.0, 1.0, 0.0],
    [0.0, 0.0, 0.0, 1.0]
],
  "dcmmeta_shape": [82, 82, 56, 872],
  "dcmmeta_slice_dim": 2,
  "dcmmeta_version": 0.6,
  "global": {
    "const": {
      "AccessionNumber": "A004460",
      "AcquisitionMatrix": [82, 0, 0, 82],
      "AngioFlag": "N",
      "BitsAllocated": 16,
      "BitsStored": 16,
      "BodyPartExamined": "BRAIN",
      "Columns": 656,
      "EchoNumbers": 1,
      "EchoTime": 27.2,
      "EchoTrainLength": 82,
      "FlipAngle": 44.0,
      "HighBit": 15,
      "ImageOrientationPatient": [0.999176573705, -0.0398777616096, 0.0074792170812, 0.03960710617041, 0.99865731503581, 0.03338928370402],
      "ImagePositionPatient": [-915.83564682311, -845.75512492651, -96.679068077996],
      "ImageType": [
        "ORIGINAL",
        "PRIMARY",
        "M",
        "MB",
        "ND",
        "NORM",
        "MOSAIC"
],
      "ImagedNucleus": "1H",
      "ImagingFrequency": 123.259045,
      "InPlanePhaseEncodingDirection": "COL",
      "MRAcquisitionType": "2D",
      "MagneticFieldStrength": 3.0,
      "Manufacturer": "SIEMENS",
      "ManufacturerModelName": "Prisma",
      "Modality": "MR",
      "NumberOfAverages": 1.0,
      "NumberOfPhaseEncodingSteps": 82,
      "PercentPhaseFieldOfView": 100.0,
      "PercentSampling": 100.0,
      "PerformedProcedureStepStartTime": "105328.063000",
      "PhotometricInterpretation": "MONOCHROME2",
      "PixelBandwidth": 3050.0,
      "PixelRepresentation": 0,
      "PixelSpacing": [2.6829268932343, 2.6829268932343],
      "ProtocolName": "func_run-06_task-social_acq-ap-mb8",
      "RepetitionTime": 460.0,
      "Rows": 656,
      "SAR": 0.11266464437134,
      "SamplesPerPixel": 1,
      "ScanOptions": "FS",
      "ScanningSequence": "EP",
      "SequenceName": "epfid2d1_82",
      "SequenceVariant": [
        "SK",
        "SS"
],
      "SeriesDescription": "func_run-06_task-social_acq-ap-mb8",
      "SeriesNumber": 24,
      "SeriesTime": "121433.910000",
      "SliceLocation": -60.597127129771,
      "SliceThickness": 2.7000000476837,
      "SmallestImagePixelValue": 0,
      "SoftwareVersions": "syngo MR E11",
      "SpacingBetweenSlices": 2.7000000012354,
      "SpecificCharacterSet": "ISO_IR 100",
      "StudyID": "1",
      "StudyTime": "105327.998000",
      "TransmitCoilName": "Body",
      "VariableFlipAngleFlag": "N",
      "WindowCenterWidthExplanation": "Algo1"
    },
    "slices": {}
  },
  "time": {
    "samples": {
      "AcquisitionNumber": [1, 2, 3, 4, 5, 6, 7, 8, 9, 10, 11, 12, 13, 14, 15, 16, 17, 18, 19, 20, 21, 22, 23, 24, 25, 26, 27, 28, 29, 30, 31, 32, 33, 34, 35, 36, 37, 38, 39, 40, 41, 42, 43, 44, 45, 46, 47, 48, 49, 50, 51, 52, 53, 54, 55, 56, 57, 58, 59, 60, 61, 62, 63, 64, 65, 66, 67, 68, 69, 70, 71, 72, 73, 74, 75, 76, 77, 78, 79, 80, 81, 82, 83, 84, 85, 86, 87, 88, 89, 90, 91, 92, 93, 94, 95, 96, 97, 98, 99, 100, 101, 102, 103, 104, 105, 106, 107, 108, 109, 110, 111, 112, 113, 114, 115, 116, 117, 118, 119, 120, 121, 122, 123, 124, 125, 126, 127, 128, 129, 130, 131, 132, 133, 134, 135, 136, 137, 138, 139, 140, 141, 142, 143, 144, 145, 146, 147, 148, 149, 150, 151, 152, 153, 154, 155, 156, 157, 158, 159, 160, 161, 162, 163, 164, 165, 166, 167, 168, 169, 170, 171, 172, 173, 174, 175, 176, 177, 178, 179, 180, 181, 182, 183, 184, 185, 186, 187, 188, 189, 190, 191, 192, 193, 194, 195, 196, 197, 198, 199, 200, 201, 202, 203, 204, 205, 206, 207, 208, 209, 210, 211, 212, 213, 214, 215, 216, 217, 218, 219, 220, 221, 222, 223, 224, 225, 226, 227, 228, 229, 230, 231, 232, 233, 234, 235, 236, 237, 238, 239, 240, 241, 242, 243, 244, 245, 246, 247, 248, 249, 250, 251, 252, 253, 254, 255, 256, 257, 258, 259, 260, 261, 262, 263, 264, 265, 266, 267, 268, 269, 270, 271, 272, 273, 274, 275, 276, 277, 278, 279, 280, 281, 282, 283, 284, 285, 286, 287, 288, 289, 290, 291, 292, 293, 294, 295, 296, 297, 298, 299, 300, 301, 302, 303, 304, 305, 306, 307, 308, 309, 310, 311, 312, 313, 314, 315, 316, 317, 318, 319, 320, 321, 322, 323, 324, 325, 326, 327, 328, 329, 330, 331, 332, 333, 334, 335, 336, 337, 338, 339, 340, 341, 342, 343, 344, 345, 346, 347, 348, 349, 350, 351, 352, 353, 354, 355, 356, 357, 358, 359, 360, 361, 362, 363, 364, 365, 366, 367, 368, 369, 370, 371, 372, 373, 374, 375, 376, 377, 378, 379, 380, 381, 382, 383, 384, 385, 386, 387, 388, 389, 390, 391, 392, 393, 394, 395, 396, 397, 398, 399, 400, 401, 402, 403, 404, 405, 406, 407, 408, 409, 410, 411, 412, 413, 414, 415, 416, 417, 418, 419, 420, 421, 422, 423, 424, 425, 426, 427, 428, 429, 430, 431, 432, 433, 434, 435, 436, 437, 438, 439, 440, 441, 442, 443, 444, 445, 446, 447, 448, 449, 450, 451, 452, 453, 454, 455, 456, 457, 458, 459, 460, 461, 462, 463, 464, 465, 466, 467, 468, 469, 470, 471, 472, 473, 474, 475, 476, 477, 478, 479, 480, 481, 482, 483, 484, 485, 486, 487, 488, 489, 490, 491, 492, 493, 494, 495, 496, 497, 498, 499, 500, 501, 502, 503, 504, 505, 506, 507, 508, 509, 510, 511, 512, 513, 514, 515, 516, 517, 518, 519, 520, 521, 522, 523, 524, 525, 526, 527, 528, 529, 530, 531, 532, 533, 534, 535, 536, 537, 538, 539, 540, 541, 542, 543, 544, 545, 546, 547, 548, 549, 550, 551, 552, 553, 554, 555, 556, 557, 558, 559, 560, 561, 562, 563, 564, 565, 566, 567, 568, 569, 570, 571, 572, 573, 574, 575, 576, 577, 578, 579, 580, 581, 582, 583, 584, 585, 586, 587, 588, 589, 590, 591, 592, 593, 594, 595, 596, 597, 598, 599, 600, 601, 602, 603, 604, 605, 606, 607, 608, 609, 610, 611, 612, 613, 614, 615, 616, 617, 618, 619, 620, 621, 622, 623, 624, 625, 626, 627, 628, 629, 630, 631, 632, 633, 634, 635, 636, 637, 638, 639, 640, 641, 642, 643, 644, 645, 646, 647, 648, 649, 650, 651, 652, 653, 654, 655, 656, 657, 658, 659, 660, 661, 662, 663, 664, 665, 666, 667, 668, 669, 670, 671, 672, 673, 674, 675, 676, 677, 678, 679, 680, 681, 682, 683, 684, 685, 686, 687, 688, 689, 690, 691, 692, 693, 694, 695, 696, 697, 698, 699, 700, 701, 702, 703, 704, 705, 706, 707, 708, 709, 710, 711, 712, 713, 714, 715, 716, 717, 718, 719, 720, 721, 722, 723, 724, 725, 726, 727, 728, 729, 730, 731, 732, 733, 734, 735, 736, 737, 738, 739, 740, 741, 742, 743, 744, 745, 746, 747, 748, 749, 750, 751, 752, 753, 754, 755, 756, 757, 758, 759, 760, 761, 762, 763, 764, 765, 766, 767, 768, 769, 770, 771, 772, 773, 774, 775, 776, 777, 778, 779, 780, 781, 782, 783, 784, 785, 786, 787, 788, 789, 790, 791, 792, 793, 794, 795, 796, 797, 798, 799, 800, 801, 802, 803, 804, 805, 806, 807, 808, 809, 810, 811, 812, 813, 814, 815, 816, 817, 818, 819, 820, 821, 822, 823, 824, 825, 826, 827, 828, 829, 830, 831, 832, 833, 834, 835, 836, 837, 838, 839, 840, 841, 842, 843, 844, 845, 846, 847, 848, 849, 850, 851, 852, 853, 854, 855, 856, 857, 858, 859, 860, 861, 862, 863, 864, 865, 866, 867, 868, 869, 870, 871, 872],
      "AcquisitionTime": ["121417.360000", "121417.820000", "121418.280000", "121418.740000", "121419.200000", "121419.660000", "121420.120000", "121420.580000", "121421.040000", "121421.500000", "121421.960000", "121422.420000", "121422.880000", "121423.340000", "121423.800000", "121424.260000", "121424.720000", "121425.180000", "121425.640000", "121426.100000", "121426.560000", "121427.020000", "121427.480000", "121427.940000", "121428.400000", "121428.860000", "121429.320000", "121429.780000", "121430.240000", "121430.700000", "121431.160000", "121431.620000", "121432.080000", "121432.540000", "121433.000000", "121433.460000", "121433.920000", "121434.380000", "121434.840000", "121435.300000", "121435.760000", "121436.220000", "121436.680000", "121437.140000", "121437.600000", "121438.060000", "121438.520000", "121438.980000", "121439.440000", "121439.900000", "121440.360000", "121440.820000", "121441.280000", "121441.740000", "121442.200000", "121442.660000", "121443.120000", "121443.580000", "121444.040000", "121444.500000", "121444.960000", "121445.420000", "121445.880000", "121446.340000", "121446.800000", "121447.260000", "121447.720000", "121448.180000", "121448.640000", "121449.100000", "121449.560000", "121450.020000", "121450.480000", "121450.940000", "121451.400000", "121451.860000", "121452.320000", "121452.780000", "121453.240000", "121453.700000", "121454.160000", "121454.620000", "121455.080000", "121455.540000", "121456.000000", "121456.460000", "121456.920000", "121457.380000", "121457.840000", "121458.300000", "121458.760000", "121459.220000", "121459.680000", "121500.140000", "121500.600000", "121501.060000", "121501.520000", "121501.980000", "121502.440000", "121502.900000", "121503.360000", "121503.820000", "121504.280000", "121504.740000", "121505.200000", "121505.660000", "121506.120000", "121506.580000", "121507.040000", "121507.500000", "121507.960000", "121508.420000", "121508.880000", "121509.340000", "121509.800000", "121510.260000", "121510.720000", "121511.180000", "121511.640000", "121512.100000", "121512.560000", "121513.020000", "121513.480000", "121513.940000", "121514.400000", "121514.860000", "121515.320000", "121515.780000", "121516.240000", "121516.700000", "121517.160000", "121517.620000", "121518.080000", "121518.540000", "121519.000000", "121519.460000", "121519.920000", "121520.380000", "121520.840000", "121521.300000", "121521.760000", "121522.220000", "121522.680000", "121523.140000", "121523.600000", "121524.060000", "121524.520000", "121524.980000", "121525.440000", "121525.900000", "121526.360000", "121526.820000", "121527.280000", "121527.740000", "121528.200000", "121528.660000", "121529.120000", "121529.580000", "121530.040000", "121530.500000", "121530.960000", "121531.420000", "121531.880000", "121532.340000", "121532.800000", "121533.260000", "121533.720000", "121534.180000", "121534.640000", "121535.100000", "121535.560000", "121536.020000", "121536.480000", "121536.940000", "121537.400000", "121537.860000", "121538.320000", "121538.780000", "121539.240000", "121539.700000", "121540.160000", "121540.620000", "121541.080000", "121541.540000", "121542.000000", "121542.460000", "121542.920000", "121543.380000", "121543.840000", "121544.300000", "121544.760000", "121545.220000", "121545.680000", "121546.140000", "121546.600000", "121547.060000", "121547.520000", "121547.980000", "121548.440000", "121548.900000", "121549.360000", "121549.820000", "121550.280000", "121550.740000", "121551.200000", "121551.660000", "121552.120000", "121552.580000", "121553.040000", "121553.500000", "121553.960000", "121554.420000", "121554.880000", "121555.340000", "121555.800000", "121556.260000", "121556.720000", "121557.180000", "121557.640000", "121558.100000", "121558.560000", "121559.020000", "121559.480000", "121559.940000", "121600.400000", "121600.860000", "121601.320000", "121601.780000", "121602.240000", "121602.700000", "121603.160000", "121603.620000", "121604.080000", "121604.540000", "121605.000000", "121605.460000", "121605.920000", "121606.380000", "121606.840000", "121607.300000", "121607.760000", "121608.220000", "121608.680000", "121609.140000", "121609.600000", "121610.060000", "121610.520000", "121610.980000", "121611.440000", "121611.900000", "121612.360000", "121612.820000", "121613.280000", "121613.740000", "121614.200000", "121614.660000", "121615.120000", "121615.580000", "121616.040000", "121616.500000", "121616.960000", "121617.420000", "121617.880000", "121618.340000", "121618.800000", "121619.260000", "121619.720000", "121620.180000", "121620.640000", "121621.100000", "121621.560000", "121622.020000", "121622.480000", "121622.940000", "121623.400000", "121623.860000", "121624.320000", "121624.780000", "121625.240000", "121625.700000", "121626.160000", "121626.620000", "121627.080000", "121627.540000", "121628.000000", "121628.460000", "121628.920000", "121629.380000", "121629.840000", "121630.300000", "121630.760000", "121631.220000", "121631.680000", "121632.140000", "121632.600000", "121633.060000", "121633.520000", "121633.980000", "121634.440000", "121634.900000", "121635.360000", "121635.820000", "121636.280000", "121636.740000", "121637.200000", "121637.660000", "121638.120000", "121638.580000", "121639.040000", "121639.500000", "121639.960000", "121640.420000", "121640.880000", "121641.340000", "121641.800000", "121642.260000", "121642.720000", "121643.180000", "121643.640000", "121644.100000", "121644.560000", "121645.020000", "121645.480000", "121645.940000", "121646.400000", "121646.860000", "121647.320000", "121647.780000", "121648.240000", "121648.700000", "121649.160000", "121649.620000", "121650.080000", "121650.540000", "121651.000000", "121651.460000", "121651.920000", "121652.380000", "121652.840000", "121653.300000", "121653.760000", "121654.220000", "121654.680000", "121655.140000", "121655.600000", "121656.060000", "121656.520000", "121656.980000", "121657.440000", "121657.900000", "121658.360000", "121658.820000", "121659.280000", "121659.740000", "121700.200000", "121700.660000", "121701.120000", "121701.580000", "121702.040000", "121702.500000", "121702.960000", "121703.420000", "121703.880000", "121704.340000", "121704.800000", "121705.260000", "121705.720000", "121706.180000", "121706.640000", "121707.100000", "121707.560000", "121708.020000", "121708.480000", "121708.940000", "121709.400000", "121709.860000", "121710.320000", "121710.780000", "121711.240000", "121711.700000", "121712.160000", "121712.620000", "121713.080000", "121713.540000", "121714.000000", "121714.460000", "121714.920000", "121715.380000", "121715.840000", "121716.300000", "121716.760000", "121717.220000", "121717.680000", "121718.140000", "121718.600000", "121719.060000", "121719.520000", "121719.980000", "121720.440000", "121720.900000", "121721.360000", "121721.820000", "121722.280000", "121722.740000", "121723.200000", "121723.660000", "121724.120000", "121724.580000", "121725.040000", "121725.500000", "121725.960000", "121726.420000", "121726.880000", "121727.340000", "121727.800000", "121728.260000", "121728.720000", "121729.180000", "121729.640000", "121730.100000", "121730.560000", "121731.020000", "121731.480000", "121731.940000", "121732.400000", "121732.860000", "121733.320000", "121733.780000", "121734.240000", "121734.700000", "121735.160000", "121735.620000", "121736.080000", "121736.540000", "121737.000000", "121737.460000", "121737.920000", "121738.380000", "121738.840000", "121739.300000", "121739.760000", "121740.220000", "121740.680000", "121741.140000", "121741.600000", "121742.060000", "121742.520000", "121742.980000", "121743.440000", "121743.900000", "121744.360000", "121744.820000", "121745.280000", "121745.740000", "121746.200000", "121746.660000", "121747.120000", "121747.580000", "121748.040000", "121748.500000", "121748.960000", "121749.420000", "121749.880000", "121750.340000", "121750.800000", "121751.260000", "121751.720000", "121752.180000", "121752.640000", "121753.100000", "121753.560000", "121754.020000", "121754.480000", "121754.940000", "121755.400000", "121755.860000", "121756.320000", "121756.780000", "121757.240000", "121757.700000", "121758.160000", "121758.620000", "121759.080000", "121759.540000", "121800.000000", "121800.460000", "121800.920000", "121801.380000", "121801.840000", "121802.300000", "121802.760000", "121803.220000", "121803.680000", "121804.140000", "121804.600000", "121805.060000", "121805.520000", "121805.980000", "121806.440000", "121806.900000", "121807.360000", "121807.820000", "121808.280000", "121808.740000", "121809.200000", "121809.660000", "121810.120000", "121810.580000", "121811.040000", "121811.500000", "121811.960000", "121812.420000", "121812.880000", "121813.340000", "121813.800000", "121814.260000", "121814.720000", "121815.180000", "121815.640000", "121816.100000", "121816.560000", "121817.020000", "121817.480000", "121817.940000", "121818.400000", "121818.860000", "121819.320000", "121819.780000", "121820.240000", "121820.700000", "121821.160000", "121821.620000", "121822.080000", "121822.540000", "121823.000000", "121823.460000", "121823.920000", "121824.380000", "121824.840000", "121825.300000", "121825.760000", "121826.220000", "121826.680000", "121827.140000", "121827.600000", "121828.060000", "121828.520000", "121828.980000", "121829.440000", "121829.900000", "121830.360000", "121830.820000", "121831.280000", "121831.740000", "121832.200000", "121832.660000", "121833.120000", "121833.580000", "121834.040000", "121834.500000", "121834.960000", "121835.420000", "121835.880000", "121836.340000", "121836.800000", "121837.260000", "121837.720000", "121838.180000", "121838.640000", "121839.100000", "121839.560000", "121840.020000", "121840.480000", "121840.940000", "121841.400000", "121841.860000", "121842.320000", "121842.780000", "121843.240000", "121843.700000", "121844.160000", "121844.620000", "121845.080000", "121845.540000", "121846.000000", "121846.460000", "121846.920000", "121847.380000", "121847.840000", "121848.300000", "121848.760000", "121849.220000", "121849.680000", "121850.140000", "121850.600000", "121851.060000", "121851.520000", "121851.980000", "121852.440000", "121852.900000", "121853.360000", "121853.820000", "121854.280000", "121854.740000", "121855.200000", "121855.660000", "121856.120000", "121856.580000", "121857.040000", "121857.500000", "121857.960000", "121858.420000", "121858.880000", "121859.340000", "121859.800000", "121900.260000", "121900.720000", "121901.180000", "121901.640000", "121902.100000", "121902.560000", "121903.020000", "121903.480000", "121903.940000", "121904.400000", "121904.860000", "121905.320000", "121905.780000", "121906.240000", "121906.700000", "121907.160000", "121907.620000", "121908.080000", "121908.540000", "121909.000000", "121909.460000", "121909.920000", "121910.380000", "121910.840000", "121911.300000", "121911.760000", "121912.220000", "121912.680000", "121913.140000", "121913.600000", "121914.060000", "121914.520000", "121914.980000", "121915.440000", "121915.900000", "121916.360000", "121916.820000", "121917.280000", "121917.740000", "121918.200000", "121918.660000", "121919.120000", "121919.580000", "121920.040000", "121920.500000", "121920.960000", "121921.420000", "121921.880000", "121922.340000", "121922.800000", "121923.260000", "121923.720000", "121924.180000", "121924.640000", "121925.100000", "121925.560000", "121926.020000", "121926.480000", "121926.940000", "121927.400000", "121927.860000", "121928.320000", "121928.780000", "121929.240000", "121929.700000", "121930.160000", "121930.620000", "121931.080000", "121931.540000", "121932.000000", "121932.460000", "121932.920000", "121933.380000", "121933.840000", "121934.300000", "121934.760000", "121935.220000", "121935.680000", "121936.140000", "121936.600000", "121937.060000", "121937.520000", "121937.980000", "121938.440000", "121938.900000", "121939.360000", "121939.820000", "121940.280000", "121940.740000", "121941.200000", "121941.660000", "121942.120000", "121942.580000", "121943.040000", "121943.500000", "121943.960000", "121944.420000", "121944.880000", "121945.340000", "121945.800000", "121946.260000", "121946.720000", "121947.180000", "121947.640000", "121948.100000", "121948.560000", "121949.020000", "121949.480000", "121949.940000", "121950.400000", "121950.860000", "121951.320000", "121951.780000", "121952.240000", "121952.700000", "121953.160000", "121953.620000", "121954.080000", "121954.540000", "121955.000000", "121955.460000", "121955.920000", "121956.380000", "121956.840000", "121957.300000", "121957.760000", "121958.220000", "121958.680000", "121959.140000", "121959.600000", "122000.060000", "122000.520000", "122000.980000", "122001.440000", "122001.900000", "122002.360000", "122002.820000", "122003.280000", "122003.740000", "122004.200000", "122004.660000", "122005.120000", "122005.580000", "122006.040000", "122006.500000", "122006.960000", "122007.420000", "122007.880000", "122008.340000", "122008.800000", "122009.260000", "122009.720000", "122010.180000", "122010.640000", "122011.100000", "122011.560000", "122012.020000", "122012.480000", "122012.940000", "122013.400000", "122013.860000", "122014.320000", "122014.780000", "122015.240000", "122015.700000", "122016.160000", "122016.620000", "122017.080000", "122017.540000", "122018.000000", "122018.460000", "122018.920000", "122019.380000", "122019.840000", "122020.300000", "122020.760000", "122021.220000", "122021.680000", "122022.140000", "122022.600000", "122023.060000", "122023.520000", "122023.980000", "122024.440000", "122024.900000", "122025.360000", "122025.820000", "122026.280000", "122026.740000", "122027.200000", "122027.660000", "122028.120000", "122028.580000", "122029.040000", "122029.500000", "122029.960000", "122030.420000", "122030.880000", "122031.340000", "122031.800000", "122032.260000", "122032.720000", "122033.180000", "122033.640000", "122034.100000", "122034.560000", "122035.020000", "122035.480000", "122035.940000", "122036.400000", "122036.860000", "122037.320000", "122037.780000", "122038.240000", "122038.700000", "122039.160000", "122039.620000", "122040.080000", "122040.540000", "122041.000000", "122041.460000", "122041.920000", "122042.380000", "122042.840000", "122043.300000", "122043.760000", "122044.220000", "122044.680000", "122045.140000", "122045.600000", "122046.060000", "122046.520000", "122046.980000", "122047.440000", "122047.900000", "122048.360000", "122048.820000", "122049.280000", "122049.740000", "122050.200000", "122050.660000", "122051.120000", "122051.580000", "122052.040000", "122052.500000", "122052.960000", "122053.420000", "122053.880000", "122054.340000", "122054.800000", "122055.260000", "122055.720000", "122056.180000", "122056.640000", "122057.100000", "122057.560000", "122058.020000"],
