{
  "AcquisitionMatrixPE": 82,
  "AcquisitionNumber": 1,
  "AcquisitionTime": "13:26:1.867500",
  "BandwidthPerPixelPhaseEncode": 24.888,
  "BaseResolution": 82,
  "BodyPartExamined": "BRAIN",
  "ConsistencyInfo": "N4_VE11C_LATEST_20160120",
  "ConversionSoftware": "dcm2niix",
  "ConversionSoftwareVersion": "v1.0.20201102",
  "DerivedVendorReportedEchoSpacing": 0.00049,
  "DeviceSerialNumber": "66112",
  "DwellTime": 2e-06,
  "EchoTime": 0.0272,
  "EchoTrainLength": 82,
  "EffectiveEchoSpacing": 0.00049,
  "FlipAngle": 44,
  "ImageComments": "Unaliased MB8/PE3",
  "ImageOrientationPatientDICOM": [0.999291, -0.0017273, 0.0376102, -0.00174414, 0.995751, 0.0920724],
  "ImageType": [
    "ORIGINAL",
    "PRIMARY",
    "M",
    "MB",
    "ND",
    "NORM",
    "MOSAIC"
],
  "ImagingFrequency": 123.252,
  "InPlanePhaseEncodingDirectionDICOM": "COL",
  "InstitutionAddress": "Maynard 3,Hanover,NH,US,03755",
  "InstitutionName": "Dartmouth College - PBS",
  "InstitutionalDepartmentName": "Department",
  "MRAcquisitionType": "2D",
  "MagneticFieldStrength": 3,
  "Manufacturer": "Siemens",
  "ManufacturersModelName": "Prisma",
  "Modality": "MR",
  "MultibandAccelerationFactor": 8,
  "PartialFourier": 1,
  "PatientPosition": "HFS",
  "PercentPhaseFOV": 100,
  "PercentSampling": 100,
  "PhaseEncodingDirection": "j-",
  "PhaseEncodingSteps": 82,
  "PhaseResolution": 1,
  "PixelBandwidth": 3050,
  "ProcedureStepDescription": "Wager_Wager^1076_spacetop",
  "ProtocolName": "func_run-04_task-social_acq-ap-mb8",
  "PulseSequenceDetails": "%CustomerSeq%\\cmrr_mbep2d_bold",
  "ReceiveCoilActiveElements": "HEA;HEP",
  "ReceiveCoilName": "Head_32",
  "ReconMatrixPE": 82,
  "RepetitionTime": 0.46,
  "SAR": 0.0990316,
  "ScanOptions": "FS",
  "ScanningSequence": "EP",
  "SequenceName": "epfid2d1_82",
  "SequenceVariant": "SK\\SS",
  "SeriesDescription": "func_run-04_task-social_acq-ap-mb8",
  "SeriesNumber": 18,
  "ShimSetting": [4150, -7762, -7152, 561, -100, -91, -88, 54],
  "SliceThickness": 2.7,
  "SliceTiming": [0, 0.25, 0.0625, 0.3125, 0.125, 0.3775, 0.1875, 0, 0.25, 0.0625, 0.3125, 0.125, 0.3775, 0.1875, 0, 0.25, 0.0625, 0.3125, 0.125, 0.3775, 0.1875, 0, 0.25, 0.0625, 0.3125, 0.125, 0.3775, 0.1875, 0, 0.25, 0.0625, 0.3125, 0.125, 0.3775, 0.1875, 0, 0.25, 0.0625, 0.3125, 0.125, 0.3775, 0.1875, 0, 0.25, 0.0625, 0.3125, 0.125, 0.3775, 0.1875, 0, 0.25, 0.0625, 0.3125, 0.125, 0.3775, 0.1875],
  "SoftwareVersions": "syngo MR E11",
  "SpacingBetweenSlices": 2.7,
  "StationName": "AWP66112",
  "TaskName": "social",
  "TotalReadoutTime": 0.03969,
  "TxRefAmp": 256.254,
  "WipMemBlock": "c70fdfab-2d6f-4ad5-b6f8-6927f5ad39eb||Sequence: R016 ve11c/master r/e634e98; Dec 19 2017 11:00:25 by eja",
  "dcmmeta_affine": [
    [-2.6810247898101807, -0.004679391160607338, 0.10154540836811066, 109.68830108642578],
    [0.0046342164278030396, 2.6715266704559326, 0.24859626591205597, -98.03394317626953],
    [0.10090538114309311, -0.24702343344688416, 2.686612844467163, -24.633638381958008],
    [0.0, 0.0, 0.0, 1.0]
],
  "dcmmeta_reorient_transform": [
    [0.0, -1.0, 0.0, 81.0],
    [1.0, 0.0, 0.0, 0.0],
    [0.0, 0.0, 1.0, 0.0],
    [0.0, 0.0, 0.0, 1.0]
],
  "dcmmeta_shape": [82, 82, 56, 872],
  "dcmmeta_slice_dim": 2,
  "dcmmeta_version": 0.6,
  "global": {
    "const": {
      "AccessionNumber": "A003802",
      "AcquisitionMatrix": [82, 0, 0, 82],
      "AngioFlag": "N",
      "BitsAllocated": 16,
      "BitsStored": 16,
      "BodyPartExamined": "BRAIN",
      "Columns": 656,
      "EchoNumbers": 1,
      "EchoTime": 27.2,
      "EchoTrainLength": 82,
      "FlipAngle": 44.0,
      "HighBit": 15,
      "ImageOrientationPatient": [0.9992909937986, -0.0017272987489, 0.03761018681211, -0.0017441365779, 0.99575079036368, 0.09207237087042],
      "ImagePositionPatient": [-877.420365906, -883.75781479144, -144.49810823916],
      "ImageType": [
        "ORIGINAL",
        "PRIMARY",
        "M",
        "MB",
        "ND",
        "NORM",
        "MOSAIC"
],
      "ImagedNucleus": "1H",
      "ImagingFrequency": 123.252138,
      "InPlanePhaseEncodingDirection": "COL",
      "MRAcquisitionType": "2D",
      "MagneticFieldStrength": 3.0,
      "Manufacturer": "SIEMENS",
      "ManufacturerModelName": "Prisma",
      "Modality": "MR",
      "NumberOfAverages": 1.0,
      "NumberOfPhaseEncodingSteps": 82,
      "PercentPhaseFieldOfView": 100.0,
      "PercentSampling": 100.0,
      "PerformedProcedureStepStartTime": "123643.179000",
      "PhotometricInterpretation": "MONOCHROME2",
      "PixelBandwidth": 3050.0,
      "PixelRepresentation": 0,
      "PixelSpacing": [2.6829268932343, 2.6829268932343],
      "ProtocolName": "func_run-04_task-social_acq-ap-mb8",
      "RepetitionTime": 460.0,
      "Rows": 656,
      "SAR": 0.0990316207884,
      "SamplesPerPixel": 1,
      "ScanOptions": "FS",
      "ScanningSequence": "EP",
      "SequenceName": "epfid2d1_82",
      "SequenceVariant": [
        "SK",
        "SS"
],
      "SeriesDescription": "func_run-04_task-social_acq-ap-mb8",
      "SeriesNumber": 18,
      "SeriesTime": "132615.081000",
      "SliceLocation": -29.412435583496,
      "SliceThickness": 2.7000000476837,
      "SmallestImagePixelValue": 0,
      "SoftwareVersions": "syngo MR E11",
      "SpacingBetweenSlices": 2.7000000562562,
      "SpecificCharacterSet": "ISO_IR 100",
      "StudyID": "1",
      "StudyTime": "123643.061000",
      "TransmitCoilName": "Body",
      "VariableFlipAngleFlag": "N",
      "WindowCenterWidthExplanation": "Algo1",
      "dBdt": 0.0},
    "slices": {}
  },
  "time": {
    "samples": {
      "AcquisitionNumber": [1, 2, 3, 4, 5, 6, 7, 8, 9, 10, 11, 12, 13, 14, 15, 16, 17, 18, 19, 20, 21, 22, 23, 24, 25, 26, 27, 28, 29, 30, 31, 32, 33, 34, 35, 36, 37, 38, 39, 40, 41, 42, 43, 44, 45, 46, 47, 48, 49, 50, 51, 52, 53, 54, 55, 56, 57, 58, 59, 60, 61, 62, 63, 64, 65, 66, 67, 68, 69, 70, 71, 72, 73, 74, 75, 76, 77, 78, 79, 80, 81, 82, 83, 84, 85, 86, 87, 88, 89, 90, 91, 92, 93, 94, 95, 96, 97, 98, 99, 100, 101, 102, 103, 104, 105, 106, 107, 108, 109, 110, 111, 112, 113, 114, 115, 116, 117, 118, 119, 120, 121, 122, 123, 124, 125, 126, 127, 128, 129, 130, 131, 132, 133, 134, 135, 136, 137, 138, 139, 140, 141, 142, 143, 144, 145, 146, 147, 148, 149, 150, 151, 152, 153, 154, 155, 156, 157, 158, 159, 160, 161, 162, 163, 164, 165, 166, 167, 168, 169, 170, 171, 172, 173, 174, 175, 176, 177, 178, 179, 180, 181, 182, 183, 184, 185, 186, 187, 188, 189, 190, 191, 192, 193, 194, 195, 196, 197, 198, 199, 200, 201, 202, 203, 204, 205, 206, 207, 208, 209, 210, 211, 212, 213, 214, 215, 216, 217, 218, 219, 220, 221, 222, 223, 224, 225, 226, 227, 228, 229, 230, 231, 232, 233, 234, 235, 236, 237, 238, 239, 240, 241, 242, 243, 244, 245, 246, 247, 248, 249, 250, 251, 252, 253, 254, 255, 256, 257, 258, 259, 260, 261, 262, 263, 264, 265, 266, 267, 268, 269, 270, 271, 272, 273, 274, 275, 276, 277, 278, 279, 280, 281, 282, 283, 284, 285, 286, 287, 288, 289, 290, 291, 292, 293, 294, 295, 296, 297, 298, 299, 300, 301, 302, 303, 304, 305, 306, 307, 308, 309, 310, 311, 312, 313, 314, 315, 316, 317, 318, 319, 320, 321, 322, 323, 324, 325, 326, 327, 328, 329, 330, 331, 332, 333, 334, 335, 336, 337, 338, 339, 340, 341, 342, 343, 344, 345, 346, 347, 348, 349, 350, 351, 352, 353, 354, 355, 356, 357, 358, 359, 360, 361, 362, 363, 364, 365, 366, 367, 368, 369, 370, 371, 372, 373, 374, 375, 376, 377, 378, 379, 380, 381, 382, 383, 384, 385, 386, 387, 388, 389, 390, 391, 392, 393, 394, 395, 396, 397, 398, 399, 400, 401, 402, 403, 404, 405, 406, 407, 408, 409, 410, 411, 412, 413, 414, 415, 416, 417, 418, 419, 420, 421, 422, 423, 424, 425, 426, 427, 428, 429, 430, 431, 432, 433, 434, 435, 436, 437, 438, 439, 440, 441, 442, 443, 444, 445, 446, 447, 448, 449, 450, 451, 452, 453, 454, 455, 456, 457, 458, 459, 460, 461, 462, 463, 464, 465, 466, 467, 468, 469, 470, 471, 472, 473, 474, 475, 476, 477, 478, 479, 480, 481, 482, 483, 484, 485, 486, 487, 488, 489, 490, 491, 492, 493, 494, 495, 496, 497, 498, 499, 500, 501, 502, 503, 504, 505, 506, 507, 508, 509, 510, 511, 512, 513, 514, 515, 516, 517, 518, 519, 520, 521, 522, 523, 524, 525, 526, 527, 528, 529, 530, 531, 532, 533, 534, 535, 536, 537, 538, 539, 540, 541, 542, 543, 544, 545, 546, 547, 548, 549, 550, 551, 552, 553, 554, 555, 556, 557, 558, 559, 560, 561, 562, 563, 564, 565, 566, 567, 568, 569, 570, 571, 572, 573, 574, 575, 576, 577, 578, 579, 580, 581, 582, 583, 584, 585, 586, 587, 588, 589, 590, 591, 592, 593, 594, 595, 596, 597, 598, 599, 600, 601, 602, 603, 604, 605, 606, 607, 608, 609, 610, 611, 612, 613, 614, 615, 616, 617, 618, 619, 620, 621, 622, 623, 624, 625, 626, 627, 628, 629, 630, 631, 632, 633, 634, 635, 636, 637, 638, 639, 640, 641, 642, 643, 644, 645, 646, 647, 648, 649, 650, 651, 652, 653, 654, 655, 656, 657, 658, 659, 660, 661, 662, 663, 664, 665, 666, 667, 668, 669, 670, 671, 672, 673, 674, 675, 676, 677, 678, 679, 680, 681, 682, 683, 684, 685, 686, 687, 688, 689, 690, 691, 692, 693, 694, 695, 696, 697, 698, 699, 700, 701, 702, 703, 704, 705, 706, 707, 708, 709, 710, 711, 712, 713, 714, 715, 716, 717, 718, 719, 720, 721, 722, 723, 724, 725, 726, 727, 728, 729, 730, 731, 732, 733, 734, 735, 736, 737, 738, 739, 740, 741, 742, 743, 744, 745, 746, 747, 748, 749, 750, 751, 752, 753, 754, 755, 756, 757, 758, 759, 760, 761, 762, 763, 764, 765, 766, 767, 768, 769, 770, 771, 772, 773, 774, 775, 776, 777, 778, 779, 780, 781, 782, 783, 784, 785, 786, 787, 788, 789, 790, 791, 792, 793, 794, 795, 796, 797, 798, 799, 800, 801, 802, 803, 804, 805, 806, 807, 808, 809, 810, 811, 812, 813, 814, 815, 816, 817, 818, 819, 820, 821, 822, 823, 824, 825, 826, 827, 828, 829, 830, 831, 832, 833, 834, 835, 836, 837, 838, 839, 840, 841, 842, 843, 844, 845, 846, 847, 848, 849, 850, 851, 852, 853, 854, 855, 856, 857, 858, 859, 860, 861, 862, 863, 864, 865, 866, 867, 868, 869, 870, 871, 872],
      "AcquisitionTime": ["132601.867500", "132602.327500", "132602.787500", "132603.247500", "132603.707500", "132604.167500", "132604.627500", "132605.087500", "132605.547500", "132606.007500", "132606.467500", "132606.927500", "132607.387500", "132607.847500", "132608.307500", "132608.767500", "132609.227500", "132609.687500", "132610.147500", "132610.607500", "132611.067500", "132611.527500", "132611.987500", "132612.447500", "132612.907500", "132613.367500", "132613.827500", "132614.287500", "132614.747500", "132615.207500", "132615.667500", "132616.127500", "132616.587500", "132617.047500", "132617.507500", "132617.967500", "132618.427500", "132618.887500", "132619.347500", "132619.807500", "132620.267500", "132620.727500", "132621.187500", "132621.647500", "132622.107500", "132622.567500", "132623.027500", "132623.487500", "132623.947500", "132624.407500", "132624.867500", "132625.327500", "132625.787500", "132626.247500", "132626.707500", "132627.167500", "132627.627500", "132628.087500", "132628.547500", "132629.007500", "132629.467500", "132629.927500", "132630.387500", "132630.847500", "132631.307500", "132631.767500", "132632.227500", "132632.687500", "132633.147500", "132633.607500", "132634.067500", "132634.527500", "132634.987500", "132635.447500", "132635.907500", "132636.367500", "132636.827500", "132637.287500", "132637.747500", "132638.207500", "132638.667500", "132639.127500", "132639.587500", "132640.047500", "132640.507500", "132640.967500", "132641.427500", "132641.887500", "132642.347500", "132642.807500", "132643.267500", "132643.727500", "132644.187500", "132644.647500", "132645.107500", "132645.567500", "132646.027500", "132646.487500", "132646.947500", "132647.407500", "132647.867500", "132648.327500", "132648.787500", "132649.247500", "132649.707500", "132650.167500", "132650.627500", "132651.087500", "132651.547500", "132652.007500", "132652.467500", "132652.927500", "132653.387500", "132653.847500", "132654.307500", "132654.767500", "132655.227500", "132655.687500", "132656.147500", "132656.607500", "132657.067500", "132657.527500", "132657.987500", "132658.447500", "132658.907500", "132659.367500", "132659.827500", "132700.287500", "132700.747500", "132701.207500", "132701.667500", "132702.127500", "132702.587500", "132703.047500", "132703.507500", "132703.967500", "132704.427500", "132704.887500", "132705.347500", "132705.807500", "132706.267500", "132706.727500", "132707.187500", "132707.647500", "132708.107500", "132708.567500", "132709.027500", "132709.487500", "132709.947500", "132710.407500", "132710.867500", "132711.327500", "132711.787500", "132712.247500", "132712.707500", "132713.167500", "132713.627500", "132714.087500", "132714.547500", "132715.007500", "132715.467500", "132715.927500", "132716.387500", "132716.847500", "132717.307500", "132717.767500", "132718.227500", "132718.687500", "132719.147500", "132719.607500", "132720.067500", "132720.527500", "132720.987500", "132721.447500", "132721.907500", "132722.367500", "132722.827500", "132723.287500", "132723.747500", "132724.207500", "132724.667500", "132725.127500", "132725.587500", "132726.047500", "132726.507500", "132726.967500", "132727.427500", "132727.887500", "132728.347500", "132728.807500", "132729.267500", "132729.727500", "132730.187500", "132730.647500", "132731.107500", "132731.567500", "132732.027500", "132732.487500", "132732.947500", "132733.407500", "132733.867500", "132734.327500", "132734.787500", "132735.247500", "132735.707500", "132736.167500", "132736.627500", "132737.087500", "132737.547500", "132738.007500", "132738.467500", "132738.927500", "132739.387500", "132739.847500", "132740.307500", "132740.767500", "132741.227500", "132741.687500", "132742.147500", "132742.607500", "132743.067500", "132743.527500", "132743.987500", "132744.447500", "132744.907500", "132745.367500", "132745.827500", "132746.287500", "132746.747500", "132747.207500", "132747.667500", "132748.127500", "132748.587500", "132749.047500", "132749.507500", "132749.967500", "132750.427500", "132750.887500", "132751.347500", "132751.807500", "132752.267500", "132752.727500", "132753.187500", "132753.647500", "132754.107500", "132754.567500", "132755.027500", "132755.487500", "132755.947500", "132756.407500", "132756.867500", "132757.327500", "132757.787500", "132758.247500", "132758.707500", "132759.167500", "132759.627500", "132800.087500", "132800.547500", "132801.007500", "132801.467500", "132801.927500", "132802.387500", "132802.847500", "132803.307500", "132803.767500", "132804.227500", "132804.687500", "132805.147500", "132805.607500", "132806.067500", "132806.527500", "132806.987500", "132807.447500", "132807.907500", "132808.367500", "132808.827500", "132809.287500", "132809.747500", "132810.207500", "132810.667500", "132811.127500", "132811.587500", "132812.047500", "132812.507500", "132812.967500", "132813.427500", "132813.887500", "132814.347500", "132814.807500", "132815.267500", "132815.727500", "132816.187500", "132816.647500", "132817.107500", "132817.567500", "132818.027500", "132818.487500", "132818.947500", "132819.407500", "132819.867500", "132820.327500", "132820.787500", "132821.247500", "132821.707500", "132822.167500", "132822.627500", "132823.087500", "132823.547500", "132824.007500", "132824.467500", "132824.927500", "132825.387500", "132825.847500", "132826.307500", "132826.767500", "132827.227500", "132827.687500", "132828.147500", "132828.607500", "132829.067500", "132829.527500", "132829.987500", "132830.447500", "132830.907500", "132831.367500", "132831.827500", "132832.287500", "132832.747500", "132833.207500", "132833.667500", "132834.127500", "132834.587500", "132835.047500", "132835.507500", "132835.967500", "132836.427500", "132836.887500", "132837.347500", "132837.807500", "132838.267500", "132838.727500", "132839.187500", "132839.647500", "132840.107500", "132840.567500", "132841.027500", "132841.487500", "132841.947500", "132842.407500", "132842.867500", "132843.327500", "132843.787500", "132844.247500", "132844.707500", "132845.167500", "132845.627500", "132846.087500", "132846.547500", "132847.007500", "132847.467500", "132847.927500", "132848.387500", "132848.847500", "132849.307500", "132849.767500", "132850.227500", "132850.687500", "132851.147500", "132851.607500", "132852.067500", "132852.527500", "132852.987500", "132853.447500", "132853.907500", "132854.367500", "132854.827500", "132855.287500", "132855.747500", "132856.207500", "132856.667500", "132857.127500", "132857.587500", "132858.047500", "132858.507500", "132858.967500", "132859.427500", "132859.887500", "132900.347500", "132900.807500", "132901.267500", "132901.727500", "132902.187500", "132902.647500", "132903.107500", "132903.567500", "132904.027500", "132904.487500", "132904.947500", "132905.407500", "132905.867500", "132906.327500", "132906.787500", "132907.247500", "132907.707500", "132908.167500", "132908.627500", "132909.087500", "132909.547500", "132910.007500", "132910.467500", "132910.927500", "132911.387500", "132911.847500", "132912.307500", "132912.767500", "132913.227500", "132913.687500", "132914.147500", "132914.607500", "132915.067500", "132915.527500", "132915.987500", "132916.447500", "132916.907500", "132917.367500", "132917.827500", "132918.287500", "132918.747500", "132919.207500", "132919.667500", "132920.127500", "132920.587500", "132921.047500", "132921.507500", "132921.967500", "132922.427500", "132922.887500", "132923.347500", "132923.807500", "132924.267500", "132924.727500", "132925.187500", "132925.647500", "132926.107500", "132926.567500", "132927.027500", "132927.487500", "132927.947500", "132928.407500", "132928.867500", "132929.327500", "132929.787500", "132930.247500", "132930.707500", "132931.167500", "132931.627500", "132932.087500", "132932.547500", "132933.007500", "132933.467500", "132933.927500", "132934.387500", "132934.847500", "132935.307500", "132935.767500", "132936.227500", "132936.687500", "132937.147500", "132937.607500", "132938.067500", "132938.527500", "132938.987500", "132939.447500", "132939.907500", "132940.367500", "132940.827500", "132941.287500", "132941.747500", "132942.207500", "132942.667500", "132943.127500", "132943.587500", "132944.047500", "132944.507500", "132944.967500", "132945.427500", "132945.887500", "132946.347500", "132946.807500", "132947.267500", "132947.727500", "132948.187500", "132948.647500", "132949.107500", "132949.567500", "132950.027500", "132950.487500", "132950.947500", "132951.407500", "132951.867500", "132952.327500", "132952.787500", "132953.247500", "132953.707500", "132954.167500", "132954.627500", "132955.087500", "132955.547500", "132956.007500", "132956.467500", "132956.927500", "132957.387500", "132957.847500", "132958.307500", "132958.767500", "132959.227500", "132959.687500", "133000.147500", "133000.607500", "133001.067500", "133001.527500", "133001.987500", "133002.447500", "133002.907500", "133003.367500", "133003.827500", "133004.287500", "133004.747500", "133005.207500", "133005.667500", "133006.127500", "133006.587500", "133007.047500", "133007.507500", "133007.967500", "133008.427500", "133008.887500", "133009.347500", "133009.807500", "133010.267500", "133010.727500", "133011.187500", "133011.647500", "133012.107500", "133012.567500", "133013.027500", "133013.487500", "133013.947500", "133014.407500", "133014.867500", "133015.327500", "133015.787500", "133016.247500", "133016.707500", "133017.167500", "133017.627500", "133018.087500", "133018.547500", "133019.007500", "133019.467500", "133019.927500", "133020.387500", "133020.847500", "133021.307500", "133021.767500", "133022.227500", "133022.687500", "133023.147500", "133023.607500", "133024.067500", "133024.527500", "133024.987500", "133025.447500", "133025.907500", "133026.367500", "133026.827500", "133027.287500", "133027.747500", "133028.207500", "133028.667500", "133029.127500", "133029.587500", "133030.047500", "133030.507500", "133030.967500", "133031.427500", "133031.887500", "133032.347500", "133032.807500", "133033.267500", "133033.727500", "133034.187500", "133034.647500", "133035.107500", "133035.567500", "133036.027500", "133036.487500", "133036.947500", "133037.407500", "133037.867500", "133038.327500", "133038.787500", "133039.247500", "133039.707500", "133040.167500", "133040.627500", "133041.087500", "133041.547500", "133042.007500", "133042.467500", "133042.927500", "133043.387500", "133043.847500", "133044.307500", "133044.767500", "133045.227500", "133045.687500", "133046.147500", "133046.607500", "133047.067500", "133047.527500", "133047.987500", "133048.447500", "133048.907500", "133049.367500", "133049.827500", "133050.287500", "133050.747500", "133051.207500", "133051.667500", "133052.127500", "133052.587500", "133053.047500", "133053.507500", "133053.967500", "133054.427500", "133054.887500", "133055.347500", "133055.807500", "133056.267500", "133056.727500", "133057.187500", "133057.647500", "133058.107500", "133058.567500", "133059.027500", "133059.487500", "133059.947500", "133100.407500", "133100.867500", "133101.327500", "133101.787500", "133102.247500", "133102.707500", "133103.167500", "133103.627500", "133104.087500", "133104.547500", "133105.007500", "133105.467500", "133105.927500", "133106.387500", "133106.847500", "133107.307500", "133107.767500", "133108.227500", "133108.687500", "133109.147500", "133109.607500", "133110.067500", "133110.527500", "133110.987500", "133111.447500", "133111.907500", "133112.367500", "133112.827500", "133113.287500", "133113.747500", "133114.207500", "133114.667500", "133115.127500", "133115.587500", "133116.047500", "133116.507500", "133116.967500", "133117.427500", "133117.887500", "133118.347500", "133118.807500", "133119.267500", "133119.727500", "133120.187500", "133120.647500", "133121.107500", "133121.567500", "133122.027500", "133122.487500", "133122.947500", "133123.407500", "133123.867500", "133124.327500", "133124.787500", "133125.247500", "133125.707500", "133126.167500", "133126.627500", "133127.087500", "133127.547500", "133128.007500", "133128.467500", "133128.927500", "133129.387500", "133129.847500", "133130.307500", "133130.767500", "133131.227500", "133131.687500", "133132.147500", "133132.607500", "133133.067500", "133133.527500", "133133.987500", "133134.447500", "133134.907500", "133135.367500", "133135.827500", "133136.287500", "133136.747500", "133137.207500", "133137.667500", "133138.127500", "133138.587500", "133139.047500", "133139.507500", "133139.967500", "133140.427500", "133140.887500", "133141.347500", "133141.807500", "133142.267500", "133142.727500", "133143.187500", "133143.647500", "133144.107500", "133144.567500", "133145.027500", "133145.487500", "133145.947500", "133146.407500", "133146.867500", "133147.327500", "133147.787500", "133148.247500", "133148.707500", "133149.167500", "133149.627500", "133150.087500", "133150.547500", "133151.007500", "133151.467500", "133151.927500", "133152.387500", "133152.847500", "133153.307500", "133153.767500", "133154.227500", "133154.687500", "133155.147500", "133155.607500", "133156.067500", "133156.527500", "133156.987500", "133157.447500", "133157.907500", "133158.367500", "133158.827500", "133159.287500", "133159.747500", "133200.207500", "133200.667500", "133201.127500", "133201.587500", "133202.047500", "133202.507500", "133202.967500", "133203.427500", "133203.887500", "133204.347500", "133204.807500", "133205.267500", "133205.727500", "133206.187500", "133206.647500", "133207.107500", "133207.567500", "133208.027500", "133208.487500", "133208.947500", "133209.407500", "133209.867500", "133210.327500", "133210.787500", "133211.247500", "133211.707500", "133212.167500", "133212.627500", "133213.087500", "133213.547500", "133214.007500", "133214.467500", "133214.927500", "133215.387500", "133215.847500", "133216.307500", "133216.767500", "133217.227500", "133217.687500", "133218.147500", "133218.607500", "133219.067500", "133219.527500", "133219.987500", "133220.447500", "133220.907500", "133221.367500", "133221.827500", "133222.287500", "133222.747500", "133223.207500", "133223.667500", "133224.127500", "133224.587500", "133225.047500", "133225.507500", "133225.967500", "133226.427500", "133226.887500", "133227.347500", "133227.807500", "133228.267500", "133228.727500", "133229.187500", "133229.647500", "133230.107500", "133230.567500", "133231.027500", "133231.487500", "133231.947500", "133232.407500", "133232.867500", "133233.327500", "133233.787500", "133234.247500", "133234.707500", "133235.167500", "133235.627500", "133236.087500", "133236.547500", "133237.007500", "133237.467500", "133237.927500", "133238.387500", "133238.847500", "133239.307500", "133239.767500", "133240.227500", "133240.687500", "133241.147500", "133241.607500", "133242.067500", "133242.527500"],
