{
  "AcquisitionMatrixPE": 82,
  "AcquisitionNumber": 1,
  "AcquisitionTime": "11:06:49.620000",
  "BandwidthPerPixelPhaseEncode": 24.888,
  "BaseResolution": 82,
  "BodyPartExamined": "BRAIN",
  "ConsistencyInfo": "N4_VE11E_LATEST_20181129",
  "ConversionSoftware": "dcm2niix",
  "ConversionSoftwareVersion": "v1.0.20201102",
  "DerivedVendorReportedEchoSpacing": 0.00049,
  "DeviceSerialNumber": "66112",
  "DwellTime": 2e-06,
  "EchoTime": 0.0272,
  "EchoTrainLength": 82,
  "EffectiveEchoSpacing": 0.00049,
  "FlipAngle": 44,
  "ImageComments": "Unaliased MB8/PE3",
  "ImageOrientationPatientDICOM": [0.999412, 0.0319683, -0.0124064, -0.030884, 0.996358, 0.0794806],
  "ImageType": [
    "ORIGINAL",
    "PRIMARY",
    "M",
    "MB",
    "ND",
    "NORM",
    "MOSAIC"
],
  "ImagingFrequency": 123.252,
  "InPlanePhaseEncodingDirectionDICOM": "COL",
  "InstitutionAddress": "Maynard 3,Hanover,NH,US,03755",
  "InstitutionName": "Dartmouth College - PBS",
  "InstitutionalDepartmentName": "Department",
  "MRAcquisitionType": "2D",
  "MagneticFieldStrength": 3,
  "Manufacturer": "Siemens",
  "ManufacturersModelName": "Prisma",
  "Modality": "MR",
  "MultibandAccelerationFactor": 8,
  "PartialFourier": 1,
  "PatientPosition": "HFS",
  "PercentPhaseFOV": 100,
  "PercentSampling": 100,
  "PhaseEncodingDirection": "j-",
  "PhaseEncodingSteps": 82,
  "PhaseResolution": 1,
  "PixelBandwidth": 3050,
  "ProcedureStepDescription": "Wager_Wager^1076_spacetop",
  "ProtocolName": "func_run-04_task-social_acq-ap-mb8",
  "PulseSequenceDetails": "%CustomerSeq%\\cmrr_mbep2d_bold",
  "ReceiveCoilActiveElements": "HEA;HEP",
  "ReceiveCoilName": "Head_32",
  "ReconMatrixPE": 82,
  "RepetitionTime": 0.46,
  "SAR": 0.0817987,
  "ScanOptions": "FS",
  "ScanningSequence": "EP",
  "SequenceName": "epfid2d1_82",
  "SequenceVariant": "SK\\SS",
  "SeriesDescription": "func_run-04_task-social_acq-ap-mb8",
  "SeriesNumber": 14,
  "ShimSetting": [4138, -7770, -7214, 760, -50, -191, -43, 106],
  "SliceThickness": 2.7,
  "SliceTiming": [0, 0.25, 0.0625, 0.3125, 0.125, 0.375, 0.1875, 0, 0.25, 0.0625, 0.3125, 0.125, 0.375, 0.1875, 0, 0.25, 0.0625, 0.3125, 0.125, 0.375, 0.1875, 0, 0.25, 0.0625, 0.3125, 0.125, 0.375, 0.1875, 0, 0.25, 0.0625, 0.3125, 0.125, 0.375, 0.1875, 0, 0.25, 0.0625, 0.3125, 0.125, 0.375, 0.1875, 0, 0.25, 0.0625, 0.3125, 0.125, 0.375, 0.1875, 0, 0.25, 0.0625, 0.3125, 0.125, 0.375, 0.1875],
  "SoftwareVersions": "syngo MR E11",
  "SpacingBetweenSlices": 2.7,
  "StationName": "AWP66112",
  "TaskName": "social",
  "TotalReadoutTime": 0.03969,
  "TxRefAmp": 234.869,
  "WipMemBlock": "02c8146f-4619-449c-9184-342c9c593448||Sequence: R016 ve11e/master r/434b28f1; Aug  7 2019 18:53:46 by eja",
  "dcmmeta_affine": [
    [-2.681349039077759, -0.08285946398973465, -0.0402357243001461, 117.47994995117188],
    [-0.0857686772942543, 2.6731553077697754, 0.21343697607517242, -98.19095611572266],
    [-0.033285580575466156, -0.21324074268341064, 2.6912498474121094, -44.94535827636719],
    [0.0, 0.0, 0.0, 1.0]
],
  "dcmmeta_reorient_transform": [
    [0.0, -1.0, 0.0, 81.0],
    [1.0, 0.0, 0.0, 0.0],
    [0.0, 0.0, 1.0, 0.0],
    [0.0, 0.0, 0.0, 1.0]
],
  "dcmmeta_shape": [82, 82, 56, 872],
  "dcmmeta_slice_dim": 2,
  "dcmmeta_version": 0.6,
  "global": {
    "const": {
      "AccessionNumber": "A004074",
      "AcquisitionMatrix": [82, 0, 0, 82],
      "AngioFlag": "N",
      "BitsAllocated": 16,
      "BitsStored": 16,
      "BodyPartExamined": "BRAIN",
      "Columns": 656,
      "EchoNumbers": 1,
      "EchoTime": 27.2,
      "EchoTrainLength": 82,
      "FlipAngle": 44.0,
      "HighBit": 15,
      "ImageOrientationPatient": [0.99941188029523, 0.03196832327694, -0.0124064431491, -0.0308839820175, 0.99635787149882, 0.07948063636564],
      "ImagePositionPatient": [-856.53483117713, -910.14581534842, -113.86498641461],
      "ImageType": [
        "ORIGINAL",
        "PRIMARY",
        "M",
        "MB",
        "ND",
        "NORM",
        "MOSAIC"
],
      "ImagedNucleus": "1H",
      "ImagingFrequency": 123.252181,
      "InPlanePhaseEncodingDirection": "COL",
      "MRAcquisitionType": "2D",
      "MagneticFieldStrength": 3.0,
      "Manufacturer": "SIEMENS",
      "ManufacturerModelName": "Prisma",
      "Modality": "MR",
      "NumberOfAverages": 1.0,
      "NumberOfPhaseEncodingSteps": 82,
      "PercentPhaseFieldOfView": 100.0,
      "PercentSampling": 100.0,
      "PerformedProcedureStepStartTime": "103622.370000",
      "PhotometricInterpretation": "MONOCHROME2",
      "PixelBandwidth": 3050.0,
      "PixelRepresentation": 0,
      "PixelSpacing": [2.6829268932343, 2.6829268932343],
      "ProtocolName": "func_run-04_task-social_acq-ap-mb8",
      "RepetitionTime": 460.0,
      "Rows": 656,
      "SAR": 0.08179870169891,
      "SamplesPerPixel": 1,
      "ScanOptions": "FS",
      "ScanningSequence": "EP",
      "SequenceName": "epfid2d1_82",
      "SequenceVariant": [
        "SK",
        "SS"
],
      "SeriesDescription": "func_run-04_task-social_acq-ap-mb8",
      "SeriesNumber": 14,
      "SeriesTime": "110656.819000",
      "SliceLocation": -54.312465097329,
      "SliceThickness": 2.7000000476837,
      "SmallestImagePixelValue": 0,
      "SoftwareVersions": "syngo MR E11",
      "SpacingBetweenSlices": 2.6999999982281,
      "SpecificCharacterSet": "ISO_IR 100",
      "StudyID": "3",
      "StudyTime": "103622.260000",
      "TransmitCoilName": "Body",
      "VariableFlipAngleFlag": "N",
      "WindowCenterWidthExplanation": "Algo1"
    },
    "slices": {}
  },
  "time": {
    "samples": {
      "AcquisitionNumber": [1, 2, 3, 4, 5, 6, 7, 8, 9, 10, 11, 12, 13, 14, 15, 16, 17, 18, 19, 20, 21, 22, 23, 24, 25, 26, 27, 28, 29, 30, 31, 32, 33, 34, 35, 36, 37, 38, 39, 40, 41, 42, 43, 44, 45, 46, 47, 48, 49, 50, 51, 52, 53, 54, 55, 56, 57, 58, 59, 60, 61, 62, 63, 64, 65, 66, 67, 68, 69, 70, 71, 72, 73, 74, 75, 76, 77, 78, 79, 80, 81, 82, 83, 84, 85, 86, 87, 88, 89, 90, 91, 92, 93, 94, 95, 96, 97, 98, 99, 100, 101, 102, 103, 104, 105, 106, 107, 108, 109, 110, 111, 112, 113, 114, 115, 116, 117, 118, 119, 120, 121, 122, 123, 124, 125, 126, 127, 128, 129, 130, 131, 132, 133, 134, 135, 136, 137, 138, 139, 140, 141, 142, 143, 144, 145, 146, 147, 148, 149, 150, 151, 152, 153, 154, 155, 156, 157, 158, 159, 160, 161, 162, 163, 164, 165, 166, 167, 168, 169, 170, 171, 172, 173, 174, 175, 176, 177, 178, 179, 180, 181, 182, 183, 184, 185, 186, 187, 188, 189, 190, 191, 192, 193, 194, 195, 196, 197, 198, 199, 200, 201, 202, 203, 204, 205, 206, 207, 208, 209, 210, 211, 212, 213, 214, 215, 216, 217, 218, 219, 220, 221, 222, 223, 224, 225, 226, 227, 228, 229, 230, 231, 232, 233, 234, 235, 236, 237, 238, 239, 240, 241, 242, 243, 244, 245, 246, 247, 248, 249, 250, 251, 252, 253, 254, 255, 256, 257, 258, 259, 260, 261, 262, 263, 264, 265, 266, 267, 268, 269, 270, 271, 272, 273, 274, 275, 276, 277, 278, 279, 280, 281, 282, 283, 284, 285, 286, 287, 288, 289, 290, 291, 292, 293, 294, 295, 296, 297, 298, 299, 300, 301, 302, 303, 304, 305, 306, 307, 308, 309, 310, 311, 312, 313, 314, 315, 316, 317, 318, 319, 320, 321, 322, 323, 324, 325, 326, 327, 328, 329, 330, 331, 332, 333, 334, 335, 336, 337, 338, 339, 340, 341, 342, 343, 344, 345, 346, 347, 348, 349, 350, 351, 352, 353, 354, 355, 356, 357, 358, 359, 360, 361, 362, 363, 364, 365, 366, 367, 368, 369, 370, 371, 372, 373, 374, 375, 376, 377, 378, 379, 380, 381, 382, 383, 384, 385, 386, 387, 388, 389, 390, 391, 392, 393, 394, 395, 396, 397, 398, 399, 400, 401, 402, 403, 404, 405, 406, 407, 408, 409, 410, 411, 412, 413, 414, 415, 416, 417, 418, 419, 420, 421, 422, 423, 424, 425, 426, 427, 428, 429, 430, 431, 432, 433, 434, 435, 436, 437, 438, 439, 440, 441, 442, 443, 444, 445, 446, 447, 448, 449, 450, 451, 452, 453, 454, 455, 456, 457, 458, 459, 460, 461, 462, 463, 464, 465, 466, 467, 468, 469, 470, 471, 472, 473, 474, 475, 476, 477, 478, 479, 480, 481, 482, 483, 484, 485, 486, 487, 488, 489, 490, 491, 492, 493, 494, 495, 496, 497, 498, 499, 500, 501, 502, 503, 504, 505, 506, 507, 508, 509, 510, 511, 512, 513, 514, 515, 516, 517, 518, 519, 520, 521, 522, 523, 524, 525, 526, 527, 528, 529, 530, 531, 532, 533, 534, 535, 536, 537, 538, 539, 540, 541, 542, 543, 544, 545, 546, 547, 548, 549, 550, 551, 552, 553, 554, 555, 556, 557, 558, 559, 560, 561, 562, 563, 564, 565, 566, 567, 568, 569, 570, 571, 572, 573, 574, 575, 576, 577, 578, 579, 580, 581, 582, 583, 584, 585, 586, 587, 588, 589, 590, 591, 592, 593, 594, 595, 596, 597, 598, 599, 600, 601, 602, 603, 604, 605, 606, 607, 608, 609, 610, 611, 612, 613, 614, 615, 616, 617, 618, 619, 620, 621, 622, 623, 624, 625, 626, 627, 628, 629, 630, 631, 632, 633, 634, 635, 636, 637, 638, 639, 640, 641, 642, 643, 644, 645, 646, 647, 648, 649, 650, 651, 652, 653, 654, 655, 656, 657, 658, 659, 660, 661, 662, 663, 664, 665, 666, 667, 668, 669, 670, 671, 672, 673, 674, 675, 676, 677, 678, 679, 680, 681, 682, 683, 684, 685, 686, 687, 688, 689, 690, 691, 692, 693, 694, 695, 696, 697, 698, 699, 700, 701, 702, 703, 704, 705, 706, 707, 708, 709, 710, 711, 712, 713, 714, 715, 716, 717, 718, 719, 720, 721, 722, 723, 724, 725, 726, 727, 728, 729, 730, 731, 732, 733, 734, 735, 736, 737, 738, 739, 740, 741, 742, 743, 744, 745, 746, 747, 748, 749, 750, 751, 752, 753, 754, 755, 756, 757, 758, 759, 760, 761, 762, 763, 764, 765, 766, 767, 768, 769, 770, 771, 772, 773, 774, 775, 776, 777, 778, 779, 780, 781, 782, 783, 784, 785, 786, 787, 788, 789, 790, 791, 792, 793, 794, 795, 796, 797, 798, 799, 800, 801, 802, 803, 804, 805, 806, 807, 808, 809, 810, 811, 812, 813, 814, 815, 816, 817, 818, 819, 820, 821, 822, 823, 824, 825, 826, 827, 828, 829, 830, 831, 832, 833, 834, 835, 836, 837, 838, 839, 840, 841, 842, 843, 844, 845, 846, 847, 848, 849, 850, 851, 852, 853, 854, 855, 856, 857, 858, 859, 860, 861, 862, 863, 864, 865, 866, 867, 868, 869, 870, 871, 872],
      "AcquisitionTime": ["110649.620000", "110650.080000", "110650.540000", "110651.000000", "110651.460000", "110651.920000", "110652.380000", "110652.840000", "110653.300000", "110653.760000", "110654.220000", "110654.680000", "110655.140000", "110655.600000", "110656.060000", "110656.520000", "110656.980000", "110657.440000", "110657.900000", "110658.360000", "110658.820000", "110659.280000", "110659.740000", "110700.200000", "110700.660000", "110701.120000", "110701.580000", "110702.040000", "110702.500000", "110702.960000", "110703.420000", "110703.880000", "110704.340000", "110704.800000", "110705.260000", "110705.720000", "110706.180000", "110706.640000", "110707.100000", "110707.560000", "110708.020000", "110708.480000", "110708.940000", "110709.400000", "110709.860000", "110710.320000", "110710.780000", "110711.240000", "110711.700000", "110712.160000", "110712.620000", "110713.080000", "110713.540000", "110714.000000", "110714.460000", "110714.920000", "110715.380000", "110715.840000", "110716.300000", "110716.760000", "110717.220000", "110717.680000", "110718.140000", "110718.600000", "110719.060000", "110719.520000", "110719.980000", "110720.440000", "110720.900000", "110721.360000", "110721.820000", "110722.280000", "110722.740000", "110723.200000", "110723.660000", "110724.120000", "110724.580000", "110725.040000", "110725.500000", "110725.960000", "110726.420000", "110726.880000", "110727.340000", "110727.800000", "110728.260000", "110728.720000", "110729.180000", "110729.640000", "110730.100000", "110730.560000", "110731.020000", "110731.480000", "110731.940000", "110732.400000", "110732.860000", "110733.320000", "110733.780000", "110734.240000", "110734.700000", "110735.160000", "110735.620000", "110736.080000", "110736.540000", "110737.000000", "110737.460000", "110737.920000", "110738.380000", "110738.840000", "110739.300000", "110739.760000", "110740.220000", "110740.680000", "110741.140000", "110741.600000", "110742.060000", "110742.520000", "110742.980000", "110743.440000", "110743.900000", "110744.360000", "110744.820000", "110745.280000", "110745.740000", "110746.200000", "110746.660000", "110747.120000", "110747.580000", "110748.040000", "110748.500000", "110748.960000", "110749.420000", "110749.880000", "110750.340000", "110750.800000", "110751.260000", "110751.720000", "110752.180000", "110752.640000", "110753.100000", "110753.560000", "110754.020000", "110754.480000", "110754.940000", "110755.400000", "110755.860000", "110756.320000", "110756.780000", "110757.240000", "110757.700000", "110758.160000", "110758.620000", "110759.080000", "110759.540000", "110800.000000", "110800.460000", "110800.920000", "110801.380000", "110801.840000", "110802.300000", "110802.760000", "110803.220000", "110803.680000", "110804.140000", "110804.600000", "110805.060000", "110805.520000", "110805.980000", "110806.440000", "110806.900000", "110807.360000", "110807.820000", "110808.280000", "110808.740000", "110809.200000", "110809.660000", "110810.120000", "110810.580000", "110811.040000", "110811.500000", "110811.960000", "110812.420000", "110812.880000", "110813.340000", "110813.800000", "110814.260000", "110814.720000", "110815.180000", "110815.640000", "110816.100000", "110816.560000", "110817.020000", "110817.480000", "110817.940000", "110818.400000", "110818.860000", "110819.320000", "110819.780000", "110820.240000", "110820.700000", "110821.160000", "110821.620000", "110822.080000", "110822.540000", "110823.000000", "110823.460000", "110823.920000", "110824.380000", "110824.840000", "110825.300000", "110825.760000", "110826.220000", "110826.680000", "110827.140000", "110827.600000", "110828.060000", "110828.520000", "110828.980000", "110829.440000", "110829.900000", "110830.360000", "110830.820000", "110831.280000", "110831.740000", "110832.200000", "110832.660000", "110833.120000", "110833.580000", "110834.040000", "110834.500000", "110834.960000", "110835.420000", "110835.880000", "110836.340000", "110836.800000", "110837.260000", "110837.720000", "110838.180000", "110838.640000", "110839.100000", "110839.560000", "110840.020000", "110840.480000", "110840.940000", "110841.400000", "110841.860000", "110842.320000", "110842.780000", "110843.240000", "110843.700000", "110844.160000", "110844.620000", "110845.080000", "110845.540000", "110846.000000", "110846.460000", "110846.920000", "110847.380000", "110847.840000", "110848.300000", "110848.760000", "110849.220000", "110849.680000", "110850.140000", "110850.600000", "110851.060000", "110851.520000", "110851.980000", "110852.440000", "110852.900000", "110853.360000", "110853.820000", "110854.280000", "110854.740000", "110855.200000", "110855.660000", "110856.120000", "110856.580000", "110857.040000", "110857.500000", "110857.960000", "110858.420000", "110858.880000", "110859.340000", "110859.800000", "110900.260000", "110900.720000", "110901.180000", "110901.640000", "110902.100000", "110902.560000", "110903.020000", "110903.480000", "110903.940000", "110904.400000", "110904.860000", "110905.320000", "110905.780000", "110906.240000", "110906.700000", "110907.160000", "110907.620000", "110908.080000", "110908.540000", "110909.000000", "110909.460000", "110909.920000", "110910.380000", "110910.840000", "110911.300000", "110911.760000", "110912.220000", "110912.680000", "110913.140000", "110913.600000", "110914.060000", "110914.520000", "110914.980000", "110915.440000", "110915.900000", "110916.360000", "110916.820000", "110917.280000", "110917.740000", "110918.200000", "110918.660000", "110919.120000", "110919.580000", "110920.040000", "110920.500000", "110920.960000", "110921.420000", "110921.880000", "110922.340000", "110922.800000", "110923.260000", "110923.720000", "110924.180000", "110924.640000", "110925.100000", "110925.560000", "110926.020000", "110926.480000", "110926.940000", "110927.400000", "110927.860000", "110928.320000", "110928.780000", "110929.240000", "110929.700000", "110930.160000", "110930.620000", "110931.080000", "110931.540000", "110932.000000", "110932.460000", "110932.920000", "110933.380000", "110933.840000", "110934.300000", "110934.760000", "110935.220000", "110935.680000", "110936.140000", "110936.600000", "110937.060000", "110937.520000", "110937.980000", "110938.440000", "110938.900000", "110939.360000", "110939.820000", "110940.280000", "110940.740000", "110941.200000", "110941.660000", "110942.120000", "110942.580000", "110943.040000", "110943.500000", "110943.960000", "110944.420000", "110944.880000", "110945.340000", "110945.800000", "110946.260000", "110946.720000", "110947.180000", "110947.640000", "110948.100000", "110948.560000", "110949.020000", "110949.480000", "110949.940000", "110950.400000", "110950.860000", "110951.320000", "110951.780000", "110952.240000", "110952.700000", "110953.160000", "110953.620000", "110954.080000", "110954.540000", "110955.000000", "110955.460000", "110955.920000", "110956.380000", "110956.840000", "110957.300000", "110957.760000", "110958.220000", "110958.680000", "110959.140000", "110959.600000", "111000.060000", "111000.520000", "111000.980000", "111001.440000", "111001.900000", "111002.360000", "111002.820000", "111003.280000", "111003.740000", "111004.200000", "111004.660000", "111005.120000", "111005.580000", "111006.040000", "111006.500000", "111006.960000", "111007.420000", "111007.880000", "111008.340000", "111008.800000", "111009.260000", "111009.720000", "111010.180000", "111010.640000", "111011.100000", "111011.560000", "111012.020000", "111012.480000", "111012.940000", "111013.400000", "111013.860000", "111014.320000", "111014.780000", "111015.240000", "111015.700000", "111016.160000", "111016.620000", "111017.080000", "111017.540000", "111018.000000", "111018.460000", "111018.920000", "111019.380000", "111019.840000", "111020.300000", "111020.760000", "111021.220000", "111021.680000", "111022.140000", "111022.600000", "111023.060000", "111023.520000", "111023.980000", "111024.440000", "111024.900000", "111025.360000", "111025.820000", "111026.280000", "111026.740000", "111027.200000", "111027.660000", "111028.120000", "111028.580000", "111029.040000", "111029.500000", "111029.960000", "111030.420000", "111030.880000", "111031.340000", "111031.800000", "111032.260000", "111032.720000", "111033.180000", "111033.640000", "111034.100000", "111034.560000", "111035.020000", "111035.480000", "111035.940000", "111036.400000", "111036.860000", "111037.320000", "111037.780000", "111038.240000", "111038.700000", "111039.160000", "111039.620000", "111040.080000", "111040.540000", "111041.000000", "111041.460000", "111041.920000", "111042.380000", "111042.840000", "111043.300000", "111043.760000", "111044.220000", "111044.680000", "111045.140000", "111045.600000", "111046.060000", "111046.520000", "111046.980000", "111047.440000", "111047.900000", "111048.360000", "111048.820000", "111049.280000", "111049.740000", "111050.200000", "111050.660000", "111051.120000", "111051.580000", "111052.040000", "111052.500000", "111052.960000", "111053.420000", "111053.880000", "111054.340000", "111054.800000", "111055.260000", "111055.720000", "111056.180000", "111056.640000", "111057.100000", "111057.560000", "111058.020000", "111058.480000", "111058.940000", "111059.400000", "111059.860000", "111100.320000", "111100.780000", "111101.240000", "111101.700000", "111102.160000", "111102.620000", "111103.080000", "111103.540000", "111104.000000", "111104.460000", "111104.920000", "111105.380000", "111105.840000", "111106.300000", "111106.760000", "111107.220000", "111107.680000", "111108.140000", "111108.600000", "111109.060000", "111109.520000", "111109.980000", "111110.440000", "111110.900000", "111111.360000", "111111.820000", "111112.280000", "111112.740000", "111113.200000", "111113.660000", "111114.120000", "111114.580000", "111115.040000", "111115.500000", "111115.960000", "111116.420000", "111116.880000", "111117.340000", "111117.800000", "111118.260000", "111118.720000", "111119.180000", "111119.640000", "111120.100000", "111120.560000", "111121.020000", "111121.480000", "111121.940000", "111122.400000", "111122.860000", "111123.320000", "111123.780000", "111124.240000", "111124.700000", "111125.160000", "111125.620000", "111126.080000", "111126.540000", "111127.000000", "111127.460000", "111127.920000", "111128.380000", "111128.840000", "111129.300000", "111129.760000", "111130.220000", "111130.680000", "111131.140000", "111131.600000", "111132.060000", "111132.520000", "111132.980000", "111133.440000", "111133.900000", "111134.360000", "111134.820000", "111135.280000", "111135.740000", "111136.200000", "111136.660000", "111137.120000", "111137.580000", "111138.040000", "111138.500000", "111138.960000", "111139.420000", "111139.880000", "111140.340000", "111140.800000", "111141.260000", "111141.720000", "111142.180000", "111142.640000", "111143.100000", "111143.560000", "111144.020000", "111144.480000", "111144.940000", "111145.400000", "111145.860000", "111146.320000", "111146.780000", "111147.240000", "111147.700000", "111148.160000", "111148.620000", "111149.080000", "111149.540000", "111150.000000", "111150.460000", "111150.920000", "111151.380000", "111151.840000", "111152.300000", "111152.760000", "111153.220000", "111153.680000", "111154.140000", "111154.600000", "111155.060000", "111155.520000", "111155.980000", "111156.440000", "111156.900000", "111157.360000", "111157.820000", "111158.280000", "111158.740000", "111159.200000", "111159.660000", "111200.120000", "111200.580000", "111201.040000", "111201.500000", "111201.960000", "111202.420000", "111202.880000", "111203.340000", "111203.800000", "111204.260000", "111204.720000", "111205.180000", "111205.640000", "111206.100000", "111206.560000", "111207.020000", "111207.480000", "111207.940000", "111208.400000", "111208.860000", "111209.320000", "111209.780000", "111210.240000", "111210.700000", "111211.160000", "111211.620000", "111212.080000", "111212.540000", "111213.000000", "111213.460000", "111213.920000", "111214.380000", "111214.840000", "111215.300000", "111215.760000", "111216.220000", "111216.680000", "111217.140000", "111217.600000", "111218.060000", "111218.520000", "111218.980000", "111219.440000", "111219.900000", "111220.360000", "111220.820000", "111221.280000", "111221.740000", "111222.200000", "111222.660000", "111223.120000", "111223.580000", "111224.040000", "111224.500000", "111224.960000", "111225.420000", "111225.880000", "111226.340000", "111226.800000", "111227.260000", "111227.720000", "111228.180000", "111228.640000", "111229.100000", "111229.560000", "111230.020000", "111230.480000", "111230.940000", "111231.400000", "111231.860000", "111232.320000", "111232.780000", "111233.240000", "111233.700000", "111234.160000", "111234.620000", "111235.080000", "111235.540000", "111236.000000", "111236.460000", "111236.920000", "111237.380000", "111237.840000", "111238.300000", "111238.760000", "111239.220000", "111239.680000", "111240.140000", "111240.600000", "111241.060000", "111241.520000", "111241.980000", "111242.440000", "111242.900000", "111243.360000", "111243.820000", "111244.280000", "111244.740000", "111245.200000", "111245.660000", "111246.120000", "111246.580000", "111247.040000", "111247.500000", "111247.960000", "111248.420000", "111248.880000", "111249.340000", "111249.800000", "111250.260000", "111250.720000", "111251.180000", "111251.640000", "111252.100000", "111252.560000", "111253.020000", "111253.480000", "111253.940000", "111254.400000", "111254.860000", "111255.320000", "111255.780000", "111256.240000", "111256.700000", "111257.160000", "111257.620000", "111258.080000", "111258.540000", "111259.000000", "111259.460000", "111259.920000", "111300.380000", "111300.840000", "111301.300000", "111301.760000", "111302.220000", "111302.680000", "111303.140000", "111303.600000", "111304.060000", "111304.520000", "111304.980000", "111305.440000", "111305.900000", "111306.360000", "111306.820000", "111307.280000", "111307.740000", "111308.200000", "111308.660000", "111309.120000", "111309.580000", "111310.040000", "111310.500000", "111310.960000", "111311.420000", "111311.880000", "111312.340000", "111312.800000", "111313.260000", "111313.720000", "111314.180000", "111314.640000", "111315.100000", "111315.560000", "111316.020000", "111316.480000", "111316.940000", "111317.400000", "111317.860000", "111318.320000", "111318.780000", "111319.240000", "111319.700000", "111320.160000", "111320.620000", "111321.080000", "111321.540000", "111322.000000", "111322.460000", "111322.920000", "111323.380000", "111323.840000", "111324.300000", "111324.760000", "111325.220000", "111325.680000", "111326.140000", "111326.600000", "111327.060000", "111327.520000", "111327.980000", "111328.440000", "111328.900000", "111329.360000", "111329.820000", "111330.280000"],
