{
  "AcquisitionMatrixPE": 82,
  "AcquisitionNumber": 1,
  "AcquisitionTime": "11:13:48.302500",
  "BandwidthPerPixelPhaseEncode": 24.888,
  "BaseResolution": 82,
  "BodyPartExamined": "BRAIN",
  "ConsistencyInfo": "N4_VE11E_LATEST_20181129",
  "ConversionSoftware": "dcm2niix",
  "ConversionSoftwareVersion": "v1.0.20201102",
  "DerivedVendorReportedEchoSpacing": 0.00049,
  "DeviceSerialNumber": "66112",
  "DwellTime": 2e-06,
  "EchoTime": 0.0272,
  "EchoTrainLength": 82,
  "EffectiveEchoSpacing": 0.00049,
  "FlipAngle": 44,
  "ImageComments": "Unaliased MB8/PE3",
  "ImageOrientationPatientDICOM": [0.999412, 0.0319683, -0.0124064, -0.030884, 0.996358, 0.0794806],
  "ImageType": [
    "ORIGINAL",
    "PRIMARY",
    "M",
    "MB",
    "ND",
    "NORM",
    "MOSAIC"
],
  "ImagingFrequency": 123.252,
  "InPlanePhaseEncodingDirectionDICOM": "COL",
  "InstitutionAddress": "Maynard 3,Hanover,NH,US,03755",
  "InstitutionName": "Dartmouth College - PBS",
  "InstitutionalDepartmentName": "Department",
  "MRAcquisitionType": "2D",
  "MagneticFieldStrength": 3,
  "Manufacturer": "Siemens",
  "ManufacturersModelName": "Prisma",
  "Modality": "MR",
  "MultibandAccelerationFactor": 8,
  "PartialFourier": 1,
  "PatientPosition": "HFS",
  "PercentPhaseFOV": 100,
  "PercentSampling": 100,
  "PhaseEncodingDirection": "j-",
  "PhaseEncodingSteps": 82,
  "PhaseResolution": 1,
  "PixelBandwidth": 3050,
  "ProcedureStepDescription": "Wager_Wager^1076_spacetop",
  "ProtocolName": "func_run-05_task-social_acq-ap-mb8",
  "PulseSequenceDetails": "%CustomerSeq%\\cmrr_mbep2d_bold",
  "ReceiveCoilActiveElements": "HEA;HEP",
  "ReceiveCoilName": "Head_32",
  "ReconMatrixPE": 82,
  "RepetitionTime": 0.46,
  "SAR": 0.0817987,
  "ScanOptions": "FS",
  "ScanningSequence": "EP",
  "SequenceName": "epfid2d1_82",
  "SequenceVariant": "SK\\SS",
  "SeriesDescription": "func_run-05_task-social_acq-ap-mb8",
  "SeriesNumber": 16,
  "ShimSetting": [4138, -7770, -7214, 760, -50, -191, -43, 106],
  "SliceThickness": 2.7,
  "SliceTiming": [0, 0.25, 0.0625, 0.3125, 0.125, 0.375, 0.1875, 0, 0.25, 0.0625, 0.3125, 0.125, 0.375, 0.1875, 0, 0.25, 0.0625, 0.3125, 0.125, 0.375, 0.1875, 0, 0.25, 0.0625, 0.3125, 0.125, 0.375, 0.1875, 0, 0.25, 0.0625, 0.3125, 0.125, 0.375, 0.1875, 0, 0.25, 0.0625, 0.3125, 0.125, 0.375, 0.1875, 0, 0.25, 0.0625, 0.3125, 0.125, 0.375, 0.1875, 0, 0.25, 0.0625, 0.3125, 0.125, 0.375, 0.1875],
  "SoftwareVersions": "syngo MR E11",
  "SpacingBetweenSlices": 2.7,
  "StationName": "AWP66112",
  "TaskName": "social",
  "TotalReadoutTime": 0.03969,
  "TxRefAmp": 234.869,
  "WipMemBlock": "52de557d-e1fc-4b75-92eb-c3d38c6f910b||Sequence: R016 ve11e/master r/434b28f1; Aug  7 2019 18:53:46 by eja",
  "dcmmeta_affine": [
    [-2.681349039077759, -0.08285946398973465, -0.0402357243001461, 117.47994995117188],
    [-0.0857686772942543, 2.6731553077697754, 0.21343697607517242, -98.19095611572266],
    [-0.033285580575466156, -0.21324074268341064, 2.6912498474121094, -44.94535827636719],
    [0.0, 0.0, 0.0, 1.0]
],
  "dcmmeta_reorient_transform": [
    [0.0, -1.0, 0.0, 81.0],
    [1.0, 0.0, 0.0, 0.0],
    [0.0, 0.0, 1.0, 0.0],
    [0.0, 0.0, 0.0, 1.0]
],
  "dcmmeta_shape": [82, 82, 56, 872],
  "dcmmeta_slice_dim": 2,
  "dcmmeta_version": 0.6,
  "global": {
    "const": {
      "AccessionNumber": "A004074",
      "AcquisitionMatrix": [82, 0, 0, 82],
      "AngioFlag": "N",
      "BitsAllocated": 16,
      "BitsStored": 16,
      "BodyPartExamined": "BRAIN",
      "Columns": 656,
      "EchoNumbers": 1,
      "EchoTime": 27.2,
      "EchoTrainLength": 82,
      "FlipAngle": 44.0,
      "HighBit": 15,
      "ImageOrientationPatient": [0.99941188029523, 0.03196832327694, -0.0124064431491, -0.0308839820175, 0.99635787149882, 0.07948063636564],
      "ImagePositionPatient": [-856.53483117713, -910.14581534842, -113.86498641461],
      "ImageType": [
        "ORIGINAL",
        "PRIMARY",
        "M",
        "MB",
        "ND",
        "NORM",
        "MOSAIC"
],
      "ImagedNucleus": "1H",
      "ImagingFrequency": 123.252183,
      "InPlanePhaseEncodingDirection": "COL",
      "MRAcquisitionType": "2D",
      "MagneticFieldStrength": 3.0,
      "Manufacturer": "SIEMENS",
      "ManufacturerModelName": "Prisma",
      "Modality": "MR",
      "NumberOfAverages": 1.0,
      "NumberOfPhaseEncodingSteps": 82,
      "PercentPhaseFieldOfView": 100.0,
      "PercentSampling": 100.0,
      "PerformedProcedureStepStartTime": "103622.370000",
      "PhotometricInterpretation": "MONOCHROME2",
      "PixelBandwidth": 3050.0,
      "PixelRepresentation": 0,
      "PixelSpacing": [2.6829268932343, 2.6829268932343],
      "ProtocolName": "func_run-05_task-social_acq-ap-mb8",
      "RepetitionTime": 460.0,
      "Rows": 656,
      "SAR": 0.08179870169891,
      "SamplesPerPixel": 1,
      "ScanOptions": "FS",
      "ScanningSequence": "EP",
      "SequenceName": "epfid2d1_82",
      "SequenceVariant": [
        "SK",
        "SS"
],
      "SeriesDescription": "func_run-05_task-social_acq-ap-mb8",
      "SeriesNumber": 16,
      "SeriesTime": "111416.904000",
      "SliceLocation": -54.312465097329,
      "SliceThickness": 2.7000000476837,
      "SmallestImagePixelValue": 0,
      "SoftwareVersions": "syngo MR E11",
      "SpacingBetweenSlices": 2.6999999982281,
      "SpecificCharacterSet": "ISO_IR 100",
      "StudyID": "3",
      "StudyTime": "103622.260000",
      "TransmitCoilName": "Body",
      "VariableFlipAngleFlag": "N",
      "WindowCenterWidthExplanation": "Algo1"
    },
    "slices": {}
  },
  "time": {
    "samples": {
      "AcquisitionNumber": [1, 2, 3, 4, 5, 6, 7, 8, 9, 10, 11, 12, 13, 14, 15, 16, 17, 18, 19, 20, 21, 22, 23, 24, 25, 26, 27, 28, 29, 30, 31, 32, 33, 34, 35, 36, 37, 38, 39, 40, 41, 42, 43, 44, 45, 46, 47, 48, 49, 50, 51, 52, 53, 54, 55, 56, 57, 58, 59, 60, 61, 62, 63, 64, 65, 66, 67, 68, 69, 70, 71, 72, 73, 74, 75, 76, 77, 78, 79, 80, 81, 82, 83, 84, 85, 86, 87, 88, 89, 90, 91, 92, 93, 94, 95, 96, 97, 98, 99, 100, 101, 102, 103, 104, 105, 106, 107, 108, 109, 110, 111, 112, 113, 114, 115, 116, 117, 118, 119, 120, 121, 122, 123, 124, 125, 126, 127, 128, 129, 130, 131, 132, 133, 134, 135, 136, 137, 138, 139, 140, 141, 142, 143, 144, 145, 146, 147, 148, 149, 150, 151, 152, 153, 154, 155, 156, 157, 158, 159, 160, 161, 162, 163, 164, 165, 166, 167, 168, 169, 170, 171, 172, 173, 174, 175, 176, 177, 178, 179, 180, 181, 182, 183, 184, 185, 186, 187, 188, 189, 190, 191, 192, 193, 194, 195, 196, 197, 198, 199, 200, 201, 202, 203, 204, 205, 206, 207, 208, 209, 210, 211, 212, 213, 214, 215, 216, 217, 218, 219, 220, 221, 222, 223, 224, 225, 226, 227, 228, 229, 230, 231, 232, 233, 234, 235, 236, 237, 238, 239, 240, 241, 242, 243, 244, 245, 246, 247, 248, 249, 250, 251, 252, 253, 254, 255, 256, 257, 258, 259, 260, 261, 262, 263, 264, 265, 266, 267, 268, 269, 270, 271, 272, 273, 274, 275, 276, 277, 278, 279, 280, 281, 282, 283, 284, 285, 286, 287, 288, 289, 290, 291, 292, 293, 294, 295, 296, 297, 298, 299, 300, 301, 302, 303, 304, 305, 306, 307, 308, 309, 310, 311, 312, 313, 314, 315, 316, 317, 318, 319, 320, 321, 322, 323, 324, 325, 326, 327, 328, 329, 330, 331, 332, 333, 334, 335, 336, 337, 338, 339, 340, 341, 342, 343, 344, 345, 346, 347, 348, 349, 350, 351, 352, 353, 354, 355, 356, 357, 358, 359, 360, 361, 362, 363, 364, 365, 366, 367, 368, 369, 370, 371, 372, 373, 374, 375, 376, 377, 378, 379, 380, 381, 382, 383, 384, 385, 386, 387, 388, 389, 390, 391, 392, 393, 394, 395, 396, 397, 398, 399, 400, 401, 402, 403, 404, 405, 406, 407, 408, 409, 410, 411, 412, 413, 414, 415, 416, 417, 418, 419, 420, 421, 422, 423, 424, 425, 426, 427, 428, 429, 430, 431, 432, 433, 434, 435, 436, 437, 438, 439, 440, 441, 442, 443, 444, 445, 446, 447, 448, 449, 450, 451, 452, 453, 454, 455, 456, 457, 458, 459, 460, 461, 462, 463, 464, 465, 466, 467, 468, 469, 470, 471, 472, 473, 474, 475, 476, 477, 478, 479, 480, 481, 482, 483, 484, 485, 486, 487, 488, 489, 490, 491, 492, 493, 494, 495, 496, 497, 498, 499, 500, 501, 502, 503, 504, 505, 506, 507, 508, 509, 510, 511, 512, 513, 514, 515, 516, 517, 518, 519, 520, 521, 522, 523, 524, 525, 526, 527, 528, 529, 530, 531, 532, 533, 534, 535, 536, 537, 538, 539, 540, 541, 542, 543, 544, 545, 546, 547, 548, 549, 550, 551, 552, 553, 554, 555, 556, 557, 558, 559, 560, 561, 562, 563, 564, 565, 566, 567, 568, 569, 570, 571, 572, 573, 574, 575, 576, 577, 578, 579, 580, 581, 582, 583, 584, 585, 586, 587, 588, 589, 590, 591, 592, 593, 594, 595, 596, 597, 598, 599, 600, 601, 602, 603, 604, 605, 606, 607, 608, 609, 610, 611, 612, 613, 614, 615, 616, 617, 618, 619, 620, 621, 622, 623, 624, 625, 626, 627, 628, 629, 630, 631, 632, 633, 634, 635, 636, 637, 638, 639, 640, 641, 642, 643, 644, 645, 646, 647, 648, 649, 650, 651, 652, 653, 654, 655, 656, 657, 658, 659, 660, 661, 662, 663, 664, 665, 666, 667, 668, 669, 670, 671, 672, 673, 674, 675, 676, 677, 678, 679, 680, 681, 682, 683, 684, 685, 686, 687, 688, 689, 690, 691, 692, 693, 694, 695, 696, 697, 698, 699, 700, 701, 702, 703, 704, 705, 706, 707, 708, 709, 710, 711, 712, 713, 714, 715, 716, 717, 718, 719, 720, 721, 722, 723, 724, 725, 726, 727, 728, 729, 730, 731, 732, 733, 734, 735, 736, 737, 738, 739, 740, 741, 742, 743, 744, 745, 746, 747, 748, 749, 750, 751, 752, 753, 754, 755, 756, 757, 758, 759, 760, 761, 762, 763, 764, 765, 766, 767, 768, 769, 770, 771, 772, 773, 774, 775, 776, 777, 778, 779, 780, 781, 782, 783, 784, 785, 786, 787, 788, 789, 790, 791, 792, 793, 794, 795, 796, 797, 798, 799, 800, 801, 802, 803, 804, 805, 806, 807, 808, 809, 810, 811, 812, 813, 814, 815, 816, 817, 818, 819, 820, 821, 822, 823, 824, 825, 826, 827, 828, 829, 830, 831, 832, 833, 834, 835, 836, 837, 838, 839, 840, 841, 842, 843, 844, 845, 846, 847, 848, 849, 850, 851, 852, 853, 854, 855, 856, 857, 858, 859, 860, 861, 862, 863, 864, 865, 866, 867, 868, 869, 870, 871, 872],
      "AcquisitionTime": ["111348.302500", "111348.762500", "111349.222500", "111349.682500", "111350.142500", "111350.602500", "111351.062500", "111351.522500", "111351.982500", "111352.442500", "111352.902500", "111353.362500", "111353.822500", "111354.282500", "111354.742500", "111355.202500", "111355.662500", "111356.122500", "111356.582500", "111357.042500", "111357.502500", "111357.962500", "111358.422500", "111358.882500", "111359.342500", "111359.802500", "111400.262500", "111400.722500", "111401.182500", "111401.642500", "111402.102500", "111402.562500", "111403.022500", "111403.482500", "111403.942500", "111404.402500", "111404.862500", "111405.322500", "111405.782500", "111406.242500", "111406.702500", "111407.162500", "111407.622500", "111408.082500", "111408.542500", "111409.002500", "111409.462500", "111409.922500", "111410.382500", "111410.842500", "111411.302500", "111411.762500", "111412.222500", "111412.682500", "111413.142500", "111413.602500", "111414.062500", "111414.522500", "111414.982500", "111415.442500", "111415.902500", "111416.362500", "111416.822500", "111417.282500", "111417.742500", "111418.202500", "111418.662500", "111419.122500", "111419.582500", "111420.042500", "111420.502500", "111420.962500", "111421.422500", "111421.882500", "111422.342500", "111422.802500", "111423.262500", "111423.722500", "111424.182500", "111424.642500", "111425.102500", "111425.562500", "111426.022500", "111426.482500", "111426.942500", "111427.402500", "111427.862500", "111428.322500", "111428.782500", "111429.242500", "111429.702500", "111430.162500", "111430.622500", "111431.082500", "111431.542500", "111432.002500", "111432.462500", "111432.922500", "111433.382500", "111433.842500", "111434.302500", "111434.762500", "111435.222500", "111435.682500", "111436.142500", "111436.602500", "111437.062500", "111437.522500", "111437.982500", "111438.442500", "111438.902500", "111439.362500", "111439.822500", "111440.282500", "111440.742500", "111441.202500", "111441.662500", "111442.122500", "111442.582500", "111443.042500", "111443.502500", "111443.962500", "111444.422500", "111444.882500", "111445.342500", "111445.802500", "111446.262500", "111446.722500", "111447.182500", "111447.642500", "111448.102500", "111448.562500", "111449.022500", "111449.482500", "111449.942500", "111450.402500", "111450.862500", "111451.322500", "111451.782500", "111452.242500", "111452.702500", "111453.162500", "111453.622500", "111454.082500", "111454.542500", "111455.002500", "111455.462500", "111455.922500", "111456.382500", "111456.842500", "111457.302500", "111457.762500", "111458.222500", "111458.682500", "111459.142500", "111459.602500", "111500.062500", "111500.522500", "111500.982500", "111501.442500", "111501.902500", "111502.362500", "111502.822500", "111503.282500", "111503.742500", "111504.202500", "111504.662500", "111505.122500", "111505.582500", "111506.042500", "111506.502500", "111506.962500", "111507.422500", "111507.882500", "111508.342500", "111508.802500", "111509.262500", "111509.722500", "111510.182500", "111510.642500", "111511.102500", "111511.562500", "111512.022500", "111512.482500", "111512.942500", "111513.402500", "111513.862500", "111514.322500", "111514.782500", "111515.242500", "111515.702500", "111516.162500", "111516.622500", "111517.082500", "111517.542500", "111518.002500", "111518.462500", "111518.922500", "111519.382500", "111519.842500", "111520.302500", "111520.762500", "111521.222500", "111521.682500", "111522.142500", "111522.602500", "111523.062500", "111523.522500", "111523.982500", "111524.442500", "111524.902500", "111525.362500", "111525.822500", "111526.282500", "111526.742500", "111527.202500", "111527.662500", "111528.122500", "111528.582500", "111529.042500", "111529.502500", "111529.962500", "111530.422500", "111530.882500", "111531.342500", "111531.802500", "111532.262500", "111532.722500", "111533.182500", "111533.642500", "111534.102500", "111534.562500", "111535.022500", "111535.482500", "111535.942500", "111536.402500", "111536.862500", "111537.322500", "111537.782500", "111538.242500", "111538.702500", "111539.162500", "111539.622500", "111540.082500", "111540.542500", "111541.002500", "111541.462500", "111541.922500", "111542.382500", "111542.842500", "111543.302500", "111543.762500", "111544.222500", "111544.682500", "111545.142500", "111545.602500", "111546.062500", "111546.522500", "111546.982500", "111547.442500", "111547.902500", "111548.362500", "111548.822500", "111549.282500", "111549.742500", "111550.202500", "111550.662500", "111551.122500", "111551.582500", "111552.042500", "111552.502500", "111552.962500", "111553.422500", "111553.882500", "111554.342500", "111554.802500", "111555.262500", "111555.722500", "111556.182500", "111556.642500", "111557.102500", "111557.562500", "111558.022500", "111558.482500", "111558.942500", "111559.402500", "111559.862500", "111600.322500", "111600.782500", "111601.242500", "111601.702500", "111602.162500", "111602.622500", "111603.082500", "111603.542500", "111604.002500", "111604.462500", "111604.922500", "111605.382500", "111605.842500", "111606.302500", "111606.762500", "111607.222500", "111607.682500", "111608.142500", "111608.602500", "111609.062500", "111609.522500", "111609.982500", "111610.442500", "111610.902500", "111611.362500", "111611.822500", "111612.282500", "111612.742500", "111613.202500", "111613.662500", "111614.122500", "111614.582500", "111615.042500", "111615.502500", "111615.962500", "111616.422500", "111616.882500", "111617.342500", "111617.802500", "111618.262500", "111618.722500", "111619.182500", "111619.642500", "111620.102500", "111620.562500", "111621.022500", "111621.482500", "111621.942500", "111622.402500", "111622.862500", "111623.322500", "111623.782500", "111624.242500", "111624.702500", "111625.162500", "111625.622500", "111626.082500", "111626.542500", "111627.002500", "111627.462500", "111627.922500", "111628.382500", "111628.842500", "111629.302500", "111629.762500", "111630.222500", "111630.682500", "111631.142500", "111631.602500", "111632.062500", "111632.522500", "111632.982500", "111633.442500", "111633.902500", "111634.362500", "111634.822500", "111635.282500", "111635.742500", "111636.202500", "111636.662500", "111637.122500", "111637.582500", "111638.042500", "111638.502500", "111638.962500", "111639.422500", "111639.882500", "111640.342500", "111640.802500", "111641.262500", "111641.722500", "111642.182500", "111642.642500", "111643.102500", "111643.562500", "111644.022500", "111644.482500", "111644.942500", "111645.402500", "111645.862500", "111646.322500", "111646.782500", "111647.242500", "111647.702500", "111648.162500", "111648.622500", "111649.082500", "111649.542500", "111650.002500", "111650.462500", "111650.922500", "111651.382500", "111651.842500", "111652.302500", "111652.762500", "111653.222500", "111653.682500", "111654.142500", "111654.602500", "111655.062500", "111655.522500", "111655.982500", "111656.442500", "111656.902500", "111657.362500", "111657.822500", "111658.282500", "111658.742500", "111659.202500", "111659.662500", "111700.122500", "111700.582500", "111701.042500", "111701.502500", "111701.962500", "111702.422500", "111702.882500", "111703.342500", "111703.802500", "111704.262500", "111704.722500", "111705.182500", "111705.642500", "111706.102500", "111706.562500", "111707.022500", "111707.482500", "111707.942500", "111708.402500", "111708.862500", "111709.322500", "111709.782500", "111710.242500", "111710.702500", "111711.162500", "111711.622500", "111712.082500", "111712.542500", "111713.002500", "111713.462500", "111713.922500", "111714.382500", "111714.842500", "111715.302500", "111715.762500", "111716.222500", "111716.682500", "111717.142500", "111717.602500", "111718.062500", "111718.522500", "111718.982500", "111719.442500", "111719.902500", "111720.362500", "111720.822500", "111721.282500", "111721.742500", "111722.202500", "111722.662500", "111723.122500", "111723.582500", "111724.042500", "111724.502500", "111724.962500", "111725.422500", "111725.882500", "111726.342500", "111726.802500", "111727.262500", "111727.722500", "111728.182500", "111728.642500", "111729.102500", "111729.562500", "111730.022500", "111730.482500", "111730.942500", "111731.402500", "111731.862500", "111732.322500", "111732.782500", "111733.242500", "111733.702500", "111734.162500", "111734.622500", "111735.082500", "111735.542500", "111736.002500", "111736.462500", "111736.922500", "111737.382500", "111737.842500", "111738.302500", "111738.762500", "111739.222500", "111739.682500", "111740.142500", "111740.602500", "111741.062500", "111741.522500", "111741.982500", "111742.442500", "111742.902500", "111743.362500", "111743.822500", "111744.282500", "111744.742500", "111745.202500", "111745.662500", "111746.122500", "111746.582500", "111747.042500", "111747.502500", "111747.962500", "111748.422500", "111748.882500", "111749.342500", "111749.802500", "111750.262500", "111750.722500", "111751.182500", "111751.642500", "111752.102500", "111752.562500", "111753.022500", "111753.482500", "111753.942500", "111754.402500", "111754.862500", "111755.322500", "111755.782500", "111756.242500", "111756.702500", "111757.162500", "111757.622500", "111758.082500", "111758.542500", "111759.002500", "111759.462500", "111759.922500", "111800.382500", "111800.842500", "111801.302500", "111801.762500", "111802.222500", "111802.682500", "111803.142500", "111803.602500", "111804.062500", "111804.522500", "111804.982500", "111805.442500", "111805.902500", "111806.362500", "111806.822500", "111807.282500", "111807.742500", "111808.202500", "111808.662500", "111809.122500", "111809.582500", "111810.042500", "111810.502500", "111810.962500", "111811.422500", "111811.882500", "111812.342500", "111812.802500", "111813.262500", "111813.722500", "111814.182500", "111814.642500", "111815.102500", "111815.562500", "111816.022500", "111816.482500", "111816.942500", "111817.402500", "111817.862500", "111818.322500", "111818.782500", "111819.242500", "111819.702500", "111820.162500", "111820.622500", "111821.082500", "111821.542500", "111822.002500", "111822.462500", "111822.922500", "111823.382500", "111823.842500", "111824.302500", "111824.762500", "111825.222500", "111825.682500", "111826.142500", "111826.602500", "111827.062500", "111827.522500", "111827.982500", "111828.442500", "111828.902500", "111829.362500", "111829.822500", "111830.282500", "111830.742500", "111831.202500", "111831.662500", "111832.122500", "111832.582500", "111833.042500", "111833.502500", "111833.962500", "111834.422500", "111834.882500", "111835.342500", "111835.802500", "111836.262500", "111836.722500", "111837.182500", "111837.642500", "111838.102500", "111838.562500", "111839.022500", "111839.482500", "111839.942500", "111840.402500", "111840.862500", "111841.322500", "111841.782500", "111842.242500", "111842.702500", "111843.162500", "111843.622500", "111844.082500", "111844.542500", "111845.002500", "111845.462500", "111845.922500", "111846.382500", "111846.842500", "111847.302500", "111847.762500", "111848.222500", "111848.682500", "111849.142500", "111849.602500", "111850.062500", "111850.522500", "111850.982500", "111851.442500", "111851.902500", "111852.362500", "111852.822500", "111853.282500", "111853.742500", "111854.202500", "111854.662500", "111855.122500", "111855.582500", "111856.042500", "111856.502500", "111856.962500", "111857.422500", "111857.882500", "111858.342500", "111858.802500", "111859.262500", "111859.722500", "111900.182500", "111900.642500", "111901.102500", "111901.562500", "111902.022500", "111902.482500", "111902.942500", "111903.402500", "111903.862500", "111904.322500", "111904.782500", "111905.242500", "111905.702500", "111906.162500", "111906.622500", "111907.082500", "111907.542500", "111908.002500", "111908.462500", "111908.922500", "111909.382500", "111909.842500", "111910.302500", "111910.762500", "111911.222500", "111911.682500", "111912.142500", "111912.602500", "111913.062500", "111913.522500", "111913.982500", "111914.442500", "111914.902500", "111915.362500", "111915.822500", "111916.282500", "111916.742500", "111917.202500", "111917.662500", "111918.122500", "111918.582500", "111919.042500", "111919.502500", "111919.962500", "111920.422500", "111920.882500", "111921.342500", "111921.802500", "111922.262500", "111922.722500", "111923.182500", "111923.642500", "111924.102500", "111924.562500", "111925.022500", "111925.482500", "111925.942500", "111926.402500", "111926.862500", "111927.322500", "111927.782500", "111928.242500", "111928.702500", "111929.162500", "111929.622500", "111930.082500", "111930.542500", "111931.002500", "111931.462500", "111931.922500", "111932.382500", "111932.842500", "111933.302500", "111933.762500", "111934.222500", "111934.682500", "111935.142500", "111935.602500", "111936.062500", "111936.522500", "111936.982500", "111937.442500", "111937.902500", "111938.362500", "111938.822500", "111939.282500", "111939.742500", "111940.202500", "111940.662500", "111941.122500", "111941.582500", "111942.042500", "111942.502500", "111942.962500", "111943.422500", "111943.882500", "111944.342500", "111944.802500", "111945.262500", "111945.722500", "111946.182500", "111946.642500", "111947.102500", "111947.562500", "111948.022500", "111948.482500", "111948.942500", "111949.402500", "111949.862500", "111950.322500", "111950.782500", "111951.242500", "111951.702500", "111952.162500", "111952.622500", "111953.082500", "111953.542500", "111954.002500", "111954.462500", "111954.922500", "111955.382500", "111955.842500", "111956.302500", "111956.762500", "111957.222500", "111957.682500", "111958.142500", "111958.602500", "111959.062500", "111959.522500", "111959.982500", "112000.442500", "112000.902500", "112001.362500", "112001.822500", "112002.282500", "112002.742500", "112003.202500", "112003.662500", "112004.122500", "112004.582500", "112005.042500", "112005.502500", "112005.962500", "112006.422500", "112006.882500", "112007.342500", "112007.802500", "112008.262500", "112008.722500", "112009.182500", "112009.642500", "112010.102500", "112010.562500", "112011.022500", "112011.482500", "112011.942500", "112012.402500", "112012.862500", "112013.322500", "112013.782500", "112014.242500", "112014.702500", "112015.162500", "112015.622500", "112016.082500", "112016.542500", "112017.002500", "112017.462500", "112017.922500", "112018.382500", "112018.842500", "112019.302500", "112019.762500", "112020.222500", "112020.682500", "112021.142500", "112021.602500", "112022.062500", "112022.522500", "112022.982500", "112023.442500", "112023.902500", "112024.362500", "112024.822500", "112025.282500", "112025.742500", "112026.202500", "112026.662500", "112027.122500", "112027.582500", "112028.042500", "112028.502500", "112028.962500"],
