{
  "AcquisitionMatrixPE": 82,
  "AcquisitionNumber": 1,
  "AcquisitionTime": "13:57:58.542500",
  "BandwidthPerPixelPhaseEncode": 24.888,
  "BaseResolution": 82,
  "BodyPartExamined": "BRAIN",
  "ConsistencyInfo": "N4_VE11E_LATEST_20181129",
  "ConversionSoftware": "dcm2niix",
  "ConversionSoftwareVersion": "v1.0.20201102",
  "DerivedVendorReportedEchoSpacing": 0.00049,
  "DeviceSerialNumber": "66112",
  "DwellTime": 2e-06,
  "EchoTime": 0.0272,
  "EchoTrainLength": 82,
  "EffectiveEchoSpacing": 0.00049,
  "FlipAngle": 44,
  "ImageComments": "Unaliased MB8/PE3",
  "ImageOrientationPatientDICOM": [0.999821, 0.0159116, 0.0101995, -0.0136119, 0.980616, -0.195468],
  "ImageType": [
    "ORIGINAL",
    "PRIMARY",
    "M",
    "MB",
    "ND",
    "NORM",
    "MOSAIC"
],
  "ImagingFrequency": 123.259,
  "InPlanePhaseEncodingDirectionDICOM": "COL",
  "InstitutionAddress": "Maynard 3,Hanover,NH,US,03755",
  "InstitutionName": "Dartmouth College - PBS",
  "InstitutionalDepartmentName": "Department",
  "MRAcquisitionType": "2D",
  "MagneticFieldStrength": 3,
  "Manufacturer": "Siemens",
  "ManufacturersModelName": "Prisma",
  "Modality": "MR",
  "MultibandAccelerationFactor": 8,
  "PartialFourier": 1,
  "PatientPosition": "HFS",
  "PercentPhaseFOV": 100,
  "PercentSampling": 100,
  "PhaseEncodingDirection": "j-",
  "PhaseEncodingSteps": 82,
  "PhaseResolution": 1,
  "PixelBandwidth": 3050,
  "ProcedureStepDescription": "Wager_Wager^1076_spacetop",
  "ProtocolName": "func_run-01_task-social_acq-ap-mb8",
  "PulseSequenceDetails": "%CustomerSeq%\\cmrr_mbep2d_bold",
  "ReceiveCoilActiveElements": "HEA;HEP",
  "ReceiveCoilName": "Head_32",
  "ReconMatrixPE": 82,
  "RepetitionTime": 0.46,
  "SAR": 0.124787,
  "ScanOptions": "FS",
  "ScanningSequence": "EP",
  "SequenceName": "epfid2d1_82",
  "SequenceVariant": "SK\\SS",
  "SeriesDescription": "func_run-01_task-social_acq-ap-mb8",
  "SeriesNumber": 12,
  "ShimSetting": [4238, -7770, -7237, 88, -140, -56, 54, 64],
  "SliceThickness": 2.7,
  "SliceTiming": [0, 0.25, 0.0625, 0.3125, 0.125, 0.375, 0.1875, 0, 0.25, 0.0625, 0.3125, 0.125, 0.375, 0.1875, 0, 0.25, 0.0625, 0.3125, 0.125, 0.375, 0.1875, 0, 0.25, 0.0625, 0.3125, 0.125, 0.375, 0.1875, 0, 0.25, 0.0625, 0.3125, 0.125, 0.375, 0.1875, 0, 0.25, 0.0625, 0.3125, 0.125, 0.375, 0.1875, 0, 0.25, 0.0625, 0.3125, 0.125, 0.375, 0.1875, 0, 0.25, 0.0625, 0.3125, 0.125, 0.375, 0.1875],
  "SoftwareVersions": "syngo MR E11",
  "SpacingBetweenSlices": 2.7,
  "StationName": "AWP66112",
  "TaskName": "social",
  "TotalReadoutTime": 0.03969,
  "TxRefAmp": 314.388,
  "WipMemBlock": "52cc7ad5-e4b0-417a-a823-9131de371b68||Sequence: R016 ve11e/master r/434b28f1; Aug  7 2019 18:53:46 by eja",
  "dcmmeta_affine": [
    [-2.682447671890259, -0.03651982918381691, 0.03540227934718132, 110.65784454345703],
    [-0.04268967732787132, 2.630920171737671, -0.5272938013076782, -81.31256866455078],
    [0.027364404872059822, 0.5244256854057312, 2.6477742195129395, -100.97154235839844],
    [0.0, 0.0, 0.0, 1.0]
],
  "dcmmeta_reorient_transform": [
    [0.0, -1.0, 0.0, 81.0],
    [1.0, 0.0, 0.0, 0.0],
    [0.0, 0.0, 1.0, 0.0],
    [0.0, 0.0, 0.0, 1.0]
],
  "dcmmeta_shape": [82, 82, 56, 872],
  "dcmmeta_slice_dim": 2,
  "dcmmeta_version": 0.6,
  "global": {
    "const": {
      "AccessionNumber": "A004314",
      "AcquisitionMatrix": [82, 0, 0, 82],
      "AngioFlag": "N",
      "BitsAllocated": 16,
      "BitsStored": 16,
      "BodyPartExamined": "BRAIN",
      "Columns": 656,
      "EchoNumbers": 1,
      "EchoTime": 27.2,
      "EchoTrainLength": 82,
      "FlipAngle": 44.0,
      "HighBit": 15,
      "ImageOrientationPatient": [0.99982137995408, 0.01591160597407, 0.01019945988973, -0.013611935906, 0.98061566084331, -0.1954677490271],
      "ImagePositionPatient": [-867.08102825259, -899.11797353198, 84.163524475438],
      "ImageType": [
        "ORIGINAL",
        "PRIMARY",
        "M",
        "MB",
        "ND",
        "NORM",
        "MOSAIC"
],
      "ImagedNucleus": "1H",
      "ImagingFrequency": 123.259059,
      "InPlanePhaseEncodingDirection": "COL",
      "MRAcquisitionType": "2D",
      "MagneticFieldStrength": 3.0,
      "Manufacturer": "SIEMENS",
      "ManufacturerModelName": "Prisma",
      "Modality": "MR",
      "NumberOfAverages": 1.0,
      "NumberOfPhaseEncodingSteps": 82,
      "PercentPhaseFieldOfView": 100.0,
      "PercentSampling": 100.0,
      "PerformedProcedureStepStartTime": "132711.163000",
      "PhotometricInterpretation": "MONOCHROME2",
      "PixelBandwidth": 3050.0,
      "PixelRepresentation": 0,
      "PixelSpacing": [2.6829268932343, 2.6829268932343],
      "ProtocolName": "func_run-01_task-social_acq-ap-mb8",
      "RepetitionTime": 460.0,
      "Rows": 656,
      "SAR": 0.12478742129146,
      "SamplesPerPixel": 1,
      "ScanOptions": "FS",
      "ScanningSequence": "EP",
      "SequenceName": "epfid2d1_82",
      "SequenceVariant": [
        "SK",
        "SS"
],
      "SeriesDescription": "func_run-01_task-social_acq-ap-mb8",
      "SeriesNumber": 12,
      "SeriesTime": "135820.700000",
      "SliceLocation": -81.687660393416,
      "SliceThickness": 2.7000000476837,
      "SmallestImagePixelValue": 0,
      "SoftwareVersions": "syngo MR E11",
      "SpacingBetweenSlices": 2.7000000186313,
      "SpecificCharacterSet": "ISO_IR 100",
      "StudyID": "1",
      "StudyTime": "132710.935000",
      "TransmitCoilName": "Body",
      "VariableFlipAngleFlag": "N",
      "WindowCenterWidthExplanation": "Algo1"
    },
    "slices": {}
  },
  "time": {
    "samples": {
      "AcquisitionNumber": [1, 2, 3, 4, 5, 6, 7, 8, 9, 10, 11, 12, 13, 14, 15, 16, 17, 18, 19, 20, 21, 22, 23, 24, 25, 26, 27, 28, 29, 30, 31, 32, 33, 34, 35, 36, 37, 38, 39, 40, 41, 42, 43, 44, 45, 46, 47, 48, 49, 50, 51, 52, 53, 54, 55, 56, 57, 58, 59, 60, 61, 62, 63, 64, 65, 66, 67, 68, 69, 70, 71, 72, 73, 74, 75, 76, 77, 78, 79, 80, 81, 82, 83, 84, 85, 86, 87, 88, 89, 90, 91, 92, 93, 94, 95, 96, 97, 98, 99, 100, 101, 102, 103, 104, 105, 106, 107, 108, 109, 110, 111, 112, 113, 114, 115, 116, 117, 118, 119, 120, 121, 122, 123, 124, 125, 126, 127, 128, 129, 130, 131, 132, 133, 134, 135, 136, 137, 138, 139, 140, 141, 142, 143, 144, 145, 146, 147, 148, 149, 150, 151, 152, 153, 154, 155, 156, 157, 158, 159, 160, 161, 162, 163, 164, 165, 166, 167, 168, 169, 170, 171, 172, 173, 174, 175, 176, 177, 178, 179, 180, 181, 182, 183, 184, 185, 186, 187, 188, 189, 190, 191, 192, 193, 194, 195, 196, 197, 198, 199, 200, 201, 202, 203, 204, 205, 206, 207, 208, 209, 210, 211, 212, 213, 214, 215, 216, 217, 218, 219, 220, 221, 222, 223, 224, 225, 226, 227, 228, 229, 230, 231, 232, 233, 234, 235, 236, 237, 238, 239, 240, 241, 242, 243, 244, 245, 246, 247, 248, 249, 250, 251, 252, 253, 254, 255, 256, 257, 258, 259, 260, 261, 262, 263, 264, 265, 266, 267, 268, 269, 270, 271, 272, 273, 274, 275, 276, 277, 278, 279, 280, 281, 282, 283, 284, 285, 286, 287, 288, 289, 290, 291, 292, 293, 294, 295, 296, 297, 298, 299, 300, 301, 302, 303, 304, 305, 306, 307, 308, 309, 310, 311, 312, 313, 314, 315, 316, 317, 318, 319, 320, 321, 322, 323, 324, 325, 326, 327, 328, 329, 330, 331, 332, 333, 334, 335, 336, 337, 338, 339, 340, 341, 342, 343, 344, 345, 346, 347, 348, 349, 350, 351, 352, 353, 354, 355, 356, 357, 358, 359, 360, 361, 362, 363, 364, 365, 366, 367, 368, 369, 370, 371, 372, 373, 374, 375, 376, 377, 378, 379, 380, 381, 382, 383, 384, 385, 386, 387, 388, 389, 390, 391, 392, 393, 394, 395, 396, 397, 398, 399, 400, 401, 402, 403, 404, 405, 406, 407, 408, 409, 410, 411, 412, 413, 414, 415, 416, 417, 418, 419, 420, 421, 422, 423, 424, 425, 426, 427, 428, 429, 430, 431, 432, 433, 434, 435, 436, 437, 438, 439, 440, 441, 442, 443, 444, 445, 446, 447, 448, 449, 450, 451, 452, 453, 454, 455, 456, 457, 458, 459, 460, 461, 462, 463, 464, 465, 466, 467, 468, 469, 470, 471, 472, 473, 474, 475, 476, 477, 478, 479, 480, 481, 482, 483, 484, 485, 486, 487, 488, 489, 490, 491, 492, 493, 494, 495, 496, 497, 498, 499, 500, 501, 502, 503, 504, 505, 506, 507, 508, 509, 510, 511, 512, 513, 514, 515, 516, 517, 518, 519, 520, 521, 522, 523, 524, 525, 526, 527, 528, 529, 530, 531, 532, 533, 534, 535, 536, 537, 538, 539, 540, 541, 542, 543, 544, 545, 546, 547, 548, 549, 550, 551, 552, 553, 554, 555, 556, 557, 558, 559, 560, 561, 562, 563, 564, 565, 566, 567, 568, 569, 570, 571, 572, 573, 574, 575, 576, 577, 578, 579, 580, 581, 582, 583, 584, 585, 586, 587, 588, 589, 590, 591, 592, 593, 594, 595, 596, 597, 598, 599, 600, 601, 602, 603, 604, 605, 606, 607, 608, 609, 610, 611, 612, 613, 614, 615, 616, 617, 618, 619, 620, 621, 622, 623, 624, 625, 626, 627, 628, 629, 630, 631, 632, 633, 634, 635, 636, 637, 638, 639, 640, 641, 642, 643, 644, 645, 646, 647, 648, 649, 650, 651, 652, 653, 654, 655, 656, 657, 658, 659, 660, 661, 662, 663, 664, 665, 666, 667, 668, 669, 670, 671, 672, 673, 674, 675, 676, 677, 678, 679, 680, 681, 682, 683, 684, 685, 686, 687, 688, 689, 690, 691, 692, 693, 694, 695, 696, 697, 698, 699, 700, 701, 702, 703, 704, 705, 706, 707, 708, 709, 710, 711, 712, 713, 714, 715, 716, 717, 718, 719, 720, 721, 722, 723, 724, 725, 726, 727, 728, 729, 730, 731, 732, 733, 734, 735, 736, 737, 738, 739, 740, 741, 742, 743, 744, 745, 746, 747, 748, 749, 750, 751, 752, 753, 754, 755, 756, 757, 758, 759, 760, 761, 762, 763, 764, 765, 766, 767, 768, 769, 770, 771, 772, 773, 774, 775, 776, 777, 778, 779, 780, 781, 782, 783, 784, 785, 786, 787, 788, 789, 790, 791, 792, 793, 794, 795, 796, 797, 798, 799, 800, 801, 802, 803, 804, 805, 806, 807, 808, 809, 810, 811, 812, 813, 814, 815, 816, 817, 818, 819, 820, 821, 822, 823, 824, 825, 826, 827, 828, 829, 830, 831, 832, 833, 834, 835, 836, 837, 838, 839, 840, 841, 842, 843, 844, 845, 846, 847, 848, 849, 850, 851, 852, 853, 854, 855, 856, 857, 858, 859, 860, 861, 862, 863, 864, 865, 866, 867, 868, 869, 870, 871, 872],
      "AcquisitionTime": ["135758.542500", "135759.002500", "135759.462500", "135759.922500", "135800.382500", "135800.842500", "135801.302500", "135801.762500", "135802.222500", "135802.682500", "135803.142500", "135803.602500", "135804.062500", "135804.522500", "135804.982500", "135805.442500", "135805.902500", "135806.362500", "135806.822500", "135807.282500", "135807.742500", "135808.202500", "135808.662500", "135809.122500", "135809.582500", "135810.042500", "135810.502500", "135810.962500", "135811.422500", "135811.882500", "135812.342500", "135812.802500", "135813.262500", "135813.722500", "135814.182500", "135814.642500", "135815.102500", "135815.562500", "135816.022500", "135816.482500", "135816.942500", "135817.402500", "135817.862500", "135818.322500", "135818.782500", "135819.242500", "135819.702500", "135820.162500", "135820.622500", "135821.082500", "135821.542500", "135822.002500", "135822.462500", "135822.922500", "135823.382500", "135823.842500", "135824.302500", "135824.762500", "135825.222500", "135825.682500", "135826.142500", "135826.602500", "135827.062500", "135827.522500", "135827.982500", "135828.442500", "135828.902500", "135829.362500", "135829.822500", "135830.282500", "135830.742500", "135831.202500", "135831.662500", "135832.122500", "135832.582500", "135833.042500", "135833.502500", "135833.962500", "135834.422500", "135834.882500", "135835.342500", "135835.802500", "135836.262500", "135836.722500", "135837.182500", "135837.642500", "135838.102500", "135838.562500", "135839.022500", "135839.482500", "135839.942500", "135840.402500", "135840.862500", "135841.322500", "135841.782500", "135842.242500", "135842.702500", "135843.162500", "135843.622500", "135844.082500", "135844.542500", "135845.002500", "135845.462500", "135845.922500", "135846.382500", "135846.842500", "135847.302500", "135847.762500", "135848.222500", "135848.682500", "135849.142500", "135849.602500", "135850.062500", "135850.522500", "135850.982500", "135851.442500", "135851.902500", "135852.362500", "135852.822500", "135853.282500", "135853.742500", "135854.202500", "135854.662500", "135855.122500", "135855.582500", "135856.042500", "135856.502500", "135856.962500", "135857.422500", "135857.882500", "135858.342500", "135858.802500", "135859.262500", "135859.722500", "135900.182500", "135900.642500", "135901.102500", "135901.562500", "135902.022500", "135902.482500", "135902.942500", "135903.402500", "135903.862500", "135904.322500", "135904.782500", "135905.242500", "135905.702500", "135906.162500", "135906.622500", "135907.082500", "135907.542500", "135908.002500", "135908.462500", "135908.922500", "135909.382500", "135909.842500", "135910.302500", "135910.762500", "135911.222500", "135911.682500", "135912.142500", "135912.602500", "135913.062500", "135913.522500", "135913.982500", "135914.442500", "135914.902500", "135915.362500", "135915.822500", "135916.282500", "135916.742500", "135917.202500", "135917.662500", "135918.122500", "135918.582500", "135919.042500", "135919.502500", "135919.962500", "135920.422500", "135920.882500", "135921.342500", "135921.802500", "135922.262500", "135922.722500", "135923.182500", "135923.642500", "135924.102500", "135924.562500", "135925.022500", "135925.482500", "135925.942500", "135926.402500", "135926.862500", "135927.322500", "135927.782500", "135928.242500", "135928.702500", "135929.162500", "135929.622500", "135930.082500", "135930.542500", "135931.002500", "135931.462500", "135931.922500", "135932.382500", "135932.842500", "135933.302500", "135933.762500", "135934.222500", "135934.682500", "135935.142500", "135935.602500", "135936.062500", "135936.522500", "135936.982500", "135937.442500", "135937.902500", "135938.362500", "135938.822500", "135939.282500", "135939.742500", "135940.202500", "135940.662500", "135941.122500", "135941.582500", "135942.042500", "135942.502500", "135942.962500", "135943.422500", "135943.882500", "135944.342500", "135944.802500", "135945.262500", "135945.722500", "135946.182500", "135946.642500", "135947.102500", "135947.562500", "135948.022500", "135948.482500", "135948.942500", "135949.402500", "135949.862500", "135950.322500", "135950.782500", "135951.242500", "135951.702500", "135952.162500", "135952.622500", "135953.082500", "135953.542500", "135954.002500", "135954.462500", "135954.922500", "135955.382500", "135955.842500", "135956.302500", "135956.762500", "135957.222500", "135957.682500", "135958.142500", "135958.602500", "135959.062500", "135959.522500", "135959.982500", "140000.442500", "140000.902500", "140001.362500", "140001.822500", "140002.282500", "140002.742500", "140003.202500", "140003.662500", "140004.122500", "140004.582500", "140005.042500", "140005.502500", "140005.962500", "140006.422500", "140006.882500", "140007.342500", "140007.802500", "140008.262500", "140008.722500", "140009.182500", "140009.642500", "140010.102500", "140010.562500", "140011.022500", "140011.482500", "140011.942500", "140012.402500", "140012.862500", "140013.322500", "140013.782500", "140014.242500", "140014.702500", "140015.162500", "140015.622500", "140016.082500", "140016.542500", "140017.002500", "140017.462500", "140017.922500", "140018.382500", "140018.842500", "140019.302500", "140019.762500", "140020.222500", "140020.682500", "140021.142500", "140021.602500", "140022.062500", "140022.522500", "140022.982500", "140023.442500", "140023.902500", "140024.362500", "140024.822500", "140025.282500", "140025.742500", "140026.202500", "140026.662500", "140027.122500", "140027.582500", "140028.042500", "140028.502500", "140028.962500", "140029.422500", "140029.882500", "140030.342500", "140030.802500", "140031.262500", "140031.722500", "140032.182500", "140032.642500", "140033.102500", "140033.562500", "140034.022500", "140034.482500", "140034.942500", "140035.402500", "140035.862500", "140036.322500", "140036.782500", "140037.242500", "140037.702500", "140038.162500", "140038.622500", "140039.082500", "140039.542500", "140040.002500", "140040.462500", "140040.922500", "140041.382500", "140041.842500", "140042.302500", "140042.762500", "140043.222500", "140043.682500", "140044.142500", "140044.602500", "140045.062500", "140045.522500", "140045.982500", "140046.442500", "140046.902500", "140047.362500", "140047.822500", "140048.282500", "140048.742500", "140049.202500", "140049.662500", "140050.122500", "140050.582500", "140051.042500", "140051.502500", "140051.962500", "140052.422500", "140052.882500", "140053.342500", "140053.802500", "140054.262500", "140054.722500", "140055.182500", "140055.642500", "140056.102500", "140056.562500", "140057.022500", "140057.482500", "140057.942500", "140058.402500", "140058.862500", "140059.322500", "140059.782500", "140100.242500", "140100.702500", "140101.162500", "140101.622500", "140102.082500", "140102.542500", "140103.002500", "140103.462500", "140103.922500", "140104.382500", "140104.842500", "140105.302500", "140105.762500", "140106.222500", "140106.682500", "140107.142500", "140107.602500", "140108.062500", "140108.522500", "140108.982500", "140109.442500", "140109.902500", "140110.362500", "140110.822500", "140111.282500", "140111.742500", "140112.202500", "140112.662500", "140113.122500", "140113.582500", "140114.042500", "140114.502500", "140114.962500", "140115.422500", "140115.882500", "140116.342500", "140116.802500", "140117.262500", "140117.722500", "140118.182500", "140118.642500", "140119.102500", "140119.562500", "140120.022500", "140120.482500", "140120.942500", "140121.402500", "140121.862500", "140122.322500", "140122.782500", "140123.242500", "140123.702500", "140124.162500", "140124.622500", "140125.082500", "140125.542500", "140126.002500", "140126.462500", "140126.922500", "140127.382500", "140127.842500", "140128.302500", "140128.762500", "140129.222500", "140129.682500", "140130.142500", "140130.602500", "140131.062500", "140131.522500", "140131.982500", "140132.442500", "140132.902500", "140133.362500", "140133.822500", "140134.282500", "140134.742500", "140135.202500", "140135.662500", "140136.122500", "140136.582500", "140137.042500", "140137.502500", "140137.962500", "140138.422500", "140138.882500", "140139.342500", "140139.802500", "140140.262500", "140140.722500", "140141.182500", "140141.642500", "140142.102500", "140142.562500", "140143.022500", "140143.482500", "140143.942500", "140144.402500", "140144.862500", "140145.322500", "140145.782500", "140146.242500", "140146.702500", "140147.162500", "140147.622500", "140148.082500", "140148.542500", "140149.002500", "140149.462500", "140149.922500", "140150.382500", "140150.842500", "140151.302500", "140151.762500", "140152.222500", "140152.682500", "140153.142500", "140153.602500", "140154.062500", "140154.522500", "140154.982500", "140155.442500", "140155.902500", "140156.362500", "140156.822500", "140157.282500", "140157.742500", "140158.202500", "140158.662500", "140159.122500", "140159.582500", "140200.042500", "140200.502500", "140200.962500", "140201.422500", "140201.882500", "140202.342500", "140202.802500", "140203.262500", "140203.722500", "140204.182500", "140204.642500", "140205.102500", "140205.562500", "140206.022500", "140206.482500", "140206.942500", "140207.402500", "140207.862500", "140208.322500", "140208.782500", "140209.242500", "140209.702500", "140210.162500", "140210.622500", "140211.082500", "140211.542500", "140212.002500", "140212.462500", "140212.922500", "140213.382500", "140213.842500", "140214.302500", "140214.762500", "140215.222500", "140215.682500", "140216.142500", "140216.602500", "140217.062500", "140217.522500", "140217.982500", "140218.442500", "140218.902500", "140219.362500", "140219.822500", "140220.282500", "140220.742500", "140221.202500", "140221.662500", "140222.122500", "140222.582500", "140223.042500", "140223.502500", "140223.962500", "140224.422500", "140224.882500", "140225.342500", "140225.802500", "140226.262500", "140226.722500", "140227.182500", "140227.642500", "140228.102500", "140228.562500", "140229.022500", "140229.482500", "140229.942500", "140230.402500", "140230.862500", "140231.322500", "140231.782500", "140232.242500", "140232.702500", "140233.162500", "140233.622500", "140234.082500", "140234.542500", "140235.002500", "140235.462500", "140235.922500", "140236.382500", "140236.842500", "140237.302500", "140237.762500", "140238.222500", "140238.682500", "140239.142500", "140239.602500", "140240.062500", "140240.522500", "140240.982500", "140241.442500", "140241.902500", "140242.362500", "140242.822500", "140243.282500", "140243.742500", "140244.202500", "140244.662500", "140245.122500", "140245.582500", "140246.042500", "140246.502500", "140246.962500", "140247.422500", "140247.882500", "140248.342500", "140248.802500", "140249.262500", "140249.722500", "140250.182500", "140250.642500", "140251.102500", "140251.562500", "140252.022500", "140252.482500", "140252.942500", "140253.402500", "140253.862500", "140254.322500", "140254.782500", "140255.242500", "140255.702500", "140256.162500", "140256.622500", "140257.082500", "140257.542500", "140258.002500", "140258.462500", "140258.922500", "140259.382500", "140259.842500", "140300.302500", "140300.762500", "140301.222500", "140301.682500", "140302.142500", "140302.602500", "140303.062500", "140303.522500", "140303.982500", "140304.442500", "140304.902500", "140305.362500", "140305.822500", "140306.282500", "140306.742500", "140307.202500", "140307.662500", "140308.122500", "140308.582500", "140309.042500", "140309.502500", "140309.962500", "140310.422500", "140310.882500", "140311.342500", "140311.802500", "140312.262500", "140312.722500", "140313.182500", "140313.642500", "140314.102500", "140314.562500", "140315.022500", "140315.482500", "140315.942500", "140316.402500", "140316.862500", "140317.322500", "140317.782500", "140318.242500", "140318.702500", "140319.162500", "140319.622500", "140320.082500", "140320.542500", "140321.002500", "140321.462500", "140321.922500", "140322.382500", "140322.842500", "140323.302500", "140323.762500", "140324.222500", "140324.682500", "140325.142500", "140325.602500", "140326.062500", "140326.522500", "140326.982500", "140327.442500", "140327.902500", "140328.362500", "140328.822500", "140329.282500", "140329.742500", "140330.202500", "140330.662500", "140331.122500", "140331.582500", "140332.042500", "140332.502500", "140332.962500", "140333.422500", "140333.882500", "140334.342500", "140334.802500", "140335.262500", "140335.722500", "140336.182500", "140336.642500", "140337.102500", "140337.562500", "140338.022500", "140338.482500", "140338.942500", "140339.402500", "140339.862500", "140340.322500", "140340.782500", "140341.242500", "140341.702500", "140342.162500", "140342.622500", "140343.082500", "140343.542500", "140344.002500", "140344.462500", "140344.922500", "140345.382500", "140345.842500", "140346.302500", "140346.762500", "140347.222500", "140347.682500", "140348.142500", "140348.602500", "140349.062500", "140349.522500", "140349.982500", "140350.442500", "140350.902500", "140351.362500", "140351.822500", "140352.282500", "140352.742500", "140353.202500", "140353.662500", "140354.122500", "140354.582500", "140355.042500", "140355.502500", "140355.962500", "140356.422500", "140356.882500", "140357.342500", "140357.802500", "140358.262500", "140358.722500", "140359.182500", "140359.642500", "140400.102500", "140400.562500", "140401.022500", "140401.482500", "140401.942500", "140402.402500", "140402.862500", "140403.322500", "140403.782500", "140404.242500", "140404.702500", "140405.162500", "140405.622500", "140406.082500", "140406.542500", "140407.002500", "140407.462500", "140407.922500", "140408.382500", "140408.842500", "140409.302500", "140409.762500", "140410.222500", "140410.682500", "140411.142500", "140411.602500", "140412.062500", "140412.522500", "140412.982500", "140413.442500", "140413.902500", "140414.362500", "140414.822500", "140415.282500", "140415.742500", "140416.202500", "140416.662500", "140417.122500", "140417.582500", "140418.042500", "140418.502500", "140418.962500", "140419.422500", "140419.882500", "140420.342500", "140420.802500", "140421.262500", "140421.722500", "140422.182500", "140422.642500", "140423.102500", "140423.562500", "140424.022500", "140424.482500", "140424.942500", "140425.402500", "140425.862500", "140426.322500", "140426.782500", "140427.242500", "140427.702500", "140428.162500", "140428.622500", "140429.082500", "140429.542500", "140430.002500", "140430.462500", "140430.922500", "140431.382500", "140431.842500", "140432.302500", "140432.762500", "140433.222500", "140433.682500", "140434.142500", "140434.602500", "140435.062500", "140435.522500", "140435.982500", "140436.442500", "140436.902500", "140437.362500", "140437.822500", "140438.282500", "140438.742500", "140439.202500"],
