{
  "AcquisitionMatrixPE": 140,
  "AcquisitionNumber": 1,
  "AcquisitionTime": "18:19:45.122500",
  "BandwidthPerPixelPhaseEncode": 10.352,
  "BaseResolution": 140,
  "BodyPartExamined": "BRAIN",
  "ConsistencyInfo": "N4_VE11C_LATEST_20160120",
  "ConversionSoftware": "dcm2niix",
  "ConversionSoftwareVersion": "v1.0.20201102",
  "DerivedVendorReportedEchoSpacing": 0.000689998,
  "DeviceSerialNumber": "66112",
  "DiffusionScheme": "Monopolar",
  "DwellTime": 2.1e-06,
  "EchoTime": 0.0884,
  "EchoTrainLength": 105,
  "EffectiveEchoSpacing": 0.000689998,
  "FlipAngle": 90,
  "ImageComments": "Unaliased MB3/PE3 SENSE1",
  "ImageOrientationPatientDICOM": [0.998829, 0.0481859, 0.00443981, -0.0450072, 0.958787, -0.28054],
  "ImageType": [
    "ORIGINAL",
    "PRIMARY",
    "DIFFUSION",
    "NONE",
    "MB",
    "ND",
    "MOSAIC"
],
  "ImagingFrequency": 123.252,
  "InPlanePhaseEncodingDirectionDICOM": "COL",
  "InstitutionAddress": "Maynard 3,Hanover,NH,US,03755",
  "InstitutionName": "dartmouth_brain_imaging_center",
  "InstitutionalDepartmentName": "Department",
  "MRAcquisitionType": "2D",
  "MagneticFieldStrength": 3,
  "Manufacturer": "Siemens",
  "ManufacturersModelName": "Prisma",
  "Modality": "MR",
  "MultibandAccelerationFactor": 3,
  "PartialFourier": 0.75,
  "PatientPosition": "HFS",
  "PercentPhaseFOV": 100,
  "PercentSampling": 100,
  "PhaseEncodingDirection": "j-",
  "PhaseEncodingSteps": 105,
  "PhaseResolution": 1,
  "PixelBandwidth": 1700,
  "ProcedureStepDescription": "Wager_Wager^1076_spacetop",
  "ProtocolName": "dwi_acq-96dir-6b0-mb",
  "PulseSequenceDetails": "%CustomerSeq%\\cmrr_mbep2d_diff",
  "ReceiveCoilActiveElements": "HEA;HEP",
  "ReceiveCoilName": "Head_32",
  "ReconMatrixPE": 140,
  "RepetitionTime": 4.11,
  "SAR": 0.252558,
  "ScanOptions": "PFP\\FS",
  "ScanningSequence": "EP",
  "SequenceName": "ep_b5#1",
  "SequenceVariant": "SK\\SS",
  "SeriesDescription": "dwi_acq-96dir-6b0-mb",
  "SeriesNumber": 8,
  "ShimSetting": [4143, -7721, -7198, 588, -54, 0, -72, 42],
  "SliceThickness": 1.7,
  "SliceTiming": [0, 2.12, 0.1525, 2.2725, 0.3025, 2.4225, 0.455, 2.575, 0.605, 2.7275, 0.7575, 2.8775, 0.91, 3.03, 1.06, 3.18, 1.2125, 3.3325, 1.3625, 3.485, 1.515, 3.635, 1.665, 3.7875, 1.8175, 3.9375, 1.97, 0, 2.12, 0.1525, 2.2725, 0.3025, 2.4225, 0.455, 2.575, 0.605, 2.7275, 0.7575, 2.8775, 0.91, 3.03, 1.06, 3.18, 1.2125, 3.3325, 1.3625, 3.485, 1.515, 3.635, 1.665, 3.7875, 1.8175, 3.9375, 1.97, 0, 2.12, 0.1525, 2.2725, 0.3025, 2.4225, 0.455, 2.575, 0.605, 2.7275, 0.7575, 2.8775, 0.91, 3.03, 1.06, 3.18, 1.2125, 3.3325, 1.3625, 3.485, 1.515, 3.635, 1.665, 3.7875, 1.8175, 3.9375, 1.97],
  "SoftwareVersions": "syngo MR E11",
  "SpacingBetweenSlices": 1.7,
  "StationName": "AWP66112",
  "TotalReadoutTime": 0.0959097,
  "TxRefAmp": 292.166,
  "WipMemBlock": "f295a295-d425-41a1-820a-13161f5d04d1||Sequence: R016 ve11c/master r/e634e98; Dec 19 2017 11:11:25 by eja",
  "dcmmeta_affine": [
    [-1.7122775316238403, -0.07715515792369843, 0.030217301100492477, 127.60137939453125],
    [-0.08260439336299896, 1.64363431930542, -0.4760190546512604, -71.78329467773438],
    [0.0076110996305942535, 0.48092517256736755, 1.6317145824432373, -74.26109313964844],
    [0.0, 0.0, 0.0, 1.0]
],
  "dcmmeta_reorient_transform": [
    [0.0, -1.0, 0.0, 139.0],
    [1.0, 0.0, 0.0, 0.0],
    [0.0, 0.0, 1.0, 0.0],
    [0.0, 0.0, 0.0, 1.0]
],
  "dcmmeta_shape": [140, 140, 81, 103],
  "dcmmeta_slice_dim": 2,
  "dcmmeta_version": 0.6,
  "global": {
    "const": {
      "AccessionNumber": "A003619",
      "AcquisitionMatrix": [140, 0, 0, 140],
      "AngioFlag": "N",
      "BitsAllocated": 16,
      "BitsStored": 16,
      "BodyPartExamined": "BRAIN",
      "Columns": 1260,
      "EchoNumbers": 1,
      "EchoTime": 88.4,
      "EchoTrainLength": 105,
      "FlipAngle": 90.0,
      "HighBit": 15,
      "ImageOrientationPatient": [0.99882851767668, 0.04818589400576, 0.00443980795512, -0.0450071747456, 0.9587866510003, -0.2805396800544],
      "ImagePositionPatient": [-1032.5453118749, -1123.3755208482, 257.64338545938],
      "ImageType": [
        "ORIGINAL",
        "PRIMARY",
        "DIFFUSION",
        "NONE",
        "MB",
        "ND",
        "MOSAIC"
],
      "ImagedNucleus": "1H",
      "ImagingFrequency": 123.252084,
      "InPlanePhaseEncodingDirection": "COL",
      "MRAcquisitionType": "2D",
      "MagneticFieldStrength": 3.0,
      "Manufacturer": "SIEMENS",
      "ManufacturerModelName": "Prisma",
      "Modality": "MR",
      "NumberOfAverages": 1.0,
      "NumberOfPhaseEncodingSteps": 105,
      "PercentPhaseFieldOfView": 100.0,
      "PercentSampling": 100.0,
      "PerformedProcedureStepStartTime": "173223.829000",
      "PhotometricInterpretation": "MONOCHROME2",
      "PixelBandwidth": 1700.0,
      "PixelRepresentation": 0,
      "PixelSpacing": [1.7142857313156, 1.7142857313156],
      "ProtocolName": "dwi_acq-96dir-6b0-mb",
      "RepetitionTime": 4110.0,
      "Rows": 1260,
      "SAR": 0.252558051946,
      "SamplesPerPixel": 1,
      "ScanOptions": [
        "PFP",
        "FS"
],
      "ScanningSequence": "EP",
      "SequenceVariant": [
        "SK",
        "SS"
],
      "SeriesDescription": "dwi_acq-96dir-6b0-mb",
      "SeriesNumber": 8,
      "SeriesTime": "182109.168000",
      "SliceLocation": -48.909958099313,
      "SliceThickness": 1.7000000476837,
      "SmallestImagePixelValue": 0,
      "SoftwareVersions": "syngo MR E11",
      "SpacingBetweenSlices": 1.6999999646863,
      "SpecificCharacterSet": "ISO_IR 100",
      "StudyID": "1",
      "StudyTime": "173223.756000",
      "TransmitCoilName": "Body",
      "VariableFlipAngleFlag": "N",
      "WindowCenterWidthExplanation": "Algo1",
      "dBdt": 0.0},
    "slices": {}
  },
  "time": {
    "samples": {
      "AcquisitionNumber": [1, 2, 3, 4, 5, 6, 7, 8, 9, 10, 11, 12, 13, 14, 15, 16, 17, 18, 19, 20, 21, 22, 23, 24, 25, 26, 27, 28, 29, 30, 31, 32, 33, 34, 35, 36, 37, 38, 39, 40, 41, 42, 43, 44, 45, 46, 47, 48, 49, 50, 51, 52, 53, 54, 55, 56, 57, 58, 59, 60, 61, 62, 63, 64, 65, 66, 67, 68, 69, 70, 71, 72, 73, 74, 75, 76, 77, 78, 79, 80, 81, 82, 83, 84, 85, 86, 87, 88, 89, 90, 91, 92, 93, 94, 95, 96, 97, 98, 99, 100, 101, 102, 103],
      "AcquisitionTime": ["181945.122500", "181949.232500", "181953.342500", "181957.452500", "182001.562500", "182005.672500", "182009.782500", "182013.892500", "182018.002500", "182022.112500", "182026.222500", "182030.332500", "182034.442500", "182038.552500", "182042.662500", "182046.772500", "182050.882500", "182054.992500", "182059.102500", "182103.212500", "182107.322500", "182111.432500", "182115.542500", "182119.652500", "182123.762500", "182127.872500", "182131.982500", "182136.092500", "182140.202500", "182144.312500", "182148.422500", "182152.532500", "182156.642500", "182200.752500", "182204.862500", "182208.972500", "182213.082500", "182217.192500", "182221.302500", "182225.412500", "182229.522500", "182233.632500", "182237.742500", "182241.852500", "182245.962500", "182250.072500", "182254.182500", "182258.292500", "182302.402500", "182306.512500", "182310.622500", "182314.732500", "182318.842500", "182322.952500", "182327.062500", "182331.172500", "182335.282500", "182339.392500", "182343.502500", "182347.612500", "182351.722500", "182355.832500", "182359.942500", "182404.052500", "182408.162500", "182412.272500", "182416.382500", "182420.492500", "182424.602500", "182428.712500", "182432.822500", "182436.932500", "182441.042500", "182445.152500", "182449.262500", "182453.372500", "182457.482500", "182501.592500", "182505.702500", "182509.812500", "182513.922500", "182518.032500", "182522.142500", "182526.252500", "182530.362500", "182534.472500", "182538.582500", "182542.692500", "182546.802500", "182550.912500", "182555.022500", "182559.132500", "182603.242500", "182607.352500", "182611.462500", "182615.572500", "182619.682500", "182623.792500", "182627.902500", "182632.012500", "182636.122500", "182640.232500", "182644.342500"],
      "ContentTime": ["182109.172000", "182109.176000", "182109.179000", "182109.183000", "182109.186000", "182109.189000", "182109.199000", "182109.202000", "182109.205000", "182109.208000", "182109.212000", "182109.215000", "182109.218000", "182109.221000", "182109.225000", "182109.228000", "182109.231000", "182109.234000", "182109.238000", "182109.241000", "182249.166000", "182249.170000", "182249.173000", "182249.177000", "182249.180000", "182249.183000", "182249.186000", "182249.189000", "182249.193000", "182249.196000", "182249.199000", "182249.202000", "182249.206000", "182249.209000", "182249.212000", "182249.215000", "182249.219000", "182249.222000", "182249.225000", "182249.228000", "182249.232000", "182249.235000", "182249.245000", "182249.248000", "182409.167000", "182409.171000", "182409.174000", "182409.177000", "182409.181000", "182409.184000", "182409.187000", "182409.190000", "182409.194000", "182409.197000", "182409.200000", "182409.203000", "182409.207000", "182409.210000", "182409.213000", "182409.217000", "182409.220000", "182409.223000", "182409.226000", "182409.246000", "182429.167000", "182429.171000", "182429.174000", "182429.177000", "182549.167000", "182549.171000", "182549.174000", "182549.177000", "182549.181000", "182549.184000", "182549.187000", "182549.191000", "182549.194000", "182549.197000", "182549.200000", "182549.204000", "182549.207000", "182549.210000", "182549.213000", "182549.217000", "182549.220000", "182549.223000", "182549.226000", "182549.230000", "182649.330000", "182649.335000", "182649.343000", "182649.346000", "182649.349000", "182649.353000", "182649.356000", "182649.360000", "182649.364000", "182649.367000", "182649.371000", "182649.375000", "182649.379000", "182649.383000", "182649.390000"],
      "InstanceCreationTime": ["182109.172000", "182109.176000", "182109.179000", "182109.183000", "182109.186000", "182109.189000", "182109.199000", "182109.202000", "182109.205000", "182109.208000", "182109.212000", "182109.215000", "182109.218000", "182109.221000", "182109.225000", "182109.228000", "182109.231000", "182109.234000", "182109.238000", "182109.241000", "182249.166000", "182249.170000", "182249.173000", "182249.177000", "182249.180000", "182249.183000", "182249.186000", "182249.189000", "182249.193000", "182249.196000", "182249.199000", "182249.202000", "182249.206000", "182249.209000", "182249.212000", "182249.215000", "182249.219000", "182249.222000", "182249.225000", "182249.228000", "182249.232000", "182249.235000", "182249.245000", "182249.248000", "182409.167000", "182409.171000", "182409.174000", "182409.177000", "182409.181000", "182409.184000", "182409.187000", "182409.190000", "182409.194000", "182409.197000", "182409.200000", "182409.203000", "182409.207000", "182409.210000", "182409.213000", "182409.217000", "182409.220000", "182409.223000", "182409.226000", "182409.246000", "182429.167000", "182429.171000", "182429.174000", "182429.177000", "182549.167000", "182549.171000", "182549.174000", "182549.177000", "182549.181000", "182549.184000", "182549.187000", "182549.191000", "182549.194000", "182549.197000", "182549.200000", "182549.204000", "182549.207000", "182549.210000", "182549.213000", "182549.217000", "182549.220000", "182549.223000", "182549.226000", "182549.230000", "182649.330000", "182649.335000", "182649.343000", "182649.346000", "182649.349000", "182649.353000", "182649.356000", "182649.360000", "182649.364000", "182649.367000", "182649.371000", "182649.375000", "182649.379000", "182649.383000", "182649.390000"],
      "InstanceNumber": [1, 2, 3, 4, 5, 6, 7, 8, 9, 10, 11, 12, 13, 14, 15, 16, 17, 18, 19, 20, 21, 22, 23, 24, 25, 26, 27, 28, 29, 30, 31, 32, 33, 34, 35, 36, 37, 38, 39, 40, 41, 42, 43, 44, 45, 46, 47, 48, 49, 50, 51, 52, 53, 54, 55, 56, 57, 58, 59, 60, 61, 62, 63, 64, 65, 66, 67, 68, 69, 70, 71, 72, 73, 74, 75, 76, 77, 78, 79, 80, 81, 82, 83, 84, 85, 86, 87, 88, 89, 90, 91, 92, 93, 94, 95, 96, 97, 98, 99, 100, 101, 102, 103],
      "LargestImagePixelValue": [65535, 65535, 47241, 47015, 46607, 46295, 46339, 44845, 65535, 32271, 32482, 33046, 33303, 31466, 34687, 32811, 34383, 31675, 33217, 33181, 32686, 36047, 33514, 31770, 65535, 17315, 17490, 18479, 17878, 19762, 17970, 16110, 19155, 17849, 17300, 17224, 19441, 17361, 16354, 18128, 65535, 10970, 11251, 11459, 11405, 11316, 10880, 10094, 11038, 12000, 13080, 13646, 11038, 12054, 10351, 11593, 11640, 9571, 10651, 12702, 11307, 13629, 9222, 10731, 9891, 9735, 11969, 9874, 11979, 13523, 11914, 10064, 9874, 65535, 12892, 11560, 12829, 11338, 11898, 10881, 13441, 13406, 9321, 12646, 11683, 11497, 13113, 13549, 13495, 14860, 14022, 12048, 11976, 9813, 11649, 11640, 9779, 10426, 15134, 11206, 11067, 9757, 65535],
      "SequenceName": [
 "ep_b5#1",
 "ep_b5#1",
 "ep_b500#2",
 "ep_b495#3",
 "ep_b500#4",
 "ep_b505#5",
 "ep_b500#6",
 "ep_b500#7",
 "ep_b5#8",
 "ep_b1000#9",
 "ep_b1005#10",
 "ep_b995#11",
 "ep_b1005#12",
 "ep_b995#13",
 "ep_b995#14",
 "ep_b1005#15",
 "ep_b1000#16",
 "ep_b1005#17",
 "ep_b1000#18",
 "ep_b1000#19",
 "ep_b995#20",
 "ep_b995#21",
 "ep_b1005#22",
 "ep_b1000#23",
 "ep_b5#24",
 "ep_b2000#25",
 "ep_b1995#26",
 "ep_b1990#27",
 "ep_b2000#28",
 "ep_b2005#29",
 "ep_b2010#30",
 "ep_b2000#31",
 "ep_b2010#32",
 "ep_b2000#33",
 "ep_b1995#34",
 "ep_b1995#35",
 "ep_b2005#36",
 "ep_b1995#37",
 "ep_b2005#38",
 "ep_b1995#39",
 "ep_b5#40",
 "ep_b3000#41",
 "ep_b3010#42",
 "ep_b3010#43",
 "ep_b3010#44",
 "ep_b3000#45",
 "ep_b3005#46",
 "ep_b2990#47",
 "ep_b3010#48",
 "ep_b3005#49",
 "ep_b2990#50",
 "ep_b2990#51",
 "ep_b3000#52",
 "ep_b2995#53",
 "ep_b3005#54",
 "ep_b3000#55",
 "ep_b2995#56",
 "ep_b2995#57",
 "ep_b2990#58",
 "ep_b2990#59",
 "ep_b2995#60",
 "ep_b2990#61",
 "ep_b2995#62",
 "ep_b3000#63",
 "ep_b3000#64",
 "ep_b3005#65",
 "ep_b2995#66",
 "ep_b3000#67",
 "ep_b3005#68",
 "ep_b3005#69",
 "ep_b3005#70",
 "ep_b3005#71",
 "ep_b2990#72",
 "ep_b5#73",
 "ep_b3010#74",
 "ep_b3005#75",
 "ep_b3010#76",
 "ep_b3000#77",
 "ep_b2990#78",
 "ep_b3005#79",
 "ep_b2995#80",
 "ep_b3010#81",
 "ep_b3005#82",
 "ep_b3005#83",
 "ep_b3000#84",
 "ep_b3000#85",
 "ep_b3010#86",
 "ep_b3010#87",
 "ep_b2990#88",
 "ep_b3010#89",
 "ep_b2995#90",
 "ep_b2990#91",
 "ep_b2990#92",
 "ep_b2995#93",
 "ep_b3005#94",
 "ep_b3005#95",
 "ep_b3000#96",
 "ep_b2995#97",
 "ep_b2990#98",
 "ep_b2995#99",
 "ep_b2995#100",
 "ep_b2995#101",
 "ep_b5#102"
],
      "WindowCenter": [11255.0, 11267.0, 7719.0, 7772.0, 7733.0, 7691.0, 7759.0, 7708.0, 11260.0, 5794.0, 5789.0, 5808.0, 5777.0, 5812.0, 5854.0, 5794.0, 5838.0, 5772.0, 5818.0, 5788.0, 5833.0, 5849.0, 5795.0, 5808.0, 11237.0, 3626.0, 3656.0, 3674.0, 3727.0, 3702.0, 3694.0, 3638.0, 3670.0, 3679.0, 3720.0, 3702.0, 3653.0, 3655.0, 3667.0, 3694.0, 11245.0, 2540.0, 2519.0, 2600.0, 2592.0, 2533.0, 2545.0, 2563.0, 2521.0, 2555.0, 2618.0, 2642.0, 2555.0, 2617.0, 2567.0, 2531.0, 2569.0, 2474.0, 2589.0, 2633.0, 2572.0, 2645.0, 2555.0, 2588.0, 2553.0, 2550.0, 2541.0, 2512.0, 2606.0, 2619.0, 2559.0, 2566.0, 2575.0, 11219.0, 2624.0, 2567.0, 2561.0, 2559.0, 2567.0, 2506.0, 2586.0, 2614.0, 2515.0, 2576.0, 2560.0, 2563.0, 2575.0, 2601.0, 2629.0, 2648.0, 2655.0, 2580.0, 2573.0, 2531.0, 2560.0, 2580.0, 2565.0, 2506.0, 2688.0, 2531.0, 2552.0, 2547.0, 11210.0],
      "WindowWidth": [25799.0, 25845.0, 16493.0, 16611.0, 16513.0, 16446.0, 16576.0, 16488.0, 25816.0, 12527.0, 12507.0, 12557.0, 12514.0, 12599.0, 12639.0, 12508.0, 12605.0, 12519.0, 12566.0, 12497.0, 12587.0, 12617.0, 12525.0, 12537.0, 25750.0, 8254.0, 8323.0, 8360.0, 8449.0, 8381.0, 8370.0, 8305.0, 8356.0, 8360.0, 8428.0, 8413.0, 8310.0, 8332.0, 8327.0, 8401.0, 25760.0, 6142.0, 6093.0, 6233.0, 6188.0, 6119.0, 6139.0, 6163.0, 6097.0, 6140.0, 6241.0, 6275.0, 6175.0, 6283.0, 6191.0, 6103.0, 6204.0, 6025.0, 6210.0, 6267.0, 6189.0, 6297.0, 6167.0, 6225.0, 6173.0, 6144.0, 6119.0, 6092.0, 6228.0, 6258.0, 6158.0, 6189.0, 6180.0, 25685.0, 6232.0, 6173.0, 6139.0, 6165.0, 6162.0, 6070.0, 6181.0, 6230.0, 6096.0, 6168.0, 6165.0, 6177.0, 6163.0, 6208.0, 6262.0, 6277.0, 6315.0, 6190.0, 6186.0, 6139.0, 6168.0, 6223.0, 6189.0, 6066.0, 6350.0, 6108.0, 6163.0, 6174.0, 25647.0]
    },
    "slices": {}
  }
}