{
  "AcquisitionMatrixPE": 82,
  "AcquisitionNumber": 1,
  "AcquisitionTime": "15:45:27.840000",
  "BandwidthPerPixelPhaseEncode": 24.888,
  "BaseResolution": 82,
  "BodyPartExamined": "BRAIN",
  "ConsistencyInfo": "N4_VE11C_LATEST_20160120",
  "ConversionSoftware": "dcm2niix",
  "ConversionSoftwareVersion": "v1.0.20201102",
  "DerivedVendorReportedEchoSpacing": 0.00049,
  "DeviceSerialNumber": "66112",
  "DwellTime": 2e-06,
  "EchoTime": 0.0272,
  "EchoTrainLength": 82,
  "EffectiveEchoSpacing": 0.00049,
  "FlipAngle": 44,
  "ImageComments": "Unaliased MB8/PE3",
  "ImageOrientationPatientDICOM": [0.999791, -0.0158181, 0.0129343, 0.0144843, 0.995139, 0.0974143],
  "ImageType": [
    "ORIGINAL",
    "PRIMARY",
    "M",
    "MB",
    "ND",
    "NORM",
    "MOSAIC"
],
  "ImagingFrequency": 123.252,
  "InPlanePhaseEncodingDirectionDICOM": "COL",
  "InstitutionAddress": "Maynard 3,Hanover,NH,US,03755",
  "InstitutionName": "Dartmouth College - PBS",
  "InstitutionalDepartmentName": "Department",
  "MRAcquisitionType": "2D",
  "MagneticFieldStrength": 3,
  "Manufacturer": "Siemens",
  "ManufacturersModelName": "Prisma",
  "Modality": "MR",
  "MultibandAccelerationFactor": 8,
  "PartialFourier": 1,
  "PatientPosition": "HFS",
  "PercentPhaseFOV": 100,
  "PercentSampling": 100,
  "PhaseEncodingDirection": "j-",
  "PhaseEncodingSteps": 82,
  "PhaseResolution": 1,
  "PixelBandwidth": 3050,
  "ProcedureStepDescription": "Wager_Wager^1076_spacetop",
  "ProtocolName": "func_run-05_task-social_acq-ap-mb8",
  "PulseSequenceDetails": "%CustomerSeq%\\cmrr_mbep2d_bold",
  "ReceiveCoilActiveElements": "HEA;HEP",
  "ReceiveCoilName": "Head_32",
  "ReconMatrixPE": 82,
  "RepetitionTime": 0.46,
  "SAR": 0.100797,
  "ScanOptions": "FS",
  "ScanningSequence": "EP",
  "SequenceName": "epfid2d1_82",
  "SequenceVariant": "SK\\SS",
  "SeriesDescription": "func_run-05_task-social_acq-ap-mb8",
  "SeriesNumber": 20,
  "ShimSetting": [4122, -7775, -7193, 573, -150, -110, 173, 89],
  "SliceThickness": 2.7,
  "SliceTiming": [0, 0.2525, 0.0625, 0.315, 0.125, 0.3775, 0.19, 0, 0.2525, 0.0625, 0.315, 0.125, 0.3775, 0.19, 0, 0.2525, 0.0625, 0.315, 0.125, 0.3775, 0.19, 0, 0.2525, 0.0625, 0.315, 0.125, 0.3775, 0.19, 0, 0.2525, 0.0625, 0.315, 0.125, 0.3775, 0.19, 0, 0.2525, 0.0625, 0.315, 0.125, 0.3775, 0.19, 0, 0.2525, 0.0625, 0.315, 0.125, 0.3775, 0.19, 0, 0.2525, 0.0625, 0.315, 0.125, 0.3775, 0.19],
  "SoftwareVersions": "syngo MR E11",
  "SpacingBetweenSlices": 2.7,
  "StationName": "AWP66112",
  "TaskName": "social",
  "TotalReadoutTime": 0.03969,
  "TxRefAmp": 262.906,
  "WipMemBlock": "0af10220-ab1b-43d6-97a0-3cba1ed31a20||Sequence: R016 ve11c/master r/e634e98; Dec 19 2017 11:00:25 by eja",
  "dcmmeta_affine": [
    [-2.6823668479919434, 0.038860224187374115, 0.03891324624419212, 111.6177749633789],
    [0.042438872158527374, 2.669883966445923, 0.2624577581882477, -107.19647216796875],
    [0.03470173478126526, -0.26135534048080444, 2.686931610107422, -39.284481048583984],
    [0.0, 0.0, 0.0, 1.0]
],
  "dcmmeta_reorient_transform": [
    [0.0, -1.0, 0.0, 81.0],
    [1.0, 0.0, 0.0, 0.0],
    [0.0, 0.0, 1.0, 0.0],
    [0.0, 0.0, 0.0, 1.0]
],
  "dcmmeta_shape": [82, 82, 56, 872],
  "dcmmeta_slice_dim": 2,
  "dcmmeta_version": 0.6,
  "global": {
    "const": {
      "AccessionNumber": "A003798",
      "AcquisitionMatrix": [82, 0, 0, 82],
      "AngioFlag": "N",
      "BitsAllocated": 16,
      "BitsStored": 16,
      "BodyPartExamined": "BRAIN",
      "Columns": 656,
      "EchoNumbers": 1,
      "EchoTime": 27.2,
      "EchoTrainLength": 82,
      "FlipAngle": 44.0,
      "HighBit": 15,
      "ImageOrientationPatient": [0.99979122383799, -0.0158181246624, 0.01293428268995, 0.01448426549873, 0.99513851691182, 0.09741426082205],
      "ImagePositionPatient": [-895.75760203361, -863.14084555013, -145.42264238922],
      "ImageType": [
        "ORIGINAL",
        "PRIMARY",
        "M",
        "MB",
        "ND",
        "NORM",
        "MOSAIC"
],
      "ImagedNucleus": "1H",
      "ImagingFrequency": 123.252142,
      "InPlanePhaseEncodingDirection": "COL",
      "MRAcquisitionType": "2D",
      "MagneticFieldStrength": 3.0,
      "Manufacturer": "SIEMENS",
      "ManufacturerModelName": "Prisma",
      "Modality": "MR",
      "NumberOfAverages": 1.0,
      "NumberOfPhaseEncodingSteps": 82,
      "PercentPhaseFieldOfView": 100.0,
      "PercentSampling": 100.0,
      "PerformedProcedureStepStartTime": "144756.548000",
      "PhotometricInterpretation": "MONOCHROME2",
      "PixelBandwidth": 3050.0,
      "PixelRepresentation": 0,
      "PixelSpacing": [2.6829268932343, 2.6829268932343],
      "ProtocolName": "func_run-05_task-social_acq-ap-mb8",
      "RepetitionTime": 460.0,
      "Rows": 656,
      "SAR": 0.10079662799858,
      "SamplesPerPixel": 1,
      "ScanOptions": "FS",
      "ScanningSequence": "EP",
      "SequenceName": "epfid2d1_82",
      "SequenceVariant": [
        "SK",
        "SS"
],
      "SeriesDescription": "func_run-05_task-social_acq-ap-mb8",
      "SeriesNumber": 20,
      "SeriesTime": "154557.678000",
      "SliceLocation": -47.905868988584,
      "SliceThickness": 2.7000000476837,
      "SmallestImagePixelValue": 0,
      "SoftwareVersions": "syngo MR E11",
      "SpacingBetweenSlices": 2.6999999631781,
      "SpecificCharacterSet": "ISO_IR 100",
      "StudyID": "1",
      "StudyTime": "144756.431000",
      "TransmitCoilName": "Body",
      "VariableFlipAngleFlag": "N",
      "WindowCenterWidthExplanation": "Algo1",
      "dBdt": 0.0},
    "slices": {}
  },
  "time": {
    "samples": {
      "AcquisitionNumber": [1, 2, 3, 4, 5, 6, 7, 8, 9, 10, 11, 12, 13, 14, 15, 16, 17, 18, 19, 20, 21, 22, 23, 24, 25, 26, 27, 28, 29, 30, 31, 32, 33, 34, 35, 36, 37, 38, 39, 40, 41, 42, 43, 44, 45, 46, 47, 48, 49, 50, 51, 52, 53, 54, 55, 56, 57, 58, 59, 60, 61, 62, 63, 64, 65, 66, 67, 68, 69, 70, 71, 72, 73, 74, 75, 76, 77, 78, 79, 80, 81, 82, 83, 84, 85, 86, 87, 88, 89, 90, 91, 92, 93, 94, 95, 96, 97, 98, 99, 100, 101, 102, 103, 104, 105, 106, 107, 108, 109, 110, 111, 112, 113, 114, 115, 116, 117, 118, 119, 120, 121, 122, 123, 124, 125, 126, 127, 128, 129, 130, 131, 132, 133, 134, 135, 136, 137, 138, 139, 140, 141, 142, 143, 144, 145, 146, 147, 148, 149, 150, 151, 152, 153, 154, 155, 156, 157, 158, 159, 160, 161, 162, 163, 164, 165, 166, 167, 168, 169, 170, 171, 172, 173, 174, 175, 176, 177, 178, 179, 180, 181, 182, 183, 184, 185, 186, 187, 188, 189, 190, 191, 192, 193, 194, 195, 196, 197, 198, 199, 200, 201, 202, 203, 204, 205, 206, 207, 208, 209, 210, 211, 212, 213, 214, 215, 216, 217, 218, 219, 220, 221, 222, 223, 224, 225, 226, 227, 228, 229, 230, 231, 232, 233, 234, 235, 236, 237, 238, 239, 240, 241, 242, 243, 244, 245, 246, 247, 248, 249, 250, 251, 252, 253, 254, 255, 256, 257, 258, 259, 260, 261, 262, 263, 264, 265, 266, 267, 268, 269, 270, 271, 272, 273, 274, 275, 276, 277, 278, 279, 280, 281, 282, 283, 284, 285, 286, 287, 288, 289, 290, 291, 292, 293, 294, 295, 296, 297, 298, 299, 300, 301, 302, 303, 304, 305, 306, 307, 308, 309, 310, 311, 312, 313, 314, 315, 316, 317, 318, 319, 320, 321, 322, 323, 324, 325, 326, 327, 328, 329, 330, 331, 332, 333, 334, 335, 336, 337, 338, 339, 340, 341, 342, 343, 344, 345, 346, 347, 348, 349, 350, 351, 352, 353, 354, 355, 356, 357, 358, 359, 360, 361, 362, 363, 364, 365, 366, 367, 368, 369, 370, 371, 372, 373, 374, 375, 376, 377, 378, 379, 380, 381, 382, 383, 384, 385, 386, 387, 388, 389, 390, 391, 392, 393, 394, 395, 396, 397, 398, 399, 400, 401, 402, 403, 404, 405, 406, 407, 408, 409, 410, 411, 412, 413, 414, 415, 416, 417, 418, 419, 420, 421, 422, 423, 424, 425, 426, 427, 428, 429, 430, 431, 432, 433, 434, 435, 436, 437, 438, 439, 440, 441, 442, 443, 444, 445, 446, 447, 448, 449, 450, 451, 452, 453, 454, 455, 456, 457, 458, 459, 460, 461, 462, 463, 464, 465, 466, 467, 468, 469, 470, 471, 472, 473, 474, 475, 476, 477, 478, 479, 480, 481, 482, 483, 484, 485, 486, 487, 488, 489, 490, 491, 492, 493, 494, 495, 496, 497, 498, 499, 500, 501, 502, 503, 504, 505, 506, 507, 508, 509, 510, 511, 512, 513, 514, 515, 516, 517, 518, 519, 520, 521, 522, 523, 524, 525, 526, 527, 528, 529, 530, 531, 532, 533, 534, 535, 536, 537, 538, 539, 540, 541, 542, 543, 544, 545, 546, 547, 548, 549, 550, 551, 552, 553, 554, 555, 556, 557, 558, 559, 560, 561, 562, 563, 564, 565, 566, 567, 568, 569, 570, 571, 572, 573, 574, 575, 576, 577, 578, 579, 580, 581, 582, 583, 584, 585, 586, 587, 588, 589, 590, 591, 592, 593, 594, 595, 596, 597, 598, 599, 600, 601, 602, 603, 604, 605, 606, 607, 608, 609, 610, 611, 612, 613, 614, 615, 616, 617, 618, 619, 620, 621, 622, 623, 624, 625, 626, 627, 628, 629, 630, 631, 632, 633, 634, 635, 636, 637, 638, 639, 640, 641, 642, 643, 644, 645, 646, 647, 648, 649, 650, 651, 652, 653, 654, 655, 656, 657, 658, 659, 660, 661, 662, 663, 664, 665, 666, 667, 668, 669, 670, 671, 672, 673, 674, 675, 676, 677, 678, 679, 680, 681, 682, 683, 684, 685, 686, 687, 688, 689, 690, 691, 692, 693, 694, 695, 696, 697, 698, 699, 700, 701, 702, 703, 704, 705, 706, 707, 708, 709, 710, 711, 712, 713, 714, 715, 716, 717, 718, 719, 720, 721, 722, 723, 724, 725, 726, 727, 728, 729, 730, 731, 732, 733, 734, 735, 736, 737, 738, 739, 740, 741, 742, 743, 744, 745, 746, 747, 748, 749, 750, 751, 752, 753, 754, 755, 756, 757, 758, 759, 760, 761, 762, 763, 764, 765, 766, 767, 768, 769, 770, 771, 772, 773, 774, 775, 776, 777, 778, 779, 780, 781, 782, 783, 784, 785, 786, 787, 788, 789, 790, 791, 792, 793, 794, 795, 796, 797, 798, 799, 800, 801, 802, 803, 804, 805, 806, 807, 808, 809, 810, 811, 812, 813, 814, 815, 816, 817, 818, 819, 820, 821, 822, 823, 824, 825, 826, 827, 828, 829, 830, 831, 832, 833, 834, 835, 836, 837, 838, 839, 840, 841, 842, 843, 844, 845, 846, 847, 848, 849, 850, 851, 852, 853, 854, 855, 856, 857, 858, 859, 860, 861, 862, 863, 864, 865, 866, 867, 868, 869, 870, 871, 872],
      "AcquisitionTime": ["154527.840000", "154528.300000", "154528.760000", "154529.220000", "154529.680000", "154530.140000", "154530.600000", "154531.060000", "154531.520000", "154531.980000", "154532.440000", "154532.900000", "154533.360000", "154533.820000", "154534.280000", "154534.740000", "154535.200000", "154535.660000", "154536.120000", "154536.580000", "154537.040000", "154537.500000", "154537.960000", "154538.420000", "154538.880000", "154539.340000", "154539.800000", "154540.260000", "154540.720000", "154541.180000", "154541.640000", "154542.100000", "154542.560000", "154543.020000", "154543.480000", "154543.940000", "154544.400000", "154544.860000", "154545.320000", "154545.780000", "154546.240000", "154546.700000", "154547.160000", "154547.620000", "154548.080000", "154548.540000", "154549.000000", "154549.460000", "154549.920000", "154550.380000", "154550.840000", "154551.300000", "154551.760000", "154552.220000", "154552.680000", "154553.140000", "154553.600000", "154554.060000", "154554.520000", "154554.980000", "154555.440000", "154555.900000", "154556.360000", "154556.820000", "154557.280000", "154557.740000", "154558.200000", "154558.660000", "154559.120000", "154559.580000", "154600.040000", "154600.500000", "154600.960000", "154601.420000", "154601.880000", "154602.340000", "154602.800000", "154603.260000", "154603.720000", "154604.180000", "154604.640000", "154605.100000", "154605.560000", "154606.020000", "154606.480000", "154606.940000", "154607.400000", "154607.860000", "154608.320000", "154608.780000", "154609.240000", "154609.700000", "154610.160000", "154610.620000", "154611.080000", "154611.540000", "154612.000000", "154612.460000", "154612.920000", "154613.380000", "154613.840000", "154614.300000", "154614.760000", "154615.220000", "154615.680000", "154616.140000", "154616.600000", "154617.060000", "154617.520000", "154617.980000", "154618.440000", "154618.900000", "154619.360000", "154619.820000", "154620.280000", "154620.740000", "154621.200000", "154621.660000", "154622.120000", "154622.580000", "154623.040000", "154623.500000", "154623.960000", "154624.420000", "154624.880000", "154625.340000", "154625.800000", "154626.260000", "154626.720000", "154627.180000", "154627.640000", "154628.100000", "154628.560000", "154629.020000", "154629.480000", "154629.940000", "154630.400000", "154630.860000", "154631.320000", "154631.780000", "154632.240000", "154632.700000", "154633.160000", "154633.620000", "154634.080000", "154634.540000", "154635.000000", "154635.460000", "154635.920000", "154636.380000", "154636.840000", "154637.300000", "154637.760000", "154638.220000", "154638.680000", "154639.140000", "154639.600000", "154640.060000", "154640.520000", "154640.980000", "154641.440000", "154641.900000", "154642.360000", "154642.820000", "154643.280000", "154643.740000", "154644.200000", "154644.660000", "154645.120000", "154645.580000", "154646.040000", "154646.500000", "154646.960000", "154647.420000", "154647.880000", "154648.340000", "154648.800000", "154649.260000", "154649.720000", "154650.180000", "154650.640000", "154651.100000", "154651.560000", "154652.020000", "154652.480000", "154652.940000", "154653.400000", "154653.860000", "154654.320000", "154654.780000", "154655.240000", "154655.700000", "154656.160000", "154656.620000", "154657.080000", "154657.540000", "154658.000000", "154658.460000", "154658.920000", "154659.380000", "154659.840000", "154700.300000", "154700.760000", "154701.220000", "154701.680000", "154702.140000", "154702.600000", "154703.060000", "154703.520000", "154703.980000", "154704.440000", "154704.900000", "154705.360000", "154705.820000", "154706.280000", "154706.740000", "154707.200000", "154707.660000", "154708.120000", "154708.580000", "154709.040000", "154709.500000", "154709.960000", "154710.420000", "154710.880000", "154711.340000", "154711.800000", "154712.260000", "154712.720000", "154713.180000", "154713.640000", "154714.100000", "154714.560000", "154715.020000", "154715.480000", "154715.940000", "154716.400000", "154716.860000", "154717.320000", "154717.780000", "154718.240000", "154718.700000", "154719.160000", "154719.620000", "154720.080000", "154720.540000", "154721.000000", "154721.460000", "154721.920000", "154722.380000", "154722.840000", "154723.300000", "154723.760000", "154724.220000", "154724.680000", "154725.140000", "154725.600000", "154726.060000", "154726.520000", "154726.980000", "154727.440000", "154727.900000", "154728.360000", "154728.820000", "154729.280000", "154729.740000", "154730.200000", "154730.660000", "154731.120000", "154731.580000", "154732.040000", "154732.500000", "154732.960000", "154733.420000", "154733.880000", "154734.340000", "154734.800000", "154735.260000", "154735.720000", "154736.180000", "154736.640000", "154737.100000", "154737.560000", "154738.020000", "154738.480000", "154738.940000", "154739.400000", "154739.860000", "154740.320000", "154740.780000", "154741.240000", "154741.700000", "154742.160000", "154742.620000", "154743.080000", "154743.540000", "154744.000000", "154744.460000", "154744.920000", "154745.380000", "154745.840000", "154746.300000", "154746.760000", "154747.220000", "154747.680000", "154748.140000", "154748.600000", "154749.060000", "154749.520000", "154749.980000", "154750.440000", "154750.900000", "154751.360000", "154751.820000", "154752.280000", "154752.740000", "154753.200000", "154753.660000", "154754.120000", "154754.580000", "154755.040000", "154755.500000", "154755.960000", "154756.420000", "154756.880000", "154757.340000", "154757.800000", "154758.260000", "154758.720000", "154759.180000", "154759.640000", "154800.100000", "154800.560000", "154801.020000", "154801.480000", "154801.940000", "154802.400000", "154802.860000", "154803.320000", "154803.780000", "154804.240000", "154804.700000", "154805.160000", "154805.620000", "154806.080000", "154806.540000", "154807.000000", "154807.460000", "154807.920000", "154808.380000", "154808.840000", "154809.300000", "154809.760000", "154810.220000", "154810.680000", "154811.140000", "154811.600000", "154812.060000", "154812.520000", "154812.980000", "154813.440000", "154813.900000", "154814.360000", "154814.820000", "154815.280000", "154815.740000", "154816.200000", "154816.660000", "154817.120000", "154817.580000", "154818.040000", "154818.500000", "154818.960000", "154819.420000", "154819.880000", "154820.340000", "154820.800000", "154821.260000", "154821.720000", "154822.180000", "154822.640000", "154823.100000", "154823.560000", "154824.020000", "154824.480000", "154824.940000", "154825.400000", "154825.860000", "154826.320000", "154826.780000", "154827.240000", "154827.700000", "154828.160000", "154828.620000", "154829.080000", "154829.540000", "154830.000000", "154830.460000", "154830.920000", "154831.380000", "154831.840000", "154832.300000", "154832.760000", "154833.220000", "154833.680000", "154834.140000", "154834.600000", "154835.060000", "154835.520000", "154835.980000", "154836.440000", "154836.900000", "154837.360000", "154837.820000", "154838.280000", "154838.740000", "154839.200000", "154839.660000", "154840.120000", "154840.580000", "154841.040000", "154841.500000", "154841.960000", "154842.420000", "154842.880000", "154843.340000", "154843.800000", "154844.260000", "154844.720000", "154845.180000", "154845.640000", "154846.100000", "154846.560000", "154847.020000", "154847.480000", "154847.940000", "154848.400000", "154848.860000", "154849.320000", "154849.780000", "154850.240000", "154850.700000", "154851.160000", "154851.620000", "154852.080000", "154852.540000", "154853.000000", "154853.460000", "154853.920000", "154854.380000", "154854.840000", "154855.300000", "154855.760000", "154856.220000", "154856.680000", "154857.140000", "154857.600000", "154858.060000", "154858.520000", "154858.980000", "154859.440000", "154859.900000", "154900.360000", "154900.820000", "154901.280000", "154901.740000", "154902.200000", "154902.660000", "154903.120000", "154903.580000", "154904.040000", "154904.500000", "154904.960000", "154905.420000", "154905.880000", "154906.340000", "154906.800000", "154907.260000", "154907.720000", "154908.180000", "154908.640000", "154909.100000", "154909.560000", "154910.020000", "154910.480000", "154910.940000", "154911.400000", "154911.860000", "154912.320000", "154912.780000", "154913.240000", "154913.700000", "154914.160000", "154914.620000", "154915.080000", "154915.540000", "154916.000000", "154916.460000", "154916.920000", "154917.380000", "154917.840000", "154918.300000", "154918.760000", "154919.220000", "154919.680000", "154920.140000", "154920.600000", "154921.060000", "154921.520000", "154921.980000", "154922.440000", "154922.900000", "154923.360000", "154923.820000", "154924.280000", "154924.740000", "154925.200000", "154925.660000", "154926.120000", "154926.580000", "154927.040000", "154927.500000", "154927.960000", "154928.420000", "154928.880000", "154929.340000", "154929.800000", "154930.260000", "154930.720000", "154931.180000", "154931.640000", "154932.100000", "154932.560000", "154933.020000", "154933.480000", "154933.940000", "154934.400000", "154934.860000", "154935.320000", "154935.780000", "154936.240000", "154936.700000", "154937.160000", "154937.620000", "154938.080000", "154938.540000", "154939.000000", "154939.460000", "154939.920000", "154940.380000", "154940.840000", "154941.300000", "154941.760000", "154942.220000", "154942.680000", "154943.140000", "154943.600000", "154944.060000", "154944.520000", "154944.980000", "154945.440000", "154945.900000", "154946.360000", "154946.820000", "154947.280000", "154947.740000", "154948.200000", "154948.660000", "154949.120000", "154949.580000", "154950.040000", "154950.500000", "154950.960000", "154951.420000", "154951.880000", "154952.340000", "154952.800000", "154953.260000", "154953.720000", "154954.180000", "154954.640000", "154955.100000", "154955.560000", "154956.020000", "154956.480000", "154956.940000", "154957.400000", "154957.860000", "154958.320000", "154958.780000", "154959.240000", "154959.700000", "155000.160000", "155000.620000", "155001.080000", "155001.540000", "155002.000000", "155002.460000", "155002.920000", "155003.380000", "155003.840000", "155004.300000", "155004.760000", "155005.220000", "155005.680000", "155006.140000", "155006.600000", "155007.060000", "155007.520000", "155007.980000", "155008.440000", "155008.900000", "155009.360000", "155009.820000", "155010.280000", "155010.740000", "155011.200000", "155011.660000", "155012.120000", "155012.580000", "155013.040000", "155013.500000", "155013.960000", "155014.420000", "155014.880000", "155015.340000", "155015.800000", "155016.260000", "155016.720000", "155017.180000", "155017.640000", "155018.100000", "155018.560000", "155019.020000", "155019.480000", "155019.940000", "155020.400000", "155020.860000", "155021.320000", "155021.780000", "155022.240000", "155022.700000", "155023.160000", "155023.620000", "155024.080000", "155024.540000", "155025.000000", "155025.460000", "155025.920000", "155026.380000", "155026.840000", "155027.300000", "155027.760000", "155028.220000", "155028.680000", "155029.140000", "155029.600000", "155030.060000", "155030.520000", "155030.980000", "155031.440000", "155031.900000", "155032.360000", "155032.820000", "155033.280000", "155033.740000", "155034.200000", "155034.660000", "155035.120000", "155035.580000", "155036.040000", "155036.500000", "155036.960000", "155037.420000", "155037.880000", "155038.340000", "155038.800000", "155039.260000", "155039.720000", "155040.180000", "155040.640000", "155041.100000", "155041.560000", "155042.020000", "155042.480000", "155042.940000", "155043.400000", "155043.860000", "155044.320000", "155044.780000", "155045.240000", "155045.700000", "155046.160000", "155046.620000", "155047.080000", "155047.540000", "155048.000000", "155048.460000", "155048.920000", "155049.380000", "155049.840000", "155050.300000", "155050.760000", "155051.220000", "155051.680000", "155052.140000", "155052.600000", "155053.060000", "155053.520000", "155053.980000", "155054.440000", "155054.900000", "155055.360000", "155055.820000", "155056.280000", "155056.740000", "155057.200000", "155057.660000", "155058.120000", "155058.580000", "155059.040000", "155059.500000", "155059.960000", "155100.420000", "155100.880000", "155101.340000", "155101.800000", "155102.260000", "155102.720000", "155103.180000", "155103.640000", "155104.100000", "155104.560000", "155105.020000", "155105.480000", "155105.940000", "155106.400000", "155106.860000", "155107.320000", "155107.780000", "155108.240000", "155108.700000", "155109.160000", "155109.620000", "155110.080000", "155110.540000", "155111.000000", "155111.460000", "155111.920000", "155112.380000", "155112.840000", "155113.300000", "155113.760000", "155114.220000", "155114.680000", "155115.140000", "155115.600000", "155116.060000", "155116.520000", "155116.980000", "155117.440000", "155117.900000", "155118.360000", "155118.820000", "155119.280000", "155119.740000", "155120.200000", "155120.660000", "155121.120000", "155121.580000", "155122.040000", "155122.500000", "155122.960000", "155123.420000", "155123.880000", "155124.340000", "155124.800000", "155125.260000", "155125.720000", "155126.180000", "155126.640000", "155127.100000", "155127.560000", "155128.020000", "155128.480000", "155128.940000", "155129.400000", "155129.860000", "155130.320000", "155130.780000", "155131.240000", "155131.700000", "155132.160000", "155132.620000", "155133.080000", "155133.540000", "155134.000000", "155134.460000", "155134.920000", "155135.380000", "155135.840000", "155136.300000", "155136.760000", "155137.220000", "155137.680000", "155138.140000", "155138.600000", "155139.060000", "155139.520000", "155139.980000", "155140.440000", "155140.900000", "155141.360000", "155141.820000", "155142.280000", "155142.740000", "155143.200000", "155143.660000", "155144.120000", "155144.580000", "155145.040000", "155145.500000", "155145.960000", "155146.420000", "155146.880000", "155147.340000", "155147.800000", "155148.260000", "155148.720000", "155149.180000", "155149.640000", "155150.100000", "155150.560000", "155151.020000", "155151.480000", "155151.940000", "155152.400000", "155152.860000", "155153.320000", "155153.780000", "155154.240000", "155154.700000", "155155.160000", "155155.620000", "155156.080000", "155156.540000", "155157.000000", "155157.460000", "155157.920000", "155158.380000", "155158.840000", "155159.300000", "155159.760000", "155200.220000", "155200.680000", "155201.140000", "155201.600000", "155202.060000", "155202.520000", "155202.980000", "155203.440000", "155203.900000", "155204.360000", "155204.820000", "155205.280000", "155205.740000", "155206.200000", "155206.660000", "155207.120000", "155207.580000", "155208.040000", "155208.500000"],
