{
  "AcquisitionMatrixPE": 82,
  "AcquisitionNumber": 1,
  "AcquisitionTime": "15:18:33.115000",
  "BandwidthPerPixelPhaseEncode": 24.888,
  "BaseResolution": 82,
  "BodyPartExamined": "BRAIN",
  "ConsistencyInfo": "N4_VE11C_LATEST_20160120",
  "ConversionSoftware": "dcm2niix",
  "ConversionSoftwareVersion": "v1.0.20201102",
  "DerivedVendorReportedEchoSpacing": 0.00049,
  "DeviceSerialNumber": "66112",
  "DwellTime": 2e-06,
  "EchoTime": 0.0272,
  "EchoTrainLength": 82,
  "EffectiveEchoSpacing": 0.00049,
  "FlipAngle": 44,
  "ImageComments": "Unaliased MB8/PE3",
  "ImageOrientationPatientDICOM": [0.999791, -0.0158181, 0.0129343, 0.0144843, 0.995139, 0.0974143],
  "ImageType": [
    "ORIGINAL",
    "PRIMARY",
    "M",
    "MB",
    "ND",
    "NORM",
    "MOSAIC"
],
  "ImagingFrequency": 123.252,
  "InPlanePhaseEncodingDirectionDICOM": "COL",
  "InstitutionAddress": "Maynard 3,Hanover,NH,US,03755",
  "InstitutionName": "Dartmouth College - PBS",
  "InstitutionalDepartmentName": "Department",
  "MRAcquisitionType": "2D",
  "MagneticFieldStrength": 3,
  "Manufacturer": "Siemens",
  "ManufacturersModelName": "Prisma",
  "Modality": "MR",
  "MultibandAccelerationFactor": 8,
  "PartialFourier": 1,
  "PatientPosition": "HFS",
  "PercentPhaseFOV": 100,
  "PercentSampling": 100,
  "PhaseEncodingDirection": "j-",
  "PhaseEncodingSteps": 82,
  "PhaseResolution": 1,
  "PixelBandwidth": 3050,
  "ProcedureStepDescription": "Wager_Wager^1076_spacetop",
  "ProtocolName": "func_run-02_task-social_acq-ap-mb8",
  "PulseSequenceDetails": "%CustomerSeq%\\cmrr_mbep2d_bold",
  "ReceiveCoilActiveElements": "HEA;HEP",
  "ReceiveCoilName": "Head_32",
  "ReconMatrixPE": 82,
  "RepetitionTime": 0.46,
  "SAR": 0.100797,
  "ScanOptions": "FS",
  "ScanningSequence": "EP",
  "SequenceName": "epfid2d1_82",
  "SequenceVariant": "SK\\SS",
  "SeriesDescription": "func_run-02_task-social_acq-ap-mb8",
  "SeriesNumber": 14,
  "ShimSetting": [4122, -7775, -7193, 573, -150, -110, 173, 89],
  "SliceThickness": 2.7,
  "SliceTiming": [0, 0.25, 0.0625, 0.315, 0.125, 0.3775, 0.1875, 0, 0.25, 0.0625, 0.315, 0.125, 0.3775, 0.1875, 0, 0.25, 0.0625, 0.315, 0.125, 0.3775, 0.1875, 0, 0.25, 0.0625, 0.315, 0.125, 0.3775, 0.1875, 0, 0.25, 0.0625, 0.315, 0.125, 0.3775, 0.1875, 0, 0.25, 0.0625, 0.315, 0.125, 0.3775, 0.1875, 0, 0.25, 0.0625, 0.315, 0.125, 0.3775, 0.1875, 0, 0.25, 0.0625, 0.315, 0.125, 0.3775, 0.1875],
  "SoftwareVersions": "syngo MR E11",
  "SpacingBetweenSlices": 2.7,
  "StationName": "AWP66112",
  "TaskName": "social",
  "TotalReadoutTime": 0.03969,
  "TxRefAmp": 262.906,
  "WipMemBlock": "b4598a11-173e-4765-a953-869502634300||Sequence: R016 ve11c/master r/e634e98; Dec 19 2017 11:00:25 by eja",
  "dcmmeta_affine": [
    [-2.6823668479919434, 0.038860224187374115, 0.03891324624419212, 111.6177749633789],
    [0.042438872158527374, 2.669883966445923, 0.2624577581882477, -107.19647216796875],
    [0.03470173478126526, -0.26135534048080444, 2.686931610107422, -39.284481048583984],
    [0.0, 0.0, 0.0, 1.0]
],
  "dcmmeta_reorient_transform": [
    [0.0, -1.0, 0.0, 81.0],
    [1.0, 0.0, 0.0, 0.0],
    [0.0, 0.0, 1.0, 0.0],
    [0.0, 0.0, 0.0, 1.0]
],
  "dcmmeta_shape": [82, 82, 56, 872],
  "dcmmeta_slice_dim": 2,
  "dcmmeta_version": 0.6,
  "global": {
    "const": {
      "AccessionNumber": "A003798",
      "AcquisitionMatrix": [82, 0, 0, 82],
      "AngioFlag": "N",
      "BitsAllocated": 16,
      "BitsStored": 16,
      "BodyPartExamined": "BRAIN",
      "Columns": 656,
      "EchoNumbers": 1,
      "EchoTime": 27.2,
      "EchoTrainLength": 82,
      "FlipAngle": 44.0,
      "HighBit": 15,
      "ImageOrientationPatient": [0.99979122383799, -0.0158181246624, 0.01293428268995, 0.01448426549873, 0.99513851691182, 0.09741426082205],
      "ImagePositionPatient": [-895.75760203361, -863.14084555013, -145.42264238922],
      "ImageType": [
        "ORIGINAL",
        "PRIMARY",
        "M",
        "MB",
        "ND",
        "NORM",
        "MOSAIC"
],
      "ImagedNucleus": "1H",
      "ImagingFrequency": 123.252139,
      "InPlanePhaseEncodingDirection": "COL",
      "MRAcquisitionType": "2D",
      "MagneticFieldStrength": 3.0,
      "Manufacturer": "SIEMENS",
      "ManufacturerModelName": "Prisma",
      "Modality": "MR",
      "NumberOfAverages": 1.0,
      "NumberOfPhaseEncodingSteps": 82,
      "PercentPhaseFieldOfView": 100.0,
      "PercentSampling": 100.0,
      "PerformedProcedureStepStartTime": "144756.548000",
      "PhotometricInterpretation": "MONOCHROME2",
      "PixelBandwidth": 3050.0,
      "PixelRepresentation": 0,
      "PixelSpacing": [2.6829268932343, 2.6829268932343],
      "ProtocolName": "func_run-02_task-social_acq-ap-mb8",
      "RepetitionTime": 460.0,
      "Rows": 656,
      "SAR": 0.10079662799858,
      "SamplesPerPixel": 1,
      "ScanOptions": "FS",
      "ScanningSequence": "EP",
      "SequenceName": "epfid2d1_82",
      "SequenceVariant": [
        "SK",
        "SS"
],
      "SeriesDescription": "func_run-02_task-social_acq-ap-mb8",
      "SeriesNumber": 14,
      "SeriesTime": "151857.670000",
      "SliceLocation": -47.905868988584,
      "SliceThickness": 2.7000000476837,
      "SmallestImagePixelValue": 0,
      "SoftwareVersions": "syngo MR E11",
      "SpacingBetweenSlices": 2.6999999631781,
      "SpecificCharacterSet": "ISO_IR 100",
      "StudyID": "1",
      "StudyTime": "144756.431000",
      "TransmitCoilName": "Body",
      "VariableFlipAngleFlag": "N",
      "WindowCenterWidthExplanation": "Algo1",
      "dBdt": 0.0},
    "slices": {}
  },
  "time": {
    "samples": {
      "AcquisitionNumber": [1, 2, 3, 4, 5, 6, 7, 8, 9, 10, 11, 12, 13, 14, 15, 16, 17, 18, 19, 20, 21, 22, 23, 24, 25, 26, 27, 28, 29, 30, 31, 32, 33, 34, 35, 36, 37, 38, 39, 40, 41, 42, 43, 44, 45, 46, 47, 48, 49, 50, 51, 52, 53, 54, 55, 56, 57, 58, 59, 60, 61, 62, 63, 64, 65, 66, 67, 68, 69, 70, 71, 72, 73, 74, 75, 76, 77, 78, 79, 80, 81, 82, 83, 84, 85, 86, 87, 88, 89, 90, 91, 92, 93, 94, 95, 96, 97, 98, 99, 100, 101, 102, 103, 104, 105, 106, 107, 108, 109, 110, 111, 112, 113, 114, 115, 116, 117, 118, 119, 120, 121, 122, 123, 124, 125, 126, 127, 128, 129, 130, 131, 132, 133, 134, 135, 136, 137, 138, 139, 140, 141, 142, 143, 144, 145, 146, 147, 148, 149, 150, 151, 152, 153, 154, 155, 156, 157, 158, 159, 160, 161, 162, 163, 164, 165, 166, 167, 168, 169, 170, 171, 172, 173, 174, 175, 176, 177, 178, 179, 180, 181, 182, 183, 184, 185, 186, 187, 188, 189, 190, 191, 192, 193, 194, 195, 196, 197, 198, 199, 200, 201, 202, 203, 204, 205, 206, 207, 208, 209, 210, 211, 212, 213, 214, 215, 216, 217, 218, 219, 220, 221, 222, 223, 224, 225, 226, 227, 228, 229, 230, 231, 232, 233, 234, 235, 236, 237, 238, 239, 240, 241, 242, 243, 244, 245, 246, 247, 248, 249, 250, 251, 252, 253, 254, 255, 256, 257, 258, 259, 260, 261, 262, 263, 264, 265, 266, 267, 268, 269, 270, 271, 272, 273, 274, 275, 276, 277, 278, 279, 280, 281, 282, 283, 284, 285, 286, 287, 288, 289, 290, 291, 292, 293, 294, 295, 296, 297, 298, 299, 300, 301, 302, 303, 304, 305, 306, 307, 308, 309, 310, 311, 312, 313, 314, 315, 316, 317, 318, 319, 320, 321, 322, 323, 324, 325, 326, 327, 328, 329, 330, 331, 332, 333, 334, 335, 336, 337, 338, 339, 340, 341, 342, 343, 344, 345, 346, 347, 348, 349, 350, 351, 352, 353, 354, 355, 356, 357, 358, 359, 360, 361, 362, 363, 364, 365, 366, 367, 368, 369, 370, 371, 372, 373, 374, 375, 376, 377, 378, 379, 380, 381, 382, 383, 384, 385, 386, 387, 388, 389, 390, 391, 392, 393, 394, 395, 396, 397, 398, 399, 400, 401, 402, 403, 404, 405, 406, 407, 408, 409, 410, 411, 412, 413, 414, 415, 416, 417, 418, 419, 420, 421, 422, 423, 424, 425, 426, 427, 428, 429, 430, 431, 432, 433, 434, 435, 436, 437, 438, 439, 440, 441, 442, 443, 444, 445, 446, 447, 448, 449, 450, 451, 452, 453, 454, 455, 456, 457, 458, 459, 460, 461, 462, 463, 464, 465, 466, 467, 468, 469, 470, 471, 472, 473, 474, 475, 476, 477, 478, 479, 480, 481, 482, 483, 484, 485, 486, 487, 488, 489, 490, 491, 492, 493, 494, 495, 496, 497, 498, 499, 500, 501, 502, 503, 504, 505, 506, 507, 508, 509, 510, 511, 512, 513, 514, 515, 516, 517, 518, 519, 520, 521, 522, 523, 524, 525, 526, 527, 528, 529, 530, 531, 532, 533, 534, 535, 536, 537, 538, 539, 540, 541, 542, 543, 544, 545, 546, 547, 548, 549, 550, 551, 552, 553, 554, 555, 556, 557, 558, 559, 560, 561, 562, 563, 564, 565, 566, 567, 568, 569, 570, 571, 572, 573, 574, 575, 576, 577, 578, 579, 580, 581, 582, 583, 584, 585, 586, 587, 588, 589, 590, 591, 592, 593, 594, 595, 596, 597, 598, 599, 600, 601, 602, 603, 604, 605, 606, 607, 608, 609, 610, 611, 612, 613, 614, 615, 616, 617, 618, 619, 620, 621, 622, 623, 624, 625, 626, 627, 628, 629, 630, 631, 632, 633, 634, 635, 636, 637, 638, 639, 640, 641, 642, 643, 644, 645, 646, 647, 648, 649, 650, 651, 652, 653, 654, 655, 656, 657, 658, 659, 660, 661, 662, 663, 664, 665, 666, 667, 668, 669, 670, 671, 672, 673, 674, 675, 676, 677, 678, 679, 680, 681, 682, 683, 684, 685, 686, 687, 688, 689, 690, 691, 692, 693, 694, 695, 696, 697, 698, 699, 700, 701, 702, 703, 704, 705, 706, 707, 708, 709, 710, 711, 712, 713, 714, 715, 716, 717, 718, 719, 720, 721, 722, 723, 724, 725, 726, 727, 728, 729, 730, 731, 732, 733, 734, 735, 736, 737, 738, 739, 740, 741, 742, 743, 744, 745, 746, 747, 748, 749, 750, 751, 752, 753, 754, 755, 756, 757, 758, 759, 760, 761, 762, 763, 764, 765, 766, 767, 768, 769, 770, 771, 772, 773, 774, 775, 776, 777, 778, 779, 780, 781, 782, 783, 784, 785, 786, 787, 788, 789, 790, 791, 792, 793, 794, 795, 796, 797, 798, 799, 800, 801, 802, 803, 804, 805, 806, 807, 808, 809, 810, 811, 812, 813, 814, 815, 816, 817, 818, 819, 820, 821, 822, 823, 824, 825, 826, 827, 828, 829, 830, 831, 832, 833, 834, 835, 836, 837, 838, 839, 840, 841, 842, 843, 844, 845, 846, 847, 848, 849, 850, 851, 852, 853, 854, 855, 856, 857, 858, 859, 860, 861, 862, 863, 864, 865, 866, 867, 868, 869, 870, 871, 872],
      "AcquisitionTime": ["151833.115000", "151833.575000", "151834.035000", "151834.495000", "151834.955000", "151835.415000", "151835.875000", "151836.335000", "151836.795000", "151837.255000", "151837.715000", "151838.175000", "151838.635000", "151839.095000", "151839.555000", "151840.015000", "151840.475000", "151840.935000", "151841.395000", "151841.855000", "151842.315000", "151842.775000", "151843.235000", "151843.695000", "151844.155000", "151844.615000", "151845.075000", "151845.535000", "151845.995000", "151846.455000", "151846.915000", "151847.375000", "151847.835000", "151848.295000", "151848.755000", "151849.215000", "151849.675000", "151850.135000", "151850.595000", "151851.055000", "151851.515000", "151851.975000", "151852.435000", "151852.895000", "151853.355000", "151853.815000", "151854.275000", "151854.735000", "151855.195000", "151855.655000", "151856.115000", "151856.575000", "151857.035000", "151857.495000", "151857.955000", "151858.415000", "151858.875000", "151859.335000", "151859.795000", "151900.255000", "151900.715000", "151901.175000", "151901.635000", "151902.095000", "151902.555000", "151903.015000", "151903.475000", "151903.935000", "151904.395000", "151904.855000", "151905.315000", "151905.775000", "151906.235000", "151906.695000", "151907.155000", "151907.615000", "151908.075000", "151908.535000", "151908.995000", "151909.455000", "151909.915000", "151910.375000", "151910.835000", "151911.295000", "151911.755000", "151912.215000", "151912.675000", "151913.135000", "151913.595000", "151914.055000", "151914.515000", "151914.975000", "151915.435000", "151915.895000", "151916.355000", "151916.815000", "151917.275000", "151917.735000", "151918.195000", "151918.655000", "151919.115000", "151919.575000", "151920.035000", "151920.495000", "151920.955000", "151921.415000", "151921.875000", "151922.335000", "151922.795000", "151923.255000", "151923.715000", "151924.175000", "151924.635000", "151925.095000", "151925.555000", "151926.015000", "151926.475000", "151926.935000", "151927.395000", "151927.855000", "151928.315000", "151928.775000", "151929.235000", "151929.695000", "151930.155000", "151930.615000", "151931.075000", "151931.535000", "151931.995000", "151932.455000", "151932.915000", "151933.375000", "151933.835000", "151934.295000", "151934.755000", "151935.215000", "151935.675000", "151936.135000", "151936.595000", "151937.055000", "151937.515000", "151937.975000", "151938.435000", "151938.895000", "151939.355000", "151939.815000", "151940.275000", "151940.735000", "151941.195000", "151941.655000", "151942.115000", "151942.575000", "151943.035000", "151943.495000", "151943.955000", "151944.415000", "151944.875000", "151945.335000", "151945.795000", "151946.255000", "151946.715000", "151947.175000", "151947.635000", "151948.095000", "151948.555000", "151949.015000", "151949.475000", "151949.935000", "151950.395000", "151950.855000", "151951.315000", "151951.775000", "151952.235000", "151952.695000", "151953.155000", "151953.615000", "151954.075000", "151954.535000", "151954.995000", "151955.455000", "151955.915000", "151956.375000", "151956.835000", "151957.295000", "151957.755000", "151958.215000", "151958.675000", "151959.135000", "151959.595000", "152000.055000", "152000.515000", "152000.975000", "152001.435000", "152001.895000", "152002.355000", "152002.815000", "152003.275000", "152003.735000", "152004.195000", "152004.655000", "152005.115000", "152005.575000", "152006.035000", "152006.495000", "152006.955000", "152007.415000", "152007.875000", "152008.335000", "152008.795000", "152009.255000", "152009.715000", "152010.175000", "152010.635000", "152011.095000", "152011.555000", "152012.015000", "152012.475000", "152012.935000", "152013.395000", "152013.855000", "152014.315000", "152014.775000", "152015.235000", "152015.695000", "152016.155000", "152016.615000", "152017.075000", "152017.535000", "152017.995000", "152018.455000", "152018.915000", "152019.375000", "152019.835000", "152020.295000", "152020.755000", "152021.215000", "152021.675000", "152022.135000", "152022.595000", "152023.055000", "152023.515000", "152023.975000", "152024.435000", "152024.895000", "152025.355000", "152025.815000", "152026.275000", "152026.735000", "152027.195000", "152027.655000", "152028.115000", "152028.575000", "152029.035000", "152029.495000", "152029.955000", "152030.415000", "152030.875000", "152031.335000", "152031.795000", "152032.255000", "152032.715000", "152033.175000", "152033.635000", "152034.095000", "152034.555000", "152035.015000", "152035.475000", "152035.935000", "152036.395000", "152036.855000", "152037.315000", "152037.775000", "152038.235000", "152038.695000", "152039.155000", "152039.615000", "152040.075000", "152040.535000", "152040.995000", "152041.455000", "152041.915000", "152042.375000", "152042.835000", "152043.295000", "152043.755000", "152044.215000", "152044.675000", "152045.135000", "152045.595000", "152046.055000", "152046.515000", "152046.975000", "152047.435000", "152047.895000", "152048.355000", "152048.815000", "152049.275000", "152049.735000", "152050.195000", "152050.655000", "152051.115000", "152051.575000", "152052.035000", "152052.495000", "152052.955000", "152053.415000", "152053.875000", "152054.335000", "152054.795000", "152055.255000", "152055.715000", "152056.175000", "152056.635000", "152057.095000", "152057.555000", "152058.015000", "152058.475000", "152058.935000", "152059.395000", "152059.855000", "152100.315000", "152100.775000", "152101.235000", "152101.695000", "152102.155000", "152102.615000", "152103.075000", "152103.535000", "152103.995000", "152104.455000", "152104.915000", "152105.375000", "152105.835000", "152106.295000", "152106.755000", "152107.215000", "152107.675000", "152108.135000", "152108.595000", "152109.055000", "152109.515000", "152109.975000", "152110.435000", "152110.895000", "152111.355000", "152111.815000", "152112.275000", "152112.735000", "152113.195000", "152113.655000", "152114.115000", "152114.575000", "152115.035000", "152115.495000", "152115.955000", "152116.415000", "152116.875000", "152117.335000", "152117.795000", "152118.255000", "152118.715000", "152119.175000", "152119.635000", "152120.095000", "152120.555000", "152121.015000", "152121.475000", "152121.935000", "152122.395000", "152122.855000", "152123.315000", "152123.775000", "152124.235000", "152124.695000", "152125.155000", "152125.615000", "152126.075000", "152126.535000", "152126.995000", "152127.455000", "152127.915000", "152128.375000", "152128.835000", "152129.295000", "152129.755000", "152130.215000", "152130.675000", "152131.135000", "152131.595000", "152132.055000", "152132.515000", "152132.975000", "152133.435000", "152133.895000", "152134.355000", "152134.815000", "152135.275000", "152135.735000", "152136.195000", "152136.655000", "152137.115000", "152137.575000", "152138.035000", "152138.495000", "152138.955000", "152139.415000", "152139.875000", "152140.335000", "152140.795000", "152141.255000", "152141.715000", "152142.175000", "152142.635000", "152143.095000", "152143.555000", "152144.015000", "152144.475000", "152144.935000", "152145.395000", "152145.855000", "152146.315000", "152146.775000", "152147.235000", "152147.695000", "152148.155000", "152148.615000", "152149.075000", "152149.535000", "152149.995000", "152150.455000", "152150.915000", "152151.375000", "152151.835000", "152152.295000", "152152.755000", "152153.215000", "152153.675000", "152154.135000", "152154.595000", "152155.055000", "152155.515000", "152155.975000", "152156.435000", "152156.895000", "152157.355000", "152157.815000", "152158.275000", "152158.735000", "152159.195000", "152159.655000", "152200.115000", "152200.575000", "152201.035000", "152201.495000", "152201.955000", "152202.415000", "152202.875000", "152203.335000", "152203.795000", "152204.255000", "152204.715000", "152205.175000", "152205.635000", "152206.095000", "152206.555000", "152207.015000", "152207.475000", "152207.935000", "152208.395000", "152208.855000", "152209.315000", "152209.775000", "152210.235000", "152210.695000", "152211.155000", "152211.615000", "152212.075000", "152212.535000", "152212.995000", "152213.455000", "152213.915000", "152214.375000", "152214.835000", "152215.295000", "152215.755000", "152216.215000", "152216.675000", "152217.135000", "152217.595000", "152218.055000", "152218.515000", "152218.975000", "152219.435000", "152219.895000", "152220.355000", "152220.815000", "152221.275000", "152221.735000", "152222.195000", "152222.655000", "152223.115000", "152223.575000", "152224.035000", "152224.495000", "152224.955000", "152225.415000", "152225.875000", "152226.335000", "152226.795000", "152227.255000", "152227.715000", "152228.175000", "152228.635000", "152229.095000", "152229.555000", "152230.015000", "152230.475000", "152230.935000", "152231.395000", "152231.855000", "152232.315000", "152232.775000", "152233.235000", "152233.695000", "152234.155000", "152234.615000", "152235.075000", "152235.535000", "152235.995000", "152236.455000", "152236.915000", "152237.375000", "152237.835000", "152238.295000", "152238.755000", "152239.215000", "152239.675000", "152240.135000", "152240.595000", "152241.055000", "152241.515000", "152241.975000", "152242.435000", "152242.895000", "152243.355000", "152243.815000", "152244.275000", "152244.735000", "152245.195000", "152245.655000", "152246.115000", "152246.575000", "152247.035000", "152247.495000", "152247.955000", "152248.415000", "152248.875000", "152249.335000", "152249.795000", "152250.255000", "152250.715000", "152251.175000", "152251.635000", "152252.095000", "152252.555000", "152253.015000", "152253.475000", "152253.935000", "152254.395000", "152254.855000", "152255.315000", "152255.775000", "152256.235000", "152256.695000", "152257.155000", "152257.615000", "152258.075000", "152258.535000", "152258.995000", "152259.455000", "152259.915000", "152300.375000", "152300.835000", "152301.295000", "152301.755000", "152302.215000", "152302.675000", "152303.135000", "152303.595000", "152304.055000", "152304.515000", "152304.975000", "152305.435000", "152305.895000", "152306.355000", "152306.815000", "152307.275000", "152307.735000", "152308.195000", "152308.655000", "152309.115000", "152309.575000", "152310.035000", "152310.495000", "152310.955000", "152311.415000", "152311.875000", "152312.335000", "152312.795000", "152313.255000", "152313.715000", "152314.175000", "152314.635000", "152315.095000", "152315.555000", "152316.015000", "152316.475000", "152316.935000", "152317.395000", "152317.855000", "152318.315000", "152318.775000", "152319.235000", "152319.695000", "152320.155000", "152320.615000", "152321.075000", "152321.535000", "152321.995000", "152322.455000", "152322.915000", "152323.375000", "152323.835000", "152324.295000", "152324.755000", "152325.215000", "152325.675000", "152326.135000", "152326.595000", "152327.055000", "152327.515000", "152327.975000", "152328.435000", "152328.895000", "152329.355000", "152329.815000", "152330.275000", "152330.735000", "152331.195000", "152331.655000", "152332.115000", "152332.575000", "152333.035000", "152333.495000", "152333.955000", "152334.415000", "152334.875000", "152335.335000", "152335.795000", "152336.255000", "152336.715000", "152337.175000", "152337.635000", "152338.095000", "152338.555000", "152339.015000", "152339.475000", "152339.935000", "152340.395000", "152340.855000", "152341.315000", "152341.775000", "152342.235000", "152342.695000", "152343.155000", "152343.615000", "152344.075000", "152344.535000", "152344.995000", "152345.455000", "152345.915000", "152346.375000", "152346.835000", "152347.295000", "152347.755000", "152348.215000", "152348.675000", "152349.135000", "152349.595000", "152350.055000", "152350.515000", "152350.975000", "152351.435000", "152351.895000", "152352.355000", "152352.815000", "152353.275000", "152353.735000", "152354.195000", "152354.655000", "152355.115000", "152355.575000", "152356.035000", "152356.495000", "152356.955000", "152357.415000", "152357.875000", "152358.335000", "152358.795000", "152359.255000", "152359.715000", "152400.175000", "152400.635000", "152401.095000", "152401.555000", "152402.015000", "152402.475000", "152402.935000", "152403.395000", "152403.855000", "152404.315000", "152404.775000", "152405.235000", "152405.695000", "152406.155000", "152406.615000", "152407.075000", "152407.535000", "152407.995000", "152408.455000", "152408.915000", "152409.375000", "152409.835000", "152410.295000", "152410.755000", "152411.215000", "152411.675000", "152412.135000", "152412.595000", "152413.055000", "152413.515000", "152413.975000", "152414.435000", "152414.895000", "152415.355000", "152415.815000", "152416.275000", "152416.735000", "152417.195000", "152417.655000", "152418.115000", "152418.575000", "152419.035000", "152419.495000", "152419.955000", "152420.415000", "152420.875000", "152421.335000", "152421.795000", "152422.255000", "152422.715000", "152423.175000", "152423.635000", "152424.095000", "152424.555000", "152425.015000", "152425.475000", "152425.935000", "152426.395000", "152426.855000", "152427.315000", "152427.775000", "152428.235000", "152428.695000", "152429.155000", "152429.615000", "152430.075000", "152430.535000", "152430.995000", "152431.455000", "152431.915000", "152432.375000", "152432.835000", "152433.295000", "152433.755000", "152434.215000", "152434.675000", "152435.135000", "152435.595000", "152436.055000", "152436.515000", "152436.975000", "152437.435000", "152437.895000", "152438.355000", "152438.815000", "152439.275000", "152439.735000", "152440.195000", "152440.655000", "152441.115000", "152441.575000", "152442.035000", "152442.495000", "152442.955000", "152443.415000", "152443.875000", "152444.335000", "152444.795000", "152445.255000", "152445.715000", "152446.175000", "152446.635000", "152447.095000", "152447.555000", "152448.015000", "152448.475000", "152448.935000", "152449.395000", "152449.855000", "152450.315000", "152450.775000", "152451.235000", "152451.695000", "152452.155000", "152452.615000", "152453.075000", "152453.535000", "152453.995000", "152454.455000", "152454.915000", "152455.375000", "152455.835000", "152456.295000", "152456.755000", "152457.215000", "152457.675000", "152458.135000", "152458.595000", "152459.055000", "152459.515000", "152459.975000", "152500.435000", "152500.895000", "152501.355000", "152501.815000", "152502.275000", "152502.735000", "152503.195000", "152503.655000", "152504.115000", "152504.575000", "152505.035000", "152505.495000", "152505.955000", "152506.415000", "152506.875000", "152507.335000", "152507.795000", "152508.255000", "152508.715000", "152509.175000", "152509.635000", "152510.095000", "152510.555000", "152511.015000", "152511.475000", "152511.935000", "152512.395000", "152512.855000", "152513.315000", "152513.775000"],
