{
  "AcquisitionMatrixPE": 82,
  "AcquisitionNumber": 1,
  "AcquisitionTime": "15:52:39.685000",
  "BandwidthPerPixelPhaseEncode": 24.888,
  "BaseResolution": 82,
  "BodyPartExamined": "BRAIN",
  "ConsistencyInfo": "N4_VE11C_LATEST_20160120",
  "ConversionSoftware": "dcm2niix",
  "ConversionSoftwareVersion": "v1.0.20201102",
  "DerivedVendorReportedEchoSpacing": 0.00049,
  "DeviceSerialNumber": "66112",
  "DwellTime": 2e-06,
  "EchoTime": 0.0272,
  "EchoTrainLength": 82,
  "EffectiveEchoSpacing": 0.00049,
  "FlipAngle": 44,
  "ImageComments": "Unaliased MB8/PE3",
  "ImageOrientationPatientDICOM": [0.999791, -0.0158181, 0.0129343, 0.0144843, 0.995139, 0.0974143],
  "ImageType": [
    "ORIGINAL",
    "PRIMARY",
    "M",
    "MB",
    "ND",
    "NORM",
    "MOSAIC"
],
  "ImagingFrequency": 123.252,
  "InPlanePhaseEncodingDirectionDICOM": "COL",
  "InstitutionAddress": "Maynard 3,Hanover,NH,US,03755",
  "InstitutionName": "Dartmouth College - PBS",
  "InstitutionalDepartmentName": "Department",
  "MRAcquisitionType": "2D",
  "MagneticFieldStrength": 3,
  "Manufacturer": "Siemens",
  "ManufacturersModelName": "Prisma",
  "Modality": "MR",
  "MultibandAccelerationFactor": 8,
  "PartialFourier": 1,
  "PatientPosition": "HFS",
  "PercentPhaseFOV": 100,
  "PercentSampling": 100,
  "PhaseEncodingDirection": "j-",
  "PhaseEncodingSteps": 82,
  "PhaseResolution": 1,
  "PixelBandwidth": 3050,
  "ProcedureStepDescription": "Wager_Wager^1076_spacetop",
  "ProtocolName": "func_run-06_task-social_acq-ap-mb8",
  "PulseSequenceDetails": "%CustomerSeq%\\cmrr_mbep2d_bold",
  "ReceiveCoilActiveElements": "HEA;HEP",
  "ReceiveCoilName": "Head_32",
  "ReconMatrixPE": 82,
  "RepetitionTime": 0.46,
  "SAR": 0.100797,
  "ScanOptions": "FS",
  "ScanningSequence": "EP",
  "SequenceName": "epfid2d1_82",
  "SequenceVariant": "SK\\SS",
  "SeriesDescription": "func_run-06_task-social_acq-ap-mb8",
  "SeriesNumber": 22,
  "ShimSetting": [4122, -7775, -7193, 573, -150, -110, 173, 89],
  "SliceThickness": 2.7,
  "SliceTiming": [0, 0.25, 0.0625, 0.3125, 0.125, 0.375, 0.1875, 0, 0.25, 0.0625, 0.3125, 0.125, 0.375, 0.1875, 0, 0.25, 0.0625, 0.3125, 0.125, 0.375, 0.1875, 0, 0.25, 0.0625, 0.3125, 0.125, 0.375, 0.1875, 0, 0.25, 0.0625, 0.3125, 0.125, 0.375, 0.1875, 0, 0.25, 0.0625, 0.3125, 0.125, 0.375, 0.1875, 0, 0.25, 0.0625, 0.3125, 0.125, 0.375, 0.1875, 0, 0.25, 0.0625, 0.3125, 0.125, 0.375, 0.1875],
  "SoftwareVersions": "syngo MR E11",
  "SpacingBetweenSlices": 2.7,
  "StationName": "AWP66112",
  "TaskName": "social",
  "TotalReadoutTime": 0.03969,
  "TxRefAmp": 262.906,
  "WipMemBlock": "ee247887-2a55-4b44-895a-525a8f30c1d0||Sequence: R016 ve11c/master r/e634e98; Dec 19 2017 11:00:25 by eja",
  "dcmmeta_affine": [
    [-2.6823668479919434, 0.038860224187374115, 0.03891324624419212, 111.6177749633789],
    [0.042438872158527374, 2.669883966445923, 0.2624577581882477, -107.19647216796875],
    [0.03470173478126526, -0.26135534048080444, 2.686931610107422, -39.284481048583984],
    [0.0, 0.0, 0.0, 1.0]
],
  "dcmmeta_reorient_transform": [
    [0.0, -1.0, 0.0, 81.0],
    [1.0, 0.0, 0.0, 0.0],
    [0.0, 0.0, 1.0, 0.0],
    [0.0, 0.0, 0.0, 1.0]
],
  "dcmmeta_shape": [82, 82, 56, 872],
  "dcmmeta_slice_dim": 2,
  "dcmmeta_version": 0.6,
  "global": {
    "const": {
      "AccessionNumber": "A003798",
      "AcquisitionMatrix": [82, 0, 0, 82],
      "AngioFlag": "N",
      "BitsAllocated": 16,
      "BitsStored": 16,
      "BodyPartExamined": "BRAIN",
      "Columns": 656,
      "EchoNumbers": 1,
      "EchoTime": 27.2,
      "EchoTrainLength": 82,
      "FlipAngle": 44.0,
      "HighBit": 15,
      "ImageOrientationPatient": [0.99979122383799, -0.0158181246624, 0.01293428268995, 0.01448426549873, 0.99513851691182, 0.09741426082205],
      "ImagePositionPatient": [-895.75760203361, -863.14084555013, -145.42264238922],
      "ImageType": [
        "ORIGINAL",
        "PRIMARY",
        "M",
        "MB",
        "ND",
        "NORM",
        "MOSAIC"
],
      "ImagedNucleus": "1H",
      "ImagingFrequency": 123.252141,
      "InPlanePhaseEncodingDirection": "COL",
      "MRAcquisitionType": "2D",
      "MagneticFieldStrength": 3.0,
      "Manufacturer": "SIEMENS",
      "ManufacturerModelName": "Prisma",
      "Modality": "MR",
      "NumberOfAverages": 1.0,
      "NumberOfPhaseEncodingSteps": 82,
      "PercentPhaseFieldOfView": 100.0,
      "PercentSampling": 100.0,
      "PerformedProcedureStepStartTime": "144756.548000",
      "PhotometricInterpretation": "MONOCHROME2",
      "PixelBandwidth": 3050.0,
      "PixelRepresentation": 0,
      "PixelSpacing": [2.6829268932343, 2.6829268932343],
      "ProtocolName": "func_run-06_task-social_acq-ap-mb8",
      "RepetitionTime": 460.0,
      "Rows": 656,
      "SAR": 0.10079662799858,
      "SamplesPerPixel": 1,
      "ScanOptions": "FS",
      "ScanningSequence": "EP",
      "SequenceName": "epfid2d1_82",
      "SequenceVariant": [
        "SK",
        "SS"
],
      "SeriesDescription": "func_run-06_task-social_acq-ap-mb8",
      "SeriesNumber": 22,
      "SeriesTime": "155257.741000",
      "SliceLocation": -47.905868988584,
      "SliceThickness": 2.7000000476837,
      "SmallestImagePixelValue": 0,
      "SoftwareVersions": "syngo MR E11",
      "SpacingBetweenSlices": 2.6999999631781,
      "SpecificCharacterSet": "ISO_IR 100",
      "StudyID": "1",
      "StudyTime": "144756.431000",
      "TransmitCoilName": "Body",
      "VariableFlipAngleFlag": "N",
      "WindowCenterWidthExplanation": "Algo1",
      "dBdt": 0.0},
    "slices": {}
  },
  "time": {
    "samples": {
      "AcquisitionNumber": [1, 2, 3, 4, 5, 6, 7, 8, 9, 10, 11, 12, 13, 14, 15, 16, 17, 18, 19, 20, 21, 22, 23, 24, 25, 26, 27, 28, 29, 30, 31, 32, 33, 34, 35, 36, 37, 38, 39, 40, 41, 42, 43, 44, 45, 46, 47, 48, 49, 50, 51, 52, 53, 54, 55, 56, 57, 58, 59, 60, 61, 62, 63, 64, 65, 66, 67, 68, 69, 70, 71, 72, 73, 74, 75, 76, 77, 78, 79, 80, 81, 82, 83, 84, 85, 86, 87, 88, 89, 90, 91, 92, 93, 94, 95, 96, 97, 98, 99, 100, 101, 102, 103, 104, 105, 106, 107, 108, 109, 110, 111, 112, 113, 114, 115, 116, 117, 118, 119, 120, 121, 122, 123, 124, 125, 126, 127, 128, 129, 130, 131, 132, 133, 134, 135, 136, 137, 138, 139, 140, 141, 142, 143, 144, 145, 146, 147, 148, 149, 150, 151, 152, 153, 154, 155, 156, 157, 158, 159, 160, 161, 162, 163, 164, 165, 166, 167, 168, 169, 170, 171, 172, 173, 174, 175, 176, 177, 178, 179, 180, 181, 182, 183, 184, 185, 186, 187, 188, 189, 190, 191, 192, 193, 194, 195, 196, 197, 198, 199, 200, 201, 202, 203, 204, 205, 206, 207, 208, 209, 210, 211, 212, 213, 214, 215, 216, 217, 218, 219, 220, 221, 222, 223, 224, 225, 226, 227, 228, 229, 230, 231, 232, 233, 234, 235, 236, 237, 238, 239, 240, 241, 242, 243, 244, 245, 246, 247, 248, 249, 250, 251, 252, 253, 254, 255, 256, 257, 258, 259, 260, 261, 262, 263, 264, 265, 266, 267, 268, 269, 270, 271, 272, 273, 274, 275, 276, 277, 278, 279, 280, 281, 282, 283, 284, 285, 286, 287, 288, 289, 290, 291, 292, 293, 294, 295, 296, 297, 298, 299, 300, 301, 302, 303, 304, 305, 306, 307, 308, 309, 310, 311, 312, 313, 314, 315, 316, 317, 318, 319, 320, 321, 322, 323, 324, 325, 326, 327, 328, 329, 330, 331, 332, 333, 334, 335, 336, 337, 338, 339, 340, 341, 342, 343, 344, 345, 346, 347, 348, 349, 350, 351, 352, 353, 354, 355, 356, 357, 358, 359, 360, 361, 362, 363, 364, 365, 366, 367, 368, 369, 370, 371, 372, 373, 374, 375, 376, 377, 378, 379, 380, 381, 382, 383, 384, 385, 386, 387, 388, 389, 390, 391, 392, 393, 394, 395, 396, 397, 398, 399, 400, 401, 402, 403, 404, 405, 406, 407, 408, 409, 410, 411, 412, 413, 414, 415, 416, 417, 418, 419, 420, 421, 422, 423, 424, 425, 426, 427, 428, 429, 430, 431, 432, 433, 434, 435, 436, 437, 438, 439, 440, 441, 442, 443, 444, 445, 446, 447, 448, 449, 450, 451, 452, 453, 454, 455, 456, 457, 458, 459, 460, 461, 462, 463, 464, 465, 466, 467, 468, 469, 470, 471, 472, 473, 474, 475, 476, 477, 478, 479, 480, 481, 482, 483, 484, 485, 486, 487, 488, 489, 490, 491, 492, 493, 494, 495, 496, 497, 498, 499, 500, 501, 502, 503, 504, 505, 506, 507, 508, 509, 510, 511, 512, 513, 514, 515, 516, 517, 518, 519, 520, 521, 522, 523, 524, 525, 526, 527, 528, 529, 530, 531, 532, 533, 534, 535, 536, 537, 538, 539, 540, 541, 542, 543, 544, 545, 546, 547, 548, 549, 550, 551, 552, 553, 554, 555, 556, 557, 558, 559, 560, 561, 562, 563, 564, 565, 566, 567, 568, 569, 570, 571, 572, 573, 574, 575, 576, 577, 578, 579, 580, 581, 582, 583, 584, 585, 586, 587, 588, 589, 590, 591, 592, 593, 594, 595, 596, 597, 598, 599, 600, 601, 602, 603, 604, 605, 606, 607, 608, 609, 610, 611, 612, 613, 614, 615, 616, 617, 618, 619, 620, 621, 622, 623, 624, 625, 626, 627, 628, 629, 630, 631, 632, 633, 634, 635, 636, 637, 638, 639, 640, 641, 642, 643, 644, 645, 646, 647, 648, 649, 650, 651, 652, 653, 654, 655, 656, 657, 658, 659, 660, 661, 662, 663, 664, 665, 666, 667, 668, 669, 670, 671, 672, 673, 674, 675, 676, 677, 678, 679, 680, 681, 682, 683, 684, 685, 686, 687, 688, 689, 690, 691, 692, 693, 694, 695, 696, 697, 698, 699, 700, 701, 702, 703, 704, 705, 706, 707, 708, 709, 710, 711, 712, 713, 714, 715, 716, 717, 718, 719, 720, 721, 722, 723, 724, 725, 726, 727, 728, 729, 730, 731, 732, 733, 734, 735, 736, 737, 738, 739, 740, 741, 742, 743, 744, 745, 746, 747, 748, 749, 750, 751, 752, 753, 754, 755, 756, 757, 758, 759, 760, 761, 762, 763, 764, 765, 766, 767, 768, 769, 770, 771, 772, 773, 774, 775, 776, 777, 778, 779, 780, 781, 782, 783, 784, 785, 786, 787, 788, 789, 790, 791, 792, 793, 794, 795, 796, 797, 798, 799, 800, 801, 802, 803, 804, 805, 806, 807, 808, 809, 810, 811, 812, 813, 814, 815, 816, 817, 818, 819, 820, 821, 822, 823, 824, 825, 826, 827, 828, 829, 830, 831, 832, 833, 834, 835, 836, 837, 838, 839, 840, 841, 842, 843, 844, 845, 846, 847, 848, 849, 850, 851, 852, 853, 854, 855, 856, 857, 858, 859, 860, 861, 862, 863, 864, 865, 866, 867, 868, 869, 870, 871, 872],
      "AcquisitionTime": ["155239.685000", "155240.145000", "155240.605000", "155241.065000", "155241.525000", "155241.985000", "155242.445000", "155242.905000", "155243.365000", "155243.825000", "155244.285000", "155244.745000", "155245.205000", "155245.665000", "155246.125000", "155246.585000", "155247.045000", "155247.505000", "155247.965000", "155248.425000", "155248.885000", "155249.345000", "155249.805000", "155250.265000", "155250.725000", "155251.185000", "155251.645000", "155252.105000", "155252.565000", "155253.025000", "155253.485000", "155253.945000", "155254.405000", "155254.865000", "155255.325000", "155255.785000", "155256.245000", "155256.705000", "155257.165000", "155257.625000", "155258.085000", "155258.545000", "155259.005000", "155259.465000", "155259.925000", "155300.385000", "155300.845000", "155301.305000", "155301.765000", "155302.225000", "155302.685000", "155303.145000", "155303.605000", "155304.065000", "155304.525000", "155304.985000", "155305.445000", "155305.905000", "155306.365000", "155306.825000", "155307.285000", "155307.745000", "155308.205000", "155308.665000", "155309.125000", "155309.585000", "155310.045000", "155310.505000", "155310.965000", "155311.425000", "155311.885000", "155312.345000", "155312.805000", "155313.265000", "155313.725000", "155314.185000", "155314.645000", "155315.105000", "155315.565000", "155316.025000", "155316.485000", "155316.945000", "155317.405000", "155317.865000", "155318.325000", "155318.785000", "155319.245000", "155319.705000", "155320.165000", "155320.625000", "155321.085000", "155321.545000", "155322.005000", "155322.465000", "155322.925000", "155323.385000", "155323.845000", "155324.305000", "155324.765000", "155325.225000", "155325.685000", "155326.145000", "155326.605000", "155327.065000", "155327.525000", "155327.985000", "155328.445000", "155328.905000", "155329.365000", "155329.825000", "155330.285000", "155330.745000", "155331.205000", "155331.665000", "155332.125000", "155332.585000", "155333.045000", "155333.505000", "155333.965000", "155334.425000", "155334.885000", "155335.345000", "155335.805000", "155336.265000", "155336.725000", "155337.185000", "155337.645000", "155338.105000", "155338.565000", "155339.025000", "155339.485000", "155339.945000", "155340.405000", "155340.865000", "155341.325000", "155341.785000", "155342.245000", "155342.705000", "155343.165000", "155343.625000", "155344.085000", "155344.545000", "155345.005000", "155345.465000", "155345.925000", "155346.385000", "155346.845000", "155347.305000", "155347.765000", "155348.225000", "155348.685000", "155349.145000", "155349.605000", "155350.065000", "155350.525000", "155350.985000", "155351.445000", "155351.905000", "155352.365000", "155352.825000", "155353.285000", "155353.745000", "155354.205000", "155354.665000", "155355.125000", "155355.585000", "155356.045000", "155356.505000", "155356.965000", "155357.425000", "155357.885000", "155358.345000", "155358.805000", "155359.265000", "155359.725000", "155400.185000", "155400.645000", "155401.105000", "155401.565000", "155402.025000", "155402.485000", "155402.945000", "155403.405000", "155403.865000", "155404.325000", "155404.785000", "155405.245000", "155405.705000", "155406.165000", "155406.625000", "155407.085000", "155407.545000", "155408.005000", "155408.465000", "155408.925000", "155409.385000", "155409.845000", "155410.305000", "155410.765000", "155411.225000", "155411.685000", "155412.145000", "155412.605000", "155413.065000", "155413.525000", "155413.985000", "155414.445000", "155414.905000", "155415.365000", "155415.825000", "155416.285000", "155416.745000", "155417.205000", "155417.665000", "155418.125000", "155418.585000", "155419.045000", "155419.505000", "155419.965000", "155420.425000", "155420.885000", "155421.345000", "155421.805000", "155422.265000", "155422.725000", "155423.185000", "155423.645000", "155424.105000", "155424.565000", "155425.025000", "155425.485000", "155425.945000", "155426.405000", "155426.865000", "155427.325000", "155427.785000", "155428.245000", "155428.705000", "155429.165000", "155429.625000", "155430.085000", "155430.545000", "155431.005000", "155431.465000", "155431.925000", "155432.385000", "155432.845000", "155433.305000", "155433.765000", "155434.225000", "155434.685000", "155435.145000", "155435.605000", "155436.065000", "155436.525000", "155436.985000", "155437.445000", "155437.905000", "155438.365000", "155438.825000", "155439.285000", "155439.745000", "155440.205000", "155440.665000", "155441.125000", "155441.585000", "155442.045000", "155442.505000", "155442.965000", "155443.425000", "155443.885000", "155444.345000", "155444.805000", "155445.265000", "155445.725000", "155446.185000", "155446.645000", "155447.105000", "155447.565000", "155448.025000", "155448.485000", "155448.945000", "155449.405000", "155449.865000", "155450.325000", "155450.785000", "155451.245000", "155451.705000", "155452.165000", "155452.625000", "155453.085000", "155453.545000", "155454.005000", "155454.465000", "155454.925000", "155455.385000", "155455.845000", "155456.305000", "155456.765000", "155457.225000", "155457.685000", "155458.145000", "155458.605000", "155459.065000", "155459.525000", "155459.985000", "155500.445000", "155500.905000", "155501.365000", "155501.825000", "155502.285000", "155502.745000", "155503.205000", "155503.665000", "155504.125000", "155504.585000", "155505.045000", "155505.505000", "155505.965000", "155506.425000", "155506.885000", "155507.345000", "155507.805000", "155508.265000", "155508.725000", "155509.185000", "155509.645000", "155510.105000", "155510.565000", "155511.025000", "155511.485000", "155511.945000", "155512.405000", "155512.865000", "155513.325000", "155513.785000", "155514.245000", "155514.705000", "155515.165000", "155515.625000", "155516.085000", "155516.545000", "155517.005000", "155517.465000", "155517.925000", "155518.385000", "155518.845000", "155519.305000", "155519.765000", "155520.225000", "155520.685000", "155521.145000", "155521.605000", "155522.065000", "155522.525000", "155522.985000", "155523.445000", "155523.905000", "155524.365000", "155524.825000", "155525.285000", "155525.745000", "155526.205000", "155526.665000", "155527.125000", "155527.585000", "155528.045000", "155528.505000", "155528.965000", "155529.425000", "155529.885000", "155530.345000", "155530.805000", "155531.265000", "155531.725000", "155532.185000", "155532.645000", "155533.105000", "155533.565000", "155534.025000", "155534.485000", "155534.945000", "155535.405000", "155535.865000", "155536.325000", "155536.785000", "155537.245000", "155537.705000", "155538.165000", "155538.625000", "155539.085000", "155539.545000", "155540.005000", "155540.465000", "155540.925000", "155541.385000", "155541.845000", "155542.305000", "155542.765000", "155543.225000", "155543.685000", "155544.145000", "155544.605000", "155545.065000", "155545.525000", "155545.985000", "155546.445000", "155546.905000", "155547.365000", "155547.825000", "155548.285000", "155548.745000", "155549.205000", "155549.665000", "155550.125000", "155550.585000", "155551.045000", "155551.505000", "155551.965000", "155552.425000", "155552.885000", "155553.345000", "155553.805000", "155554.265000", "155554.725000", "155555.185000", "155555.645000", "155556.105000", "155556.565000", "155557.025000", "155557.485000", "155557.945000", "155558.405000", "155558.865000", "155559.325000", "155559.785000", "155600.245000", "155600.705000", "155601.165000", "155601.625000", "155602.085000", "155602.545000", "155603.005000", "155603.465000", "155603.925000", "155604.385000", "155604.845000", "155605.305000", "155605.765000", "155606.225000", "155606.685000", "155607.145000", "155607.605000", "155608.065000", "155608.525000", "155608.985000", "155609.445000", "155609.905000", "155610.365000", "155610.825000", "155611.285000", "155611.745000", "155612.205000", "155612.665000", "155613.125000", "155613.585000", "155614.045000", "155614.505000", "155614.965000", "155615.425000", "155615.885000", "155616.345000", "155616.805000", "155617.265000", "155617.725000", "155618.185000", "155618.645000", "155619.105000", "155619.565000", "155620.025000", "155620.485000", "155620.945000", "155621.405000", "155621.865000", "155622.325000", "155622.785000", "155623.245000", "155623.705000", "155624.165000", "155624.625000", "155625.085000", "155625.545000", "155626.005000", "155626.465000", "155626.925000", "155627.385000", "155627.845000", "155628.305000", "155628.765000", "155629.225000", "155629.685000", "155630.145000", "155630.605000", "155631.065000", "155631.525000", "155631.985000", "155632.445000", "155632.905000", "155633.365000", "155633.825000", "155634.285000", "155634.745000", "155635.205000", "155635.665000", "155636.125000", "155636.585000", "155637.045000", "155637.505000", "155637.965000", "155638.425000", "155638.885000", "155639.345000", "155639.805000", "155640.265000", "155640.725000", "155641.185000", "155641.645000", "155642.105000", "155642.565000", "155643.025000", "155643.485000", "155643.945000", "155644.405000", "155644.865000", "155645.325000", "155645.785000", "155646.245000", "155646.705000", "155647.165000", "155647.625000", "155648.085000", "155648.545000", "155649.005000", "155649.465000", "155649.925000", "155650.385000", "155650.845000", "155651.305000", "155651.765000", "155652.225000", "155652.685000", "155653.145000", "155653.605000", "155654.065000", "155654.525000", "155654.985000", "155655.445000", "155655.905000", "155656.365000", "155656.825000", "155657.285000", "155657.745000", "155658.205000", "155658.665000", "155659.125000", "155659.585000", "155700.045000", "155700.505000", "155700.965000", "155701.425000", "155701.885000", "155702.345000", "155702.805000", "155703.265000", "155703.725000", "155704.185000", "155704.645000", "155705.105000", "155705.565000", "155706.025000", "155706.485000", "155706.945000", "155707.405000", "155707.865000", "155708.325000", "155708.785000", "155709.245000", "155709.705000", "155710.165000", "155710.625000", "155711.085000", "155711.545000", "155712.005000", "155712.465000", "155712.925000", "155713.385000", "155713.845000", "155714.305000", "155714.765000", "155715.225000", "155715.685000", "155716.145000", "155716.605000", "155717.065000", "155717.525000", "155717.985000", "155718.445000", "155718.905000", "155719.365000", "155719.825000", "155720.285000", "155720.745000", "155721.205000", "155721.665000", "155722.125000", "155722.585000", "155723.045000", "155723.505000", "155723.965000", "155724.425000", "155724.885000", "155725.345000", "155725.805000", "155726.265000", "155726.725000", "155727.185000", "155727.645000", "155728.105000", "155728.565000", "155729.025000", "155729.485000", "155729.945000", "155730.405000", "155730.865000", "155731.325000", "155731.785000", "155732.245000", "155732.705000", "155733.165000", "155733.625000", "155734.085000", "155734.545000", "155735.005000", "155735.465000", "155735.925000", "155736.385000", "155736.845000", "155737.305000", "155737.765000", "155738.225000", "155738.685000", "155739.145000", "155739.605000", "155740.065000", "155740.525000", "155740.985000", "155741.445000", "155741.905000", "155742.365000", "155742.825000", "155743.285000", "155743.745000", "155744.205000", "155744.665000", "155745.125000", "155745.585000", "155746.045000", "155746.505000", "155746.965000", "155747.425000", "155747.885000", "155748.345000", "155748.805000", "155749.265000", "155749.725000", "155750.185000", "155750.645000", "155751.105000", "155751.565000", "155752.025000", "155752.485000", "155752.945000", "155753.405000", "155753.865000", "155754.325000", "155754.785000", "155755.245000", "155755.705000", "155756.165000", "155756.625000", "155757.085000", "155757.545000", "155758.005000", "155758.465000", "155758.925000", "155759.385000", "155759.845000", "155800.305000", "155800.765000", "155801.225000", "155801.685000", "155802.145000", "155802.605000", "155803.065000", "155803.525000", "155803.985000", "155804.445000", "155804.905000", "155805.365000", "155805.825000", "155806.285000", "155806.745000", "155807.205000", "155807.665000", "155808.125000", "155808.585000", "155809.045000", "155809.505000", "155809.965000", "155810.425000", "155810.885000", "155811.345000", "155811.805000", "155812.265000", "155812.725000", "155813.185000", "155813.645000", "155814.105000", "155814.565000", "155815.025000", "155815.485000", "155815.945000", "155816.405000", "155816.865000", "155817.325000", "155817.785000", "155818.245000", "155818.705000", "155819.165000", "155819.625000", "155820.085000", "155820.545000", "155821.005000", "155821.465000", "155821.925000", "155822.385000", "155822.845000", "155823.305000", "155823.765000", "155824.225000", "155824.685000", "155825.145000", "155825.605000", "155826.065000", "155826.525000", "155826.985000", "155827.445000", "155827.905000", "155828.365000", "155828.825000", "155829.285000", "155829.745000", "155830.205000", "155830.665000", "155831.125000", "155831.585000", "155832.045000", "155832.505000", "155832.965000", "155833.425000", "155833.885000", "155834.345000", "155834.805000", "155835.265000", "155835.725000", "155836.185000", "155836.645000", "155837.105000", "155837.565000", "155838.025000", "155838.485000", "155838.945000", "155839.405000", "155839.865000", "155840.325000", "155840.785000", "155841.245000", "155841.705000", "155842.165000", "155842.625000", "155843.085000", "155843.545000", "155844.005000", "155844.465000", "155844.925000", "155845.385000", "155845.845000", "155846.305000", "155846.765000", "155847.225000", "155847.685000", "155848.145000", "155848.605000", "155849.065000", "155849.525000", "155849.985000", "155850.445000", "155850.905000", "155851.365000", "155851.825000", "155852.285000", "155852.745000", "155853.205000", "155853.665000", "155854.125000", "155854.585000", "155855.045000", "155855.505000", "155855.965000", "155856.425000", "155856.885000", "155857.345000", "155857.805000", "155858.265000", "155858.725000", "155859.185000", "155859.645000", "155900.105000", "155900.565000", "155901.025000", "155901.485000", "155901.945000", "155902.405000", "155902.865000", "155903.325000", "155903.785000", "155904.245000", "155904.705000", "155905.165000", "155905.625000", "155906.085000", "155906.545000", "155907.005000", "155907.465000", "155907.925000", "155908.385000", "155908.845000", "155909.305000", "155909.765000", "155910.225000", "155910.685000", "155911.145000", "155911.605000", "155912.065000", "155912.525000", "155912.985000", "155913.445000", "155913.905000", "155914.365000", "155914.825000", "155915.285000", "155915.745000", "155916.205000", "155916.665000", "155917.125000", "155917.585000", "155918.045000", "155918.505000", "155918.965000", "155919.425000", "155919.885000", "155920.345000"],
