{
  "AcquisitionMatrixPE": 82,
  "AcquisitionNumber": 1,
  "AcquisitionTime": "16:21:45.120000",
  "BandwidthPerPixelPhaseEncode": 24.888,
  "BaseResolution": 82,
  "BodyPartExamined": "BRAIN",
  "ConsistencyInfo": "N4_VE11C_LATEST_20160120",
  "ConversionSoftware": "dcm2niix",
  "ConversionSoftwareVersion": "v1.0.20201102",
  "DerivedVendorReportedEchoSpacing": 0.00049,
  "DeviceSerialNumber": "66112",
  "DwellTime": 2e-06,
  "EchoTime": 0.0272,
  "EchoTrainLength": 82,
  "EffectiveEchoSpacing": 0.00049,
  "FlipAngle": 44,
  "ImageComments": "Unaliased MB8/PE3",
  "ImageOrientationPatientDICOM": [0.998963, -0.00166743, -0.0454963, 0.00627671, 0.99483, 0.101357],
  "ImageType": [
    "ORIGINAL",
    "PRIMARY",
    "M",
    "MB",
    "ND",
    "NORM",
    "MOSAIC"
],
  "ImagingFrequency": 123.252,
  "InPlanePhaseEncodingDirectionDICOM": "COL",
  "InstitutionAddress": "Maynard 3,Hanover,NH,US,03755",
  "InstitutionName": "Dartmouth College - PBS",
  "InstitutionalDepartmentName": "Department",
  "MRAcquisitionType": "2D",
  "MagneticFieldStrength": 3,
  "Manufacturer": "Siemens",
  "ManufacturersModelName": "Prisma",
  "Modality": "MR",
  "MultibandAccelerationFactor": 8,
  "PartialFourier": 1,
  "PatientPosition": "HFS",
  "PercentPhaseFOV": 100,
  "PercentSampling": 100,
  "PhaseEncodingDirection": "j-",
  "PhaseEncodingSteps": 82,
  "PhaseResolution": 1,
  "PixelBandwidth": 3050,
  "ProcedureStepDescription": "Wager_Wager^1076_spacetop",
  "ProtocolName": "func_run-03_task-alignvideo_acq-ap-mb8",
  "PulseSequenceDetails": "%CustomerSeq%\\cmrr_mbep2d_bold",
  "ReceiveCoilActiveElements": "HEA;HEP",
  "ReceiveCoilName": "Head_32",
  "ReconMatrixPE": 82,
  "RepetitionTime": 0.46,
  "SAR": 0.100886,
  "ScanOptions": "FS",
  "ScanningSequence": "EP",
  "SequenceName": "epfid2d1_82",
  "SequenceVariant": "SK\\SS",
  "SeriesDescription": "func_run-03_task-alignvideo_acq-ap-mb8",
  "SeriesNumber": 34,
  "ShimSetting": [4122, -7776, -7191, 579, -149, -108, 173, 88],
  "SliceThickness": 2.7,
  "SliceTiming": [0, 0.25, 0.0625, 0.3125, 0.125, 0.375, 0.1875, 0, 0.25, 0.0625, 0.3125, 0.125, 0.375, 0.1875, 0, 0.25, 0.0625, 0.3125, 0.125, 0.375, 0.1875, 0, 0.25, 0.0625, 0.3125, 0.125, 0.375, 0.1875, 0, 0.25, 0.0625, 0.3125, 0.125, 0.375, 0.1875, 0, 0.25, 0.0625, 0.3125, 0.125, 0.375, 0.1875, 0, 0.25, 0.0625, 0.3125, 0.125, 0.375, 0.1875, 0, 0.25, 0.0625, 0.3125, 0.125, 0.375, 0.1875],
  "SoftwareVersions": "syngo MR E11",
  "SpacingBetweenSlices": 2.7,
  "StationName": "AWP66112",
  "TaskName": "alignvideo",
  "TotalReadoutTime": 0.03969,
  "TxRefAmp": 262.906,
  "WipMemBlock": "09c56f6a-a9d5-4a11-baa8-40bb3475517e||Sequence: R016 ve11c/master r/e634e98; Dec 19 2017 11:00:25 by eja",
  "dcmmeta_affine": [
    [-2.680145025253296, 0.01683995872735977, -0.12174873799085617, 116.52923583984375],
    [0.004473595879971981, 2.6690568923950195, 0.27415239810943604, -105.42298889160156],
    [-0.12206333875656128, -0.2719346284866333, 2.6832849979400635, -31.151185989379883],
    [0.0, 0.0, 0.0, 1.0]
],
  "dcmmeta_reorient_transform": [
    [0.0, -1.0, 0.0, 81.0],
    [1.0, 0.0, 0.0, 0.0],
    [0.0, 0.0, 1.0, 0.0],
    [0.0, 0.0, 0.0, 1.0]
],
  "dcmmeta_shape": [82, 82, 56, 1016],
  "dcmmeta_slice_dim": 2,
  "dcmmeta_version": 0.6,
  "global": {
    "const": {
      "AccessionNumber": "A003798",
      "AcquisitionMatrix": [82, 0, 0, 82],
      "AngioFlag": "N",
      "BitsAllocated": 16,
      "BitsStored": 16,
      "BodyPartExamined": "BRAIN",
      "Columns": 656,
      "EchoNumbers": 1,
      "EchoTime": 27.2,
      "EchoTrainLength": 82,
      "FlipAngle": 44.0,
      "HighBit": 15,
      "ImageOrientationPatient": [0.99896311402751, -0.001667431094, -0.0454963348635, 0.00627671157181, 0.99483027224125, 0.10135744829193],
      "ImagePositionPatient": [-891.9279592884, -875.50602660189, -96.190949781743],
      "ImageType": [
        "ORIGINAL",
        "PRIMARY",
        "M",
        "MB",
        "ND",
        "NORM",
        "MOSAIC"
],
      "ImagedNucleus": "1H",
      "ImagingFrequency": 123.252142,
      "InPlanePhaseEncodingDirection": "COL",
      "MRAcquisitionType": "2D",
      "MagneticFieldStrength": 3.0,
      "Manufacturer": "SIEMENS",
      "ManufacturerModelName": "Prisma",
      "Modality": "MR",
      "NumberOfAverages": 1.0,
      "NumberOfPhaseEncodingSteps": 82,
      "PercentPhaseFieldOfView": 100.0,
      "PercentSampling": 100.0,
      "PerformedProcedureStepStartTime": "144756.548000",
      "PhotometricInterpretation": "MONOCHROME2",
      "PixelBandwidth": 3050.0,
      "PixelRepresentation": 0,
      "PixelSpacing": [2.6829268932343, 2.6829268932343],
      "ProtocolName": "func_run-03_task-alignvideo_acq-ap-mb8",
      "RepetitionTime": 460.0,
      "Rows": 656,
      "SAR": 0.10088550300097,
      "SamplesPerPixel": 1,
      "ScanOptions": "FS",
      "ScanningSequence": "EP",
      "SequenceName": "epfid2d1_82",
      "SequenceVariant": [
        "SK",
        "SS"
],
      "SeriesDescription": "func_run-03_task-alignvideo_acq-ap-mb8",
      "SeriesNumber": 34,
      "SeriesTime": "162157.740000",
      "SliceLocation": -46.917318284338,
      "SliceThickness": 2.7000000476837,
      "SmallestImagePixelValue": 0,
      "SoftwareVersions": "syngo MR E11",
      "SpacingBetweenSlices": 2.7000000216556,
      "SpecificCharacterSet": "ISO_IR 100",
      "StudyID": "1",
      "StudyTime": "144756.431000",
      "TransmitCoilName": "Body",
      "VariableFlipAngleFlag": "N",
      "WindowCenterWidthExplanation": "Algo1",
      "dBdt": 0.0},
    "slices": {}
  },
  "time": {
    "samples": {
      "AcquisitionNumber": [1, 2, 3, 4, 5, 6, 7, 8, 9, 10, 11, 12, 13, 14, 15, 16, 17, 18, 19, 20, 21, 22, 23, 24, 25, 26, 27, 28, 29, 30, 31, 32, 33, 34, 35, 36, 37, 38, 39, 40, 41, 42, 43, 44, 45, 46, 47, 48, 49, 50, 51, 52, 53, 54, 55, 56, 57, 58, 59, 60, 61, 62, 63, 64, 65, 66, 67, 68, 69, 70, 71, 72, 73, 74, 75, 76, 77, 78, 79, 80, 81, 82, 83, 84, 85, 86, 87, 88, 89, 90, 91, 92, 93, 94, 95, 96, 97, 98, 99, 100, 101, 102, 103, 104, 105, 106, 107, 108, 109, 110, 111, 112, 113, 114, 115, 116, 117, 118, 119, 120, 121, 122, 123, 124, 125, 126, 127, 128, 129, 130, 131, 132, 133, 134, 135, 136, 137, 138, 139, 140, 141, 142, 143, 144, 145, 146, 147, 148, 149, 150, 151, 152, 153, 154, 155, 156, 157, 158, 159, 160, 161, 162, 163, 164, 165, 166, 167, 168, 169, 170, 171, 172, 173, 174, 175, 176, 177, 178, 179, 180, 181, 182, 183, 184, 185, 186, 187, 188, 189, 190, 191, 192, 193, 194, 195, 196, 197, 198, 199, 200, 201, 202, 203, 204, 205, 206, 207, 208, 209, 210, 211, 212, 213, 214, 215, 216, 217, 218, 219, 220, 221, 222, 223, 224, 225, 226, 227, 228, 229, 230, 231, 232, 233, 234, 235, 236, 237, 238, 239, 240, 241, 242, 243, 244, 245, 246, 247, 248, 249, 250, 251, 252, 253, 254, 255, 256, 257, 258, 259, 260, 261, 262, 263, 264, 265, 266, 267, 268, 269, 270, 271, 272, 273, 274, 275, 276, 277, 278, 279, 280, 281, 282, 283, 284, 285, 286, 287, 288, 289, 290, 291, 292, 293, 294, 295, 296, 297, 298, 299, 300, 301, 302, 303, 304, 305, 306, 307, 308, 309, 310, 311, 312, 313, 314, 315, 316, 317, 318, 319, 320, 321, 322, 323, 324, 325, 326, 327, 328, 329, 330, 331, 332, 333, 334, 335, 336, 337, 338, 339, 340, 341, 342, 343, 344, 345, 346, 347, 348, 349, 350, 351, 352, 353, 354, 355, 356, 357, 358, 359, 360, 361, 362, 363, 364, 365, 366, 367, 368, 369, 370, 371, 372, 373, 374, 375, 376, 377, 378, 379, 380, 381, 382, 383, 384, 385, 386, 387, 388, 389, 390, 391, 392, 393, 394, 395, 396, 397, 398, 399, 400, 401, 402, 403, 404, 405, 406, 407, 408, 409, 410, 411, 412, 413, 414, 415, 416, 417, 418, 419, 420, 421, 422, 423, 424, 425, 426, 427, 428, 429, 430, 431, 432, 433, 434, 435, 436, 437, 438, 439, 440, 441, 442, 443, 444, 445, 446, 447, 448, 449, 450, 451, 452, 453, 454, 455, 456, 457, 458, 459, 460, 461, 462, 463, 464, 465, 466, 467, 468, 469, 470, 471, 472, 473, 474, 475, 476, 477, 478, 479, 480, 481, 482, 483, 484, 485, 486, 487, 488, 489, 490, 491, 492, 493, 494, 495, 496, 497, 498, 499, 500, 501, 502, 503, 504, 505, 506, 507, 508, 509, 510, 511, 512, 513, 514, 515, 516, 517, 518, 519, 520, 521, 522, 523, 524, 525, 526, 527, 528, 529, 530, 531, 532, 533, 534, 535, 536, 537, 538, 539, 540, 541, 542, 543, 544, 545, 546, 547, 548, 549, 550, 551, 552, 553, 554, 555, 556, 557, 558, 559, 560, 561, 562, 563, 564, 565, 566, 567, 568, 569, 570, 571, 572, 573, 574, 575, 576, 577, 578, 579, 580, 581, 582, 583, 584, 585, 586, 587, 588, 589, 590, 591, 592, 593, 594, 595, 596, 597, 598, 599, 600, 601, 602, 603, 604, 605, 606, 607, 608, 609, 610, 611, 612, 613, 614, 615, 616, 617, 618, 619, 620, 621, 622, 623, 624, 625, 626, 627, 628, 629, 630, 631, 632, 633, 634, 635, 636, 637, 638, 639, 640, 641, 642, 643, 644, 645, 646, 647, 648, 649, 650, 651, 652, 653, 654, 655, 656, 657, 658, 659, 660, 661, 662, 663, 664, 665, 666, 667, 668, 669, 670, 671, 672, 673, 674, 675, 676, 677, 678, 679, 680, 681, 682, 683, 684, 685, 686, 687, 688, 689, 690, 691, 692, 693, 694, 695, 696, 697, 698, 699, 700, 701, 702, 703, 704, 705, 706, 707, 708, 709, 710, 711, 712, 713, 714, 715, 716, 717, 718, 719, 720, 721, 722, 723, 724, 725, 726, 727, 728, 729, 730, 731, 732, 733, 734, 735, 736, 737, 738, 739, 740, 741, 742, 743, 744, 745, 746, 747, 748, 749, 750, 751, 752, 753, 754, 755, 756, 757, 758, 759, 760, 761, 762, 763, 764, 765, 766, 767, 768, 769, 770, 771, 772, 773, 774, 775, 776, 777, 778, 779, 780, 781, 782, 783, 784, 785, 786, 787, 788, 789, 790, 791, 792, 793, 794, 795, 796, 797, 798, 799, 800, 801, 802, 803, 804, 805, 806, 807, 808, 809, 810, 811, 812, 813, 814, 815, 816, 817, 818, 819, 820, 821, 822, 823, 824, 825, 826, 827, 828, 829, 830, 831, 832, 833, 834, 835, 836, 837, 838, 839, 840, 841, 842, 843, 844, 845, 846, 847, 848, 849, 850, 851, 852, 853, 854, 855, 856, 857, 858, 859, 860, 861, 862, 863, 864, 865, 866, 867, 868, 869, 870, 871, 872, 873, 874, 875, 876, 877, 878, 879, 880, 881, 882, 883, 884, 885, 886, 887, 888, 889, 890, 891, 892, 893, 894, 895, 896, 897, 898, 899, 900, 901, 902, 903, 904, 905, 906, 907, 908, 909, 910, 911, 912, 913, 914, 915, 916, 917, 918, 919, 920, 921, 922, 923, 924, 925, 926, 927, 928, 929, 930, 931, 932, 933, 934, 935, 936, 937, 938, 939, 940, 941, 942, 943, 944, 945, 946, 947, 948, 949, 950, 951, 952, 953, 954, 955, 956, 957, 958, 959, 960, 961, 962, 963, 964, 965, 966, 967, 968, 969, 970, 971, 972, 973, 974, 975, 976, 977, 978, 979, 980, 981, 982, 983, 984, 985, 986, 987, 988, 989, 990, 991, 992, 993, 994, 995, 996, 997, 998, 999, 1000, 1001, 1002, 1003, 1004, 1005, 1006, 1007, 1008, 1009, 1010, 1011, 1012, 1013, 1014, 1015, 1016],
      "AcquisitionTime": ["162145.120000", "162145.580000", "162146.040000", "162146.500000", "162146.960000", "162147.420000", "162147.880000", "162148.340000", "162148.800000", "162149.260000", "162149.720000", "162150.180000", "162150.640000", "162151.100000", "162151.560000", "162152.020000", "162152.480000", "162152.940000", "162153.400000", "162153.860000", "162154.320000", "162154.780000", "162155.240000", "162155.700000", "162156.160000", "162156.620000", "162157.080000", "162157.540000", "162158.000000", "162158.460000", "162158.920000", "162159.380000", "162159.840000", "162200.300000", "162200.760000", "162201.220000", "162201.680000", "162202.140000", "162202.600000", "162203.060000", "162203.520000", "162203.980000", "162204.440000", "162204.900000", "162205.360000", "162205.820000", "162206.280000", "162206.740000", "162207.200000", "162207.660000", "162208.120000", "162208.580000", "162209.040000", "162209.500000", "162209.960000", "162210.420000", "162210.880000", "162211.340000", "162211.800000", "162212.260000", "162212.720000", "162213.180000", "162213.640000", "162214.100000", "162214.560000", "162215.020000", "162215.480000", "162215.940000", "162216.400000", "162216.860000", "162217.320000", "162217.780000", "162218.240000", "162218.700000", "162219.160000", "162219.620000", "162220.080000", "162220.540000", "162221.000000", "162221.460000", "162221.920000", "162222.380000", "162222.840000", "162223.300000", "162223.760000", "162224.220000", "162224.680000", "162225.140000", "162225.600000", "162226.060000", "162226.520000", "162226.980000", "162227.440000", "162227.900000", "162228.360000", "162228.820000", "162229.280000", "162229.740000", "162230.200000", "162230.660000", "162231.120000", "162231.580000", "162232.040000", "162232.500000", "162232.960000", "162233.420000", "162233.880000", "162234.340000", "162234.800000", "162235.260000", "162235.720000", "162236.180000", "162236.640000", "162237.100000", "162237.560000", "162238.020000", "162238.480000", "162238.940000", "162239.400000", "162239.860000", "162240.320000", "162240.780000", "162241.240000", "162241.700000", "162242.160000", "162242.620000", "162243.080000", "162243.540000", "162244.000000", "162244.460000", "162244.920000", "162245.380000", "162245.840000", "162246.300000", "162246.760000", "162247.220000", "162247.680000", "162248.140000", "162248.600000", "162249.060000", "162249.520000", "162249.980000", "162250.440000", "162250.900000", "162251.360000", "162251.820000", "162252.280000", "162252.740000", "162253.200000", "162253.660000", "162254.120000", "162254.580000", "162255.040000", "162255.500000", "162255.960000", "162256.420000", "162256.880000", "162257.340000", "162257.800000", "162258.260000", "162258.720000", "162259.180000", "162259.640000", "162300.100000", "162300.560000", "162301.020000", "162301.480000", "162301.940000", "162302.400000", "162302.860000", "162303.320000", "162303.780000", "162304.240000", "162304.700000", "162305.160000", "162305.620000", "162306.080000", "162306.540000", "162307.000000", "162307.460000", "162307.920000", "162308.380000", "162308.840000", "162309.300000", "162309.760000", "162310.220000", "162310.680000", "162311.140000", "162311.600000", "162312.060000", "162312.520000", "162312.980000", "162313.440000", "162313.900000", "162314.360000", "162314.820000", "162315.280000", "162315.740000", "162316.200000", "162316.660000", "162317.120000", "162317.580000", "162318.040000", "162318.500000", "162318.960000", "162319.420000", "162319.880000", "162320.340000", "162320.800000", "162321.260000", "162321.720000", "162322.180000", "162322.640000", "162323.100000", "162323.560000", "162324.020000", "162324.480000", "162324.940000", "162325.400000", "162325.860000", "162326.320000", "162326.780000", "162327.240000", "162327.700000", "162328.160000", "162328.620000", "162329.080000", "162329.540000", "162330.000000", "162330.460000", "162330.920000", "162331.380000", "162331.840000", "162332.300000", "162332.760000", "162333.220000", "162333.680000", "162334.140000", "162334.600000", "162335.060000", "162335.520000", "162335.980000", "162336.440000", "162336.900000", "162337.360000", "162337.820000", "162338.280000", "162338.740000", "162339.200000", "162339.660000", "162340.120000", "162340.580000", "162341.040000", "162341.500000", "162341.960000", "162342.420000", "162342.880000", "162343.340000", "162343.800000", "162344.260000", "162344.720000", "162345.180000", "162345.640000", "162346.100000", "162346.560000", "162347.020000", "162347.480000", "162347.940000", "162348.400000", "162348.860000", "162349.320000", "162349.780000", "162350.240000", "162350.700000", "162351.160000", "162351.620000", "162352.080000", "162352.540000", "162353.000000", "162353.460000", "162353.920000", "162354.380000", "162354.840000", "162355.300000", "162355.760000", "162356.220000", "162356.680000", "162357.140000", "162357.600000", "162358.060000", "162358.520000", "162358.980000", "162359.440000", "162359.900000", "162400.360000", "162400.820000", "162401.280000", "162401.740000", "162402.200000", "162402.660000", "162403.120000", "162403.580000", "162404.040000", "162404.500000", "162404.960000", "162405.420000", "162405.880000", "162406.340000", "162406.800000", "162407.260000", "162407.720000", "162408.180000", "162408.640000", "162409.100000", "162409.560000", "162410.020000", "162410.480000", "162410.940000", "162411.400000", "162411.860000", "162412.320000", "162412.780000", "162413.240000", "162413.700000", "162414.160000", "162414.620000", "162415.080000", "162415.540000", "162416.000000", "162416.460000", "162416.920000", "162417.380000", "162417.840000", "162418.300000", "162418.760000", "162419.220000", "162419.680000", "162420.140000", "162420.600000", "162421.060000", "162421.520000", "162421.980000", "162422.440000", "162422.900000", "162423.360000", "162423.820000", "162424.280000", "162424.740000", "162425.200000", "162425.660000", "162426.120000", "162426.580000", "162427.040000", "162427.500000", "162427.960000", "162428.420000", "162428.880000", "162429.340000", "162429.800000", "162430.260000", "162430.720000", "162431.180000", "162431.640000", "162432.100000", "162432.560000", "162433.020000", "162433.480000", "162433.940000", "162434.400000", "162434.860000", "162435.320000", "162435.780000", "162436.240000", "162436.700000", "162437.160000", "162437.620000", "162438.080000", "162438.540000", "162439.000000", "162439.460000", "162439.920000", "162440.380000", "162440.840000", "162441.300000", "162441.760000", "162442.220000", "162442.680000", "162443.140000", "162443.600000", "162444.060000", "162444.520000", "162444.980000", "162445.440000", "162445.900000", "162446.360000", "162446.820000", "162447.280000", "162447.740000", "162448.200000", "162448.660000", "162449.120000", "162449.580000", "162450.040000", "162450.500000", "162450.960000", "162451.420000", "162451.880000", "162452.340000", "162452.800000", "162453.260000", "162453.720000", "162454.180000", "162454.640000", "162455.100000", "162455.560000", "162456.020000", "162456.480000", "162456.940000", "162457.400000", "162457.860000", "162458.320000", "162458.780000", "162459.240000", "162459.700000", "162500.160000", "162500.620000", "162501.080000", "162501.540000", "162502.000000", "162502.460000", "162502.920000", "162503.380000", "162503.840000", "162504.300000", "162504.760000", "162505.220000", "162505.680000", "162506.140000", "162506.600000", "162507.060000", "162507.520000", "162507.980000", "162508.440000", "162508.900000", "162509.360000", "162509.820000", "162510.280000", "162510.740000", "162511.200000", "162511.660000", "162512.120000", "162512.580000", "162513.040000", "162513.500000", "162513.960000", "162514.420000", "162514.880000", "162515.340000", "162515.800000", "162516.260000", "162516.720000", "162517.180000", "162517.640000", "162518.100000", "162518.560000", "162519.020000", "162519.480000", "162519.940000", "162520.400000", "162520.860000", "162521.320000", "162521.780000", "162522.240000", "162522.700000", "162523.160000", "162523.620000", "162524.080000", "162524.540000", "162525.000000", "162525.460000", "162525.920000", "162526.380000", "162526.840000", "162527.300000", "162527.760000", "162528.220000", "162528.680000", "162529.140000", "162529.600000", "162530.060000", "162530.520000", "162530.980000", "162531.440000", "162531.900000", "162532.360000", "162532.820000", "162533.280000", "162533.740000", "162534.200000", "162534.660000", "162535.120000", "162535.580000", "162536.040000", "162536.500000", "162536.960000", "162537.420000", "162537.880000", "162538.340000", "162538.800000", "162539.260000", "162539.720000", "162540.180000", "162540.640000", "162541.100000", "162541.560000", "162542.020000", "162542.480000", "162542.940000", "162543.400000", "162543.860000", "162544.320000", "162544.780000", "162545.240000", "162545.700000", "162546.160000", "162546.620000", "162547.080000", "162547.540000", "162548.000000", "162548.460000", "162548.920000", "162549.380000", "162549.840000", "162550.300000", "162550.760000", "162551.220000", "162551.680000", "162552.140000", "162552.600000", "162553.060000", "162553.520000", "162553.980000", "162554.440000", "162554.900000", "162555.360000", "162555.820000", "162556.280000", "162556.740000", "162557.200000", "162557.660000", "162558.120000", "162558.580000", "162559.040000", "162559.500000", "162559.960000", "162600.420000", "162600.880000", "162601.340000", "162601.800000", "162602.260000", "162602.720000", "162603.180000", "162603.640000", "162604.100000", "162604.560000", "162605.020000", "162605.480000", "162605.940000", "162606.400000", "162606.860000", "162607.320000", "162607.780000", "162608.240000", "162608.700000", "162609.160000", "162609.620000", "162610.080000", "162610.540000", "162611.000000", "162611.460000", "162611.920000", "162612.380000", "162612.840000", "162613.300000", "162613.760000", "162614.220000", "162614.680000", "162615.140000", "162615.600000", "162616.060000", "162616.520000", "162616.980000", "162617.440000", "162617.900000", "162618.360000", "162618.820000", "162619.280000", "162619.740000", "162620.200000", "162620.660000", "162621.120000", "162621.580000", "162622.040000", "162622.500000", "162622.960000", "162623.420000", "162623.880000", "162624.340000", "162624.800000", "162625.260000", "162625.720000", "162626.180000", "162626.640000", "162627.100000", "162627.560000", "162628.020000", "162628.480000", "162628.940000", "162629.400000", "162629.860000", "162630.320000", "162630.780000", "162631.240000", "162631.700000", "162632.160000", "162632.620000", "162633.080000", "162633.540000", "162634.000000", "162634.460000", "162634.920000", "162635.380000", "162635.840000", "162636.300000", "162636.760000", "162637.220000", "162637.680000", "162638.140000", "162638.600000", "162639.060000", "162639.520000", "162639.980000", "162640.440000", "162640.900000", "162641.360000", "162641.820000", "162642.280000", "162642.740000", "162643.200000", "162643.660000", "162644.120000", "162644.580000", "162645.040000", "162645.500000", "162645.960000", "162646.420000", "162646.880000", "162647.340000", "162647.800000", "162648.260000", "162648.720000", "162649.180000", "162649.640000", "162650.100000", "162650.560000", "162651.020000", "162651.480000", "162651.940000", "162652.400000", "162652.860000", "162653.320000", "162653.780000", "162654.240000", "162654.700000", "162655.160000", "162655.620000", "162656.080000", "162656.540000", "162657.000000", "162657.460000", "162657.920000", "162658.380000", "162658.840000", "162659.300000", "162659.760000", "162700.220000", "162700.680000", "162701.140000", "162701.600000", "162702.060000", "162702.520000", "162702.980000", "162703.440000", "162703.900000", "162704.360000", "162704.820000", "162705.280000", "162705.740000", "162706.200000", "162706.660000", "162707.120000", "162707.580000", "162708.040000", "162708.500000", "162708.960000", "162709.420000", "162709.880000", "162710.340000", "162710.800000", "162711.260000", "162711.720000", "162712.180000", "162712.640000", "162713.100000", "162713.560000", "162714.020000", "162714.480000", "162714.940000", "162715.400000", "162715.860000", "162716.320000", "162716.780000", "162717.240000", "162717.700000", "162718.160000", "162718.620000", "162719.080000", "162719.540000", "162720.000000", "162720.460000", "162720.920000", "162721.380000", "162721.840000", "162722.300000", "162722.760000", "162723.220000", "162723.680000", "162724.140000", "162724.600000", "162725.060000", "162725.520000", "162725.980000", "162726.440000", "162726.900000", "162727.360000", "162727.820000", "162728.280000", "162728.740000", "162729.200000", "162729.660000", "162730.120000", "162730.580000", "162731.040000", "162731.500000", "162731.960000", "162732.420000", "162732.880000", "162733.340000", "162733.800000", "162734.260000", "162734.720000", "162735.180000", "162735.640000", "162736.100000", "162736.560000", "162737.020000", "162737.480000", "162737.940000", "162738.400000", "162738.860000", "162739.320000", "162739.780000", "162740.240000", "162740.700000", "162741.160000", "162741.620000", "162742.080000", "162742.540000", "162743.000000", "162743.460000", "162743.920000", "162744.380000", "162744.840000", "162745.300000", "162745.760000", "162746.220000", "162746.680000", "162747.140000", "162747.600000", "162748.060000", "162748.520000", "162748.980000", "162749.440000", "162749.900000", "162750.360000", "162750.820000", "162751.280000", "162751.740000", "162752.200000", "162752.660000", "162753.120000", "162753.580000", "162754.040000", "162754.500000", "162754.960000", "162755.420000", "162755.880000", "162756.340000", "162756.800000", "162757.260000", "162757.720000", "162758.180000", "162758.640000", "162759.100000", "162759.560000", "162800.020000", "162800.480000", "162800.940000", "162801.400000", "162801.860000", "162802.320000", "162802.780000", "162803.240000", "162803.700000", "162804.160000", "162804.620000", "162805.080000", "162805.540000", "162806.000000", "162806.460000", "162806.920000", "162807.380000", "162807.840000", "162808.300000", "162808.760000", "162809.220000", "162809.680000", "162810.140000", "162810.600000", "162811.060000", "162811.520000", "162811.980000", "162812.440000", "162812.900000", "162813.360000", "162813.820000", "162814.280000", "162814.740000", "162815.200000", "162815.660000", "162816.120000", "162816.580000", "162817.040000", "162817.500000", "162817.960000", "162818.420000", "162818.880000", "162819.340000", "162819.800000", "162820.260000", "162820.720000", "162821.180000", "162821.640000", "162822.100000", "162822.560000", "162823.020000", "162823.480000", "162823.940000", "162824.400000", "162824.860000", "162825.320000", "162825.780000", "162826.240000", "162826.700000", "162827.160000", "162827.620000", "162828.080000", "162828.540000", "162829.000000", "162829.460000", "162829.920000", "162830.380000", "162830.840000", "162831.300000", "162831.760000", "162832.220000", "162832.680000", "162833.140000", "162833.600000", "162834.060000", "162834.520000", "162834.980000", "162835.440000", "162835.900000", "162836.360000", "162836.820000", "162837.280000", "162837.740000", "162838.200000", "162838.660000", "162839.120000", "162839.580000", "162840.040000", "162840.500000", "162840.960000", "162841.420000", "162841.880000", "162842.340000", "162842.800000", "162843.260000", "162843.720000", "162844.180000", "162844.640000", "162845.100000", "162845.560000", "162846.020000", "162846.480000", "162846.940000", "162847.400000", "162847.860000", "162848.320000", "162848.780000", "162849.240000", "162849.700000", "162850.160000", "162850.620000", "162851.080000", "162851.540000", "162852.000000", "162852.460000", "162852.920000", "162853.380000", "162853.840000", "162854.300000", "162854.760000", "162855.220000", "162855.680000", "162856.140000", "162856.600000", "162857.060000", "162857.520000", "162857.980000", "162858.440000", "162858.900000", "162859.360000", "162859.820000", "162900.280000", "162900.740000", "162901.200000", "162901.660000", "162902.120000", "162902.580000", "162903.040000", "162903.500000", "162903.960000", "162904.420000", "162904.880000", "162905.340000", "162905.800000", "162906.260000", "162906.720000", "162907.180000", "162907.640000", "162908.100000", "162908.560000", "162909.020000", "162909.480000", "162909.940000", "162910.400000", "162910.860000", "162911.320000", "162911.780000", "162912.240000", "162912.700000", "162913.160000", "162913.620000", "162914.080000", "162914.540000", "162915.000000", "162915.460000", "162915.920000", "162916.380000", "162916.840000", "162917.300000", "162917.760000", "162918.220000", "162918.680000", "162919.140000", "162919.600000", "162920.060000", "162920.520000", "162920.980000", "162921.440000", "162921.900000", "162922.360000", "162922.820000", "162923.280000", "162923.740000", "162924.200000", "162924.660000", "162925.120000", "162925.580000", "162926.040000", "162926.500000", "162926.960000", "162927.420000", "162927.880000", "162928.340000", "162928.800000", "162929.260000", "162929.720000", "162930.180000", "162930.640000", "162931.100000", "162931.560000", "162932.020000"],
