{
  "AcquisitionMatrixPE": 82,
  "AcquisitionNumber": 1,
  "AcquisitionTime": "15:28:3.035000",
  "BandwidthPerPixelPhaseEncode": 24.888,
  "BaseResolution": 82,
  "BodyPartExamined": "BRAIN",
  "ConsistencyInfo": "N4_VE11C_LATEST_20160120",
  "ConversionSoftware": "dcm2niix",
  "ConversionSoftwareVersion": "v1.0.20201102",
  "DerivedVendorReportedEchoSpacing": 0.00049,
  "DeviceSerialNumber": "66112",
  "DwellTime": 2e-06,
  "EchoTime": 0.0272,
  "EchoTrainLength": 82,
  "EffectiveEchoSpacing": 0.00049,
  "FlipAngle": 44,
  "ImageComments": "Unaliased MB8/PE3",
  "ImageOrientationPatientDICOM": [0.999791, -0.0158181, 0.0129343, 0.0144843, 0.995139, 0.0974143],
  "ImageType": [
    "ORIGINAL",
    "PRIMARY",
    "M",
    "MB",
    "ND",
    "NORM",
    "MOSAIC"
],
  "ImagingFrequency": 123.252,
  "InPlanePhaseEncodingDirectionDICOM": "COL",
  "InstitutionAddress": "Maynard 3,Hanover,NH,US,03755",
  "InstitutionName": "Dartmouth College - PBS",
  "InstitutionalDepartmentName": "Department",
  "MRAcquisitionType": "2D",
  "MagneticFieldStrength": 3,
  "Manufacturer": "Siemens",
  "ManufacturersModelName": "Prisma",
  "Modality": "MR",
  "MultibandAccelerationFactor": 8,
  "PartialFourier": 1,
  "PatientPosition": "HFS",
  "PercentPhaseFOV": 100,
  "PercentSampling": 100,
  "PhaseEncodingDirection": "j-",
  "PhaseEncodingSteps": 82,
  "PhaseResolution": 1,
  "PixelBandwidth": 3050,
  "ProcedureStepDescription": "Wager_Wager^1076_spacetop",
  "ProtocolName": "func_run-03_task-social_acq-ap-mb8",
  "PulseSequenceDetails": "%CustomerSeq%\\cmrr_mbep2d_bold",
  "ReceiveCoilActiveElements": "HEA;HEP",
  "ReceiveCoilName": "Head_32",
  "ReconMatrixPE": 82,
  "RepetitionTime": 0.46,
  "SAR": 0.100797,
  "ScanOptions": "FS",
  "ScanningSequence": "EP",
  "SequenceName": "epfid2d1_82",
  "SequenceVariant": "SK\\SS",
  "SeriesDescription": "func_run-03_task-social_acq-ap-mb8",
  "SeriesNumber": 16,
  "ShimSetting": [4122, -7775, -7193, 573, -150, -110, 173, 89],
  "SliceThickness": 2.7,
  "SliceTiming": [0, 0.2525, 0.065, 0.315, 0.1275, 0.3775, 0.19, 0, 0.2525, 0.065, 0.315, 0.1275, 0.3775, 0.19, 0, 0.2525, 0.065, 0.315, 0.1275, 0.3775, 0.19, 0, 0.2525, 0.065, 0.315, 0.1275, 0.3775, 0.19, 0, 0.2525, 0.065, 0.315, 0.1275, 0.3775, 0.19, 0, 0.2525, 0.065, 0.315, 0.1275, 0.3775, 0.19, 0, 0.2525, 0.065, 0.315, 0.1275, 0.3775, 0.19, 0, 0.2525, 0.065, 0.315, 0.1275, 0.3775, 0.19],
  "SoftwareVersions": "syngo MR E11",
  "SpacingBetweenSlices": 2.7,
  "StationName": "AWP66112",
  "TaskName": "social",
  "TotalReadoutTime": 0.03969,
  "TxRefAmp": 262.906,
  "WipMemBlock": "27ded1c5-5679-462d-96e1-eefe08059926||Sequence: R016 ve11c/master r/e634e98; Dec 19 2017 11:00:25 by eja",
  "dcmmeta_affine": [
    [-2.6823668479919434, 0.038860224187374115, 0.03891324624419212, 111.6177749633789],
    [0.042438872158527374, 2.669883966445923, 0.2624577581882477, -107.19647216796875],
    [0.03470173478126526, -0.26135534048080444, 2.686931610107422, -39.284481048583984],
    [0.0, 0.0, 0.0, 1.0]
],
  "dcmmeta_reorient_transform": [
    [0.0, -1.0, 0.0, 81.0],
    [1.0, 0.0, 0.0, 0.0],
    [0.0, 0.0, 1.0, 0.0],
    [0.0, 0.0, 0.0, 1.0]
],
  "dcmmeta_shape": [82, 82, 56, 872],
  "dcmmeta_slice_dim": 2,
  "dcmmeta_version": 0.6,
  "global": {
    "const": {
      "AccessionNumber": "A003798",
      "AcquisitionMatrix": [82, 0, 0, 82],
      "AngioFlag": "N",
      "BitsAllocated": 16,
      "BitsStored": 16,
      "BodyPartExamined": "BRAIN",
      "Columns": 656,
      "EchoNumbers": 1,
      "EchoTime": 27.2,
      "EchoTrainLength": 82,
      "FlipAngle": 44.0,
      "HighBit": 15,
      "ImageOrientationPatient": [0.99979122383799, -0.0158181246624, 0.01293428268995, 0.01448426549873, 0.99513851691182, 0.09741426082205],
      "ImagePositionPatient": [-895.75760203361, -863.14084555013, -145.42264238922],
      "ImageType": [
        "ORIGINAL",
        "PRIMARY",
        "M",
        "MB",
        "ND",
        "NORM",
        "MOSAIC"
],
      "ImagedNucleus": "1H",
      "ImagingFrequency": 123.252141,
      "InPlanePhaseEncodingDirection": "COL",
      "MRAcquisitionType": "2D",
      "MagneticFieldStrength": 3.0,
      "Manufacturer": "SIEMENS",
      "ManufacturerModelName": "Prisma",
      "Modality": "MR",
      "NumberOfAverages": 1.0,
      "NumberOfPhaseEncodingSteps": 82,
      "PercentPhaseFieldOfView": 100.0,
      "PercentSampling": 100.0,
      "PerformedProcedureStepStartTime": "144756.548000",
      "PhotometricInterpretation": "MONOCHROME2",
      "PixelBandwidth": 3050.0,
      "PixelRepresentation": 0,
      "PixelSpacing": [2.6829268932343, 2.6829268932343],
      "ProtocolName": "func_run-03_task-social_acq-ap-mb8",
      "RepetitionTime": 460.0,
      "Rows": 656,
      "SAR": 0.10079662799858,
      "SamplesPerPixel": 1,
      "ScanOptions": "FS",
      "ScanningSequence": "EP",
      "SequenceName": "epfid2d1_82",
      "SequenceVariant": [
        "SK",
        "SS"
],
      "SeriesDescription": "func_run-03_task-social_acq-ap-mb8",
      "SeriesNumber": 16,
      "SeriesTime": "152817.739000",
      "SliceLocation": -47.905868988584,
      "SliceThickness": 2.7000000476837,
      "SmallestImagePixelValue": 0,
      "SoftwareVersions": "syngo MR E11",
      "SpacingBetweenSlices": 2.6999999631781,
      "SpecificCharacterSet": "ISO_IR 100",
      "StudyID": "1",
      "StudyTime": "144756.431000",
      "TransmitCoilName": "Body",
      "VariableFlipAngleFlag": "N",
      "WindowCenterWidthExplanation": "Algo1",
      "dBdt": 0.0},
    "slices": {}
  },
  "time": {
    "samples": {
      "AcquisitionNumber": [1, 2, 3, 4, 5, 6, 7, 8, 9, 10, 11, 12, 13, 14, 15, 16, 17, 18, 19, 20, 21, 22, 23, 24, 25, 26, 27, 28, 29, 30, 31, 32, 33, 34, 35, 36, 37, 38, 39, 40, 41, 42, 43, 44, 45, 46, 47, 48, 49, 50, 51, 52, 53, 54, 55, 56, 57, 58, 59, 60, 61, 62, 63, 64, 65, 66, 67, 68, 69, 70, 71, 72, 73, 74, 75, 76, 77, 78, 79, 80, 81, 82, 83, 84, 85, 86, 87, 88, 89, 90, 91, 92, 93, 94, 95, 96, 97, 98, 99, 100, 101, 102, 103, 104, 105, 106, 107, 108, 109, 110, 111, 112, 113, 114, 115, 116, 117, 118, 119, 120, 121, 122, 123, 124, 125, 126, 127, 128, 129, 130, 131, 132, 133, 134, 135, 136, 137, 138, 139, 140, 141, 142, 143, 144, 145, 146, 147, 148, 149, 150, 151, 152, 153, 154, 155, 156, 157, 158, 159, 160, 161, 162, 163, 164, 165, 166, 167, 168, 169, 170, 171, 172, 173, 174, 175, 176, 177, 178, 179, 180, 181, 182, 183, 184, 185, 186, 187, 188, 189, 190, 191, 192, 193, 194, 195, 196, 197, 198, 199, 200, 201, 202, 203, 204, 205, 206, 207, 208, 209, 210, 211, 212, 213, 214, 215, 216, 217, 218, 219, 220, 221, 222, 223, 224, 225, 226, 227, 228, 229, 230, 231, 232, 233, 234, 235, 236, 237, 238, 239, 240, 241, 242, 243, 244, 245, 246, 247, 248, 249, 250, 251, 252, 253, 254, 255, 256, 257, 258, 259, 260, 261, 262, 263, 264, 265, 266, 267, 268, 269, 270, 271, 272, 273, 274, 275, 276, 277, 278, 279, 280, 281, 282, 283, 284, 285, 286, 287, 288, 289, 290, 291, 292, 293, 294, 295, 296, 297, 298, 299, 300, 301, 302, 303, 304, 305, 306, 307, 308, 309, 310, 311, 312, 313, 314, 315, 316, 317, 318, 319, 320, 321, 322, 323, 324, 325, 326, 327, 328, 329, 330, 331, 332, 333, 334, 335, 336, 337, 338, 339, 340, 341, 342, 343, 344, 345, 346, 347, 348, 349, 350, 351, 352, 353, 354, 355, 356, 357, 358, 359, 360, 361, 362, 363, 364, 365, 366, 367, 368, 369, 370, 371, 372, 373, 374, 375, 376, 377, 378, 379, 380, 381, 382, 383, 384, 385, 386, 387, 388, 389, 390, 391, 392, 393, 394, 395, 396, 397, 398, 399, 400, 401, 402, 403, 404, 405, 406, 407, 408, 409, 410, 411, 412, 413, 414, 415, 416, 417, 418, 419, 420, 421, 422, 423, 424, 425, 426, 427, 428, 429, 430, 431, 432, 433, 434, 435, 436, 437, 438, 439, 440, 441, 442, 443, 444, 445, 446, 447, 448, 449, 450, 451, 452, 453, 454, 455, 456, 457, 458, 459, 460, 461, 462, 463, 464, 465, 466, 467, 468, 469, 470, 471, 472, 473, 474, 475, 476, 477, 478, 479, 480, 481, 482, 483, 484, 485, 486, 487, 488, 489, 490, 491, 492, 493, 494, 495, 496, 497, 498, 499, 500, 501, 502, 503, 504, 505, 506, 507, 508, 509, 510, 511, 512, 513, 514, 515, 516, 517, 518, 519, 520, 521, 522, 523, 524, 525, 526, 527, 528, 529, 530, 531, 532, 533, 534, 535, 536, 537, 538, 539, 540, 541, 542, 543, 544, 545, 546, 547, 548, 549, 550, 551, 552, 553, 554, 555, 556, 557, 558, 559, 560, 561, 562, 563, 564, 565, 566, 567, 568, 569, 570, 571, 572, 573, 574, 575, 576, 577, 578, 579, 580, 581, 582, 583, 584, 585, 586, 587, 588, 589, 590, 591, 592, 593, 594, 595, 596, 597, 598, 599, 600, 601, 602, 603, 604, 605, 606, 607, 608, 609, 610, 611, 612, 613, 614, 615, 616, 617, 618, 619, 620, 621, 622, 623, 624, 625, 626, 627, 628, 629, 630, 631, 632, 633, 634, 635, 636, 637, 638, 639, 640, 641, 642, 643, 644, 645, 646, 647, 648, 649, 650, 651, 652, 653, 654, 655, 656, 657, 658, 659, 660, 661, 662, 663, 664, 665, 666, 667, 668, 669, 670, 671, 672, 673, 674, 675, 676, 677, 678, 679, 680, 681, 682, 683, 684, 685, 686, 687, 688, 689, 690, 691, 692, 693, 694, 695, 696, 697, 698, 699, 700, 701, 702, 703, 704, 705, 706, 707, 708, 709, 710, 711, 712, 713, 714, 715, 716, 717, 718, 719, 720, 721, 722, 723, 724, 725, 726, 727, 728, 729, 730, 731, 732, 733, 734, 735, 736, 737, 738, 739, 740, 741, 742, 743, 744, 745, 746, 747, 748, 749, 750, 751, 752, 753, 754, 755, 756, 757, 758, 759, 760, 761, 762, 763, 764, 765, 766, 767, 768, 769, 770, 771, 772, 773, 774, 775, 776, 777, 778, 779, 780, 781, 782, 783, 784, 785, 786, 787, 788, 789, 790, 791, 792, 793, 794, 795, 796, 797, 798, 799, 800, 801, 802, 803, 804, 805, 806, 807, 808, 809, 810, 811, 812, 813, 814, 815, 816, 817, 818, 819, 820, 821, 822, 823, 824, 825, 826, 827, 828, 829, 830, 831, 832, 833, 834, 835, 836, 837, 838, 839, 840, 841, 842, 843, 844, 845, 846, 847, 848, 849, 850, 851, 852, 853, 854, 855, 856, 857, 858, 859, 860, 861, 862, 863, 864, 865, 866, 867, 868, 869, 870, 871, 872],
      "AcquisitionTime": ["152803.035000", "152803.495000", "152803.955000", "152804.415000", "152804.875000", "152805.335000", "152805.795000", "152806.255000", "152806.715000", "152807.175000", "152807.635000", "152808.095000", "152808.555000", "152809.015000", "152809.475000", "152809.935000", "152810.395000", "152810.855000", "152811.315000", "152811.775000", "152812.235000", "152812.695000", "152813.155000", "152813.615000", "152814.075000", "152814.535000", "152814.995000", "152815.455000", "152815.915000", "152816.375000", "152816.835000", "152817.295000", "152817.755000", "152818.215000", "152818.675000", "152819.135000", "152819.595000", "152820.055000", "152820.515000", "152820.975000", "152821.435000", "152821.895000", "152822.355000", "152822.815000", "152823.275000", "152823.735000", "152824.195000", "152824.655000", "152825.115000", "152825.575000", "152826.035000", "152826.495000", "152826.955000", "152827.415000", "152827.875000", "152828.335000", "152828.795000", "152829.255000", "152829.715000", "152830.175000", "152830.635000", "152831.095000", "152831.555000", "152832.015000", "152832.475000", "152832.935000", "152833.395000", "152833.855000", "152834.315000", "152834.775000", "152835.235000", "152835.695000", "152836.155000", "152836.615000", "152837.075000", "152837.535000", "152837.995000", "152838.455000", "152838.915000", "152839.375000", "152839.835000", "152840.295000", "152840.755000", "152841.215000", "152841.675000", "152842.135000", "152842.595000", "152843.055000", "152843.515000", "152843.975000", "152844.435000", "152844.895000", "152845.355000", "152845.815000", "152846.275000", "152846.735000", "152847.195000", "152847.655000", "152848.115000", "152848.575000", "152849.035000", "152849.495000", "152849.955000", "152850.415000", "152850.875000", "152851.335000", "152851.795000", "152852.255000", "152852.715000", "152853.175000", "152853.635000", "152854.095000", "152854.555000", "152855.015000", "152855.475000", "152855.935000", "152856.395000", "152856.855000", "152857.315000", "152857.775000", "152858.235000", "152858.695000", "152859.155000", "152859.615000", "152900.075000", "152900.535000", "152900.995000", "152901.455000", "152901.915000", "152902.375000", "152902.835000", "152903.295000", "152903.755000", "152904.215000", "152904.675000", "152905.135000", "152905.595000", "152906.055000", "152906.515000", "152906.975000", "152907.435000", "152907.895000", "152908.355000", "152908.815000", "152909.275000", "152909.735000", "152910.195000", "152910.655000", "152911.115000", "152911.575000", "152912.035000", "152912.495000", "152912.955000", "152913.415000", "152913.875000", "152914.335000", "152914.795000", "152915.255000", "152915.715000", "152916.175000", "152916.635000", "152917.095000", "152917.555000", "152918.015000", "152918.475000", "152918.935000", "152919.395000", "152919.855000", "152920.315000", "152920.775000", "152921.235000", "152921.695000", "152922.155000", "152922.615000", "152923.075000", "152923.535000", "152923.995000", "152924.455000", "152924.915000", "152925.375000", "152925.835000", "152926.295000", "152926.755000", "152927.215000", "152927.675000", "152928.135000", "152928.595000", "152929.055000", "152929.515000", "152929.975000", "152930.435000", "152930.895000", "152931.355000", "152931.815000", "152932.275000", "152932.735000", "152933.195000", "152933.655000", "152934.115000", "152934.575000", "152935.035000", "152935.495000", "152935.955000", "152936.415000", "152936.875000", "152937.335000", "152937.795000", "152938.255000", "152938.715000", "152939.175000", "152939.635000", "152940.095000", "152940.555000", "152941.015000", "152941.475000", "152941.935000", "152942.395000", "152942.855000", "152943.315000", "152943.775000", "152944.235000", "152944.695000", "152945.155000", "152945.615000", "152946.075000", "152946.535000", "152946.995000", "152947.455000", "152947.915000", "152948.375000", "152948.835000", "152949.295000", "152949.755000", "152950.215000", "152950.675000", "152951.135000", "152951.595000", "152952.055000", "152952.515000", "152952.975000", "152953.435000", "152953.895000", "152954.355000", "152954.815000", "152955.275000", "152955.735000", "152956.195000", "152956.655000", "152957.115000", "152957.575000", "152958.035000", "152958.495000", "152958.955000", "152959.415000", "152959.875000", "153000.335000", "153000.795000", "153001.255000", "153001.715000", "153002.175000", "153002.635000", "153003.095000", "153003.555000", "153004.015000", "153004.475000", "153004.935000", "153005.395000", "153005.855000", "153006.315000", "153006.775000", "153007.235000", "153007.695000", "153008.155000", "153008.615000", "153009.075000", "153009.535000", "153009.995000", "153010.455000", "153010.915000", "153011.375000", "153011.835000", "153012.295000", "153012.755000", "153013.215000", "153013.675000", "153014.135000", "153014.595000", "153015.055000", "153015.515000", "153015.975000", "153016.435000", "153016.895000", "153017.355000", "153017.815000", "153018.275000", "153018.735000", "153019.195000", "153019.655000", "153020.115000", "153020.575000", "153021.035000", "153021.495000", "153021.955000", "153022.415000", "153022.875000", "153023.335000", "153023.795000", "153024.255000", "153024.715000", "153025.175000", "153025.635000", "153026.095000", "153026.555000", "153027.015000", "153027.475000", "153027.935000", "153028.395000", "153028.855000", "153029.315000", "153029.775000", "153030.235000", "153030.695000", "153031.155000", "153031.615000", "153032.075000", "153032.535000", "153032.995000", "153033.455000", "153033.915000", "153034.375000", "153034.835000", "153035.295000", "153035.755000", "153036.215000", "153036.675000", "153037.135000", "153037.595000", "153038.055000", "153038.515000", "153038.975000", "153039.435000", "153039.895000", "153040.355000", "153040.815000", "153041.275000", "153041.735000", "153042.195000", "153042.655000", "153043.115000", "153043.575000", "153044.035000", "153044.495000", "153044.955000", "153045.415000", "153045.875000", "153046.335000", "153046.795000", "153047.255000", "153047.715000", "153048.175000", "153048.635000", "153049.095000", "153049.555000", "153050.015000", "153050.475000", "153050.935000", "153051.395000", "153051.855000", "153052.315000", "153052.775000", "153053.235000", "153053.695000", "153054.155000", "153054.615000", "153055.075000", "153055.535000", "153055.995000", "153056.455000", "153056.915000", "153057.375000", "153057.835000", "153058.295000", "153058.755000", "153059.215000", "153059.675000", "153100.135000", "153100.595000", "153101.055000", "153101.515000", "153101.975000", "153102.435000", "153102.895000", "153103.355000", "153103.815000", "153104.275000", "153104.735000", "153105.195000", "153105.655000", "153106.115000", "153106.575000", "153107.035000", "153107.495000", "153107.955000", "153108.415000", "153108.875000", "153109.335000", "153109.795000", "153110.255000", "153110.715000", "153111.175000", "153111.635000", "153112.095000", "153112.555000", "153113.015000", "153113.475000", "153113.935000", "153114.395000", "153114.855000", "153115.315000", "153115.775000", "153116.235000", "153116.695000", "153117.155000", "153117.615000", "153118.075000", "153118.535000", "153118.995000", "153119.455000", "153119.915000", "153120.375000", "153120.835000", "153121.295000", "153121.755000", "153122.215000", "153122.675000", "153123.135000", "153123.595000", "153124.055000", "153124.515000", "153124.975000", "153125.435000", "153125.895000", "153126.355000", "153126.815000", "153127.275000", "153127.735000", "153128.195000", "153128.655000", "153129.115000", "153129.575000", "153130.035000", "153130.495000", "153130.955000", "153131.415000", "153131.875000", "153132.335000", "153132.795000", "153133.255000", "153133.715000", "153134.175000", "153134.635000", "153135.095000", "153135.555000", "153136.015000", "153136.475000", "153136.935000", "153137.395000", "153137.855000", "153138.315000", "153138.775000", "153139.235000", "153139.695000", "153140.155000", "153140.615000", "153141.075000", "153141.535000", "153141.995000", "153142.455000", "153142.915000", "153143.375000", "153143.835000", "153144.295000", "153144.755000", "153145.215000", "153145.675000", "153146.135000", "153146.595000", "153147.055000", "153147.515000", "153147.975000", "153148.435000", "153148.895000", "153149.355000", "153149.815000", "153150.275000", "153150.735000", "153151.195000", "153151.655000", "153152.115000", "153152.575000", "153153.035000", "153153.495000", "153153.955000", "153154.415000", "153154.875000", "153155.335000", "153155.795000", "153156.255000", "153156.715000", "153157.175000", "153157.635000", "153158.095000", "153158.555000", "153159.015000", "153159.475000", "153159.935000", "153200.395000", "153200.855000", "153201.315000", "153201.775000", "153202.235000", "153202.695000", "153203.155000", "153203.615000", "153204.075000", "153204.535000", "153204.995000", "153205.455000", "153205.915000", "153206.375000", "153206.835000", "153207.295000", "153207.755000", "153208.215000", "153208.675000", "153209.135000", "153209.595000", "153210.055000", "153210.515000", "153210.975000", "153211.435000", "153211.895000", "153212.355000", "153212.815000", "153213.275000", "153213.735000", "153214.195000", "153214.655000", "153215.115000", "153215.575000", "153216.035000", "153216.495000", "153216.955000", "153217.415000", "153217.875000", "153218.335000", "153218.795000", "153219.255000", "153219.715000", "153220.175000", "153220.635000", "153221.095000", "153221.555000", "153222.015000", "153222.475000", "153222.935000", "153223.395000", "153223.855000", "153224.315000", "153224.775000", "153225.235000", "153225.695000", "153226.155000", "153226.615000", "153227.075000", "153227.535000", "153227.995000", "153228.455000", "153228.915000", "153229.375000", "153229.835000", "153230.295000", "153230.755000", "153231.215000", "153231.675000", "153232.135000", "153232.595000", "153233.055000", "153233.515000", "153233.975000", "153234.435000", "153234.895000", "153235.355000", "153235.815000", "153236.275000", "153236.735000", "153237.195000", "153237.655000", "153238.115000", "153238.575000", "153239.035000", "153239.495000", "153239.955000", "153240.415000", "153240.875000", "153241.335000", "153241.795000", "153242.255000", "153242.715000", "153243.175000", "153243.635000", "153244.095000", "153244.555000", "153245.015000", "153245.475000", "153245.935000", "153246.395000", "153246.855000", "153247.315000", "153247.775000", "153248.235000", "153248.695000", "153249.155000", "153249.615000", "153250.075000", "153250.535000", "153250.995000", "153251.455000", "153251.915000", "153252.375000", "153252.835000", "153253.295000", "153253.755000", "153254.215000", "153254.675000", "153255.135000", "153255.595000", "153256.055000", "153256.515000", "153256.975000", "153257.435000", "153257.895000", "153258.355000", "153258.815000", "153259.275000", "153259.735000", "153300.195000", "153300.655000", "153301.115000", "153301.575000", "153302.035000", "153302.495000", "153302.955000", "153303.415000", "153303.875000", "153304.335000", "153304.795000", "153305.255000", "153305.715000", "153306.175000", "153306.635000", "153307.095000", "153307.555000", "153308.015000", "153308.475000", "153308.935000", "153309.395000", "153309.855000", "153310.315000", "153310.775000", "153311.235000", "153311.695000", "153312.155000", "153312.615000", "153313.075000", "153313.535000", "153313.995000", "153314.455000", "153314.915000", "153315.375000", "153315.835000", "153316.295000", "153316.755000", "153317.215000", "153317.675000", "153318.135000", "153318.595000", "153319.055000", "153319.515000", "153319.975000", "153320.435000", "153320.895000", "153321.355000", "153321.815000", "153322.275000", "153322.735000", "153323.195000", "153323.655000", "153324.115000", "153324.575000", "153325.035000", "153325.495000", "153325.955000", "153326.415000", "153326.875000", "153327.335000", "153327.795000", "153328.255000", "153328.715000", "153329.175000", "153329.635000", "153330.095000", "153330.555000", "153331.015000", "153331.475000", "153331.935000", "153332.395000", "153332.855000", "153333.315000", "153333.775000", "153334.235000", "153334.695000", "153335.155000", "153335.615000", "153336.075000", "153336.535000", "153336.995000", "153337.455000", "153337.915000", "153338.375000", "153338.835000", "153339.295000", "153339.755000", "153340.215000", "153340.675000", "153341.135000", "153341.595000", "153342.055000", "153342.515000", "153342.975000", "153343.435000", "153343.895000", "153344.355000", "153344.815000", "153345.275000", "153345.735000", "153346.195000", "153346.655000", "153347.115000", "153347.575000", "153348.035000", "153348.495000", "153348.955000", "153349.415000", "153349.875000", "153350.335000", "153350.795000", "153351.255000", "153351.715000", "153352.175000", "153352.635000", "153353.095000", "153353.555000", "153354.015000", "153354.475000", "153354.935000", "153355.395000", "153355.855000", "153356.315000", "153356.775000", "153357.235000", "153357.695000", "153358.155000", "153358.615000", "153359.075000", "153359.535000", "153359.995000", "153400.455000", "153400.915000", "153401.375000", "153401.835000", "153402.295000", "153402.755000", "153403.215000", "153403.675000", "153404.135000", "153404.595000", "153405.055000", "153405.515000", "153405.975000", "153406.435000", "153406.895000", "153407.355000", "153407.815000", "153408.275000", "153408.735000", "153409.195000", "153409.655000", "153410.115000", "153410.575000", "153411.035000", "153411.495000", "153411.955000", "153412.415000", "153412.875000", "153413.335000", "153413.795000", "153414.255000", "153414.715000", "153415.175000", "153415.635000", "153416.095000", "153416.555000", "153417.015000", "153417.475000", "153417.935000", "153418.395000", "153418.855000", "153419.315000", "153419.775000", "153420.235000", "153420.695000", "153421.155000", "153421.615000", "153422.075000", "153422.535000", "153422.995000", "153423.455000", "153423.915000", "153424.375000", "153424.835000", "153425.295000", "153425.755000", "153426.215000", "153426.675000", "153427.135000", "153427.595000", "153428.055000", "153428.515000", "153428.975000", "153429.435000", "153429.895000", "153430.355000", "153430.815000", "153431.275000", "153431.735000", "153432.195000", "153432.655000", "153433.115000", "153433.575000", "153434.035000", "153434.495000", "153434.955000", "153435.415000", "153435.875000", "153436.335000", "153436.795000", "153437.255000", "153437.715000", "153438.175000", "153438.635000", "153439.095000", "153439.555000", "153440.015000", "153440.475000", "153440.935000", "153441.395000", "153441.855000", "153442.315000", "153442.775000", "153443.235000", "153443.695000"],
