{
  "AcquisitionMatrixPE": 82,
  "AcquisitionNumber": 1,
  "AcquisitionTime": "20:36:6.380000",
  "BandwidthPerPixelPhaseEncode": 24.888,
  "BaseResolution": 82,
  "BodyPartExamined": "BRAIN",
  "ConsistencyInfo": "N4_VE11E_LATEST_20181129",
  "ConversionSoftware": "dcm2niix",
  "ConversionSoftwareVersion": "v1.0.20201102",
  "DerivedVendorReportedEchoSpacing": 0.00049,
  "DeviceSerialNumber": "66112",
  "DwellTime": 2e-06,
  "EchoTime": 0.0272,
  "EchoTrainLength": 82,
  "EffectiveEchoSpacing": 0.00049,
  "FlipAngle": 44,
  "ImageComments": "Unaliased MB8/PE3",
  "ImageOrientationPatientDICOM": [0.999808, 0.0108634, -0.0163207, -0.00977223, 0.997804, 0.065514],
  "ImageType": [
    "ORIGINAL",
    "PRIMARY",
    "M",
    "MB",
    "ND",
    "NORM",
    "MOSAIC"
],
  "ImagingFrequency": 123.252,
  "InPlanePhaseEncodingDirectionDICOM": "COL",
  "InstitutionAddress": "Maynard 3,Hanover,NH,US,03755",
  "InstitutionName": "Dartmouth College - PBS",
  "InstitutionalDepartmentName": "Department",
  "MRAcquisitionType": "2D",
  "MagneticFieldStrength": 3,
  "Manufacturer": "Siemens",
  "ManufacturersModelName": "Prisma",
  "Modality": "MR",
  "MultibandAccelerationFactor": 8,
  "PartialFourier": 1,
  "PatientPosition": "HFS",
  "PercentPhaseFOV": 100,
  "PercentSampling": 100,
  "PhaseEncodingDirection": "j-",
  "PhaseEncodingSteps": 82,
  "PhaseResolution": 1,
  "PixelBandwidth": 3050,
  "ProcedureStepDescription": "Wager_Wager^1076_spacetop",
  "ProtocolName": "func_run-01_task-alignvideo_acq-ap-mb8",
  "PulseSequenceDetails": "%CustomerSeq%\\cmrr_mbep2d_bold",
  "ReceiveCoilActiveElements": "HEA;HEP",
  "ReceiveCoilName": "Head_32",
  "ReconMatrixPE": 82,
  "RepetitionTime": 0.46,
  "SAR": 0.0829396,
  "ScanOptions": "FS",
  "ScanningSequence": "EP",
  "SequenceName": "epfid2d1_82",
  "SequenceVariant": "SK\\SS",
  "SeriesDescription": "func_run-01_task-alignvideo_acq-ap-mb8",
  "SeriesNumber": 28,
  "ShimSetting": [4159, -7718, -7300, 652, -118, -47, 107, 50],
  "SliceThickness": 2.7,
  "SliceTiming": [0, 0.25, 0.0625, 0.315, 0.125, 0.3775, 0.1875, 0, 0.25, 0.0625, 0.315, 0.125, 0.3775, 0.1875, 0, 0.25, 0.0625, 0.315, 0.125, 0.3775, 0.1875, 0, 0.25, 0.0625, 0.315, 0.125, 0.3775, 0.1875, 0, 0.25, 0.0625, 0.315, 0.125, 0.3775, 0.1875, 0, 0.25, 0.0625, 0.315, 0.125, 0.3775, 0.1875, 0, 0.25, 0.0625, 0.315, 0.125, 0.3775, 0.1875, 0, 0.25, 0.0625, 0.315, 0.125, 0.3775, 0.1875],
  "SoftwareVersions": "syngo MR E11",
  "SpacingBetweenSlices": 2.7,
  "StationName": "AWP66112",
  "TaskName": "alignvideo",
  "TotalReadoutTime": 0.03969,
  "TxRefAmp": 244.582,
  "WipMemBlock": "63fa8e6d-a626-4cb4-8d37-74933499ae8f||Sequence: R016 ve11e/master r/434b28f1; Aug  7 2019 18:53:46 by eja",
  "dcmmeta_affine": [
    [-2.6824111938476562, -0.026218190789222717, -0.045890770852565765, 108.97985076904297],
    [-0.02914584055542946, 2.677034616470337, 0.1764230579137802, -102.56075286865234],
    [-0.04378729313611984, -0.1757691502571106, 2.6938390731811523, -71.30818176269531],
    [0.0, 0.0, 0.0, 1.0]
],
  "dcmmeta_reorient_transform": [
    [0.0, -1.0, 0.0, 81.0],
    [1.0, 0.0, 0.0, 0.0],
    [0.0, 0.0, 1.0, 0.0],
    [0.0, 0.0, 0.0, 1.0]
],
  "dcmmeta_shape": [82, 82, 56, 839],
  "dcmmeta_slice_dim": 2,
  "dcmmeta_version": 0.6,
  "global": {
    "const": {
      "AccessionNumber": "A004110",
      "AcquisitionMatrix": [82, 0, 0, 82],
      "AngioFlag": "N",
      "BitsAllocated": 16,
      "BitsStored": 16,
      "BodyPartExamined": "BRAIN",
      "Columns": 656,
      "EchoNumbers": 1,
      "EchoTime": 27.2,
      "EchoTrainLength": 82,
      "FlipAngle": 44.0,
      "HighBit": 15,
      "ImageOrientationPatient": [0.99980779134523, 0.01086344942417, -0.0163207178757, -0.0097722346697, 0.99780380096409, 0.06551395432406],
      "ImagePositionPatient": [-869.18357757782, -890.95285386527, -123.42427304465],
      "ImageType": [
        "ORIGINAL",
        "PRIMARY",
        "M",
        "MB",
        "ND",
        "NORM",
        "MOSAIC"
],
      "ImagedNucleus": "1H",
      "ImagingFrequency": 123.252223,
      "InPlanePhaseEncodingDirection": "COL",
      "MRAcquisitionType": "2D",
      "MagneticFieldStrength": 3.0,
      "Manufacturer": "SIEMENS",
      "ManufacturerModelName": "Prisma",
      "Modality": "MR",
      "NumberOfAverages": 1.0,
      "NumberOfPhaseEncodingSteps": 82,
      "PercentPhaseFieldOfView": 100.0,
      "PercentSampling": 100.0,
      "PerformedProcedureStepStartTime": "192544.535000",
      "PhotometricInterpretation": "MONOCHROME2",
      "PixelBandwidth": 3050.0,
      "PixelRepresentation": 0,
      "PixelSpacing": [2.6829268932343, 2.6829268932343],
      "ProtocolName": "func_run-01_task-alignvideo_acq-ap-mb8",
      "RepetitionTime": 460.0,
      "Rows": 656,
      "SAR": 0.08293960053782,
      "SamplesPerPixel": 1,
      "ScanOptions": "FS",
      "ScanningSequence": "EP",
      "SequenceName": "epfid2d1_82",
      "SequenceVariant": [
        "SK",
        "SS"
],
      "SeriesDescription": "func_run-01_task-alignvideo_acq-ap-mb8",
      "SeriesNumber": 28,
      "SeriesTime": "203625.441000",
      "SliceLocation": -79.699262817681,
      "SliceThickness": 2.7000000476837,
      "SmallestImagePixelValue": 0,
      "SoftwareVersions": "syngo MR E11",
      "SpacingBetweenSlices": 2.6999999841554,
      "SpecificCharacterSet": "ISO_IR 100",
      "StudyID": "1",
      "StudyTime": "192544.476000",
      "TransmitCoilName": "Body",
      "VariableFlipAngleFlag": "N",
      "WindowCenterWidthExplanation": "Algo1"
    },
    "slices": {}
  },
  "time": {
    "samples": {
      "AcquisitionNumber": [1, 2, 3, 4, 5, 6, 7, 8, 9, 10, 11, 12, 13, 14, 15, 16, 17, 18, 19, 20, 21, 22, 23, 24, 25, 26, 27, 28, 29, 30, 31, 32, 33, 34, 35, 36, 37, 38, 39, 40, 41, 42, 43, 44, 45, 46, 47, 48, 49, 50, 51, 52, 53, 54, 55, 56, 57, 58, 59, 60, 61, 62, 63, 64, 65, 66, 67, 68, 69, 70, 71, 72, 73, 74, 75, 76, 77, 78, 79, 80, 81, 82, 83, 84, 85, 86, 87, 88, 89, 90, 91, 92, 93, 94, 95, 96, 97, 98, 99, 100, 101, 102, 103, 104, 105, 106, 107, 108, 109, 110, 111, 112, 113, 114, 115, 116, 117, 118, 119, 120, 121, 122, 123, 124, 125, 126, 127, 128, 129, 130, 131, 132, 133, 134, 135, 136, 137, 138, 139, 140, 141, 142, 143, 144, 145, 146, 147, 148, 149, 150, 151, 152, 153, 154, 155, 156, 157, 158, 159, 160, 161, 162, 163, 164, 165, 166, 167, 168, 169, 170, 171, 172, 173, 174, 175, 176, 177, 178, 179, 180, 181, 182, 183, 184, 185, 186, 187, 188, 189, 190, 191, 192, 193, 194, 195, 196, 197, 198, 199, 200, 201, 202, 203, 204, 205, 206, 207, 208, 209, 210, 211, 212, 213, 214, 215, 216, 217, 218, 219, 220, 221, 222, 223, 224, 225, 226, 227, 228, 229, 230, 231, 232, 233, 234, 235, 236, 237, 238, 239, 240, 241, 242, 243, 244, 245, 246, 247, 248, 249, 250, 251, 252, 253, 254, 255, 256, 257, 258, 259, 260, 261, 262, 263, 264, 265, 266, 267, 268, 269, 270, 271, 272, 273, 274, 275, 276, 277, 278, 279, 280, 281, 282, 283, 284, 285, 286, 287, 288, 289, 290, 291, 292, 293, 294, 295, 296, 297, 298, 299, 300, 301, 302, 303, 304, 305, 306, 307, 308, 309, 310, 311, 312, 313, 314, 315, 316, 317, 318, 319, 320, 321, 322, 323, 324, 325, 326, 327, 328, 329, 330, 331, 332, 333, 334, 335, 336, 337, 338, 339, 340, 341, 342, 343, 344, 345, 346, 347, 348, 349, 350, 351, 352, 353, 354, 355, 356, 357, 358, 359, 360, 361, 362, 363, 364, 365, 366, 367, 368, 369, 370, 371, 372, 373, 374, 375, 376, 377, 378, 379, 380, 381, 382, 383, 384, 385, 386, 387, 388, 389, 390, 391, 392, 393, 394, 395, 396, 397, 398, 399, 400, 401, 402, 403, 404, 405, 406, 407, 408, 409, 410, 411, 412, 413, 414, 415, 416, 417, 418, 419, 420, 421, 422, 423, 424, 425, 426, 427, 428, 429, 430, 431, 432, 433, 434, 435, 436, 437, 438, 439, 440, 441, 442, 443, 444, 445, 446, 447, 448, 449, 450, 451, 452, 453, 454, 455, 456, 457, 458, 459, 460, 461, 462, 463, 464, 465, 466, 467, 468, 469, 470, 471, 472, 473, 474, 475, 476, 477, 478, 479, 480, 481, 482, 483, 484, 485, 486, 487, 488, 489, 490, 491, 492, 493, 494, 495, 496, 497, 498, 499, 500, 501, 502, 503, 504, 505, 506, 507, 508, 509, 510, 511, 512, 513, 514, 515, 516, 517, 518, 519, 520, 521, 522, 523, 524, 525, 526, 527, 528, 529, 530, 531, 532, 533, 534, 535, 536, 537, 538, 539, 540, 541, 542, 543, 544, 545, 546, 547, 548, 549, 550, 551, 552, 553, 554, 555, 556, 557, 558, 559, 560, 561, 562, 563, 564, 565, 566, 567, 568, 569, 570, 571, 572, 573, 574, 575, 576, 577, 578, 579, 580, 581, 582, 583, 584, 585, 586, 587, 588, 589, 590, 591, 592, 593, 594, 595, 596, 597, 598, 599, 600, 601, 602, 603, 604, 605, 606, 607, 608, 609, 610, 611, 612, 613, 614, 615, 616, 617, 618, 619, 620, 621, 622, 623, 624, 625, 626, 627, 628, 629, 630, 631, 632, 633, 634, 635, 636, 637, 638, 639, 640, 641, 642, 643, 644, 645, 646, 647, 648, 649, 650, 651, 652, 653, 654, 655, 656, 657, 658, 659, 660, 661, 662, 663, 664, 665, 666, 667, 668, 669, 670, 671, 672, 673, 674, 675, 676, 677, 678, 679, 680, 681, 682, 683, 684, 685, 686, 687, 688, 689, 690, 691, 692, 693, 694, 695, 696, 697, 698, 699, 700, 701, 702, 703, 704, 705, 706, 707, 708, 709, 710, 711, 712, 713, 714, 715, 716, 717, 718, 719, 720, 721, 722, 723, 724, 725, 726, 727, 728, 729, 730, 731, 732, 733, 734, 735, 736, 737, 738, 739, 740, 741, 742, 743, 744, 745, 746, 747, 748, 749, 750, 751, 752, 753, 754, 755, 756, 757, 758, 759, 760, 761, 762, 763, 764, 765, 766, 767, 768, 769, 770, 771, 772, 773, 774, 775, 776, 777, 778, 779, 780, 781, 782, 783, 784, 785, 786, 787, 788, 789, 790, 791, 792, 793, 794, 795, 796, 797, 798, 799, 800, 801, 802, 803, 804, 805, 806, 807, 808, 809, 810, 811, 812, 813, 814, 815, 816, 817, 818, 819, 820, 821, 822, 823, 824, 825, 826, 827, 828, 829, 830, 831, 832, 833, 834, 835, 836, 837, 838, 839],
      "AcquisitionTime": ["203606.380000", "203606.840000", "203607.300000", "203607.760000", "203608.220000", "203608.680000", "203609.140000", "203609.600000", "203610.060000", "203610.520000", "203610.980000", "203611.440000", "203611.900000", "203612.360000", "203612.820000", "203613.280000", "203613.740000", "203614.200000", "203614.660000", "203615.120000", "203615.580000", "203616.040000", "203616.500000", "203616.960000", "203617.420000", "203617.880000", "203618.340000", "203618.800000", "203619.260000", "203619.720000", "203620.180000", "203620.640000", "203621.100000", "203621.560000", "203622.020000", "203622.480000", "203622.940000", "203623.400000", "203623.860000", "203624.320000", "203624.780000", "203625.240000", "203625.700000", "203626.160000", "203626.620000", "203627.080000", "203627.540000", "203628.000000", "203628.460000", "203628.920000", "203629.380000", "203629.840000", "203630.300000", "203630.760000", "203631.220000", "203631.680000", "203632.140000", "203632.600000", "203633.060000", "203633.520000", "203633.980000", "203634.440000", "203634.900000", "203635.360000", "203635.820000", "203636.280000", "203636.740000", "203637.200000", "203637.660000", "203638.120000", "203638.580000", "203639.040000", "203639.500000", "203639.960000", "203640.420000", "203640.880000", "203641.340000", "203641.800000", "203642.260000", "203642.720000", "203643.180000", "203643.640000", "203644.100000", "203644.560000", "203645.020000", "203645.480000", "203645.940000", "203646.400000", "203646.860000", "203647.320000", "203647.780000", "203648.240000", "203648.700000", "203649.160000", "203649.620000", "203650.080000", "203650.540000", "203651.000000", "203651.460000", "203651.920000", "203652.380000", "203652.840000", "203653.300000", "203653.760000", "203654.220000", "203654.680000", "203655.140000", "203655.600000", "203656.060000", "203656.520000", "203656.980000", "203657.440000", "203657.900000", "203658.360000", "203658.820000", "203659.280000", "203659.740000", "203700.200000", "203700.660000", "203701.120000", "203701.580000", "203702.040000", "203702.500000", "203702.960000", "203703.420000", "203703.880000", "203704.340000", "203704.800000", "203705.260000", "203705.720000", "203706.180000", "203706.640000", "203707.100000", "203707.560000", "203708.020000", "203708.480000", "203708.940000", "203709.400000", "203709.860000", "203710.320000", "203710.780000", "203711.240000", "203711.700000", "203712.160000", "203712.620000", "203713.080000", "203713.540000", "203714.000000", "203714.460000", "203714.920000", "203715.380000", "203715.840000", "203716.300000", "203716.760000", "203717.220000", "203717.680000", "203718.140000", "203718.600000", "203719.060000", "203719.520000", "203719.980000", "203720.440000", "203720.900000", "203721.360000", "203721.820000", "203722.280000", "203722.740000", "203723.200000", "203723.660000", "203724.120000", "203724.580000", "203725.040000", "203725.500000", "203725.960000", "203726.420000", "203726.880000", "203727.340000", "203727.800000", "203728.260000", "203728.720000", "203729.180000", "203729.640000", "203730.100000", "203730.560000", "203731.020000", "203731.480000", "203731.940000", "203732.400000", "203732.860000", "203733.320000", "203733.780000", "203734.240000", "203734.700000", "203735.160000", "203735.620000", "203736.080000", "203736.540000", "203737.000000", "203737.460000", "203737.920000", "203738.380000", "203738.840000", "203739.300000", "203739.760000", "203740.220000", "203740.680000", "203741.140000", "203741.600000", "203742.060000", "203742.520000", "203742.980000", "203743.440000", "203743.900000", "203744.360000", "203744.820000", "203745.280000", "203745.740000", "203746.200000", "203746.660000", "203747.120000", "203747.580000", "203748.040000", "203748.500000", "203748.960000", "203749.420000", "203749.880000", "203750.340000", "203750.800000", "203751.260000", "203751.720000", "203752.180000", "203752.640000", "203753.100000", "203753.560000", "203754.020000", "203754.480000", "203754.940000", "203755.400000", "203755.860000", "203756.320000", "203756.780000", "203757.240000", "203757.700000", "203758.160000", "203758.620000", "203759.080000", "203759.540000", "203800.000000", "203800.460000", "203800.920000", "203801.380000", "203801.840000", "203802.300000", "203802.760000", "203803.220000", "203803.680000", "203804.140000", "203804.600000", "203805.060000", "203805.520000", "203805.980000", "203806.440000", "203806.900000", "203807.360000", "203807.820000", "203808.280000", "203808.740000", "203809.200000", "203809.660000", "203810.120000", "203810.580000", "203811.040000", "203811.500000", "203811.960000", "203812.420000", "203812.880000", "203813.340000", "203813.800000", "203814.260000", "203814.720000", "203815.180000", "203815.640000", "203816.100000", "203816.560000", "203817.020000", "203817.480000", "203817.940000", "203818.400000", "203818.860000", "203819.320000", "203819.780000", "203820.240000", "203820.700000", "203821.160000", "203821.620000", "203822.080000", "203822.540000", "203823.000000", "203823.460000", "203823.920000", "203824.380000", "203824.840000", "203825.300000", "203825.760000", "203826.220000", "203826.680000", "203827.140000", "203827.600000", "203828.060000", "203828.520000", "203828.980000", "203829.440000", "203829.900000", "203830.360000", "203830.820000", "203831.280000", "203831.740000", "203832.200000", "203832.660000", "203833.120000", "203833.580000", "203834.040000", "203834.500000", "203834.960000", "203835.420000", "203835.880000", "203836.340000", "203836.800000", "203837.260000", "203837.720000", "203838.180000", "203838.640000", "203839.100000", "203839.560000", "203840.020000", "203840.480000", "203840.940000", "203841.400000", "203841.860000", "203842.320000", "203842.780000", "203843.240000", "203843.700000", "203844.160000", "203844.620000", "203845.080000", "203845.540000", "203846.000000", "203846.460000", "203846.920000", "203847.380000", "203847.840000", "203848.300000", "203848.760000", "203849.220000", "203849.680000", "203850.140000", "203850.600000", "203851.060000", "203851.520000", "203851.980000", "203852.440000", "203852.900000", "203853.360000", "203853.820000", "203854.280000", "203854.740000", "203855.200000", "203855.660000", "203856.120000", "203856.580000", "203857.040000", "203857.500000", "203857.960000", "203858.420000", "203858.880000", "203859.340000", "203859.800000", "203900.260000", "203900.720000", "203901.180000", "203901.640000", "203902.100000", "203902.560000", "203903.020000", "203903.480000", "203903.940000", "203904.400000", "203904.860000", "203905.320000", "203905.780000", "203906.240000", "203906.700000", "203907.160000", "203907.620000", "203908.080000", "203908.540000", "203909.000000", "203909.460000", "203909.920000", "203910.380000", "203910.840000", "203911.300000", "203911.760000", "203912.220000", "203912.680000", "203913.140000", "203913.600000", "203914.060000", "203914.520000", "203914.980000", "203915.440000", "203915.900000", "203916.360000", "203916.820000", "203917.280000", "203917.740000", "203918.200000", "203918.660000", "203919.120000", "203919.580000", "203920.040000", "203920.500000", "203920.960000", "203921.420000", "203921.880000", "203922.340000", "203922.800000", "203923.260000", "203923.720000", "203924.180000", "203924.640000", "203925.100000", "203925.560000", "203926.020000", "203926.480000", "203926.940000", "203927.400000", "203927.860000", "203928.320000", "203928.780000", "203929.240000", "203929.700000", "203930.160000", "203930.620000", "203931.080000", "203931.540000", "203932.000000", "203932.460000", "203932.920000", "203933.380000", "203933.840000", "203934.300000", "203934.760000", "203935.220000", "203935.680000", "203936.140000", "203936.600000", "203937.060000", "203937.520000", "203937.980000", "203938.440000", "203938.900000", "203939.360000", "203939.820000", "203940.280000", "203940.740000", "203941.200000", "203941.660000", "203942.120000", "203942.580000", "203943.040000", "203943.500000", "203943.960000", "203944.420000", "203944.880000", "203945.340000", "203945.800000", "203946.260000", "203946.720000", "203947.180000", "203947.640000", "203948.100000", "203948.560000", "203949.020000", "203949.480000", "203949.940000", "203950.400000", "203950.860000", "203951.320000", "203951.780000", "203952.240000", "203952.700000", "203953.160000", "203953.620000", "203954.080000", "203954.540000", "203955.000000", "203955.460000", "203955.920000", "203956.380000", "203956.840000", "203957.300000", "203957.760000", "203958.220000", "203958.680000", "203959.140000", "203959.600000", "204000.060000", "204000.520000", "204000.980000", "204001.440000", "204001.900000", "204002.360000", "204002.820000", "204003.280000", "204003.740000", "204004.200000", "204004.660000", "204005.120000", "204005.580000", "204006.040000", "204006.500000", "204006.960000", "204007.420000", "204007.880000", "204008.340000", "204008.800000", "204009.260000", "204009.720000", "204010.180000", "204010.640000", "204011.100000", "204011.560000", "204012.020000", "204012.480000", "204012.940000", "204013.400000", "204013.860000", "204014.320000", "204014.780000", "204015.240000", "204015.700000", "204016.160000", "204016.620000", "204017.080000", "204017.540000", "204018.000000", "204018.460000", "204018.920000", "204019.380000", "204019.840000", "204020.300000", "204020.760000", "204021.220000", "204021.680000", "204022.140000", "204022.600000", "204023.060000", "204023.520000", "204023.980000", "204024.440000", "204024.900000", "204025.360000", "204025.820000", "204026.280000", "204026.740000", "204027.200000", "204027.660000", "204028.120000", "204028.580000", "204029.040000", "204029.500000", "204029.960000", "204030.420000", "204030.880000", "204031.340000", "204031.800000", "204032.260000", "204032.720000", "204033.180000", "204033.640000", "204034.100000", "204034.560000", "204035.020000", "204035.480000", "204035.940000", "204036.400000", "204036.860000", "204037.320000", "204037.780000", "204038.240000", "204038.700000", "204039.160000", "204039.620000", "204040.080000", "204040.540000", "204041.000000", "204041.460000", "204041.920000", "204042.380000", "204042.840000", "204043.300000", "204043.760000", "204044.220000", "204044.680000", "204045.140000", "204045.600000", "204046.060000", "204046.520000", "204046.980000", "204047.440000", "204047.900000", "204048.360000", "204048.820000", "204049.280000", "204049.740000", "204050.200000", "204050.660000", "204051.120000", "204051.580000", "204052.040000", "204052.500000", "204052.960000", "204053.420000", "204053.880000", "204054.340000", "204054.800000", "204055.260000", "204055.720000", "204056.180000", "204056.640000", "204057.100000", "204057.560000", "204058.020000", "204058.480000", "204058.940000", "204059.400000", "204059.860000", "204100.320000", "204100.780000", "204101.240000", "204101.700000", "204102.160000", "204102.620000", "204103.080000", "204103.540000", "204104.000000", "204104.460000", "204104.920000", "204105.380000", "204105.840000", "204106.300000", "204106.760000", "204107.220000", "204107.680000", "204108.140000", "204108.600000", "204109.060000", "204109.520000", "204109.980000", "204110.440000", "204110.900000", "204111.360000", "204111.820000", "204112.280000", "204112.740000", "204113.200000", "204113.660000", "204114.120000", "204114.580000", "204115.040000", "204115.500000", "204115.960000", "204116.420000", "204116.880000", "204117.340000", "204117.800000", "204118.260000", "204118.720000", "204119.180000", "204119.640000", "204120.100000", "204120.560000", "204121.020000", "204121.480000", "204121.940000", "204122.400000", "204122.860000", "204123.320000", "204123.780000", "204124.240000", "204124.700000", "204125.160000", "204125.620000", "204126.080000", "204126.540000", "204127.000000", "204127.460000", "204127.920000", "204128.380000", "204128.840000", "204129.300000", "204129.760000", "204130.220000", "204130.680000", "204131.140000", "204131.600000", "204132.060000", "204132.520000", "204132.980000", "204133.440000", "204133.900000", "204134.360000", "204134.820000", "204135.280000", "204135.740000", "204136.200000", "204136.660000", "204137.120000", "204137.580000", "204138.040000", "204138.500000", "204138.960000", "204139.420000", "204139.880000", "204140.340000", "204140.800000", "204141.260000", "204141.720000", "204142.180000", "204142.640000", "204143.100000", "204143.560000", "204144.020000", "204144.480000", "204144.940000", "204145.400000", "204145.860000", "204146.320000", "204146.780000", "204147.240000", "204147.700000", "204148.160000", "204148.620000", "204149.080000", "204149.540000", "204150.000000", "204150.460000", "204150.920000", "204151.380000", "204151.840000", "204152.300000", "204152.760000", "204153.220000", "204153.680000", "204154.140000", "204154.600000", "204155.060000", "204155.520000", "204155.980000", "204156.440000", "204156.900000", "204157.360000", "204157.820000", "204158.280000", "204158.740000", "204159.200000", "204159.660000", "204200.120000", "204200.580000", "204201.040000", "204201.500000", "204201.960000", "204202.420000", "204202.880000", "204203.340000", "204203.800000", "204204.260000", "204204.720000", "204205.180000", "204205.640000", "204206.100000", "204206.560000", "204207.020000", "204207.480000", "204207.940000", "204208.400000", "204208.860000", "204209.320000", "204209.780000", "204210.240000", "204210.700000", "204211.160000", "204211.620000", "204212.080000", "204212.540000", "204213.000000", "204213.460000", "204213.920000", "204214.380000", "204214.840000", "204215.300000", "204215.760000", "204216.220000", "204216.680000", "204217.140000", "204217.600000", "204218.060000", "204218.520000", "204218.980000", "204219.440000", "204219.900000", "204220.360000", "204220.820000", "204221.280000", "204221.740000", "204222.200000", "204222.660000", "204223.120000", "204223.580000", "204224.040000", "204224.500000", "204224.960000", "204225.420000", "204225.880000", "204226.340000", "204226.800000", "204227.260000", "204227.720000", "204228.180000", "204228.640000", "204229.100000", "204229.560000", "204230.020000", "204230.480000", "204230.940000", "204231.400000", "204231.860000"],
