{
  "AcquisitionMatrixPE": 82,
  "AcquisitionNumber": 1,
  "AcquisitionTime": "19:39:29.467500",
  "BandwidthPerPixelPhaseEncode": 24.888,
  "BaseResolution": 82,
  "BodyPartExamined": "BRAIN",
  "ConsistencyInfo": "N4_VE11E_LATEST_20181129",
  "ConversionSoftware": "dcm2niix",
  "ConversionSoftwareVersion": "v1.0.20201102",
  "DerivedVendorReportedEchoSpacing": 0.00049,
  "DeviceSerialNumber": "66112",
  "DwellTime": 2e-06,
  "EchoTime": 0.0272,
  "EchoTrainLength": 82,
  "EffectiveEchoSpacing": 0.00049,
  "FlipAngle": 44,
  "ImageComments": "Unaliased MB8/PE3",
  "ImageOrientationPatientDICOM": [0.999708, 0.00899003, 0.0224424, -0.0111673, 0.995039, 0.0988594],
  "ImageType": [
    "ORIGINAL",
    "PRIMARY",
    "M",
    "MB",
    "ND",
    "NORM",
    "MOSAIC"
],
  "ImagingFrequency": 123.252,
  "InPlanePhaseEncodingDirectionDICOM": "COL",
  "InstitutionAddress": "Maynard 3,Hanover,NH,US,03755",
  "InstitutionName": "Dartmouth College - PBS",
  "InstitutionalDepartmentName": "Department",
  "MRAcquisitionType": "2D",
  "MagneticFieldStrength": 3,
  "Manufacturer": "Siemens",
  "ManufacturersModelName": "Prisma",
  "Modality": "MR",
  "MultibandAccelerationFactor": 8,
  "PartialFourier": 1,
  "PatientPosition": "HFS",
  "PercentPhaseFOV": 100,
  "PercentSampling": 100,
  "PhaseEncodingDirection": "j-",
  "PhaseEncodingSteps": 82,
  "PhaseResolution": 1,
  "PixelBandwidth": 3050,
  "ProcedureStepDescription": "Wager_Wager^1076_spacetop",
  "ProtocolName": "func_run-02_task-narratives_acq-ap-mb8",
  "PulseSequenceDetails": "%CustomerSeq%\\cmrr_mbep2d_bold",
  "ReceiveCoilActiveElements": "HEA;HEP",
  "ReceiveCoilName": "Head_32",
  "ReconMatrixPE": 82,
  "RepetitionTime": 0.46,
  "SAR": 0.0830662,
  "ScanOptions": "FS",
  "ScanningSequence": "EP",
  "SequenceName": "epfid2d1_82",
  "SequenceVariant": "SK\\SS",
  "SeriesDescription": "func_run-02_task-narratives_acq-ap-mb8",
  "SeriesNumber": 10,
  "ShimSetting": [4158, -7718, -7302, 635, -114, -59, 112, 51],
  "SliceThickness": 2.7,
  "SliceTiming": [0, 0.2525, 0.0625, 0.315, 0.125, 0.3775, 0.19, 0, 0.2525, 0.0625, 0.315, 0.125, 0.3775, 0.19, 0, 0.2525, 0.0625, 0.315, 0.125, 0.3775, 0.19, 0, 0.2525, 0.0625, 0.315, 0.125, 0.3775, 0.19, 0, 0.2525, 0.0625, 0.315, 0.125, 0.3775, 0.19, 0, 0.2525, 0.0625, 0.315, 0.125, 0.3775, 0.19, 0, 0.2525, 0.0625, 0.315, 0.125, 0.3775, 0.19, 0, 0.2525, 0.0625, 0.315, 0.125, 0.3775, 0.19],
  "SoftwareVersions": "syngo MR E11",
  "SpacingBetweenSlices": 2.7,
  "StationName": "AWP66112",
  "TaskName": "narratives",
  "TotalReadoutTime": 0.03969,
  "TxRefAmp": 244.582,
  "WipMemBlock": "d43dce25-97d5-4f1a-8c17-314c83b50975||Sequence: R016 ve11e/master r/434b28f1; Aug  7 2019 18:53:46 by eja",
  "dcmmeta_affine": [
    [-2.682142734527588, -0.02996112033724785, 0.057894159108400345, 108.66580963134766],
    [-0.024119580164551735, 2.669616222381592, 0.2675189673900604, -98.52059936523438],
    [0.060211241245269775, -0.26523247361183167, 2.6860904693603516, -73.8144302368164],
    [0.0, 0.0, 0.0, 1.0]
],
  "dcmmeta_reorient_transform": [
    [0.0, -1.0, 0.0, 81.0],
    [1.0, 0.0, 0.0, 0.0],
    [0.0, 0.0, 1.0, 0.0],
    [0.0, 0.0, 0.0, 1.0]
],
  "dcmmeta_shape": [82, 82, 56, 1098],
  "dcmmeta_slice_dim": 2,
  "dcmmeta_version": 0.6,
  "global": {
    "const": {
      "AccessionNumber": "A004110",
      "AcquisitionMatrix": [82, 0, 0, 82],
      "AngioFlag": "N",
      "BitsAllocated": 16,
      "BitsStored": 16,
      "BodyPartExamined": "BRAIN",
      "Columns": 656,
      "EchoNumbers": 1,
      "EchoTime": 27.2,
      "EchoTrainLength": 82,
      "FlipAngle": 44.0,
      "HighBit": 15,
      "ImageOrientationPatient": [0.99970771700839, 0.00899002517842, 0.02244237066708, -0.0111673260913, 0.99503875079633, 0.09885937103607],
      "ImagePositionPatient": [-867.41507527406, -890.82049183803, -188.70060573939],
      "ImageType": [
        "ORIGINAL",
        "PRIMARY",
        "M",
        "MB",
        "ND",
        "NORM",
        "MOSAIC"
],
      "ImagedNucleus": "1H",
      "ImagingFrequency": 123.252207,
      "InPlanePhaseEncodingDirection": "COL",
      "MRAcquisitionType": "2D",
      "MagneticFieldStrength": 3.0,
      "Manufacturer": "SIEMENS",
      "ManufacturerModelName": "Prisma",
      "Modality": "MR",
      "NumberOfAverages": 1.0,
      "NumberOfPhaseEncodingSteps": 82,
      "PercentPhaseFieldOfView": 100.0,
      "PercentSampling": 100.0,
      "PerformedProcedureStepStartTime": "192544.535000",
      "PhotometricInterpretation": "MONOCHROME2",
      "PixelBandwidth": 3050.0,
      "PixelRepresentation": 0,
      "PixelSpacing": [2.6829268932343, 2.6829268932343],
      "ProtocolName": "func_run-02_task-narratives_acq-ap-mb8",
      "RepetitionTime": 460.0,
      "Rows": 656,
      "SAR": 0.08306617346772,
      "SamplesPerPixel": 1,
      "ScanOptions": "FS",
      "ScanningSequence": "EP",
      "SequenceName": "epfid2d1_82",
      "SequenceVariant": [
        "SK",
        "SS"
],
      "SeriesDescription": "func_run-02_task-narratives_acq-ap-mb8",
      "SeriesNumber": 10,
      "SeriesTime": "193945.458000",
      "SliceLocation": -80.865650135049,
      "SliceThickness": 2.7000000476837,
      "SmallestImagePixelValue": 0,
      "SoftwareVersions": "syngo MR E11",
      "SpacingBetweenSlices": 2.7000000610941,
      "SpecificCharacterSet": "ISO_IR 100",
      "StudyID": "1",
      "StudyTime": "192544.476000",
      "TransmitCoilName": "Body",
      "VariableFlipAngleFlag": "N",
      "WindowCenterWidthExplanation": "Algo1"
    },
    "slices": {}
  },
  "time": {
    "samples": {
      "AcquisitionNumber": [1, 2, 3, 4, 5, 6, 7, 8, 9, 10, 11, 12, 13, 14, 15, 16, 17, 18, 19, 20, 21, 22, 23, 24, 25, 26, 27, 28, 29, 30, 31, 32, 33, 34, 35, 36, 37, 38, 39, 40, 41, 42, 43, 44, 45, 46, 47, 48, 49, 50, 51, 52, 53, 54, 55, 56, 57, 58, 59, 60, 61, 62, 63, 64, 65, 66, 67, 68, 69, 70, 71, 72, 73, 74, 75, 76, 77, 78, 79, 80, 81, 82, 83, 84, 85, 86, 87, 88, 89, 90, 91, 92, 93, 94, 95, 96, 97, 98, 99, 100, 101, 102, 103, 104, 105, 106, 107, 108, 109, 110, 111, 112, 113, 114, 115, 116, 117, 118, 119, 120, 121, 122, 123, 124, 125, 126, 127, 128, 129, 130, 131, 132, 133, 134, 135, 136, 137, 138, 139, 140, 141, 142, 143, 144, 145, 146, 147, 148, 149, 150, 151, 152, 153, 154, 155, 156, 157, 158, 159, 160, 161, 162, 163, 164, 165, 166, 167, 168, 169, 170, 171, 172, 173, 174, 175, 176, 177, 178, 179, 180, 181, 182, 183, 184, 185, 186, 187, 188, 189, 190, 191, 192, 193, 194, 195, 196, 197, 198, 199, 200, 201, 202, 203, 204, 205, 206, 207, 208, 209, 210, 211, 212, 213, 214, 215, 216, 217, 218, 219, 220, 221, 222, 223, 224, 225, 226, 227, 228, 229, 230, 231, 232, 233, 234, 235, 236, 237, 238, 239, 240, 241, 242, 243, 244, 245, 246, 247, 248, 249, 250, 251, 252, 253, 254, 255, 256, 257, 258, 259, 260, 261, 262, 263, 264, 265, 266, 267, 268, 269, 270, 271, 272, 273, 274, 275, 276, 277, 278, 279, 280, 281, 282, 283, 284, 285, 286, 287, 288, 289, 290, 291, 292, 293, 294, 295, 296, 297, 298, 299, 300, 301, 302, 303, 304, 305, 306, 307, 308, 309, 310, 311, 312, 313, 314, 315, 316, 317, 318, 319, 320, 321, 322, 323, 324, 325, 326, 327, 328, 329, 330, 331, 332, 333, 334, 335, 336, 337, 338, 339, 340, 341, 342, 343, 344, 345, 346, 347, 348, 349, 350, 351, 352, 353, 354, 355, 356, 357, 358, 359, 360, 361, 362, 363, 364, 365, 366, 367, 368, 369, 370, 371, 372, 373, 374, 375, 376, 377, 378, 379, 380, 381, 382, 383, 384, 385, 386, 387, 388, 389, 390, 391, 392, 393, 394, 395, 396, 397, 398, 399, 400, 401, 402, 403, 404, 405, 406, 407, 408, 409, 410, 411, 412, 413, 414, 415, 416, 417, 418, 419, 420, 421, 422, 423, 424, 425, 426, 427, 428, 429, 430, 431, 432, 433, 434, 435, 436, 437, 438, 439, 440, 441, 442, 443, 444, 445, 446, 447, 448, 449, 450, 451, 452, 453, 454, 455, 456, 457, 458, 459, 460, 461, 462, 463, 464, 465, 466, 467, 468, 469, 470, 471, 472, 473, 474, 475, 476, 477, 478, 479, 480, 481, 482, 483, 484, 485, 486, 487, 488, 489, 490, 491, 492, 493, 494, 495, 496, 497, 498, 499, 500, 501, 502, 503, 504, 505, 506, 507, 508, 509, 510, 511, 512, 513, 514, 515, 516, 517, 518, 519, 520, 521, 522, 523, 524, 525, 526, 527, 528, 529, 530, 531, 532, 533, 534, 535, 536, 537, 538, 539, 540, 541, 542, 543, 544, 545, 546, 547, 548, 549, 550, 551, 552, 553, 554, 555, 556, 557, 558, 559, 560, 561, 562, 563, 564, 565, 566, 567, 568, 569, 570, 571, 572, 573, 574, 575, 576, 577, 578, 579, 580, 581, 582, 583, 584, 585, 586, 587, 588, 589, 590, 591, 592, 593, 594, 595, 596, 597, 598, 599, 600, 601, 602, 603, 604, 605, 606, 607, 608, 609, 610, 611, 612, 613, 614, 615, 616, 617, 618, 619, 620, 621, 622, 623, 624, 625, 626, 627, 628, 629, 630, 631, 632, 633, 634, 635, 636, 637, 638, 639, 640, 641, 642, 643, 644, 645, 646, 647, 648, 649, 650, 651, 652, 653, 654, 655, 656, 657, 658, 659, 660, 661, 662, 663, 664, 665, 666, 667, 668, 669, 670, 671, 672, 673, 674, 675, 676, 677, 678, 679, 680, 681, 682, 683, 684, 685, 686, 687, 688, 689, 690, 691, 692, 693, 694, 695, 696, 697, 698, 699, 700, 701, 702, 703, 704, 705, 706, 707, 708, 709, 710, 711, 712, 713, 714, 715, 716, 717, 718, 719, 720, 721, 722, 723, 724, 725, 726, 727, 728, 729, 730, 731, 732, 733, 734, 735, 736, 737, 738, 739, 740, 741, 742, 743, 744, 745, 746, 747, 748, 749, 750, 751, 752, 753, 754, 755, 756, 757, 758, 759, 760, 761, 762, 763, 764, 765, 766, 767, 768, 769, 770, 771, 772, 773, 774, 775, 776, 777, 778, 779, 780, 781, 782, 783, 784, 785, 786, 787, 788, 789, 790, 791, 792, 793, 794, 795, 796, 797, 798, 799, 800, 801, 802, 803, 804, 805, 806, 807, 808, 809, 810, 811, 812, 813, 814, 815, 816, 817, 818, 819, 820, 821, 822, 823, 824, 825, 826, 827, 828, 829, 830, 831, 832, 833, 834, 835, 836, 837, 838, 839, 840, 841, 842, 843, 844, 845, 846, 847, 848, 849, 850, 851, 852, 853, 854, 855, 856, 857, 858, 859, 860, 861, 862, 863, 864, 865, 866, 867, 868, 869, 870, 871, 872, 873, 874, 875, 876, 877, 878, 879, 880, 881, 882, 883, 884, 885, 886, 887, 888, 889, 890, 891, 892, 893, 894, 895, 896, 897, 898, 899, 900, 901, 902, 903, 904, 905, 906, 907, 908, 909, 910, 911, 912, 913, 914, 915, 916, 917, 918, 919, 920, 921, 922, 923, 924, 925, 926, 927, 928, 929, 930, 931, 932, 933, 934, 935, 936, 937, 938, 939, 940, 941, 942, 943, 944, 945, 946, 947, 948, 949, 950, 951, 952, 953, 954, 955, 956, 957, 958, 959, 960, 961, 962, 963, 964, 965, 966, 967, 968, 969, 970, 971, 972, 973, 974, 975, 976, 977, 978, 979, 980, 981, 982, 983, 984, 985, 986, 987, 988, 989, 990, 991, 992, 993, 994, 995, 996, 997, 998, 999, 1000, 1001, 1002, 1003, 1004, 1005, 1006, 1007, 1008, 1009, 1010, 1011, 1012, 1013, 1014, 1015, 1016, 1017, 1018, 1019, 1020, 1021, 1022, 1023, 1024, 1025, 1026, 1027, 1028, 1029, 1030, 1031, 1032, 1033, 1034, 1035, 1036, 1037, 1038, 1039, 1040, 1041, 1042, 1043, 1044, 1045, 1046, 1047, 1048, 1049, 1050, 1051, 1052, 1053, 1054, 1055, 1056, 1057, 1058, 1059, 1060, 1061, 1062, 1063, 1064, 1065, 1066, 1067, 1068, 1069, 1070, 1071, 1072, 1073, 1074, 1075, 1076, 1077, 1078, 1079, 1080, 1081, 1082, 1083, 1084, 1085, 1086, 1087, 1088, 1089, 1090, 1091, 1092, 1093, 1094, 1095, 1096, 1097, 1098],
      "AcquisitionTime": ["193929.467500", "193929.927500", "193930.387500", "193930.847500", "193931.307500", "193931.767500", "193932.227500", "193932.687500", "193933.147500", "193933.607500", "193934.067500", "193934.527500", "193934.987500", "193935.447500", "193935.907500", "193936.367500", "193936.827500", "193937.287500", "193937.747500", "193938.207500", "193938.667500", "193939.127500", "193939.587500", "193940.047500", "193940.507500", "193940.967500", "193941.427500", "193941.887500", "193942.347500", "193942.807500", "193943.267500", "193943.727500", "193944.187500", "193944.647500", "193945.107500", "193945.567500", "193946.027500", "193946.487500", "193946.947500", "193947.407500", "193947.867500", "193948.327500", "193948.787500", "193949.247500", "193949.707500", "193950.167500", "193950.627500", "193951.087500", "193951.547500", "193952.007500", "193952.467500", "193952.927500", "193953.387500", "193953.847500", "193954.307500", "193954.767500", "193955.227500", "193955.687500", "193956.147500", "193956.607500", "193957.067500", "193957.527500", "193957.987500", "193958.447500", "193958.907500", "193959.367500", "193959.827500", "194000.287500", "194000.747500", "194001.207500", "194001.667500", "194002.127500", "194002.587500", "194003.047500", "194003.507500", "194003.967500", "194004.427500", "194004.887500", "194005.347500", "194005.807500", "194006.267500", "194006.727500", "194007.187500", "194007.647500", "194008.107500", "194008.567500", "194009.027500", "194009.487500", "194009.947500", "194010.407500", "194010.867500", "194011.327500", "194011.787500", "194012.247500", "194012.707500", "194013.167500", "194013.627500", "194014.087500", "194014.547500", "194015.007500", "194015.467500", "194015.927500", "194016.387500", "194016.847500", "194017.307500", "194017.767500", "194018.227500", "194018.687500", "194019.147500", "194019.607500", "194020.067500", "194020.527500", "194020.987500", "194021.447500", "194021.907500", "194022.367500", "194022.827500", "194023.287500", "194023.747500", "194024.207500", "194024.667500", "194025.127500", "194025.587500", "194026.047500", "194026.507500", "194026.967500", "194027.427500", "194027.887500", "194028.347500", "194028.807500", "194029.267500", "194029.727500", "194030.187500", "194030.647500", "194031.107500", "194031.567500", "194032.027500", "194032.487500", "194032.947500", "194033.407500", "194033.867500", "194034.327500", "194034.787500", "194035.247500", "194035.707500", "194036.167500", "194036.627500", "194037.087500", "194037.547500", "194038.007500", "194038.467500", "194038.927500", "194039.387500", "194039.847500", "194040.307500", "194040.767500", "194041.227500", "194041.687500", "194042.147500", "194042.607500", "194043.067500", "194043.527500", "194043.987500", "194044.447500", "194044.907500", "194045.367500", "194045.827500", "194046.287500", "194046.747500", "194047.207500", "194047.667500", "194048.127500", "194048.587500", "194049.047500", "194049.507500", "194049.967500", "194050.427500", "194050.887500", "194051.347500", "194051.807500", "194052.267500", "194052.727500", "194053.187500", "194053.647500", "194054.107500", "194054.567500", "194055.027500", "194055.487500", "194055.947500", "194056.407500", "194056.867500", "194057.327500", "194057.787500", "194058.247500", "194058.707500", "194059.167500", "194059.627500", "194100.087500", "194100.547500", "194101.007500", "194101.467500", "194101.927500", "194102.387500", "194102.847500", "194103.307500", "194103.767500", "194104.227500", "194104.687500", "194105.147500", "194105.607500", "194106.067500", "194106.527500", "194106.987500", "194107.447500", "194107.907500", "194108.367500", "194108.827500", "194109.287500", "194109.747500", "194110.207500", "194110.667500", "194111.127500", "194111.587500", "194112.047500", "194112.507500", "194112.967500", "194113.427500", "194113.887500", "194114.347500", "194114.807500", "194115.267500", "194115.727500", "194116.187500", "194116.647500", "194117.107500", "194117.567500", "194118.027500", "194118.487500", "194118.947500", "194119.407500", "194119.867500", "194120.327500", "194120.787500", "194121.247500", "194121.707500", "194122.167500", "194122.627500", "194123.087500", "194123.547500", "194124.007500", "194124.467500", "194124.927500", "194125.387500", "194125.847500", "194126.307500", "194126.767500", "194127.227500", "194127.687500", "194128.147500", "194128.607500", "194129.067500", "194129.527500", "194129.987500", "194130.447500", "194130.907500", "194131.367500", "194131.827500", "194132.287500", "194132.747500", "194133.207500", "194133.667500", "194134.127500", "194134.587500", "194135.047500", "194135.507500", "194135.967500", "194136.427500", "194136.887500", "194137.347500", "194137.807500", "194138.267500", "194138.727500", "194139.187500", "194139.647500", "194140.107500", "194140.567500", "194141.027500", "194141.487500", "194141.947500", "194142.407500", "194142.867500", "194143.327500", "194143.787500", "194144.247500", "194144.707500", "194145.167500", "194145.627500", "194146.087500", "194146.547500", "194147.007500", "194147.467500", "194147.927500", "194148.387500", "194148.847500", "194149.307500", "194149.767500", "194150.227500", "194150.687500", "194151.147500", "194151.607500", "194152.067500", "194152.527500", "194152.987500", "194153.447500", "194153.907500", "194154.367500", "194154.827500", "194155.287500", "194155.747500", "194156.207500", "194156.667500", "194157.127500", "194157.587500", "194158.047500", "194158.507500", "194158.967500", "194159.427500", "194159.887500", "194200.347500", "194200.807500", "194201.267500", "194201.727500", "194202.187500", "194202.647500", "194203.107500", "194203.567500", "194204.027500", "194204.487500", "194204.947500", "194205.407500", "194205.867500", "194206.327500", "194206.787500", "194207.247500", "194207.707500", "194208.167500", "194208.627500", "194209.087500", "194209.547500", "194210.007500", "194210.467500", "194210.927500", "194211.387500", "194211.847500", "194212.307500", "194212.767500", "194213.227500", "194213.687500", "194214.147500", "194214.607500", "194215.067500", "194215.527500", "194215.987500", "194216.447500", "194216.907500", "194217.367500", "194217.827500", "194218.287500", "194218.747500", "194219.207500", "194219.667500", "194220.127500", "194220.587500", "194221.047500", "194221.507500", "194221.967500", "194222.427500", "194222.887500", "194223.347500", "194223.807500", "194224.267500", "194224.727500", "194225.187500", "194225.647500", "194226.107500", "194226.567500", "194227.027500", "194227.487500", "194227.947500", "194228.407500", "194228.867500", "194229.327500", "194229.787500", "194230.247500", "194230.707500", "194231.167500", "194231.627500", "194232.087500", "194232.547500", "194233.007500", "194233.467500", "194233.927500", "194234.387500", "194234.847500", "194235.307500", "194235.767500", "194236.227500", "194236.687500", "194237.147500", "194237.607500", "194238.067500", "194238.527500", "194238.987500", "194239.447500", "194239.907500", "194240.367500", "194240.827500", "194241.287500", "194241.747500", "194242.207500", "194242.667500", "194243.127500", "194243.587500", "194244.047500", "194244.507500", "194244.967500", "194245.427500", "194245.887500", "194246.347500", "194246.807500", "194247.267500", "194247.727500", "194248.187500", "194248.647500", "194249.107500", "194249.567500", "194250.027500", "194250.487500", "194250.947500", "194251.407500", "194251.867500", "194252.327500", "194252.787500", "194253.247500", "194253.707500", "194254.167500", "194254.627500", "194255.087500", "194255.547500", "194256.007500", "194256.467500", "194256.927500", "194257.387500", "194257.847500", "194258.307500", "194258.767500", "194259.227500", "194259.687500", "194300.147500", "194300.607500", "194301.067500", "194301.527500", "194301.987500", "194302.447500", "194302.907500", "194303.367500", "194303.827500", "194304.287500", "194304.747500", "194305.207500", "194305.667500", "194306.127500", "194306.587500", "194307.047500", "194307.507500", "194307.967500", "194308.427500", "194308.887500", "194309.347500", "194309.807500", "194310.267500", "194310.727500", "194311.187500", "194311.647500", "194312.107500", "194312.567500", "194313.027500", "194313.487500", "194313.947500", "194314.407500", "194314.867500", "194315.327500", "194315.787500", "194316.247500", "194316.707500", "194317.167500", "194317.627500", "194318.087500", "194318.547500", "194319.007500", "194319.467500", "194319.927500", "194320.387500", "194320.847500", "194321.307500", "194321.767500", "194322.227500", "194322.687500", "194323.147500", "194323.607500", "194324.067500", "194324.527500", "194324.987500", "194325.447500", "194325.907500", "194326.367500", "194326.827500", "194327.287500", "194327.747500", "194328.207500", "194328.667500", "194329.127500", "194329.587500", "194330.047500", "194330.507500", "194330.967500", "194331.427500", "194331.887500", "194332.347500", "194332.807500", "194333.267500", "194333.727500", "194334.187500", "194334.647500", "194335.107500", "194335.567500", "194336.027500", "194336.487500", "194336.947500", "194337.407500", "194337.867500", "194338.327500", "194338.787500", "194339.247500", "194339.707500", "194340.167500", "194340.627500", "194341.087500", "194341.547500", "194342.007500", "194342.467500", "194342.927500", "194343.387500", "194343.847500", "194344.307500", "194344.767500", "194345.227500", "194345.687500", "194346.147500", "194346.607500", "194347.067500", "194347.527500", "194347.987500", "194348.447500", "194348.907500", "194349.367500", "194349.827500", "194350.287500", "194350.747500", "194351.207500", "194351.667500", "194352.127500", "194352.587500", "194353.047500", "194353.507500", "194353.967500", "194354.427500", "194354.887500", "194355.347500", "194355.807500", "194356.267500", "194356.727500", "194357.187500", "194357.647500", "194358.107500", "194358.567500", "194359.027500", "194359.487500", "194359.947500", "194400.407500", "194400.867500", "194401.327500", "194401.787500", "194402.247500", "194402.707500", "194403.167500", "194403.627500", "194404.087500", "194404.547500", "194405.007500", "194405.467500", "194405.927500", "194406.387500", "194406.847500", "194407.307500", "194407.767500", "194408.227500", "194408.687500", "194409.147500", "194409.607500", "194410.067500", "194410.527500", "194410.987500", "194411.447500", "194411.907500", "194412.367500", "194412.827500", "194413.287500", "194413.747500", "194414.207500", "194414.667500", "194415.127500", "194415.587500", "194416.047500", "194416.507500", "194416.967500", "194417.427500", "194417.887500", "194418.347500", "194418.807500", "194419.267500", "194419.727500", "194420.187500", "194420.647500", "194421.107500", "194421.567500", "194422.027500", "194422.487500", "194422.947500", "194423.407500", "194423.867500", "194424.327500", "194424.787500", "194425.247500", "194425.707500", "194426.167500", "194426.627500", "194427.087500", "194427.547500", "194428.007500", "194428.467500", "194428.927500", "194429.387500", "194429.847500", "194430.307500", "194430.767500", "194431.227500", "194431.687500", "194432.147500", "194432.607500", "194433.067500", "194433.527500", "194433.987500", "194434.447500", "194434.907500", "194435.367500", "194435.827500", "194436.287500", "194436.747500", "194437.207500", "194437.667500", "194438.127500", "194438.587500", "194439.047500", "194439.507500", "194439.967500", "194440.427500", "194440.887500", "194441.347500", "194441.807500", "194442.267500", "194442.727500", "194443.187500", "194443.647500", "194444.107500", "194444.567500", "194445.027500", "194445.487500", "194445.947500", "194446.407500", "194446.867500", "194447.327500", "194447.787500", "194448.247500", "194448.707500", "194449.167500", "194449.627500", "194450.087500", "194450.547500", "194451.007500", "194451.467500", "194451.927500", "194452.387500", "194452.847500", "194453.307500", "194453.767500", "194454.227500", "194454.687500", "194455.147500", "194455.607500", "194456.067500", "194456.527500", "194456.987500", "194457.447500", "194457.907500", "194458.367500", "194458.827500", "194459.287500", "194459.747500", "194500.207500", "194500.667500", "194501.127500", "194501.587500", "194502.047500", "194502.507500", "194502.967500", "194503.427500", "194503.887500", "194504.347500", "194504.807500", "194505.267500", "194505.727500", "194506.187500", "194506.647500", "194507.107500", "194507.567500", "194508.027500", "194508.487500", "194508.947500", "194509.407500", "194509.867500", "194510.327500", "194510.787500", "194511.247500", "194511.707500", "194512.167500", "194512.627500", "194513.087500", "194513.547500", "194514.007500", "194514.467500", "194514.927500", "194515.387500", "194515.847500", "194516.307500", "194516.767500", "194517.227500", "194517.687500", "194518.147500", "194518.607500", "194519.067500", "194519.527500", "194519.987500", "194520.447500", "194520.907500", "194521.367500", "194521.827500", "194522.287500", "194522.747500", "194523.207500", "194523.667500", "194524.127500", "194524.587500", "194525.047500", "194525.507500", "194525.967500", "194526.427500", "194526.887500", "194527.347500", "194527.807500", "194528.267500", "194528.727500", "194529.187500", "194529.647500", "194530.107500", "194530.567500", "194531.027500", "194531.487500", "194531.947500", "194532.407500", "194532.867500", "194533.327500", "194533.787500", "194534.247500", "194534.707500", "194535.167500", "194535.627500", "194536.087500", "194536.547500", "194537.007500", "194537.467500", "194537.927500", "194538.387500", "194538.847500", "194539.307500", "194539.767500", "194540.227500", "194540.687500", "194541.147500", "194541.607500", "194542.067500", "194542.527500", "194542.987500", "194543.447500", "194543.907500", "194544.367500", "194544.827500", "194545.287500", "194545.747500", "194546.207500", "194546.667500", "194547.127500", "194547.587500", "194548.047500", "194548.507500", "194548.967500", "194549.427500", "194549.887500", "194550.347500", "194550.807500", "194551.267500", "194551.727500", "194552.187500", "194552.647500", "194553.107500", "194553.567500", "194554.027500", "194554.487500", "194554.947500", "194555.407500", "194555.867500", "194556.327500", "194556.787500", "194557.247500", "194557.707500", "194558.167500", "194558.627500", "194559.087500", "194559.547500", "194600.007500", "194600.467500", "194600.927500", "194601.387500", "194601.847500", "194602.307500", "194602.767500", "194603.227500", "194603.687500", "194604.147500", "194604.607500", "194605.067500", "194605.527500", "194605.987500", "194606.447500", "194606.907500", "194607.367500", "194607.827500", "194608.287500", "194608.747500", "194609.207500", "194609.667500", "194610.127500", "194610.587500", "194611.047500", "194611.507500", "194611.967500", "194612.427500", "194612.887500", "194613.347500", "194613.807500", "194614.267500", "194614.727500", "194615.187500", "194615.647500", "194616.107500", "194616.567500", "194617.027500", "194617.487500", "194617.947500", "194618.407500", "194618.867500", "194619.327500", "194619.787500", "194620.247500", "194620.707500", "194621.167500", "194621.627500", "194622.087500", "194622.547500", "194623.007500", "194623.467500", "194623.927500", "194624.387500", "194624.847500", "194625.307500", "194625.767500", "194626.227500", "194626.687500", "194627.147500", "194627.607500", "194628.067500", "194628.527500", "194628.987500", "194629.447500", "194629.907500", "194630.367500", "194630.827500", "194631.287500", "194631.747500", "194632.207500", "194632.667500", "194633.127500", "194633.587500", "194634.047500", "194634.507500", "194634.967500", "194635.427500", "194635.887500", "194636.347500", "194636.807500", "194637.267500", "194637.727500", "194638.187500", "194638.647500", "194639.107500", "194639.567500", "194640.027500", "194640.487500", "194640.947500", "194641.407500", "194641.867500", "194642.327500", "194642.787500", "194643.247500", "194643.707500", "194644.167500", "194644.627500", "194645.087500", "194645.547500", "194646.007500", "194646.467500", "194646.927500", "194647.387500", "194647.847500", "194648.307500", "194648.767500", "194649.227500", "194649.687500", "194650.147500", "194650.607500", "194651.067500", "194651.527500", "194651.987500", "194652.447500", "194652.907500", "194653.367500", "194653.827500", "194654.287500", "194654.747500", "194655.207500", "194655.667500", "194656.127500", "194656.587500", "194657.047500", "194657.507500", "194657.967500", "194658.427500", "194658.887500", "194659.347500", "194659.807500", "194700.267500", "194700.727500", "194701.187500", "194701.647500", "194702.107500", "194702.567500", "194703.027500", "194703.487500", "194703.947500", "194704.407500", "194704.867500", "194705.327500", "194705.787500", "194706.247500", "194706.707500", "194707.167500", "194707.627500", "194708.087500", "194708.547500", "194709.007500", "194709.467500", "194709.927500", "194710.387500", "194710.847500", "194711.307500", "194711.767500", "194712.227500", "194712.687500", "194713.147500", "194713.607500", "194714.067500", "194714.527500", "194714.987500", "194715.447500", "194715.907500", "194716.367500", "194716.827500", "194717.287500", "194717.747500", "194718.207500", "194718.667500", "194719.127500", "194719.587500", "194720.047500", "194720.507500", "194720.967500", "194721.427500", "194721.887500", "194722.347500", "194722.807500", "194723.267500", "194723.727500", "194724.187500", "194724.647500", "194725.107500", "194725.567500", "194726.027500", "194726.487500", "194726.947500", "194727.407500", "194727.867500", "194728.327500", "194728.787500", "194729.247500", "194729.707500", "194730.167500", "194730.627500", "194731.087500", "194731.547500", "194732.007500", "194732.467500", "194732.927500", "194733.387500", "194733.847500", "194734.307500", "194734.767500", "194735.227500", "194735.687500", "194736.147500", "194736.607500", "194737.067500", "194737.527500", "194737.987500", "194738.447500", "194738.907500", "194739.367500", "194739.827500", "194740.287500", "194740.747500", "194741.207500", "194741.667500", "194742.127500", "194742.587500", "194743.047500", "194743.507500", "194743.967500", "194744.427500", "194744.887500", "194745.347500", "194745.807500", "194746.267500", "194746.727500", "194747.187500", "194747.647500", "194748.107500", "194748.567500", "194749.027500", "194749.487500", "194749.947500", "194750.407500", "194750.867500", "194751.327500", "194751.787500", "194752.247500", "194752.707500", "194753.167500", "194753.627500", "194754.087500"],
