{
  "AcquisitionMatrixPE": 82,
  "AcquisitionNumber": 1,
  "AcquisitionTime": "20:15:55.795000",
  "BandwidthPerPixelPhaseEncode": 24.888,
  "BaseResolution": 82,
  "BodyPartExamined": "BRAIN",
  "ConsistencyInfo": "N4_VE11E_LATEST_20181129",
  "ConversionSoftware": "dcm2niix",
  "ConversionSoftwareVersion": "v1.0.20201102",
  "DerivedVendorReportedEchoSpacing": 0.00049,
  "DeviceSerialNumber": "66112",
  "DwellTime": 2e-06,
  "EchoTime": 0.0272,
  "EchoTrainLength": 82,
  "EffectiveEchoSpacing": 0.00049,
  "FlipAngle": 44,
  "ImageComments": "Unaliased MB8/PE3",
  "ImageOrientationPatientDICOM": [0.999708, 0.00899003, 0.0224424, -0.0111673, 0.995039, 0.0988594],
  "ImageType": [
    "ORIGINAL",
    "PRIMARY",
    "M",
    "MB",
    "ND",
    "NORM",
    "MOSAIC"
],
  "ImagingFrequency": 123.252,
  "InPlanePhaseEncodingDirectionDICOM": "COL",
  "InstitutionAddress": "Maynard 3,Hanover,NH,US,03755",
  "InstitutionName": "Dartmouth College - PBS",
  "InstitutionalDepartmentName": "Department",
  "MRAcquisitionType": "2D",
  "MagneticFieldStrength": 3,
  "Manufacturer": "Siemens",
  "ManufacturersModelName": "Prisma",
  "Modality": "MR",
  "MultibandAccelerationFactor": 8,
  "PartialFourier": 1,
  "PatientPosition": "HFS",
  "PercentPhaseFOV": 100,
  "PercentSampling": 100,
  "PhaseEncodingDirection": "j-",
  "PhaseEncodingSteps": 82,
  "PhaseResolution": 1,
  "PixelBandwidth": 3050,
  "ProcedureStepDescription": "Wager_Wager^1076_spacetop",
  "ProtocolName": "func_run-02_task-faces_acq-ap-mb8",
  "PulseSequenceDetails": "%CustomerSeq%\\cmrr_mbep2d_bold",
  "ReceiveCoilActiveElements": "HEA;HEP",
  "ReceiveCoilName": "Head_32",
  "ReconMatrixPE": 82,
  "RepetitionTime": 0.46,
  "SAR": 0.0829835,
  "ScanOptions": "FS",
  "ScanningSequence": "EP",
  "SequenceName": "epfid2d1_82",
  "SequenceVariant": "SK\\SS",
  "SeriesDescription": "func_run-02_task-faces_acq-ap-mb8",
  "SeriesNumber": 18,
  "ShimSetting": [4158, -7718, -7302, 635, -114, -59, 112, 51],
  "SliceThickness": 2.7,
  "SliceTiming": [0, 0.25, 0.0625, 0.315, 0.125, 0.3775, 0.1875, 0, 0.25, 0.0625, 0.315, 0.125, 0.3775, 0.1875, 0, 0.25, 0.0625, 0.315, 0.125, 0.3775, 0.1875, 0, 0.25, 0.0625, 0.315, 0.125, 0.3775, 0.1875, 0, 0.25, 0.0625, 0.315, 0.125, 0.3775, 0.1875, 0, 0.25, 0.0625, 0.315, 0.125, 0.3775, 0.1875, 0, 0.25, 0.0625, 0.315, 0.125, 0.3775, 0.1875, 0, 0.25, 0.0625, 0.315, 0.125, 0.3775, 0.1875],
  "SoftwareVersions": "syngo MR E11",
  "SpacingBetweenSlices": 2.7,
  "StationName": "AWP66112",
  "TaskName": "faces",
  "TotalReadoutTime": 0.03969,
  "TxRefAmp": 244.582,
  "WipMemBlock": "7ee9c559-f312-4655-86db-0d541f50f923||Sequence: R016 ve11e/master r/434b28f1; Aug  7 2019 18:53:46 by eja",
  "dcmmeta_affine": [
    [-2.682142734527588, -0.02996112033724785, 0.057894159108400345, 108.66580963134766],
    [-0.024119580164551735, 2.669616222381592, 0.2675189673900604, -98.52059936523438],
    [0.060211241245269775, -0.26523247361183167, 2.6860904693603516, -73.8144302368164],
    [0.0, 0.0, 0.0, 1.0]
],
  "dcmmeta_reorient_transform": [
    [0.0, -1.0, 0.0, 81.0],
    [1.0, 0.0, 0.0, 0.0],
    [0.0, 0.0, 1.0, 0.0],
    [0.0, 0.0, 0.0, 1.0]
],
  "dcmmeta_shape": [82, 82, 56, 914],
  "dcmmeta_slice_dim": 2,
  "dcmmeta_version": 0.6,
  "global": {
    "const": {
      "AccessionNumber": "A004110",
      "AcquisitionMatrix": [82, 0, 0, 82],
      "AngioFlag": "N",
      "BitsAllocated": 16,
      "BitsStored": 16,
      "BodyPartExamined": "BRAIN",
      "Columns": 656,
      "EchoNumbers": 1,
      "EchoTime": 27.2,
      "EchoTrainLength": 82,
      "FlipAngle": 44.0,
      "HighBit": 15,
      "ImageOrientationPatient": [0.99970771700839, 0.00899002517842, 0.02244237066708, -0.0111673260913, 0.99503875079633, 0.09885937103607],
      "ImagePositionPatient": [-867.41507527406, -890.82049183803, -188.70060573939],
      "ImageType": [
        "ORIGINAL",
        "PRIMARY",
        "M",
        "MB",
        "ND",
        "NORM",
        "MOSAIC"
],
      "ImagedNucleus": "1H",
      "ImagingFrequency": 123.252226,
      "InPlanePhaseEncodingDirection": "COL",
      "MRAcquisitionType": "2D",
      "MagneticFieldStrength": 3.0,
      "Manufacturer": "SIEMENS",
      "ManufacturerModelName": "Prisma",
      "Modality": "MR",
      "NumberOfAverages": 1.0,
      "NumberOfPhaseEncodingSteps": 82,
      "PercentPhaseFieldOfView": 100.0,
      "PercentSampling": 100.0,
      "PerformedProcedureStepStartTime": "192544.535000",
      "PhotometricInterpretation": "MONOCHROME2",
      "PixelBandwidth": 3050.0,
      "PixelRepresentation": 0,
      "PixelSpacing": [2.6829268932343, 2.6829268932343],
      "ProtocolName": "func_run-02_task-faces_acq-ap-mb8",
      "RepetitionTime": 460.0,
      "Rows": 656,
      "SAR": 0.08298351086166,
      "SamplesPerPixel": 1,
      "ScanOptions": "FS",
      "ScanningSequence": "EP",
      "SequenceName": "epfid2d1_82",
      "SequenceVariant": [
        "SK",
        "SS"
],
      "SeriesDescription": "func_run-02_task-faces_acq-ap-mb8",
      "SeriesNumber": 18,
      "SeriesTime": "201625.860000",
      "SliceLocation": -80.865650135049,
      "SliceThickness": 2.7000000476837,
      "SmallestImagePixelValue": 0,
      "SoftwareVersions": "syngo MR E11",
      "SpacingBetweenSlices": 2.7000000610941,
      "SpecificCharacterSet": "ISO_IR 100",
      "StudyID": "1",
      "StudyTime": "192544.476000",
      "TransmitCoilName": "Body",
      "VariableFlipAngleFlag": "N",
      "WindowCenterWidthExplanation": "Algo1"
    },
    "slices": {}
  },
  "time": {
    "samples": {
      "AcquisitionNumber": [1, 2, 3, 4, 5, 6, 7, 8, 9, 10, 11, 12, 13, 14, 15, 16, 17, 18, 19, 20, 21, 22, 23, 24, 25, 26, 27, 28, 29, 30, 31, 32, 33, 34, 35, 36, 37, 38, 39, 40, 41, 42, 43, 44, 45, 46, 47, 48, 49, 50, 51, 52, 53, 54, 55, 56, 57, 58, 59, 60, 61, 62, 63, 64, 65, 66, 67, 68, 69, 70, 71, 72, 73, 74, 75, 76, 77, 78, 79, 80, 81, 82, 83, 84, 85, 86, 87, 88, 89, 90, 91, 92, 93, 94, 95, 96, 97, 98, 99, 100, 101, 102, 103, 104, 105, 106, 107, 108, 109, 110, 111, 112, 113, 114, 115, 116, 117, 118, 119, 120, 121, 122, 123, 124, 125, 126, 127, 128, 129, 130, 131, 132, 133, 134, 135, 136, 137, 138, 139, 140, 141, 142, 143, 144, 145, 146, 147, 148, 149, 150, 151, 152, 153, 154, 155, 156, 157, 158, 159, 160, 161, 162, 163, 164, 165, 166, 167, 168, 169, 170, 171, 172, 173, 174, 175, 176, 177, 178, 179, 180, 181, 182, 183, 184, 185, 186, 187, 188, 189, 190, 191, 192, 193, 194, 195, 196, 197, 198, 199, 200, 201, 202, 203, 204, 205, 206, 207, 208, 209, 210, 211, 212, 213, 214, 215, 216, 217, 218, 219, 220, 221, 222, 223, 224, 225, 226, 227, 228, 229, 230, 231, 232, 233, 234, 235, 236, 237, 238, 239, 240, 241, 242, 243, 244, 245, 246, 247, 248, 249, 250, 251, 252, 253, 254, 255, 256, 257, 258, 259, 260, 261, 262, 263, 264, 265, 266, 267, 268, 269, 270, 271, 272, 273, 274, 275, 276, 277, 278, 279, 280, 281, 282, 283, 284, 285, 286, 287, 288, 289, 290, 291, 292, 293, 294, 295, 296, 297, 298, 299, 300, 301, 302, 303, 304, 305, 306, 307, 308, 309, 310, 311, 312, 313, 314, 315, 316, 317, 318, 319, 320, 321, 322, 323, 324, 325, 326, 327, 328, 329, 330, 331, 332, 333, 334, 335, 336, 337, 338, 339, 340, 341, 342, 343, 344, 345, 346, 347, 348, 349, 350, 351, 352, 353, 354, 355, 356, 357, 358, 359, 360, 361, 362, 363, 364, 365, 366, 367, 368, 369, 370, 371, 372, 373, 374, 375, 376, 377, 378, 379, 380, 381, 382, 383, 384, 385, 386, 387, 388, 389, 390, 391, 392, 393, 394, 395, 396, 397, 398, 399, 400, 401, 402, 403, 404, 405, 406, 407, 408, 409, 410, 411, 412, 413, 414, 415, 416, 417, 418, 419, 420, 421, 422, 423, 424, 425, 426, 427, 428, 429, 430, 431, 432, 433, 434, 435, 436, 437, 438, 439, 440, 441, 442, 443, 444, 445, 446, 447, 448, 449, 450, 451, 452, 453, 454, 455, 456, 457, 458, 459, 460, 461, 462, 463, 464, 465, 466, 467, 468, 469, 470, 471, 472, 473, 474, 475, 476, 477, 478, 479, 480, 481, 482, 483, 484, 485, 486, 487, 488, 489, 490, 491, 492, 493, 494, 495, 496, 497, 498, 499, 500, 501, 502, 503, 504, 505, 506, 507, 508, 509, 510, 511, 512, 513, 514, 515, 516, 517, 518, 519, 520, 521, 522, 523, 524, 525, 526, 527, 528, 529, 530, 531, 532, 533, 534, 535, 536, 537, 538, 539, 540, 541, 542, 543, 544, 545, 546, 547, 548, 549, 550, 551, 552, 553, 554, 555, 556, 557, 558, 559, 560, 561, 562, 563, 564, 565, 566, 567, 568, 569, 570, 571, 572, 573, 574, 575, 576, 577, 578, 579, 580, 581, 582, 583, 584, 585, 586, 587, 588, 589, 590, 591, 592, 593, 594, 595, 596, 597, 598, 599, 600, 601, 602, 603, 604, 605, 606, 607, 608, 609, 610, 611, 612, 613, 614, 615, 616, 617, 618, 619, 620, 621, 622, 623, 624, 625, 626, 627, 628, 629, 630, 631, 632, 633, 634, 635, 636, 637, 638, 639, 640, 641, 642, 643, 644, 645, 646, 647, 648, 649, 650, 651, 652, 653, 654, 655, 656, 657, 658, 659, 660, 661, 662, 663, 664, 665, 666, 667, 668, 669, 670, 671, 672, 673, 674, 675, 676, 677, 678, 679, 680, 681, 682, 683, 684, 685, 686, 687, 688, 689, 690, 691, 692, 693, 694, 695, 696, 697, 698, 699, 700, 701, 702, 703, 704, 705, 706, 707, 708, 709, 710, 711, 712, 713, 714, 715, 716, 717, 718, 719, 720, 721, 722, 723, 724, 725, 726, 727, 728, 729, 730, 731, 732, 733, 734, 735, 736, 737, 738, 739, 740, 741, 742, 743, 744, 745, 746, 747, 748, 749, 750, 751, 752, 753, 754, 755, 756, 757, 758, 759, 760, 761, 762, 763, 764, 765, 766, 767, 768, 769, 770, 771, 772, 773, 774, 775, 776, 777, 778, 779, 780, 781, 782, 783, 784, 785, 786, 787, 788, 789, 790, 791, 792, 793, 794, 795, 796, 797, 798, 799, 800, 801, 802, 803, 804, 805, 806, 807, 808, 809, 810, 811, 812, 813, 814, 815, 816, 817, 818, 819, 820, 821, 822, 823, 824, 825, 826, 827, 828, 829, 830, 831, 832, 833, 834, 835, 836, 837, 838, 839, 840, 841, 842, 843, 844, 845, 846, 847, 848, 849, 850, 851, 852, 853, 854, 855, 856, 857, 858, 859, 860, 861, 862, 863, 864, 865, 866, 867, 868, 869, 870, 871, 872, 873, 874, 875, 876, 877, 878, 879, 880, 881, 882, 883, 884, 885, 886, 887, 888, 889, 890, 891, 892, 893, 894, 895, 896, 897, 898, 899, 900, 901, 902, 903, 904, 905, 906, 907, 908, 909, 910, 911, 912, 913, 914],
      "AcquisitionTime": ["201555.795000", "201556.255000", "201556.715000", "201557.175000", "201557.635000", "201558.095000", "201558.555000", "201559.015000", "201559.475000", "201559.935000", "201600.395000", "201600.855000", "201601.315000", "201601.775000", "201602.235000", "201602.695000", "201603.155000", "201603.615000", "201604.075000", "201604.535000", "201604.995000", "201605.455000", "201605.915000", "201606.375000", "201606.835000", "201607.295000", "201607.755000", "201608.215000", "201608.675000", "201609.135000", "201609.595000", "201610.055000", "201610.515000", "201610.975000", "201611.435000", "201611.895000", "201612.355000", "201612.815000", "201613.275000", "201613.735000", "201614.195000", "201614.655000", "201615.115000", "201615.575000", "201616.035000", "201616.495000", "201616.955000", "201617.415000", "201617.875000", "201618.335000", "201618.795000", "201619.255000", "201619.715000", "201620.175000", "201620.635000", "201621.095000", "201621.555000", "201622.015000", "201622.475000", "201622.935000", "201623.395000", "201623.855000", "201624.315000", "201624.775000", "201625.235000", "201625.695000", "201626.155000", "201626.615000", "201627.075000", "201627.535000", "201627.995000", "201628.455000", "201628.915000", "201629.375000", "201629.835000", "201630.295000", "201630.755000", "201631.215000", "201631.675000", "201632.135000", "201632.595000", "201633.055000", "201633.515000", "201633.975000", "201634.435000", "201634.895000", "201635.355000", "201635.815000", "201636.275000", "201636.735000", "201637.195000", "201637.655000", "201638.115000", "201638.575000", "201639.035000", "201639.495000", "201639.955000", "201640.415000", "201640.875000", "201641.335000", "201641.795000", "201642.255000", "201642.715000", "201643.175000", "201643.635000", "201644.095000", "201644.555000", "201645.015000", "201645.475000", "201645.935000", "201646.395000", "201646.855000", "201647.315000", "201647.775000", "201648.235000", "201648.695000", "201649.155000", "201649.615000", "201650.075000", "201650.535000", "201650.995000", "201651.455000", "201651.915000", "201652.375000", "201652.835000", "201653.295000", "201653.755000", "201654.215000", "201654.675000", "201655.135000", "201655.595000", "201656.055000", "201656.515000", "201656.975000", "201657.435000", "201657.895000", "201658.355000", "201658.815000", "201659.275000", "201659.735000", "201700.195000", "201700.655000", "201701.115000", "201701.575000", "201702.035000", "201702.495000", "201702.955000", "201703.415000", "201703.875000", "201704.335000", "201704.795000", "201705.255000", "201705.715000", "201706.175000", "201706.635000", "201707.095000", "201707.555000", "201708.015000", "201708.475000", "201708.935000", "201709.395000", "201709.855000", "201710.315000", "201710.775000", "201711.235000", "201711.695000", "201712.155000", "201712.615000", "201713.075000", "201713.535000", "201713.995000", "201714.455000", "201714.915000", "201715.375000", "201715.835000", "201716.295000", "201716.755000", "201717.215000", "201717.675000", "201718.135000", "201718.595000", "201719.055000", "201719.515000", "201719.975000", "201720.435000", "201720.895000", "201721.355000", "201721.815000", "201722.275000", "201722.735000", "201723.195000", "201723.655000", "201724.115000", "201724.575000", "201725.035000", "201725.495000", "201725.955000", "201726.415000", "201726.875000", "201727.335000", "201727.795000", "201728.255000", "201728.715000", "201729.175000", "201729.635000", "201730.095000", "201730.555000", "201731.015000", "201731.475000", "201731.935000", "201732.395000", "201732.855000", "201733.315000", "201733.775000", "201734.235000", "201734.695000", "201735.155000", "201735.615000", "201736.075000", "201736.535000", "201736.995000", "201737.455000", "201737.915000", "201738.375000", "201738.835000", "201739.295000", "201739.755000", "201740.215000", "201740.675000", "201741.135000", "201741.595000", "201742.055000", "201742.515000", "201742.975000", "201743.435000", "201743.895000", "201744.355000", "201744.815000", "201745.275000", "201745.735000", "201746.195000", "201746.655000", "201747.115000", "201747.575000", "201748.035000", "201748.495000", "201748.955000", "201749.415000", "201749.875000", "201750.335000", "201750.795000", "201751.255000", "201751.715000", "201752.175000", "201752.635000", "201753.095000", "201753.555000", "201754.015000", "201754.475000", "201754.935000", "201755.395000", "201755.855000", "201756.315000", "201756.775000", "201757.235000", "201757.695000", "201758.155000", "201758.615000", "201759.075000", "201759.535000", "201759.995000", "201800.455000", "201800.915000", "201801.375000", "201801.835000", "201802.295000", "201802.755000", "201803.215000", "201803.675000", "201804.135000", "201804.595000", "201805.055000", "201805.515000", "201805.975000", "201806.435000", "201806.895000", "201807.355000", "201807.815000", "201808.275000", "201808.735000", "201809.195000", "201809.655000", "201810.115000", "201810.575000", "201811.035000", "201811.495000", "201811.955000", "201812.415000", "201812.875000", "201813.335000", "201813.795000", "201814.255000", "201814.715000", "201815.175000", "201815.635000", "201816.095000", "201816.555000", "201817.015000", "201817.475000", "201817.935000", "201818.395000", "201818.855000", "201819.315000", "201819.775000", "201820.235000", "201820.695000", "201821.155000", "201821.615000", "201822.075000", "201822.535000", "201822.995000", "201823.455000", "201823.915000", "201824.375000", "201824.835000", "201825.295000", "201825.755000", "201826.215000", "201826.675000", "201827.135000", "201827.595000", "201828.055000", "201828.515000", "201828.975000", "201829.435000", "201829.895000", "201830.355000", "201830.815000", "201831.275000", "201831.735000", "201832.195000", "201832.655000", "201833.115000", "201833.575000", "201834.035000", "201834.495000", "201834.955000", "201835.415000", "201835.875000", "201836.335000", "201836.795000", "201837.255000", "201837.715000", "201838.175000", "201838.635000", "201839.095000", "201839.555000", "201840.015000", "201840.475000", "201840.935000", "201841.395000", "201841.855000", "201842.315000", "201842.775000", "201843.235000", "201843.695000", "201844.155000", "201844.615000", "201845.075000", "201845.535000", "201845.995000", "201846.455000", "201846.915000", "201847.375000", "201847.835000", "201848.295000", "201848.755000", "201849.215000", "201849.675000", "201850.135000", "201850.595000", "201851.055000", "201851.515000", "201851.975000", "201852.435000", "201852.895000", "201853.355000", "201853.815000", "201854.275000", "201854.735000", "201855.195000", "201855.655000", "201856.115000", "201856.575000", "201857.035000", "201857.495000", "201857.955000", "201858.415000", "201858.875000", "201859.335000", "201859.795000", "201900.255000", "201900.715000", "201901.175000", "201901.635000", "201902.095000", "201902.555000", "201903.015000", "201903.475000", "201903.935000", "201904.395000", "201904.855000", "201905.315000", "201905.775000", "201906.235000", "201906.695000", "201907.155000", "201907.615000", "201908.075000", "201908.535000", "201908.995000", "201909.455000", "201909.915000", "201910.375000", "201910.835000", "201911.295000", "201911.755000", "201912.215000", "201912.675000", "201913.135000", "201913.595000", "201914.055000", "201914.515000", "201914.975000", "201915.435000", "201915.895000", "201916.355000", "201916.815000", "201917.275000", "201917.735000", "201918.195000", "201918.655000", "201919.115000", "201919.575000", "201920.035000", "201920.495000", "201920.955000", "201921.415000", "201921.875000", "201922.335000", "201922.795000", "201923.255000", "201923.715000", "201924.175000", "201924.635000", "201925.095000", "201925.555000", "201926.015000", "201926.475000", "201926.935000", "201927.395000", "201927.855000", "201928.315000", "201928.775000", "201929.235000", "201929.695000", "201930.155000", "201930.615000", "201931.075000", "201931.535000", "201931.995000", "201932.455000", "201932.915000", "201933.375000", "201933.835000", "201934.295000", "201934.755000", "201935.215000", "201935.675000", "201936.135000", "201936.595000", "201937.055000", "201937.515000", "201937.975000", "201938.435000", "201938.895000", "201939.355000", "201939.815000", "201940.275000", "201940.735000", "201941.195000", "201941.655000", "201942.115000", "201942.575000", "201943.035000", "201943.495000", "201943.955000", "201944.415000", "201944.875000", "201945.335000", "201945.795000", "201946.255000", "201946.715000", "201947.175000", "201947.635000", "201948.095000", "201948.555000", "201949.015000", "201949.475000", "201949.935000", "201950.395000", "201950.855000", "201951.315000", "201951.775000", "201952.235000", "201952.695000", "201953.155000", "201953.615000", "201954.075000", "201954.535000", "201954.995000", "201955.455000", "201955.915000", "201956.375000", "201956.835000", "201957.295000", "201957.755000", "201958.215000", "201958.675000", "201959.135000", "201959.595000", "202000.055000", "202000.515000", "202000.975000", "202001.435000", "202001.895000", "202002.355000", "202002.815000", "202003.275000", "202003.735000", "202004.195000", "202004.655000", "202005.115000", "202005.575000", "202006.035000", "202006.495000", "202006.955000", "202007.415000", "202007.875000", "202008.335000", "202008.795000", "202009.255000", "202009.715000", "202010.175000", "202010.635000", "202011.095000", "202011.555000", "202012.015000", "202012.475000", "202012.935000", "202013.395000", "202013.855000", "202014.315000", "202014.775000", "202015.235000", "202015.695000", "202016.155000", "202016.615000", "202017.075000", "202017.535000", "202017.995000", "202018.455000", "202018.915000", "202019.375000", "202019.835000", "202020.295000", "202020.755000", "202021.215000", "202021.675000", "202022.135000", "202022.595000", "202023.055000", "202023.515000", "202023.975000", "202024.435000", "202024.895000", "202025.355000", "202025.815000", "202026.275000", "202026.735000", "202027.195000", "202027.655000", "202028.115000", "202028.575000", "202029.035000", "202029.495000", "202029.955000", "202030.415000", "202030.875000", "202031.335000", "202031.795000", "202032.255000", "202032.715000", "202033.175000", "202033.635000", "202034.095000", "202034.555000", "202035.015000", "202035.475000", "202035.935000", "202036.395000", "202036.855000", "202037.315000", "202037.775000", "202038.235000", "202038.695000", "202039.155000", "202039.615000", "202040.075000", "202040.535000", "202040.995000", "202041.455000", "202041.915000", "202042.375000", "202042.835000", "202043.295000", "202043.755000", "202044.215000", "202044.675000", "202045.135000", "202045.595000", "202046.055000", "202046.515000", "202046.975000", "202047.435000", "202047.895000", "202048.355000", "202048.815000", "202049.275000", "202049.735000", "202050.195000", "202050.655000", "202051.115000", "202051.575000", "202052.035000", "202052.495000", "202052.955000", "202053.415000", "202053.875000", "202054.335000", "202054.795000", "202055.255000", "202055.715000", "202056.175000", "202056.635000", "202057.095000", "202057.555000", "202058.015000", "202058.475000", "202058.935000", "202059.395000", "202059.855000", "202100.315000", "202100.775000", "202101.235000", "202101.695000", "202102.155000", "202102.615000", "202103.075000", "202103.535000", "202103.995000", "202104.455000", "202104.915000", "202105.375000", "202105.835000", "202106.295000", "202106.755000", "202107.215000", "202107.675000", "202108.135000", "202108.595000", "202109.055000", "202109.515000", "202109.975000", "202110.435000", "202110.895000", "202111.355000", "202111.815000", "202112.275000", "202112.735000", "202113.195000", "202113.655000", "202114.115000", "202114.575000", "202115.035000", "202115.495000", "202115.955000", "202116.415000", "202116.875000", "202117.335000", "202117.795000", "202118.255000", "202118.715000", "202119.175000", "202119.635000", "202120.095000", "202120.555000", "202121.015000", "202121.475000", "202121.935000", "202122.395000", "202122.855000", "202123.315000", "202123.775000", "202124.235000", "202124.695000", "202125.155000", "202125.615000", "202126.075000", "202126.535000", "202126.995000", "202127.455000", "202127.915000", "202128.375000", "202128.835000", "202129.295000", "202129.755000", "202130.215000", "202130.675000", "202131.135000", "202131.595000", "202132.055000", "202132.515000", "202132.975000", "202133.435000", "202133.895000", "202134.355000", "202134.815000", "202135.275000", "202135.735000", "202136.195000", "202136.655000", "202137.115000", "202137.575000", "202138.035000", "202138.495000", "202138.955000", "202139.415000", "202139.875000", "202140.335000", "202140.795000", "202141.255000", "202141.715000", "202142.175000", "202142.635000", "202143.095000", "202143.555000", "202144.015000", "202144.475000", "202144.935000", "202145.395000", "202145.855000", "202146.315000", "202146.775000", "202147.235000", "202147.695000", "202148.155000", "202148.615000", "202149.075000", "202149.535000", "202149.995000", "202150.455000", "202150.915000", "202151.375000", "202151.835000", "202152.295000", "202152.755000", "202153.215000", "202153.675000", "202154.135000", "202154.595000", "202155.055000", "202155.515000", "202155.975000", "202156.435000", "202156.895000", "202157.355000", "202157.815000", "202158.275000", "202158.735000", "202159.195000", "202159.655000", "202200.115000", "202200.575000", "202201.035000", "202201.495000", "202201.955000", "202202.415000", "202202.875000", "202203.335000", "202203.795000", "202204.255000", "202204.715000", "202205.175000", "202205.635000", "202206.095000", "202206.555000", "202207.015000", "202207.475000", "202207.935000", "202208.395000", "202208.855000", "202209.315000", "202209.775000", "202210.235000", "202210.695000", "202211.155000", "202211.615000", "202212.075000", "202212.535000", "202212.995000", "202213.455000", "202213.915000", "202214.375000", "202214.835000", "202215.295000", "202215.755000", "202216.215000", "202216.675000", "202217.135000", "202217.595000", "202218.055000", "202218.515000", "202218.975000", "202219.435000", "202219.895000", "202220.355000", "202220.815000", "202221.275000", "202221.735000", "202222.195000", "202222.655000", "202223.115000", "202223.575000", "202224.035000", "202224.495000", "202224.955000", "202225.415000", "202225.875000", "202226.335000", "202226.795000", "202227.255000", "202227.715000", "202228.175000", "202228.635000", "202229.095000", "202229.555000", "202230.015000", "202230.475000", "202230.935000", "202231.395000", "202231.855000", "202232.315000", "202232.775000", "202233.235000", "202233.695000", "202234.155000", "202234.615000", "202235.075000", "202235.535000", "202235.995000", "202236.455000", "202236.915000", "202237.375000", "202237.835000", "202238.295000", "202238.755000", "202239.215000", "202239.675000", "202240.135000", "202240.595000", "202241.055000", "202241.515000", "202241.975000", "202242.435000", "202242.895000", "202243.355000", "202243.815000", "202244.275000", "202244.735000", "202245.195000", "202245.655000", "202246.115000", "202246.575000", "202247.035000", "202247.495000", "202247.955000", "202248.415000", "202248.875000", "202249.335000", "202249.795000", "202250.255000", "202250.715000", "202251.175000", "202251.635000", "202252.095000", "202252.555000", "202253.015000", "202253.475000", "202253.935000", "202254.395000", "202254.855000", "202255.315000", "202255.775000"],
