{
  "AcquisitionMatrixPE": 82,
  "AcquisitionNumber": 1,
  "AcquisitionTime": "18:02:11.862500",
  "BandwidthPerPixelPhaseEncode": 24.888,
  "BaseResolution": 82,
  "BodyPartExamined": "BRAIN",
  "ConsistencyInfo": "N4_VE11E_LATEST_20181129",
  "ConversionSoftware": "dcm2niix",
  "ConversionSoftwareVersion": "v1.0.20201102",
  "DerivedVendorReportedEchoSpacing": 0.00049,
  "DeviceSerialNumber": "66112",
  "DwellTime": 2e-06,
  "EchoTime": 0.0272,
  "EchoTrainLength": 82,
  "EffectiveEchoSpacing": 0.00049,
  "FlipAngle": 44,
  "ImageComments": "Unaliased MB8/PE3",
  "ImageOrientationPatientDICOM": [0.998387, 0.055141, -0.0135254, -0.0551194, 0.998478, 0.00196478],
  "ImageType": [
    "ORIGINAL",
    "PRIMARY",
    "M",
    "MB",
    "ND",
    "NORM",
    "MOSAIC"
],
  "ImagingFrequency": 123.259,
  "InPlanePhaseEncodingDirectionDICOM": "COL",
  "InstitutionAddress": "Maynard 3,Hanover,NH,US,03755",
  "InstitutionName": "Dartmouth College - PBS",
  "InstitutionalDepartmentName": "Department",
  "MRAcquisitionType": "2D",
  "MagneticFieldStrength": 3,
  "Manufacturer": "Siemens",
  "ManufacturersModelName": "Prisma",
  "Modality": "MR",
  "MultibandAccelerationFactor": 8,
  "PartialFourier": 1,
  "PatientPosition": "HFS",
  "PercentPhaseFOV": 100,
  "PercentSampling": 100,
  "PhaseEncodingDirection": "j-",
  "PhaseEncodingSteps": 82,
  "PhaseResolution": 1,
  "PixelBandwidth": 3050,
  "ProcedureStepDescription": "Wager_Wager^1076_spacetop",
  "ProtocolName": "func_run-05_task-social_acq-ap-mb8",
  "PulseSequenceDetails": "%CustomerSeq%\\cmrr_mbep2d_bold",
  "ReceiveCoilActiveElements": "HEA;HEP",
  "ReceiveCoilName": "Head_32",
  "ReconMatrixPE": 82,
  "RepetitionTime": 0.46,
  "SAR": 0.083023,
  "ScanOptions": "FS",
  "ScanningSequence": "EP",
  "SequenceName": "epfid2d1_82",
  "SequenceVariant": "SK\\SS",
  "SeriesDescription": "func_run-05_task-social_acq-ap-mb8",
  "SeriesNumber": 20,
  "ShimSetting": [4225, -7735, -7255, 334, -107, -21, 98, 94],
  "SliceThickness": 2.7,
  "SliceTiming": [0, 0.2525, 0.0625, 0.315, 0.125, 0.3775, 0.19, 0, 0.2525, 0.0625, 0.315, 0.125, 0.3775, 0.19, 0, 0.2525, 0.0625, 0.315, 0.125, 0.3775, 0.19, 0, 0.2525, 0.0625, 0.315, 0.125, 0.3775, 0.19, 0, 0.2525, 0.0625, 0.315, 0.125, 0.3775, 0.19, 0, 0.2525, 0.0625, 0.315, 0.125, 0.3775, 0.19, 0, 0.2525, 0.0625, 0.315, 0.125, 0.3775, 0.19, 0, 0.2525, 0.0625, 0.315, 0.125, 0.3775, 0.19],
  "SoftwareVersions": "syngo MR E11",
  "SpacingBetweenSlices": 2.7,
  "StationName": "AWP66112",
  "TaskName": "social",
  "TotalReadoutTime": 0.03969,
  "TxRefAmp": 233.349,
  "WipMemBlock": "cc4e02cb-cefc-45fd-9424-b0b557408256||Sequence: R016 ve11e/master r/434b28f1; Aug  7 2019 18:53:46 by eja",
  "dcmmeta_affine": [
    [-2.6785993576049805, -0.14788125455379486, -0.036755383014678955, 119.82816314697266],
    [-0.14793920516967773, 2.6788430213928223, 0.0032834799494594336, -102.79147338867188],
    [-0.03628753125667572, -0.005271366331726313, 2.6997478008270264, -68.75568389892578],
    [0.0, 0.0, 0.0, 1.0]
],
  "dcmmeta_reorient_transform": [
    [0.0, -1.0, 0.0, 81.0],
    [1.0, 0.0, 0.0, 0.0],
    [0.0, 0.0, 1.0, 0.0],
    [0.0, 0.0, 0.0, 1.0]
],
  "dcmmeta_shape": [82, 82, 56, 872],
  "dcmmeta_slice_dim": 2,
  "dcmmeta_version": 0.6,
  "global": {
    "const": {
      "AccessionNumber": "A004935",
      "AcquisitionMatrix": [82, 0, 0, 82],
      "AngioFlag": "N",
      "BitsAllocated": 16,
      "BitsStored": 16,
      "BodyPartExamined": "BRAIN",
      "Columns": 656,
      "EchoNumbers": 1,
      "EchoTime": 27.2,
      "EchoTrainLength": 82,
      "FlipAngle": 44.0,
      "HighBit": 15,
      "ImageOrientationPatient": [0.99838696790179, 0.05514097546358, -0.0135253520763, -0.0551193769495, 0.99847783847055, 0.00196478188899],
      "ImagePositionPatient": [-834.16584044289, -925.48131711162, -60.281028436983],
      "ImageType": [
        "ORIGINAL",
        "PRIMARY",
        "M",
        "MB",
        "ND",
        "NORM",
        "MOSAIC"
],
      "ImagedNucleus": "1H",
      "ImagingFrequency": 123.259076,
      "InPlanePhaseEncodingDirection": "COL",
      "MRAcquisitionType": "2D",
      "MagneticFieldStrength": 3.0,
      "Manufacturer": "SIEMENS",
      "ManufacturerModelName": "Prisma",
      "Modality": "MR",
      "NumberOfAverages": 1.0,
      "NumberOfPhaseEncodingSteps": 82,
      "PercentPhaseFieldOfView": 100.0,
      "PercentSampling": 100.0,
      "PerformedProcedureStepStartTime": "165703.935000",
      "PhotometricInterpretation": "MONOCHROME2",
      "PixelBandwidth": 3050.0,
      "PixelRepresentation": 0,
      "PixelSpacing": [2.6829268932343, 2.6829268932343],
      "ProtocolName": "func_run-05_task-social_acq-ap-mb8",
      "RepetitionTime": 460.0,
      "Rows": 656,
      "SAR": 0.08302300572705,
      "SamplesPerPixel": 1,
      "ScanOptions": "FS",
      "ScanningSequence": "EP",
      "SequenceName": "epfid2d1_82",
      "SequenceVariant": [
        "SK",
        "SS"
],
      "SeriesDescription": "func_run-05_task-social_acq-ap-mb8",
      "SeriesNumber": 20,
      "SeriesTime": "180219.741000",
      "SliceLocation": -70.505503436111,
      "SliceThickness": 2.7000000476837,
      "SmallestImagePixelValue": 0,
      "SoftwareVersions": "syngo MR E11",
      "SpacingBetweenSlices": 2.6999999995922,
      "SpecificCharacterSet": "ISO_IR 100",
      "StudyID": "4",
      "StudyTime": "165703.880000",
      "TransmitCoilName": "Body",
      "VariableFlipAngleFlag": "N",
      "WindowCenterWidthExplanation": "Algo1"
    },
    "slices": {}
  },
  "time": {
    "samples": {
      "AcquisitionNumber": [1, 2, 3, 4, 5, 6, 7, 8, 9, 10, 11, 12, 13, 14, 15, 16, 17, 18, 19, 20, 21, 22, 23, 24, 25, 26, 27, 28, 29, 30, 31, 32, 33, 34, 35, 36, 37, 38, 39, 40, 41, 42, 43, 44, 45, 46, 47, 48, 49, 50, 51, 52, 53, 54, 55, 56, 57, 58, 59, 60, 61, 62, 63, 64, 65, 66, 67, 68, 69, 70, 71, 72, 73, 74, 75, 76, 77, 78, 79, 80, 81, 82, 83, 84, 85, 86, 87, 88, 89, 90, 91, 92, 93, 94, 95, 96, 97, 98, 99, 100, 101, 102, 103, 104, 105, 106, 107, 108, 109, 110, 111, 112, 113, 114, 115, 116, 117, 118, 119, 120, 121, 122, 123, 124, 125, 126, 127, 128, 129, 130, 131, 132, 133, 134, 135, 136, 137, 138, 139, 140, 141, 142, 143, 144, 145, 146, 147, 148, 149, 150, 151, 152, 153, 154, 155, 156, 157, 158, 159, 160, 161, 162, 163, 164, 165, 166, 167, 168, 169, 170, 171, 172, 173, 174, 175, 176, 177, 178, 179, 180, 181, 182, 183, 184, 185, 186, 187, 188, 189, 190, 191, 192, 193, 194, 195, 196, 197, 198, 199, 200, 201, 202, 203, 204, 205, 206, 207, 208, 209, 210, 211, 212, 213, 214, 215, 216, 217, 218, 219, 220, 221, 222, 223, 224, 225, 226, 227, 228, 229, 230, 231, 232, 233, 234, 235, 236, 237, 238, 239, 240, 241, 242, 243, 244, 245, 246, 247, 248, 249, 250, 251, 252, 253, 254, 255, 256, 257, 258, 259, 260, 261, 262, 263, 264, 265, 266, 267, 268, 269, 270, 271, 272, 273, 274, 275, 276, 277, 278, 279, 280, 281, 282, 283, 284, 285, 286, 287, 288, 289, 290, 291, 292, 293, 294, 295, 296, 297, 298, 299, 300, 301, 302, 303, 304, 305, 306, 307, 308, 309, 310, 311, 312, 313, 314, 315, 316, 317, 318, 319, 320, 321, 322, 323, 324, 325, 326, 327, 328, 329, 330, 331, 332, 333, 334, 335, 336, 337, 338, 339, 340, 341, 342, 343, 344, 345, 346, 347, 348, 349, 350, 351, 352, 353, 354, 355, 356, 357, 358, 359, 360, 361, 362, 363, 364, 365, 366, 367, 368, 369, 370, 371, 372, 373, 374, 375, 376, 377, 378, 379, 380, 381, 382, 383, 384, 385, 386, 387, 388, 389, 390, 391, 392, 393, 394, 395, 396, 397, 398, 399, 400, 401, 402, 403, 404, 405, 406, 407, 408, 409, 410, 411, 412, 413, 414, 415, 416, 417, 418, 419, 420, 421, 422, 423, 424, 425, 426, 427, 428, 429, 430, 431, 432, 433, 434, 435, 436, 437, 438, 439, 440, 441, 442, 443, 444, 445, 446, 447, 448, 449, 450, 451, 452, 453, 454, 455, 456, 457, 458, 459, 460, 461, 462, 463, 464, 465, 466, 467, 468, 469, 470, 471, 472, 473, 474, 475, 476, 477, 478, 479, 480, 481, 482, 483, 484, 485, 486, 487, 488, 489, 490, 491, 492, 493, 494, 495, 496, 497, 498, 499, 500, 501, 502, 503, 504, 505, 506, 507, 508, 509, 510, 511, 512, 513, 514, 515, 516, 517, 518, 519, 520, 521, 522, 523, 524, 525, 526, 527, 528, 529, 530, 531, 532, 533, 534, 535, 536, 537, 538, 539, 540, 541, 542, 543, 544, 545, 546, 547, 548, 549, 550, 551, 552, 553, 554, 555, 556, 557, 558, 559, 560, 561, 562, 563, 564, 565, 566, 567, 568, 569, 570, 571, 572, 573, 574, 575, 576, 577, 578, 579, 580, 581, 582, 583, 584, 585, 586, 587, 588, 589, 590, 591, 592, 593, 594, 595, 596, 597, 598, 599, 600, 601, 602, 603, 604, 605, 606, 607, 608, 609, 610, 611, 612, 613, 614, 615, 616, 617, 618, 619, 620, 621, 622, 623, 624, 625, 626, 627, 628, 629, 630, 631, 632, 633, 634, 635, 636, 637, 638, 639, 640, 641, 642, 643, 644, 645, 646, 647, 648, 649, 650, 651, 652, 653, 654, 655, 656, 657, 658, 659, 660, 661, 662, 663, 664, 665, 666, 667, 668, 669, 670, 671, 672, 673, 674, 675, 676, 677, 678, 679, 680, 681, 682, 683, 684, 685, 686, 687, 688, 689, 690, 691, 692, 693, 694, 695, 696, 697, 698, 699, 700, 701, 702, 703, 704, 705, 706, 707, 708, 709, 710, 711, 712, 713, 714, 715, 716, 717, 718, 719, 720, 721, 722, 723, 724, 725, 726, 727, 728, 729, 730, 731, 732, 733, 734, 735, 736, 737, 738, 739, 740, 741, 742, 743, 744, 745, 746, 747, 748, 749, 750, 751, 752, 753, 754, 755, 756, 757, 758, 759, 760, 761, 762, 763, 764, 765, 766, 767, 768, 769, 770, 771, 772, 773, 774, 775, 776, 777, 778, 779, 780, 781, 782, 783, 784, 785, 786, 787, 788, 789, 790, 791, 792, 793, 794, 795, 796, 797, 798, 799, 800, 801, 802, 803, 804, 805, 806, 807, 808, 809, 810, 811, 812, 813, 814, 815, 816, 817, 818, 819, 820, 821, 822, 823, 824, 825, 826, 827, 828, 829, 830, 831, 832, 833, 834, 835, 836, 837, 838, 839, 840, 841, 842, 843, 844, 845, 846, 847, 848, 849, 850, 851, 852, 853, 854, 855, 856, 857, 858, 859, 860, 861, 862, 863, 864, 865, 866, 867, 868, 869, 870, 871, 872],
      "AcquisitionTime": ["180211.862500", "180212.322500", "180212.782500", "180213.242500", "180213.702500", "180214.162500", "180214.622500", "180215.082500", "180215.542500", "180216.002500", "180216.462500", "180216.922500", "180217.382500", "180217.842500", "180218.302500", "180218.762500", "180219.222500", "180219.682500", "180220.142500", "180220.602500", "180221.062500", "180221.522500", "180221.982500", "180222.442500", "180222.902500", "180223.362500", "180223.822500", "180224.282500", "180224.742500", "180225.202500", "180225.662500", "180226.122500", "180226.582500", "180227.042500", "180227.502500", "180227.962500", "180228.422500", "180228.882500", "180229.342500", "180229.802500", "180230.262500", "180230.722500", "180231.182500", "180231.642500", "180232.102500", "180232.562500", "180233.022500", "180233.482500", "180233.942500", "180234.402500", "180234.862500", "180235.322500", "180235.782500", "180236.242500", "180236.702500", "180237.162500", "180237.622500", "180238.082500", "180238.542500", "180239.002500", "180239.462500", "180239.922500", "180240.382500", "180240.842500", "180241.302500", "180241.762500", "180242.222500", "180242.682500", "180243.142500", "180243.602500", "180244.062500", "180244.522500", "180244.982500", "180245.442500", "180245.902500", "180246.362500", "180246.822500", "180247.282500", "180247.742500", "180248.202500", "180248.662500", "180249.122500", "180249.582500", "180250.042500", "180250.502500", "180250.962500", "180251.422500", "180251.882500", "180252.342500", "180252.802500", "180253.262500", "180253.722500", "180254.182500", "180254.642500", "180255.102500", "180255.562500", "180256.022500", "180256.482500", "180256.942500", "180257.402500", "180257.862500", "180258.322500", "180258.782500", "180259.242500", "180259.702500", "180300.162500", "180300.622500", "180301.082500", "180301.542500", "180302.002500", "180302.462500", "180302.922500", "180303.382500", "180303.842500", "180304.302500", "180304.762500", "180305.222500", "180305.682500", "180306.142500", "180306.602500", "180307.062500", "180307.522500", "180307.982500", "180308.442500", "180308.902500", "180309.362500", "180309.822500", "180310.282500", "180310.742500", "180311.202500", "180311.662500", "180312.122500", "180312.582500", "180313.042500", "180313.502500", "180313.962500", "180314.422500", "180314.882500", "180315.342500", "180315.802500", "180316.262500", "180316.722500", "180317.182500", "180317.642500", "180318.102500", "180318.562500", "180319.022500", "180319.482500", "180319.942500", "180320.402500", "180320.862500", "180321.322500", "180321.782500", "180322.242500", "180322.702500", "180323.162500", "180323.622500", "180324.082500", "180324.542500", "180325.002500", "180325.462500", "180325.922500", "180326.382500", "180326.842500", "180327.302500", "180327.762500", "180328.222500", "180328.682500", "180329.142500", "180329.602500", "180330.062500", "180330.522500", "180330.982500", "180331.442500", "180331.902500", "180332.362500", "180332.822500", "180333.282500", "180333.742500", "180334.202500", "180334.662500", "180335.122500", "180335.582500", "180336.042500", "180336.502500", "180336.962500", "180337.422500", "180337.882500", "180338.342500", "180338.802500", "180339.262500", "180339.722500", "180340.182500", "180340.642500", "180341.102500", "180341.562500", "180342.022500", "180342.482500", "180342.942500", "180343.402500", "180343.862500", "180344.322500", "180344.782500", "180345.242500", "180345.702500", "180346.162500", "180346.622500", "180347.082500", "180347.542500", "180348.002500", "180348.462500", "180348.922500", "180349.382500", "180349.842500", "180350.302500", "180350.762500", "180351.222500", "180351.682500", "180352.142500", "180352.602500", "180353.062500", "180353.522500", "180353.982500", "180354.442500", "180354.902500", "180355.362500", "180355.822500", "180356.282500", "180356.742500", "180357.202500", "180357.662500", "180358.122500", "180358.582500", "180359.042500", "180359.502500", "180359.962500", "180400.422500", "180400.882500", "180401.342500", "180401.802500", "180402.262500", "180402.722500", "180403.182500", "180403.642500", "180404.102500", "180404.562500", "180405.022500", "180405.482500", "180405.942500", "180406.402500", "180406.862500", "180407.322500", "180407.782500", "180408.242500", "180408.702500", "180409.162500", "180409.622500", "180410.082500", "180410.542500", "180411.002500", "180411.462500", "180411.922500", "180412.382500", "180412.842500", "180413.302500", "180413.762500", "180414.222500", "180414.682500", "180415.142500", "180415.602500", "180416.062500", "180416.522500", "180416.982500", "180417.442500", "180417.902500", "180418.362500", "180418.822500", "180419.282500", "180419.742500", "180420.202500", "180420.662500", "180421.122500", "180421.582500", "180422.042500", "180422.502500", "180422.962500", "180423.422500", "180423.882500", "180424.342500", "180424.802500", "180425.262500", "180425.722500", "180426.182500", "180426.642500", "180427.102500", "180427.562500", "180428.022500", "180428.482500", "180428.942500", "180429.402500", "180429.862500", "180430.322500", "180430.782500", "180431.242500", "180431.702500", "180432.162500", "180432.622500", "180433.082500", "180433.542500", "180434.002500", "180434.462500", "180434.922500", "180435.382500", "180435.842500", "180436.302500", "180436.762500", "180437.222500", "180437.682500", "180438.142500", "180438.602500", "180439.062500", "180439.522500", "180439.982500", "180440.442500", "180440.902500", "180441.362500", "180441.822500", "180442.282500", "180442.742500", "180443.202500", "180443.662500", "180444.122500", "180444.582500", "180445.042500", "180445.502500", "180445.962500", "180446.422500", "180446.882500", "180447.342500", "180447.802500", "180448.262500", "180448.722500", "180449.182500", "180449.642500", "180450.102500", "180450.562500", "180451.022500", "180451.482500", "180451.942500", "180452.402500", "180452.862500", "180453.322500", "180453.782500", "180454.242500", "180454.702500", "180455.162500", "180455.622500", "180456.082500", "180456.542500", "180457.002500", "180457.462500", "180457.922500", "180458.382500", "180458.842500", "180459.302500", "180459.762500", "180500.222500", "180500.682500", "180501.142500", "180501.602500", "180502.062500", "180502.522500", "180502.982500", "180503.442500", "180503.902500", "180504.362500", "180504.822500", "180505.282500", "180505.742500", "180506.202500", "180506.662500", "180507.122500", "180507.582500", "180508.042500", "180508.502500", "180508.962500", "180509.422500", "180509.882500", "180510.342500", "180510.802500", "180511.262500", "180511.722500", "180512.182500", "180512.642500", "180513.102500", "180513.562500", "180514.022500", "180514.482500", "180514.942500", "180515.402500", "180515.862500", "180516.322500", "180516.782500", "180517.242500", "180517.702500", "180518.162500", "180518.622500", "180519.082500", "180519.542500", "180520.002500", "180520.462500", "180520.922500", "180521.382500", "180521.842500", "180522.302500", "180522.762500", "180523.222500", "180523.682500", "180524.142500", "180524.602500", "180525.062500", "180525.522500", "180525.982500", "180526.442500", "180526.902500", "180527.362500", "180527.822500", "180528.282500", "180528.742500", "180529.202500", "180529.662500", "180530.122500", "180530.582500", "180531.042500", "180531.502500", "180531.962500", "180532.422500", "180532.882500", "180533.342500", "180533.802500", "180534.262500", "180534.722500", "180535.182500", "180535.642500", "180536.102500", "180536.562500", "180537.022500", "180537.482500", "180537.942500", "180538.402500", "180538.862500", "180539.322500", "180539.782500", "180540.242500", "180540.702500", "180541.162500", "180541.622500", "180542.082500", "180542.542500", "180543.002500", "180543.462500", "180543.922500", "180544.382500", "180544.842500", "180545.302500", "180545.762500", "180546.222500", "180546.682500", "180547.142500", "180547.602500", "180548.062500", "180548.522500", "180548.982500", "180549.442500", "180549.902500", "180550.362500", "180550.822500", "180551.282500", "180551.742500", "180552.202500", "180552.662500", "180553.122500", "180553.582500", "180554.042500", "180554.502500", "180554.962500", "180555.422500", "180555.882500", "180556.342500", "180556.802500", "180557.262500", "180557.722500", "180558.182500", "180558.642500", "180559.102500", "180559.562500", "180600.022500", "180600.482500", "180600.942500", "180601.402500", "180601.862500", "180602.322500", "180602.782500", "180603.242500", "180603.702500", "180604.162500", "180604.622500", "180605.082500", "180605.542500", "180606.002500", "180606.462500", "180606.922500", "180607.382500", "180607.842500", "180608.302500", "180608.762500", "180609.222500", "180609.682500", "180610.142500", "180610.602500", "180611.062500", "180611.522500", "180611.982500", "180612.442500", "180612.902500", "180613.362500", "180613.822500", "180614.282500", "180614.742500", "180615.202500", "180615.662500", "180616.122500", "180616.582500", "180617.042500", "180617.502500", "180617.962500", "180618.422500", "180618.882500", "180619.342500", "180619.802500", "180620.262500", "180620.722500", "180621.182500", "180621.642500", "180622.102500", "180622.562500", "180623.022500", "180623.482500", "180623.942500", "180624.402500", "180624.862500", "180625.322500", "180625.782500", "180626.242500", "180626.702500", "180627.162500", "180627.622500", "180628.082500", "180628.542500", "180629.002500", "180629.462500", "180629.922500", "180630.382500", "180630.842500", "180631.302500", "180631.762500", "180632.222500", "180632.682500", "180633.142500", "180633.602500", "180634.062500", "180634.522500", "180634.982500", "180635.442500", "180635.902500", "180636.362500", "180636.822500", "180637.282500", "180637.742500", "180638.202500", "180638.662500", "180639.122500", "180639.582500", "180640.042500", "180640.502500", "180640.962500", "180641.422500", "180641.882500", "180642.342500", "180642.802500", "180643.262500", "180643.722500", "180644.182500", "180644.642500", "180645.102500", "180645.562500", "180646.022500", "180646.482500", "180646.942500", "180647.402500", "180647.862500", "180648.322500", "180648.782500", "180649.242500", "180649.702500", "180650.162500", "180650.622500", "180651.082500", "180651.542500", "180652.002500", "180652.462500", "180652.922500", "180653.382500", "180653.842500", "180654.302500", "180654.762500", "180655.222500", "180655.682500", "180656.142500", "180656.602500", "180657.062500", "180657.522500", "180657.982500", "180658.442500", "180658.902500", "180659.362500", "180659.822500", "180700.282500", "180700.742500", "180701.202500", "180701.662500", "180702.122500", "180702.582500", "180703.042500", "180703.502500", "180703.962500", "180704.422500", "180704.882500", "180705.342500", "180705.802500", "180706.262500", "180706.722500", "180707.182500", "180707.642500", "180708.102500", "180708.562500", "180709.022500", "180709.482500", "180709.942500", "180710.402500", "180710.862500", "180711.322500", "180711.782500", "180712.242500", "180712.702500", "180713.162500", "180713.622500", "180714.082500", "180714.542500", "180715.002500", "180715.462500", "180715.922500", "180716.382500", "180716.842500", "180717.302500", "180717.762500", "180718.222500", "180718.682500", "180719.142500", "180719.602500", "180720.062500", "180720.522500", "180720.982500", "180721.442500", "180721.902500", "180722.362500", "180722.822500", "180723.282500", "180723.742500", "180724.202500", "180724.662500", "180725.122500", "180725.582500", "180726.042500", "180726.502500", "180726.962500", "180727.422500", "180727.882500", "180728.342500", "180728.802500", "180729.262500", "180729.722500", "180730.182500", "180730.642500", "180731.102500", "180731.562500", "180732.022500", "180732.482500", "180732.942500", "180733.402500", "180733.862500", "180734.322500", "180734.782500", "180735.242500", "180735.702500", "180736.162500", "180736.622500", "180737.082500", "180737.542500", "180738.002500", "180738.462500", "180738.922500", "180739.382500", "180739.842500", "180740.302500", "180740.762500", "180741.222500", "180741.682500", "180742.142500", "180742.602500", "180743.062500", "180743.522500", "180743.982500", "180744.442500", "180744.902500", "180745.362500", "180745.822500", "180746.282500", "180746.742500", "180747.202500", "180747.662500", "180748.122500", "180748.582500", "180749.042500", "180749.502500", "180749.962500", "180750.422500", "180750.882500", "180751.342500", "180751.802500", "180752.262500", "180752.722500", "180753.182500", "180753.642500", "180754.102500", "180754.562500", "180755.022500", "180755.482500", "180755.942500", "180756.402500", "180756.862500", "180757.322500", "180757.782500", "180758.242500", "180758.702500", "180759.162500", "180759.622500", "180800.082500", "180800.542500", "180801.002500", "180801.462500", "180801.922500", "180802.382500", "180802.842500", "180803.302500", "180803.762500", "180804.222500", "180804.682500", "180805.142500", "180805.602500", "180806.062500", "180806.522500", "180806.982500", "180807.442500", "180807.902500", "180808.362500", "180808.822500", "180809.282500", "180809.742500", "180810.202500", "180810.662500", "180811.122500", "180811.582500", "180812.042500", "180812.502500", "180812.962500", "180813.422500", "180813.882500", "180814.342500", "180814.802500", "180815.262500", "180815.722500", "180816.182500", "180816.642500", "180817.102500", "180817.562500", "180818.022500", "180818.482500", "180818.942500", "180819.402500", "180819.862500", "180820.322500", "180820.782500", "180821.242500", "180821.702500", "180822.162500", "180822.622500", "180823.082500", "180823.542500", "180824.002500", "180824.462500", "180824.922500", "180825.382500", "180825.842500", "180826.302500", "180826.762500", "180827.222500", "180827.682500", "180828.142500", "180828.602500", "180829.062500", "180829.522500", "180829.982500", "180830.442500", "180830.902500", "180831.362500", "180831.822500", "180832.282500", "180832.742500", "180833.202500", "180833.662500", "180834.122500", "180834.582500", "180835.042500", "180835.502500", "180835.962500", "180836.422500", "180836.882500", "180837.342500", "180837.802500", "180838.262500", "180838.722500", "180839.182500", "180839.642500", "180840.102500", "180840.562500", "180841.022500", "180841.482500", "180841.942500", "180842.402500", "180842.862500", "180843.322500", "180843.782500", "180844.242500", "180844.702500", "180845.162500", "180845.622500", "180846.082500", "180846.542500", "180847.002500", "180847.462500", "180847.922500", "180848.382500", "180848.842500", "180849.302500", "180849.762500", "180850.222500", "180850.682500", "180851.142500", "180851.602500", "180852.062500", "180852.522500"],
