{
  "AcquisitionMatrixPE": 82,
  "AcquisitionNumber": 1,
  "AcquisitionTime": "08:50:40.997500",
  "BandwidthPerPixelPhaseEncode": 24.888,
  "BaseResolution": 82,
  "BodyPartExamined": "BRAIN",
  "ConsistencyInfo": "N4_VE11E_LATEST_20181129",
  "ConversionSoftware": "dcm2niix",
  "ConversionSoftwareVersion": "v1.0.20201102",
  "DerivedVendorReportedEchoSpacing": 0.00049,
  "DeviceSerialNumber": "66112",
  "DwellTime": 2e-06,
  "EchoTime": 0.0272,
  "EchoTrainLength": 82,
  "EffectiveEchoSpacing": 0.00049,
  "FlipAngle": 44,
  "ImageComments": "Unaliased MB8/PE3",
  "ImageOrientationPatientDICOM": [0.999055, 0.0227096, -0.0370688, -0.0193573, 0.995896, 0.0884142],
  "ImageType": [
    "ORIGINAL",
    "PRIMARY",
    "M",
    "MB",
    "ND",
    "NORM",
    "MOSAIC"
],
  "ImagingFrequency": 123.252,
  "InPlanePhaseEncodingDirectionDICOM": "COL",
  "InstitutionAddress": "Maynard 3,Hanover,NH,US,03755",
  "InstitutionName": "Dartmouth College - PBS",
  "InstitutionalDepartmentName": "Department",
  "MRAcquisitionType": "2D",
  "MagneticFieldStrength": 3,
  "Manufacturer": "Siemens",
  "ManufacturersModelName": "Prisma",
  "Modality": "MR",
  "MultibandAccelerationFactor": 8,
  "PartialFourier": 1,
  "PatientPosition": "HFS",
  "PercentPhaseFOV": 100,
  "PercentSampling": 100,
  "PhaseEncodingDirection": "j-",
  "PhaseEncodingSteps": 82,
  "PhaseResolution": 1,
  "PixelBandwidth": 3050,
  "ProcedureStepDescription": "Wager_Wager^1076_spacetop",
  "ProtocolName": "func_run-01_task-social_acq-ap-mb8",
  "PulseSequenceDetails": "%CustomerSeq%\\cmrr_mbep2d_bold",
  "ReceiveCoilActiveElements": "HEA;HEP",
  "ReceiveCoilName": "Head_32",
  "ReconMatrixPE": 82,
  "RepetitionTime": 0.46,
  "SAR": 0.0864672,
  "ScanOptions": "FS",
  "ScanningSequence": "EP",
  "SequenceName": "epfid2d1_82",
  "SequenceVariant": "SK\\SS",
  "SeriesDescription": "func_run-01_task-social_acq-ap-mb8",
  "SeriesNumber": 12,
  "ShimSetting": [4140, -7704, -7290, 589, -41, 12, 78, 135],
  "SliceThickness": 2.7,
  "SliceTiming": [0, 0.25, 0.0625, 0.3125, 0.125, 0.3775, 0.1875, 0, 0.25, 0.0625, 0.3125, 0.125, 0.3775, 0.1875, 0, 0.25, 0.0625, 0.3125, 0.125, 0.3775, 0.1875, 0, 0.25, 0.0625, 0.3125, 0.125, 0.3775, 0.1875, 0, 0.25, 0.0625, 0.3125, 0.125, 0.3775, 0.1875, 0, 0.25, 0.0625, 0.3125, 0.125, 0.3775, 0.1875, 0, 0.25, 0.0625, 0.3125, 0.125, 0.3775, 0.1875, 0, 0.25, 0.0625, 0.3125, 0.125, 0.3775, 0.1875],
  "SoftwareVersions": "syngo MR E11",
  "SpacingBetweenSlices": 2.7,
  "StationName": "AWP66112",
  "TaskName": "social",
  "TotalReadoutTime": 0.03969,
  "TxRefAmp": 245.544,
  "WipMemBlock": "2ba62397-592a-49cf-b395-a29b2350c8b1||Sequence: R016 ve11e/master r/434b28f1; Aug  7 2019 18:53:46 by eja",
  "dcmmeta_affine": [
    [-2.6803905963897705, -0.051934096962213516, -0.10509602725505829, 116.50434875488281],
    [-0.0609280988574028, 2.671915292739868, 0.23655515909194946, -94.67160034179688],
    [-0.09945274889469147, -0.23720870912075043, 2.687563180923462, -55.071807861328125],
    [0.0, 0.0, 0.0, 1.0]
],
  "dcmmeta_reorient_transform": [
    [0.0, -1.0, 0.0, 81.0],
    [1.0, 0.0, 0.0, 0.0],
    [0.0, 0.0, 1.0, 0.0],
    [0.0, 0.0, 0.0, 1.0]
],
  "dcmmeta_shape": [82, 82, 56, 872],
  "dcmmeta_slice_dim": 2,
  "dcmmeta_version": 0.6,
  "global": {
    "const": {
      "AccessionNumber": "A004056",
      "AcquisitionMatrix": [82, 0, 0, 82],
      "AngioFlag": "N",
      "BitsAllocated": 16,
      "BitsStored": 16,
      "BodyPartExamined": "BRAIN",
      "Columns": 656,
      "EchoNumbers": 1,
      "EchoTime": 27.2,
      "EchoTrainLength": 82,
      "FlipAngle": 44.0,
      "HighBit": 15,
      "ImageOrientationPatient": [0.99905464488843, 0.02270956384227, -0.03706875014, -0.0193572541487, 0.99589569438269, 0.08841415396776],
      "ImagePositionPatient": [-866.66469927079, -906.0796111946, -113.82167464635],
      "ImageType": [
        "ORIGINAL",
        "PRIMARY",
        "M",
        "MB",
        "ND",
        "NORM",
        "MOSAIC"
],
      "ImagedNucleus": "1H",
      "ImagingFrequency": 123.252204,
      "InPlanePhaseEncodingDirection": "COL",
      "MRAcquisitionType": "2D",
      "MagneticFieldStrength": 3.0,
      "Manufacturer": "SIEMENS",
      "ManufacturerModelName": "Prisma",
      "Modality": "MR",
      "NumberOfAverages": 1.0,
      "NumberOfPhaseEncodingSteps": 82,
      "PercentPhaseFieldOfView": 100.0,
      "PercentSampling": 100.0,
      "PerformedProcedureStepStartTime": "082255.994000",
      "PhotometricInterpretation": "MONOCHROME2",
      "PixelBandwidth": 3050.0,
      "PixelRepresentation": 0,
      "PixelSpacing": [2.6829268932343, 2.6829268932343],
      "ProtocolName": "func_run-01_task-social_acq-ap-mb8",
      "RepetitionTime": 460.0,
      "Rows": 656,
      "SAR": 0.08646717138811,
      "SamplesPerPixel": 1,
      "ScanOptions": "FS",
      "ScanningSequence": "EP",
      "SequenceName": "epfid2d1_82",
      "SequenceVariant": [
        "SK",
        "SS"
],
      "SeriesDescription": "func_run-01_task-social_acq-ap-mb8",
      "SeriesNumber": 12,
      "SeriesTime": "085104.870000",
      "SliceLocation": -67.647469513969,
      "SliceThickness": 2.7000000476837,
      "SmallestImagePixelValue": 0,
      "SoftwareVersions": "syngo MR E11",
      "SpacingBetweenSlices": 2.6999999573475,
      "SpecificCharacterSet": "ISO_IR 100",
      "StudyID": "1",
      "StudyTime": "082255.910000",
      "TransmitCoilName": "Body",
      "VariableFlipAngleFlag": "N",
      "WindowCenterWidthExplanation": "Algo1"
    },
    "slices": {}
  },
  "time": {
    "samples": {
      "AcquisitionNumber": [1, 2, 3, 4, 5, 6, 7, 8, 9, 10, 11, 12, 13, 14, 15, 16, 17, 18, 19, 20, 21, 22, 23, 24, 25, 26, 27, 28, 29, 30, 31, 32, 33, 34, 35, 36, 37, 38, 39, 40, 41, 42, 43, 44, 45, 46, 47, 48, 49, 50, 51, 52, 53, 54, 55, 56, 57, 58, 59, 60, 61, 62, 63, 64, 65, 66, 67, 68, 69, 70, 71, 72, 73, 74, 75, 76, 77, 78, 79, 80, 81, 82, 83, 84, 85, 86, 87, 88, 89, 90, 91, 92, 93, 94, 95, 96, 97, 98, 99, 100, 101, 102, 103, 104, 105, 106, 107, 108, 109, 110, 111, 112, 113, 114, 115, 116, 117, 118, 119, 120, 121, 122, 123, 124, 125, 126, 127, 128, 129, 130, 131, 132, 133, 134, 135, 136, 137, 138, 139, 140, 141, 142, 143, 144, 145, 146, 147, 148, 149, 150, 151, 152, 153, 154, 155, 156, 157, 158, 159, 160, 161, 162, 163, 164, 165, 166, 167, 168, 169, 170, 171, 172, 173, 174, 175, 176, 177, 178, 179, 180, 181, 182, 183, 184, 185, 186, 187, 188, 189, 190, 191, 192, 193, 194, 195, 196, 197, 198, 199, 200, 201, 202, 203, 204, 205, 206, 207, 208, 209, 210, 211, 212, 213, 214, 215, 216, 217, 218, 219, 220, 221, 222, 223, 224, 225, 226, 227, 228, 229, 230, 231, 232, 233, 234, 235, 236, 237, 238, 239, 240, 241, 242, 243, 244, 245, 246, 247, 248, 249, 250, 251, 252, 253, 254, 255, 256, 257, 258, 259, 260, 261, 262, 263, 264, 265, 266, 267, 268, 269, 270, 271, 272, 273, 274, 275, 276, 277, 278, 279, 280, 281, 282, 283, 284, 285, 286, 287, 288, 289, 290, 291, 292, 293, 294, 295, 296, 297, 298, 299, 300, 301, 302, 303, 304, 305, 306, 307, 308, 309, 310, 311, 312, 313, 314, 315, 316, 317, 318, 319, 320, 321, 322, 323, 324, 325, 326, 327, 328, 329, 330, 331, 332, 333, 334, 335, 336, 337, 338, 339, 340, 341, 342, 343, 344, 345, 346, 347, 348, 349, 350, 351, 352, 353, 354, 355, 356, 357, 358, 359, 360, 361, 362, 363, 364, 365, 366, 367, 368, 369, 370, 371, 372, 373, 374, 375, 376, 377, 378, 379, 380, 381, 382, 383, 384, 385, 386, 387, 388, 389, 390, 391, 392, 393, 394, 395, 396, 397, 398, 399, 400, 401, 402, 403, 404, 405, 406, 407, 408, 409, 410, 411, 412, 413, 414, 415, 416, 417, 418, 419, 420, 421, 422, 423, 424, 425, 426, 427, 428, 429, 430, 431, 432, 433, 434, 435, 436, 437, 438, 439, 440, 441, 442, 443, 444, 445, 446, 447, 448, 449, 450, 451, 452, 453, 454, 455, 456, 457, 458, 459, 460, 461, 462, 463, 464, 465, 466, 467, 468, 469, 470, 471, 472, 473, 474, 475, 476, 477, 478, 479, 480, 481, 482, 483, 484, 485, 486, 487, 488, 489, 490, 491, 492, 493, 494, 495, 496, 497, 498, 499, 500, 501, 502, 503, 504, 505, 506, 507, 508, 509, 510, 511, 512, 513, 514, 515, 516, 517, 518, 519, 520, 521, 522, 523, 524, 525, 526, 527, 528, 529, 530, 531, 532, 533, 534, 535, 536, 537, 538, 539, 540, 541, 542, 543, 544, 545, 546, 547, 548, 549, 550, 551, 552, 553, 554, 555, 556, 557, 558, 559, 560, 561, 562, 563, 564, 565, 566, 567, 568, 569, 570, 571, 572, 573, 574, 575, 576, 577, 578, 579, 580, 581, 582, 583, 584, 585, 586, 587, 588, 589, 590, 591, 592, 593, 594, 595, 596, 597, 598, 599, 600, 601, 602, 603, 604, 605, 606, 607, 608, 609, 610, 611, 612, 613, 614, 615, 616, 617, 618, 619, 620, 621, 622, 623, 624, 625, 626, 627, 628, 629, 630, 631, 632, 633, 634, 635, 636, 637, 638, 639, 640, 641, 642, 643, 644, 645, 646, 647, 648, 649, 650, 651, 652, 653, 654, 655, 656, 657, 658, 659, 660, 661, 662, 663, 664, 665, 666, 667, 668, 669, 670, 671, 672, 673, 674, 675, 676, 677, 678, 679, 680, 681, 682, 683, 684, 685, 686, 687, 688, 689, 690, 691, 692, 693, 694, 695, 696, 697, 698, 699, 700, 701, 702, 703, 704, 705, 706, 707, 708, 709, 710, 711, 712, 713, 714, 715, 716, 717, 718, 719, 720, 721, 722, 723, 724, 725, 726, 727, 728, 729, 730, 731, 732, 733, 734, 735, 736, 737, 738, 739, 740, 741, 742, 743, 744, 745, 746, 747, 748, 749, 750, 751, 752, 753, 754, 755, 756, 757, 758, 759, 760, 761, 762, 763, 764, 765, 766, 767, 768, 769, 770, 771, 772, 773, 774, 775, 776, 777, 778, 779, 780, 781, 782, 783, 784, 785, 786, 787, 788, 789, 790, 791, 792, 793, 794, 795, 796, 797, 798, 799, 800, 801, 802, 803, 804, 805, 806, 807, 808, 809, 810, 811, 812, 813, 814, 815, 816, 817, 818, 819, 820, 821, 822, 823, 824, 825, 826, 827, 828, 829, 830, 831, 832, 833, 834, 835, 836, 837, 838, 839, 840, 841, 842, 843, 844, 845, 846, 847, 848, 849, 850, 851, 852, 853, 854, 855, 856, 857, 858, 859, 860, 861, 862, 863, 864, 865, 866, 867, 868, 869, 870, 871, 872],
      "AcquisitionTime": ["085040.997500", "085041.457500", "085041.917500", "085042.377500", "085042.837500", "085043.297500", "085043.757500", "085044.217500", "085044.677500", "085045.137500", "085045.597500", "085046.057500", "085046.517500", "085046.977500", "085047.437500", "085047.897500", "085048.357500", "085048.817500", "085049.277500", "085049.737500", "085050.197500", "085050.657500", "085051.117500", "085051.577500", "085052.037500", "085052.497500", "085052.957500", "085053.417500", "085053.877500", "085054.337500", "085054.797500", "085055.257500", "085055.717500", "085056.177500", "085056.637500", "085057.097500", "085057.557500", "085058.017500", "085058.477500", "085058.937500", "085059.397500", "085059.857500", "085100.317500", "085100.777500", "085101.237500", "085101.697500", "085102.157500", "085102.617500", "085103.077500", "085103.537500", "085103.997500", "085104.457500", "085104.917500", "085105.377500", "085105.837500", "085106.297500", "085106.757500", "085107.217500", "085107.677500", "085108.137500", "085108.597500", "085109.057500", "085109.517500", "085109.977500", "085110.437500", "085110.897500", "085111.357500", "085111.817500", "085112.277500", "085112.737500", "085113.197500", "085113.657500", "085114.117500", "085114.577500", "085115.037500", "085115.497500", "085115.957500", "085116.417500", "085116.877500", "085117.337500", "085117.797500", "085118.257500", "085118.717500", "085119.177500", "085119.637500", "085120.097500", "085120.557500", "085121.017500", "085121.477500", "085121.937500", "085122.397500", "085122.857500", "085123.317500", "085123.777500", "085124.237500", "085124.697500", "085125.157500", "085125.617500", "085126.077500", "085126.537500", "085126.997500", "085127.457500", "085127.917500", "085128.377500", "085128.837500", "085129.297500", "085129.757500", "085130.217500", "085130.677500", "085131.137500", "085131.597500", "085132.057500", "085132.517500", "085132.977500", "085133.437500", "085133.897500", "085134.357500", "085134.817500", "085135.277500", "085135.737500", "085136.197500", "085136.657500", "085137.117500", "085137.577500", "085138.037500", "085138.497500", "085138.957500", "085139.417500", "085139.877500", "085140.337500", "085140.797500", "085141.257500", "085141.717500", "085142.177500", "085142.637500", "085143.097500", "085143.557500", "085144.017500", "085144.477500", "085144.937500", "085145.397500", "085145.857500", "085146.317500", "085146.777500", "085147.237500", "085147.697500", "085148.157500", "085148.617500", "085149.077500", "085149.537500", "085149.997500", "085150.457500", "085150.917500", "085151.377500", "085151.837500", "085152.297500", "085152.757500", "085153.217500", "085153.677500", "085154.137500", "085154.597500", "085155.057500", "085155.517500", "085155.977500", "085156.437500", "085156.897500", "085157.357500", "085157.817500", "085158.277500", "085158.737500", "085159.197500", "085159.657500", "085200.117500", "085200.577500", "085201.037500", "085201.497500", "085201.957500", "085202.417500", "085202.877500", "085203.337500", "085203.797500", "085204.257500", "085204.717500", "085205.177500", "085205.637500", "085206.097500", "085206.557500", "085207.017500", "085207.477500", "085207.937500", "085208.397500", "085208.857500", "085209.317500", "085209.777500", "085210.237500", "085210.697500", "085211.157500", "085211.617500", "085212.077500", "085212.537500", "085212.997500", "085213.457500", "085213.917500", "085214.377500", "085214.837500", "085215.297500", "085215.757500", "085216.217500", "085216.677500", "085217.137500", "085217.597500", "085218.057500", "085218.517500", "085218.977500", "085219.437500", "085219.897500", "085220.357500", "085220.817500", "085221.277500", "085221.737500", "085222.197500", "085222.657500", "085223.117500", "085223.577500", "085224.037500", "085224.497500", "085224.957500", "085225.417500", "085225.877500", "085226.337500", "085226.797500", "085227.257500", "085227.717500", "085228.177500", "085228.637500", "085229.097500", "085229.557500", "085230.017500", "085230.477500", "085230.937500", "085231.397500", "085231.857500", "085232.317500", "085232.777500", "085233.237500", "085233.697500", "085234.157500", "085234.617500", "085235.077500", "085235.537500", "085235.997500", "085236.457500", "085236.917500", "085237.377500", "085237.837500", "085238.297500", "085238.757500", "085239.217500", "085239.677500", "085240.137500", "085240.597500", "085241.057500", "085241.517500", "085241.977500", "085242.437500", "085242.897500", "085243.357500", "085243.817500", "085244.277500", "085244.737500", "085245.197500", "085245.657500", "085246.117500", "085246.577500", "085247.037500", "085247.497500", "085247.957500", "085248.417500", "085248.877500", "085249.337500", "085249.797500", "085250.257500", "085250.717500", "085251.177500", "085251.637500", "085252.097500", "085252.557500", "085253.017500", "085253.477500", "085253.937500", "085254.397500", "085254.857500", "085255.317500", "085255.777500", "085256.237500", "085256.697500", "085257.157500", "085257.617500", "085258.077500", "085258.537500", "085258.997500", "085259.457500", "085259.917500", "085300.377500", "085300.837500", "085301.297500", "085301.757500", "085302.217500", "085302.677500", "085303.137500", "085303.597500", "085304.057500", "085304.517500", "085304.977500", "085305.437500", "085305.897500", "085306.357500", "085306.817500", "085307.277500", "085307.737500", "085308.197500", "085308.657500", "085309.117500", "085309.577500", "085310.037500", "085310.497500", "085310.957500", "085311.417500", "085311.877500", "085312.337500", "085312.797500", "085313.257500", "085313.717500", "085314.177500", "085314.637500", "085315.097500", "085315.557500", "085316.017500", "085316.477500", "085316.937500", "085317.397500", "085317.857500", "085318.317500", "085318.777500", "085319.237500", "085319.697500", "085320.157500", "085320.617500", "085321.077500", "085321.537500", "085321.997500", "085322.457500", "085322.917500", "085323.377500", "085323.837500", "085324.297500", "085324.757500", "085325.217500", "085325.677500", "085326.137500", "085326.597500", "085327.057500", "085327.517500", "085327.977500", "085328.437500", "085328.897500", "085329.357500", "085329.817500", "085330.277500", "085330.737500", "085331.197500", "085331.657500", "085332.117500", "085332.577500", "085333.037500", "085333.497500", "085333.957500", "085334.417500", "085334.877500", "085335.337500", "085335.797500", "085336.257500", "085336.717500", "085337.177500", "085337.637500", "085338.097500", "085338.557500", "085339.017500", "085339.477500", "085339.937500", "085340.397500", "085340.857500", "085341.317500", "085341.777500", "085342.237500", "085342.697500", "085343.157500", "085343.617500", "085344.077500", "085344.537500", "085344.997500", "085345.457500", "085345.917500", "085346.377500", "085346.837500", "085347.297500", "085347.757500", "085348.217500", "085348.677500", "085349.137500", "085349.597500", "085350.057500", "085350.517500", "085350.977500", "085351.437500", "085351.897500", "085352.357500", "085352.817500", "085353.277500", "085353.737500", "085354.197500", "085354.657500", "085355.117500", "085355.577500", "085356.037500", "085356.497500", "085356.957500", "085357.417500", "085357.877500", "085358.337500", "085358.797500", "085359.257500", "085359.717500", "085400.177500", "085400.637500", "085401.097500", "085401.557500", "085402.017500", "085402.477500", "085402.937500", "085403.397500", "085403.857500", "085404.317500", "085404.777500", "085405.237500", "085405.697500", "085406.157500", "085406.617500", "085407.077500", "085407.537500", "085407.997500", "085408.457500", "085408.917500", "085409.377500", "085409.837500", "085410.297500", "085410.757500", "085411.217500", "085411.677500", "085412.137500", "085412.597500", "085413.057500", "085413.517500", "085413.977500", "085414.437500", "085414.897500", "085415.357500", "085415.817500", "085416.277500", "085416.737500", "085417.197500", "085417.657500", "085418.117500", "085418.577500", "085419.037500", "085419.497500", "085419.957500", "085420.417500", "085420.877500", "085421.337500", "085421.797500", "085422.257500", "085422.717500", "085423.177500", "085423.637500", "085424.097500", "085424.557500", "085425.017500", "085425.477500", "085425.937500", "085426.397500", "085426.857500", "085427.317500", "085427.777500", "085428.237500", "085428.697500", "085429.157500", "085429.617500", "085430.077500", "085430.537500", "085430.997500", "085431.457500", "085431.917500", "085432.377500", "085432.837500", "085433.297500", "085433.757500", "085434.217500", "085434.677500", "085435.137500", "085435.597500", "085436.057500", "085436.517500", "085436.977500", "085437.437500", "085437.897500", "085438.357500", "085438.817500", "085439.277500", "085439.737500", "085440.197500", "085440.657500", "085441.117500", "085441.577500", "085442.037500", "085442.497500", "085442.957500", "085443.417500", "085443.877500", "085444.337500", "085444.797500", "085445.257500", "085445.717500", "085446.177500", "085446.637500", "085447.097500", "085447.557500", "085448.017500", "085448.477500", "085448.937500", "085449.397500", "085449.857500", "085450.317500", "085450.777500", "085451.237500", "085451.697500", "085452.157500", "085452.617500", "085453.077500", "085453.537500", "085453.997500", "085454.457500", "085454.917500", "085455.377500", "085455.837500", "085456.297500", "085456.757500", "085457.217500", "085457.677500", "085458.137500", "085458.597500", "085459.057500", "085459.517500", "085459.977500", "085500.437500", "085500.897500", "085501.357500", "085501.817500", "085502.277500", "085502.737500", "085503.197500", "085503.657500", "085504.117500", "085504.577500", "085505.037500", "085505.497500", "085505.957500", "085506.417500", "085506.877500", "085507.337500", "085507.797500", "085508.257500", "085508.717500", "085509.177500", "085509.637500", "085510.097500", "085510.557500", "085511.017500", "085511.477500", "085511.937500", "085512.397500", "085512.857500", "085513.317500", "085513.777500", "085514.237500", "085514.697500", "085515.157500", "085515.617500", "085516.077500", "085516.537500", "085516.997500", "085517.457500", "085517.917500", "085518.377500", "085518.837500", "085519.297500", "085519.757500", "085520.217500", "085520.677500", "085521.137500", "085521.597500", "085522.057500", "085522.517500", "085522.977500", "085523.437500", "085523.897500", "085524.357500", "085524.817500", "085525.277500", "085525.737500", "085526.197500", "085526.657500", "085527.117500", "085527.577500", "085528.037500", "085528.497500", "085528.957500", "085529.417500", "085529.877500", "085530.337500", "085530.797500", "085531.257500", "085531.717500", "085532.177500", "085532.637500", "085533.097500", "085533.557500", "085534.017500", "085534.477500", "085534.937500", "085535.397500", "085535.857500", "085536.317500", "085536.777500", "085537.237500", "085537.697500", "085538.157500", "085538.617500", "085539.077500", "085539.537500", "085539.997500", "085540.457500", "085540.917500", "085541.377500", "085541.837500", "085542.297500", "085542.757500", "085543.217500", "085543.677500", "085544.137500", "085544.597500", "085545.057500", "085545.517500", "085545.977500", "085546.437500", "085546.897500", "085547.357500", "085547.817500", "085548.277500", "085548.737500", "085549.197500", "085549.657500", "085550.117500", "085550.577500", "085551.037500", "085551.497500", "085551.957500", "085552.417500", "085552.877500", "085553.337500", "085553.797500", "085554.257500", "085554.717500", "085555.177500", "085555.637500", "085556.097500", "085556.557500", "085557.017500", "085557.477500", "085557.937500", "085558.397500", "085558.857500", "085559.317500", "085559.777500", "085600.237500", "085600.697500", "085601.157500", "085601.617500", "085602.077500", "085602.537500", "085602.997500", "085603.457500", "085603.917500", "085604.377500", "085604.837500", "085605.297500", "085605.757500", "085606.217500", "085606.677500", "085607.137500", "085607.597500", "085608.057500", "085608.517500", "085608.977500", "085609.437500", "085609.897500", "085610.357500", "085610.817500", "085611.277500", "085611.737500", "085612.197500", "085612.657500", "085613.117500", "085613.577500", "085614.037500", "085614.497500", "085614.957500", "085615.417500", "085615.877500", "085616.337500", "085616.797500", "085617.257500", "085617.717500", "085618.177500", "085618.637500", "085619.097500", "085619.557500", "085620.017500", "085620.477500", "085620.937500", "085621.397500", "085621.857500", "085622.317500", "085622.777500", "085623.237500", "085623.697500", "085624.157500", "085624.617500", "085625.077500", "085625.537500", "085625.997500", "085626.457500", "085626.917500", "085627.377500", "085627.837500", "085628.297500", "085628.757500", "085629.217500", "085629.677500", "085630.137500", "085630.597500", "085631.057500", "085631.517500", "085631.977500", "085632.437500", "085632.897500", "085633.357500", "085633.817500", "085634.277500", "085634.737500", "085635.197500", "085635.657500", "085636.117500", "085636.577500", "085637.037500", "085637.497500", "085637.957500", "085638.417500", "085638.877500", "085639.337500", "085639.797500", "085640.257500", "085640.717500", "085641.177500", "085641.637500", "085642.097500", "085642.557500", "085643.017500", "085643.477500", "085643.937500", "085644.397500", "085644.857500", "085645.317500", "085645.777500", "085646.237500", "085646.697500", "085647.157500", "085647.617500", "085648.077500", "085648.537500", "085648.997500", "085649.457500", "085649.917500", "085650.377500", "085650.837500", "085651.297500", "085651.757500", "085652.217500", "085652.677500", "085653.137500", "085653.597500", "085654.057500", "085654.517500", "085654.977500", "085655.437500", "085655.897500", "085656.357500", "085656.817500", "085657.277500", "085657.737500", "085658.197500", "085658.657500", "085659.117500", "085659.577500", "085700.037500", "085700.497500", "085700.957500", "085701.417500", "085701.877500", "085702.337500", "085702.797500", "085703.257500", "085703.717500", "085704.177500", "085704.637500", "085705.097500", "085705.557500", "085706.017500", "085706.477500", "085706.937500", "085707.397500", "085707.857500", "085708.317500", "085708.777500", "085709.237500", "085709.697500", "085710.157500", "085710.617500", "085711.077500", "085711.537500", "085711.997500", "085712.457500", "085712.917500", "085713.377500", "085713.837500", "085714.297500", "085714.757500", "085715.217500", "085715.677500", "085716.137500", "085716.597500", "085717.057500", "085717.517500", "085717.977500", "085718.437500", "085718.897500", "085719.357500", "085719.817500", "085720.277500", "085720.737500", "085721.197500", "085721.657500"],
