{
  "AcquisitionMatrixPE": 82,
  "AcquisitionNumber": 1,
  "AcquisitionTime": "09:59:4.642500",
  "BandwidthPerPixelPhaseEncode": 24.888,
  "BaseResolution": 82,
  "BodyPartExamined": "BRAIN",
  "ConsistencyInfo": "N4_VE11E_LATEST_20181129",
  "ConversionSoftware": "dcm2niix",
  "ConversionSoftwareVersion": "v1.0.20201102",
  "DerivedVendorReportedEchoSpacing": 0.00049,
  "DeviceSerialNumber": "66112",
  "DwellTime": 2e-06,
  "EchoTime": 0.0272,
  "EchoTrainLength": 82,
  "EffectiveEchoSpacing": 0.00049,
  "FlipAngle": 44,
  "ImageComments": "Unaliased MB8/PE3",
  "ImageOrientationPatientDICOM": [0.998095, 0.0394194, -0.0474504, -0.037994, 0.99881, 0.0305751],
  "ImageType": [
    "ORIGINAL",
    "PRIMARY",
    "M",
    "MB",
    "ND",
    "NORM",
    "MOSAIC"
],
  "ImagingFrequency": 123.252,
  "InPlanePhaseEncodingDirectionDICOM": "COL",
  "InstitutionAddress": "Maynard 3,Hanover,NH,US,03755",
  "InstitutionName": "Dartmouth College - PBS",
  "InstitutionalDepartmentName": "Department",
  "MRAcquisitionType": "2D",
  "MagneticFieldStrength": 3,
  "Manufacturer": "Siemens",
  "ManufacturersModelName": "Prisma",
  "Modality": "MR",
  "MultibandAccelerationFactor": 8,
  "PartialFourier": 1,
  "PatientPosition": "HFS",
  "PercentPhaseFOV": 100,
  "PercentSampling": 100,
  "PhaseEncodingDirection": "j-",
  "PhaseEncodingSteps": 82,
  "PhaseResolution": 1,
  "PixelBandwidth": 3050,
  "ProcedureStepDescription": "Wager_Wager^1076_spacetop",
  "ProtocolName": "func_run-03_task-alignvideo_acq-ap-mb8",
  "PulseSequenceDetails": "%CustomerSeq%\\cmrr_mbep2d_bold",
  "ReceiveCoilActiveElements": "HEA;HEP",
  "ReceiveCoilName": "Head_32",
  "ReconMatrixPE": 82,
  "RepetitionTime": 0.46,
  "SAR": 0.0865434,
  "ScanOptions": "FS",
  "ScanningSequence": "EP",
  "SequenceName": "epfid2d1_82",
  "SequenceVariant": "SK\\SS",
  "SeriesDescription": "func_run-03_task-alignvideo_acq-ap-mb8",
  "SeriesNumber": 34,
  "ShimSetting": [4140, -7711, -7288, 581, -37, -59, 88, 142],
  "SliceThickness": 2.7,
  "SliceTiming": [0, 0.2525, 0.0625, 0.315, 0.125, 0.3775, 0.1875, 0, 0.2525, 0.0625, 0.315, 0.125, 0.3775, 0.1875, 0, 0.2525, 0.0625, 0.315, 0.125, 0.3775, 0.1875, 0, 0.2525, 0.0625, 0.315, 0.125, 0.3775, 0.1875, 0, 0.2525, 0.0625, 0.315, 0.125, 0.3775, 0.1875, 0, 0.2525, 0.0625, 0.315, 0.125, 0.3775, 0.1875, 0, 0.2525, 0.0625, 0.315, 0.125, 0.3775, 0.1875, 0, 0.2525, 0.0625, 0.315, 0.125, 0.3775, 0.1875],
  "SoftwareVersions": "syngo MR E11",
  "SpacingBetweenSlices": 2.7,
  "StationName": "AWP66112",
  "TaskName": "alignvideo",
  "TotalReadoutTime": 0.03969,
  "TxRefAmp": 245.544,
  "WipMemBlock": "972f8dd4-423a-488b-ac97-d3bac17a8c50||Sequence: R016 ve11e/master r/434b28f1; Aug  7 2019 18:53:46 by eja",
  "dcmmeta_affine": [
    [-2.6778171062469482, -0.10193522274494171, -0.1312178075313568, 117.65731811523438],
    [-0.10575930774211884, 2.679734468460083, 0.07752779871225357, -102.86856842041016],
    [-0.12730595469474792, -0.08203065395355225, 2.695694923400879, -72.5688247680664],
    [0.0, 0.0, 0.0, 1.0]
],
  "dcmmeta_reorient_transform": [
    [0.0, -1.0, 0.0, 81.0],
    [1.0, 0.0, 0.0, 0.0],
    [0.0, 0.0, 1.0, 0.0],
    [0.0, 0.0, 0.0, 1.0]
],
  "dcmmeta_shape": [82, 82, 56, 1016],
  "dcmmeta_slice_dim": 2,
  "dcmmeta_version": 0.6,
  "global": {
    "const": {
      "AccessionNumber": "A004056",
      "AcquisitionMatrix": [82, 0, 0, 82],
      "AngioFlag": "N",
      "BitsAllocated": 16,
      "BitsStored": 16,
      "BodyPartExamined": "BRAIN",
      "Columns": 656,
      "EchoNumbers": 1,
      "EchoTime": 27.2,
      "EchoTrainLength": 82,
      "FlipAngle": 44.0,
      "HighBit": 15,
      "ImageOrientationPatient": [0.99809547234471, 0.03941937864543, -0.0474504022343, -0.0379940352862, 0.99881010150362, 0.0305750620113],
      "ImagePositionPatient": [-848.67868676326, -913.62664328566, -66.219295586615],
      "ImageType": [
        "ORIGINAL",
        "PRIMARY",
        "M",
        "MB",
        "ND",
        "NORM",
        "MOSAIC"
],
      "ImagedNucleus": "1H",
      "ImagingFrequency": 123.252242,
      "InPlanePhaseEncodingDirection": "COL",
      "MRAcquisitionType": "2D",
      "MagneticFieldStrength": 3.0,
      "Manufacturer": "SIEMENS",
      "ManufacturerModelName": "Prisma",
      "Modality": "MR",
      "NumberOfAverages": 1.0,
      "NumberOfPhaseEncodingSteps": 82,
      "PercentPhaseFieldOfView": 100.0,
      "PercentSampling": 100.0,
      "PerformedProcedureStepStartTime": "082255.994000",
      "PhotometricInterpretation": "MONOCHROME2",
      "PixelBandwidth": 3050.0,
      "PixelRepresentation": 0,
      "PixelSpacing": [2.6829268932343, 2.6829268932343],
      "ProtocolName": "func_run-03_task-alignvideo_acq-ap-mb8",
      "RepetitionTime": 460.0,
      "Rows": 656,
      "SAR": 0.08654340372508,
      "SamplesPerPixel": 1,
      "ScanOptions": "FS",
      "ScanningSequence": "EP",
      "SequenceName": "epfid2d1_82",
      "SequenceVariant": [
        "SK",
        "SS"
],
      "SeriesDescription": "func_run-03_task-alignvideo_acq-ap-mb8",
      "SeriesNumber": 34,
      "SeriesTime": "095924.774000",
      "SliceLocation": -81.124935015847,
      "SliceThickness": 2.7000000476837,
      "SmallestImagePixelValue": 0,
      "SoftwareVersions": "syngo MR E11",
      "SpacingBetweenSlices": 2.6999999791332,
      "SpecificCharacterSet": "ISO_IR 100",
      "StudyID": "1",
      "StudyTime": "082255.910000",
      "TransmitCoilName": "Body",
      "VariableFlipAngleFlag": "N",
      "WindowCenterWidthExplanation": "Algo1"
    },
    "slices": {}
  },
  "time": {
    "samples": {
      "AcquisitionNumber": [1, 2, 3, 4, 5, 6, 7, 8, 9, 10, 11, 12, 13, 14, 15, 16, 17, 18, 19, 20, 21, 22, 23, 24, 25, 26, 27, 28, 29, 30, 31, 32, 33, 34, 35, 36, 37, 38, 39, 40, 41, 42, 43, 44, 45, 46, 47, 48, 49, 50, 51, 52, 53, 54, 55, 56, 57, 58, 59, 60, 61, 62, 63, 64, 65, 66, 67, 68, 69, 70, 71, 72, 73, 74, 75, 76, 77, 78, 79, 80, 81, 82, 83, 84, 85, 86, 87, 88, 89, 90, 91, 92, 93, 94, 95, 96, 97, 98, 99, 100, 101, 102, 103, 104, 105, 106, 107, 108, 109, 110, 111, 112, 113, 114, 115, 116, 117, 118, 119, 120, 121, 122, 123, 124, 125, 126, 127, 128, 129, 130, 131, 132, 133, 134, 135, 136, 137, 138, 139, 140, 141, 142, 143, 144, 145, 146, 147, 148, 149, 150, 151, 152, 153, 154, 155, 156, 157, 158, 159, 160, 161, 162, 163, 164, 165, 166, 167, 168, 169, 170, 171, 172, 173, 174, 175, 176, 177, 178, 179, 180, 181, 182, 183, 184, 185, 186, 187, 188, 189, 190, 191, 192, 193, 194, 195, 196, 197, 198, 199, 200, 201, 202, 203, 204, 205, 206, 207, 208, 209, 210, 211, 212, 213, 214, 215, 216, 217, 218, 219, 220, 221, 222, 223, 224, 225, 226, 227, 228, 229, 230, 231, 232, 233, 234, 235, 236, 237, 238, 239, 240, 241, 242, 243, 244, 245, 246, 247, 248, 249, 250, 251, 252, 253, 254, 255, 256, 257, 258, 259, 260, 261, 262, 263, 264, 265, 266, 267, 268, 269, 270, 271, 272, 273, 274, 275, 276, 277, 278, 279, 280, 281, 282, 283, 284, 285, 286, 287, 288, 289, 290, 291, 292, 293, 294, 295, 296, 297, 298, 299, 300, 301, 302, 303, 304, 305, 306, 307, 308, 309, 310, 311, 312, 313, 314, 315, 316, 317, 318, 319, 320, 321, 322, 323, 324, 325, 326, 327, 328, 329, 330, 331, 332, 333, 334, 335, 336, 337, 338, 339, 340, 341, 342, 343, 344, 345, 346, 347, 348, 349, 350, 351, 352, 353, 354, 355, 356, 357, 358, 359, 360, 361, 362, 363, 364, 365, 366, 367, 368, 369, 370, 371, 372, 373, 374, 375, 376, 377, 378, 379, 380, 381, 382, 383, 384, 385, 386, 387, 388, 389, 390, 391, 392, 393, 394, 395, 396, 397, 398, 399, 400, 401, 402, 403, 404, 405, 406, 407, 408, 409, 410, 411, 412, 413, 414, 415, 416, 417, 418, 419, 420, 421, 422, 423, 424, 425, 426, 427, 428, 429, 430, 431, 432, 433, 434, 435, 436, 437, 438, 439, 440, 441, 442, 443, 444, 445, 446, 447, 448, 449, 450, 451, 452, 453, 454, 455, 456, 457, 458, 459, 460, 461, 462, 463, 464, 465, 466, 467, 468, 469, 470, 471, 472, 473, 474, 475, 476, 477, 478, 479, 480, 481, 482, 483, 484, 485, 486, 487, 488, 489, 490, 491, 492, 493, 494, 495, 496, 497, 498, 499, 500, 501, 502, 503, 504, 505, 506, 507, 508, 509, 510, 511, 512, 513, 514, 515, 516, 517, 518, 519, 520, 521, 522, 523, 524, 525, 526, 527, 528, 529, 530, 531, 532, 533, 534, 535, 536, 537, 538, 539, 540, 541, 542, 543, 544, 545, 546, 547, 548, 549, 550, 551, 552, 553, 554, 555, 556, 557, 558, 559, 560, 561, 562, 563, 564, 565, 566, 567, 568, 569, 570, 571, 572, 573, 574, 575, 576, 577, 578, 579, 580, 581, 582, 583, 584, 585, 586, 587, 588, 589, 590, 591, 592, 593, 594, 595, 596, 597, 598, 599, 600, 601, 602, 603, 604, 605, 606, 607, 608, 609, 610, 611, 612, 613, 614, 615, 616, 617, 618, 619, 620, 621, 622, 623, 624, 625, 626, 627, 628, 629, 630, 631, 632, 633, 634, 635, 636, 637, 638, 639, 640, 641, 642, 643, 644, 645, 646, 647, 648, 649, 650, 651, 652, 653, 654, 655, 656, 657, 658, 659, 660, 661, 662, 663, 664, 665, 666, 667, 668, 669, 670, 671, 672, 673, 674, 675, 676, 677, 678, 679, 680, 681, 682, 683, 684, 685, 686, 687, 688, 689, 690, 691, 692, 693, 694, 695, 696, 697, 698, 699, 700, 701, 702, 703, 704, 705, 706, 707, 708, 709, 710, 711, 712, 713, 714, 715, 716, 717, 718, 719, 720, 721, 722, 723, 724, 725, 726, 727, 728, 729, 730, 731, 732, 733, 734, 735, 736, 737, 738, 739, 740, 741, 742, 743, 744, 745, 746, 747, 748, 749, 750, 751, 752, 753, 754, 755, 756, 757, 758, 759, 760, 761, 762, 763, 764, 765, 766, 767, 768, 769, 770, 771, 772, 773, 774, 775, 776, 777, 778, 779, 780, 781, 782, 783, 784, 785, 786, 787, 788, 789, 790, 791, 792, 793, 794, 795, 796, 797, 798, 799, 800, 801, 802, 803, 804, 805, 806, 807, 808, 809, 810, 811, 812, 813, 814, 815, 816, 817, 818, 819, 820, 821, 822, 823, 824, 825, 826, 827, 828, 829, 830, 831, 832, 833, 834, 835, 836, 837, 838, 839, 840, 841, 842, 843, 844, 845, 846, 847, 848, 849, 850, 851, 852, 853, 854, 855, 856, 857, 858, 859, 860, 861, 862, 863, 864, 865, 866, 867, 868, 869, 870, 871, 872, 873, 874, 875, 876, 877, 878, 879, 880, 881, 882, 883, 884, 885, 886, 887, 888, 889, 890, 891, 892, 893, 894, 895, 896, 897, 898, 899, 900, 901, 902, 903, 904, 905, 906, 907, 908, 909, 910, 911, 912, 913, 914, 915, 916, 917, 918, 919, 920, 921, 922, 923, 924, 925, 926, 927, 928, 929, 930, 931, 932, 933, 934, 935, 936, 937, 938, 939, 940, 941, 942, 943, 944, 945, 946, 947, 948, 949, 950, 951, 952, 953, 954, 955, 956, 957, 958, 959, 960, 961, 962, 963, 964, 965, 966, 967, 968, 969, 970, 971, 972, 973, 974, 975, 976, 977, 978, 979, 980, 981, 982, 983, 984, 985, 986, 987, 988, 989, 990, 991, 992, 993, 994, 995, 996, 997, 998, 999, 1000, 1001, 1002, 1003, 1004, 1005, 1006, 1007, 1008, 1009, 1010, 1011, 1012, 1013, 1014, 1015, 1016],
      "AcquisitionTime": ["095904.642500", "095905.102500", "095905.562500", "095906.022500", "095906.482500", "095906.942500", "095907.402500", "095907.862500", "095908.322500", "095908.782500", "095909.242500", "095909.702500", "095910.162500", "095910.622500", "095911.082500", "095911.542500", "095912.002500", "095912.462500", "095912.922500", "095913.382500", "095913.842500", "095914.302500", "095914.762500", "095915.222500", "095915.682500", "095916.142500", "095916.602500", "095917.062500", "095917.522500", "095917.982500", "095918.442500", "095918.902500", "095919.362500", "095919.822500", "095920.282500", "095920.742500", "095921.202500", "095921.662500", "095922.122500", "095922.582500", "095923.042500", "095923.502500", "095923.962500", "095924.422500", "095924.882500", "095925.342500", "095925.802500", "095926.262500", "095926.722500", "095927.182500", "095927.642500", "095928.102500", "095928.562500", "095929.022500", "095929.482500", "095929.942500", "095930.402500", "095930.862500", "095931.322500", "095931.782500", "095932.242500", "095932.702500", "095933.162500", "095933.622500", "095934.082500", "095934.542500", "095935.002500", "095935.462500", "095935.922500", "095936.382500", "095936.842500", "095937.302500", "095937.762500", "095938.222500", "095938.682500", "095939.142500", "095939.602500", "095940.062500", "095940.522500", "095940.982500", "095941.442500", "095941.902500", "095942.362500", "095942.822500", "095943.282500", "095943.742500", "095944.202500", "095944.662500", "095945.122500", "095945.582500", "095946.042500", "095946.502500", "095946.962500", "095947.422500", "095947.882500", "095948.342500", "095948.802500", "095949.262500", "095949.722500", "095950.182500", "095950.642500", "095951.102500", "095951.562500", "095952.022500", "095952.482500", "095952.942500", "095953.402500", "095953.862500", "095954.322500", "095954.782500", "095955.242500", "095955.702500", "095956.162500", "095956.622500", "095957.082500", "095957.542500", "095958.002500", "095958.462500", "095958.922500", "095959.382500", "095959.842500", "100000.302500", "100000.762500", "100001.222500", "100001.682500", "100002.142500", "100002.602500", "100003.062500", "100003.522500", "100003.982500", "100004.442500", "100004.902500", "100005.362500", "100005.822500", "100006.282500", "100006.742500", "100007.202500", "100007.662500", "100008.122500", "100008.582500", "100009.042500", "100009.502500", "100009.962500", "100010.422500", "100010.882500", "100011.342500", "100011.802500", "100012.262500", "100012.722500", "100013.182500", "100013.642500", "100014.102500", "100014.562500", "100015.022500", "100015.482500", "100015.942500", "100016.402500", "100016.862500", "100017.322500", "100017.782500", "100018.242500", "100018.702500", "100019.162500", "100019.622500", "100020.082500", "100020.542500", "100021.002500", "100021.462500", "100021.922500", "100022.382500", "100022.842500", "100023.302500", "100023.762500", "100024.222500", "100024.682500", "100025.142500", "100025.602500", "100026.062500", "100026.522500", "100026.982500", "100027.442500", "100027.902500", "100028.362500", "100028.822500", "100029.282500", "100029.742500", "100030.202500", "100030.662500", "100031.122500", "100031.582500", "100032.042500", "100032.502500", "100032.962500", "100033.422500", "100033.882500", "100034.342500", "100034.802500", "100035.262500", "100035.722500", "100036.182500", "100036.642500", "100037.102500", "100037.562500", "100038.022500", "100038.482500", "100038.942500", "100039.402500", "100039.862500", "100040.322500", "100040.782500", "100041.242500", "100041.702500", "100042.162500", "100042.622500", "100043.082500", "100043.542500", "100044.002500", "100044.462500", "100044.922500", "100045.382500", "100045.842500", "100046.302500", "100046.762500", "100047.222500", "100047.682500", "100048.142500", "100048.602500", "100049.062500", "100049.522500", "100049.982500", "100050.442500", "100050.902500", "100051.362500", "100051.822500", "100052.282500", "100052.742500", "100053.202500", "100053.662500", "100054.122500", "100054.582500", "100055.042500", "100055.502500", "100055.962500", "100056.422500", "100056.882500", "100057.342500", "100057.802500", "100058.262500", "100058.722500", "100059.182500", "100059.642500", "100100.102500", "100100.562500", "100101.022500", "100101.482500", "100101.942500", "100102.402500", "100102.862500", "100103.322500", "100103.782500", "100104.242500", "100104.702500", "100105.162500", "100105.622500", "100106.082500", "100106.542500", "100107.002500", "100107.462500", "100107.922500", "100108.382500", "100108.842500", "100109.302500", "100109.762500", "100110.222500", "100110.682500", "100111.142500", "100111.602500", "100112.062500", "100112.522500", "100112.982500", "100113.442500", "100113.902500", "100114.362500", "100114.822500", "100115.282500", "100115.742500", "100116.202500", "100116.662500", "100117.122500", "100117.582500", "100118.042500", "100118.502500", "100118.962500", "100119.422500", "100119.882500", "100120.342500", "100120.802500", "100121.262500", "100121.722500", "100122.182500", "100122.642500", "100123.102500", "100123.562500", "100124.022500", "100124.482500", "100124.942500", "100125.402500", "100125.862500", "100126.322500", "100126.782500", "100127.242500", "100127.702500", "100128.162500", "100128.622500", "100129.082500", "100129.542500", "100130.002500", "100130.462500", "100130.922500", "100131.382500", "100131.842500", "100132.302500", "100132.762500", "100133.222500", "100133.682500", "100134.142500", "100134.602500", "100135.062500", "100135.522500", "100135.982500", "100136.442500", "100136.902500", "100137.362500", "100137.822500", "100138.282500", "100138.742500", "100139.202500", "100139.662500", "100140.122500", "100140.582500", "100141.042500", "100141.502500", "100141.962500", "100142.422500", "100142.882500", "100143.342500", "100143.802500", "100144.262500", "100144.722500", "100145.182500", "100145.642500", "100146.102500", "100146.562500", "100147.022500", "100147.482500", "100147.942500", "100148.402500", "100148.862500", "100149.322500", "100149.782500", "100150.242500", "100150.702500", "100151.162500", "100151.622500", "100152.082500", "100152.542500", "100153.002500", "100153.462500", "100153.922500", "100154.382500", "100154.842500", "100155.302500", "100155.762500", "100156.222500", "100156.682500", "100157.142500", "100157.602500", "100158.062500", "100158.522500", "100158.982500", "100159.442500", "100159.902500", "100200.362500", "100200.822500", "100201.282500", "100201.742500", "100202.202500", "100202.662500", "100203.122500", "100203.582500", "100204.042500", "100204.502500", "100204.962500", "100205.422500", "100205.882500", "100206.342500", "100206.802500", "100207.262500", "100207.722500", "100208.182500", "100208.642500", "100209.102500", "100209.562500", "100210.022500", "100210.482500", "100210.942500", "100211.402500", "100211.862500", "100212.322500", "100212.782500", "100213.242500", "100213.702500", "100214.162500", "100214.622500", "100215.082500", "100215.542500", "100216.002500", "100216.462500", "100216.922500", "100217.382500", "100217.842500", "100218.302500", "100218.762500", "100219.222500", "100219.682500", "100220.142500", "100220.602500", "100221.062500", "100221.522500", "100221.982500", "100222.442500", "100222.902500", "100223.362500", "100223.822500", "100224.282500", "100224.742500", "100225.202500", "100225.662500", "100226.122500", "100226.582500", "100227.042500", "100227.502500", "100227.962500", "100228.422500", "100228.882500", "100229.342500", "100229.802500", "100230.262500", "100230.722500", "100231.182500", "100231.642500", "100232.102500", "100232.562500", "100233.022500", "100233.482500", "100233.942500", "100234.402500", "100234.862500", "100235.322500", "100235.782500", "100236.242500", "100236.702500", "100237.162500", "100237.622500", "100238.082500", "100238.542500", "100239.002500", "100239.462500", "100239.922500", "100240.382500", "100240.842500", "100241.302500", "100241.762500", "100242.222500", "100242.682500", "100243.142500", "100243.602500", "100244.062500", "100244.522500", "100244.982500", "100245.442500", "100245.902500", "100246.362500", "100246.822500", "100247.282500", "100247.742500", "100248.202500", "100248.662500", "100249.122500", "100249.582500", "100250.042500", "100250.502500", "100250.962500", "100251.422500", "100251.882500", "100252.342500", "100252.802500", "100253.262500", "100253.722500", "100254.182500", "100254.642500", "100255.102500", "100255.562500", "100256.022500", "100256.482500", "100256.942500", "100257.402500", "100257.862500", "100258.322500", "100258.782500", "100259.242500", "100259.702500", "100300.162500", "100300.622500", "100301.082500", "100301.542500", "100302.002500", "100302.462500", "100302.922500", "100303.382500", "100303.842500", "100304.302500", "100304.762500", "100305.222500", "100305.682500", "100306.142500", "100306.602500", "100307.062500", "100307.522500", "100307.982500", "100308.442500", "100308.902500", "100309.362500", "100309.822500", "100310.282500", "100310.742500", "100311.202500", "100311.662500", "100312.122500", "100312.582500", "100313.042500", "100313.502500", "100313.962500", "100314.422500", "100314.882500", "100315.342500", "100315.802500", "100316.262500", "100316.722500", "100317.182500", "100317.642500", "100318.102500", "100318.562500", "100319.022500", "100319.482500", "100319.942500", "100320.402500", "100320.862500", "100321.322500", "100321.782500", "100322.242500", "100322.702500", "100323.162500", "100323.622500", "100324.082500", "100324.542500", "100325.002500", "100325.462500", "100325.922500", "100326.382500", "100326.842500", "100327.302500", "100327.762500", "100328.222500", "100328.682500", "100329.142500", "100329.602500", "100330.062500", "100330.522500", "100330.982500", "100331.442500", "100331.902500", "100332.362500", "100332.822500", "100333.282500", "100333.742500", "100334.202500", "100334.662500", "100335.122500", "100335.582500", "100336.042500", "100336.502500", "100336.962500", "100337.422500", "100337.882500", "100338.342500", "100338.802500", "100339.262500", "100339.722500", "100340.182500", "100340.642500", "100341.102500", "100341.562500", "100342.022500", "100342.482500", "100342.942500", "100343.402500", "100343.862500", "100344.322500", "100344.782500", "100345.242500", "100345.702500", "100346.162500", "100346.622500", "100347.082500", "100347.542500", "100348.002500", "100348.462500", "100348.922500", "100349.382500", "100349.842500", "100350.302500", "100350.762500", "100351.222500", "100351.682500", "100352.142500", "100352.602500", "100353.062500", "100353.522500", "100353.982500", "100354.442500", "100354.902500", "100355.362500", "100355.822500", "100356.282500", "100356.742500", "100357.202500", "100357.662500", "100358.122500", "100358.582500", "100359.042500", "100359.502500", "100359.962500", "100400.422500", "100400.882500", "100401.342500", "100401.802500", "100402.262500", "100402.722500", "100403.182500", "100403.642500", "100404.102500", "100404.562500", "100405.022500", "100405.482500", "100405.942500", "100406.402500", "100406.862500", "100407.322500", "100407.782500", "100408.242500", "100408.702500", "100409.162500", "100409.622500", "100410.082500", "100410.542500", "100411.002500", "100411.462500", "100411.922500", "100412.382500", "100412.842500", "100413.302500", "100413.762500", "100414.222500", "100414.682500", "100415.142500", "100415.602500", "100416.062500", "100416.522500", "100416.982500", "100417.442500", "100417.902500", "100418.362500", "100418.822500", "100419.282500", "100419.742500", "100420.202500", "100420.662500", "100421.122500", "100421.582500", "100422.042500", "100422.502500", "100422.962500", "100423.422500", "100423.882500", "100424.342500", "100424.802500", "100425.262500", "100425.722500", "100426.182500", "100426.642500", "100427.102500", "100427.562500", "100428.022500", "100428.482500", "100428.942500", "100429.402500", "100429.862500", "100430.322500", "100430.782500", "100431.242500", "100431.702500", "100432.162500", "100432.622500", "100433.082500", "100433.542500", "100434.002500", "100434.462500", "100434.922500", "100435.382500", "100435.842500", "100436.302500", "100436.762500", "100437.222500", "100437.682500", "100438.142500", "100438.602500", "100439.062500", "100439.522500", "100439.982500", "100440.442500", "100440.902500", "100441.362500", "100441.822500", "100442.282500", "100442.742500", "100443.202500", "100443.662500", "100444.122500", "100444.582500", "100445.042500", "100445.502500", "100445.962500", "100446.422500", "100446.882500", "100447.342500", "100447.802500", "100448.262500", "100448.722500", "100449.182500", "100449.642500", "100450.102500", "100450.562500", "100451.022500", "100451.482500", "100451.942500", "100452.402500", "100452.862500", "100453.322500", "100453.782500", "100454.242500", "100454.702500", "100455.162500", "100455.622500", "100456.082500", "100456.542500", "100457.002500", "100457.462500", "100457.922500", "100458.382500", "100458.842500", "100459.302500", "100459.762500", "100500.222500", "100500.682500", "100501.142500", "100501.602500", "100502.062500", "100502.522500", "100502.982500", "100503.442500", "100503.902500", "100504.362500", "100504.822500", "100505.282500", "100505.742500", "100506.202500", "100506.662500", "100507.122500", "100507.582500", "100508.042500", "100508.502500", "100508.962500", "100509.422500", "100509.882500", "100510.342500", "100510.802500", "100511.262500", "100511.722500", "100512.182500", "100512.642500", "100513.102500", "100513.562500", "100514.022500", "100514.482500", "100514.942500", "100515.402500", "100515.862500", "100516.322500", "100516.782500", "100517.242500", "100517.702500", "100518.162500", "100518.622500", "100519.082500", "100519.542500", "100520.002500", "100520.462500", "100520.922500", "100521.382500", "100521.842500", "100522.302500", "100522.762500", "100523.222500", "100523.682500", "100524.142500", "100524.602500", "100525.062500", "100525.522500", "100525.982500", "100526.442500", "100526.902500", "100527.362500", "100527.822500", "100528.282500", "100528.742500", "100529.202500", "100529.662500", "100530.122500", "100530.582500", "100531.042500", "100531.502500", "100531.962500", "100532.422500", "100532.882500", "100533.342500", "100533.802500", "100534.262500", "100534.722500", "100535.182500", "100535.642500", "100536.102500", "100536.562500", "100537.022500", "100537.482500", "100537.942500", "100538.402500", "100538.862500", "100539.322500", "100539.782500", "100540.242500", "100540.702500", "100541.162500", "100541.622500", "100542.082500", "100542.542500", "100543.002500", "100543.462500", "100543.922500", "100544.382500", "100544.842500", "100545.302500", "100545.762500", "100546.222500", "100546.682500", "100547.142500", "100547.602500", "100548.062500", "100548.522500", "100548.982500", "100549.442500", "100549.902500", "100550.362500", "100550.822500", "100551.282500", "100551.742500", "100552.202500", "100552.662500", "100553.122500", "100553.582500", "100554.042500", "100554.502500", "100554.962500", "100555.422500", "100555.882500", "100556.342500", "100556.802500", "100557.262500", "100557.722500", "100558.182500", "100558.642500", "100559.102500", "100559.562500", "100600.022500", "100600.482500", "100600.942500", "100601.402500", "100601.862500", "100602.322500", "100602.782500", "100603.242500", "100603.702500", "100604.162500", "100604.622500", "100605.082500", "100605.542500", "100606.002500", "100606.462500", "100606.922500", "100607.382500", "100607.842500", "100608.302500", "100608.762500", "100609.222500", "100609.682500", "100610.142500", "100610.602500", "100611.062500", "100611.522500", "100611.982500", "100612.442500", "100612.902500", "100613.362500", "100613.822500", "100614.282500", "100614.742500", "100615.202500", "100615.662500", "100616.122500", "100616.582500", "100617.042500", "100617.502500", "100617.962500", "100618.422500", "100618.882500", "100619.342500", "100619.802500", "100620.262500", "100620.722500", "100621.182500", "100621.642500", "100622.102500", "100622.562500", "100623.022500", "100623.482500", "100623.942500", "100624.402500", "100624.862500", "100625.322500", "100625.782500", "100626.242500", "100626.702500", "100627.162500", "100627.622500", "100628.082500", "100628.542500", "100629.002500", "100629.462500", "100629.922500", "100630.382500", "100630.842500", "100631.302500", "100631.762500", "100632.222500", "100632.682500", "100633.142500", "100633.602500", "100634.062500", "100634.522500", "100634.982500", "100635.442500", "100635.902500", "100636.362500", "100636.822500", "100637.282500", "100637.742500", "100638.202500", "100638.662500", "100639.122500", "100639.582500", "100640.042500", "100640.502500", "100640.962500", "100641.422500", "100641.882500", "100642.342500", "100642.802500", "100643.262500", "100643.722500", "100644.182500", "100644.642500", "100645.102500", "100645.562500", "100646.022500", "100646.482500", "100646.942500", "100647.402500", "100647.862500", "100648.322500", "100648.782500", "100649.242500", "100649.702500", "100650.162500", "100650.622500", "100651.082500", "100651.542500"],
