{
  "AcquisitionMatrixPE": 82,
  "AcquisitionNumber": 1,
  "AcquisitionTime": "09:27:57.162500",
  "BandwidthPerPixelPhaseEncode": 24.888,
  "BaseResolution": 82,
  "BodyPartExamined": "BRAIN",
  "ConsistencyInfo": "N4_VE11E_LATEST_20181129",
  "ConversionSoftware": "dcm2niix",
  "ConversionSoftwareVersion": "v1.0.20201102",
  "DerivedVendorReportedEchoSpacing": 0.00049,
  "DeviceSerialNumber": "66112",
  "DwellTime": 2e-06,
  "EchoTime": 0.0272,
  "EchoTrainLength": 82,
  "EffectiveEchoSpacing": 0.00049,
  "FlipAngle": 44,
  "ImageComments": "Unaliased MB8/PE3",
  "ImageOrientationPatientDICOM": [0.999055, 0.0227096, -0.0370688, -0.0193573, 0.995896, 0.0884142],
  "ImageType": [
    "ORIGINAL",
    "PRIMARY",
    "M",
    "MB",
    "ND",
    "NORM",
    "MOSAIC"
],
  "ImagingFrequency": 123.252,
  "InPlanePhaseEncodingDirectionDICOM": "COL",
  "InstitutionAddress": "Maynard 3,Hanover,NH,US,03755",
  "InstitutionName": "Dartmouth College - PBS",
  "InstitutionalDepartmentName": "Department",
  "MRAcquisitionType": "2D",
  "MagneticFieldStrength": 3,
  "Manufacturer": "Siemens",
  "ManufacturersModelName": "Prisma",
  "Modality": "MR",
  "MultibandAccelerationFactor": 8,
  "PartialFourier": 1,
  "PatientPosition": "HFS",
  "PercentPhaseFOV": 100,
  "PercentSampling": 100,
  "PhaseEncodingDirection": "j-",
  "PhaseEncodingSteps": 82,
  "PhaseResolution": 1,
  "PixelBandwidth": 3050,
  "ProcedureStepDescription": "Wager_Wager^1076_spacetop",
  "ProtocolName": "func_run-06_task-social_acq-ap-mb8",
  "PulseSequenceDetails": "%CustomerSeq%\\cmrr_mbep2d_bold",
  "ReceiveCoilActiveElements": "HEA;HEP",
  "ReceiveCoilName": "Head_32",
  "ReconMatrixPE": 82,
  "RepetitionTime": 0.46,
  "SAR": 0.0864672,
  "ScanOptions": "FS",
  "ScanningSequence": "EP",
  "SequenceName": "epfid2d1_82",
  "SequenceVariant": "SK\\SS",
  "SeriesDescription": "func_run-06_task-social_acq-ap-mb8",
  "SeriesNumber": 22,
  "ShimSetting": [4140, -7704, -7290, 589, -41, 12, 78, 135],
  "SliceThickness": 2.7,
  "SliceTiming": [0, 0.2525, 0.0625, 0.315, 0.1275, 0.3775, 0.19, 0, 0.2525, 0.0625, 0.315, 0.1275, 0.3775, 0.19, 0, 0.2525, 0.0625, 0.315, 0.1275, 0.3775, 0.19, 0, 0.2525, 0.0625, 0.315, 0.1275, 0.3775, 0.19, 0, 0.2525, 0.0625, 0.315, 0.1275, 0.3775, 0.19, 0, 0.2525, 0.0625, 0.315, 0.1275, 0.3775, 0.19, 0, 0.2525, 0.0625, 0.315, 0.1275, 0.3775, 0.19, 0, 0.2525, 0.0625, 0.315, 0.1275, 0.3775, 0.19],
  "SoftwareVersions": "syngo MR E11",
  "SpacingBetweenSlices": 2.7,
  "StationName": "AWP66112",
  "TaskName": "social",
  "TotalReadoutTime": 0.03969,
  "TxRefAmp": 245.544,
  "WipMemBlock": "02d3ae2a-87cd-42f9-969e-2a0a532a0e76||Sequence: R016 ve11e/master r/434b28f1; Aug  7 2019 18:53:46 by eja",
  "dcmmeta_affine": [
    [-2.6803905963897705, -0.051934096962213516, -0.10509602725505829, 116.50434875488281],
    [-0.0609280988574028, 2.671915292739868, 0.23655515909194946, -94.67160034179688],
    [-0.09945274889469147, -0.23720870912075043, 2.687563180923462, -55.071807861328125],
    [0.0, 0.0, 0.0, 1.0]
],
  "dcmmeta_reorient_transform": [
    [0.0, -1.0, 0.0, 81.0],
    [1.0, 0.0, 0.0, 0.0],
    [0.0, 0.0, 1.0, 0.0],
    [0.0, 0.0, 0.0, 1.0]
],
  "dcmmeta_shape": [82, 82, 56, 872],
  "dcmmeta_slice_dim": 2,
  "dcmmeta_version": 0.6,
  "global": {
    "const": {
      "AccessionNumber": "A004056",
      "AcquisitionMatrix": [82, 0, 0, 82],
      "AngioFlag": "N",
      "BitsAllocated": 16,
      "BitsStored": 16,
      "BodyPartExamined": "BRAIN",
      "Columns": 656,
      "EchoNumbers": 1,
      "EchoTime": 27.2,
      "EchoTrainLength": 82,
      "FlipAngle": 44.0,
      "HighBit": 15,
      "ImageOrientationPatient": [0.99905464488843, 0.02270956384227, -0.03706875014, -0.0193572541487, 0.99589569438269, 0.08841415396776],
      "ImagePositionPatient": [-866.66469927079, -906.0796111946, -113.82167464635],
      "ImageType": [
        "ORIGINAL",
        "PRIMARY",
        "M",
        "MB",
        "ND",
        "NORM",
        "MOSAIC"
],
      "ImagedNucleus": "1H",
      "ImagingFrequency": 123.252218,
      "InPlanePhaseEncodingDirection": "COL",
      "MRAcquisitionType": "2D",
      "MagneticFieldStrength": 3.0,
      "Manufacturer": "SIEMENS",
      "ManufacturerModelName": "Prisma",
      "Modality": "MR",
      "NumberOfAverages": 1.0,
      "NumberOfPhaseEncodingSteps": 82,
      "PercentPhaseFieldOfView": 100.0,
      "PercentSampling": 100.0,
      "PerformedProcedureStepStartTime": "082255.994000",
      "PhotometricInterpretation": "MONOCHROME2",
      "PixelBandwidth": 3050.0,
      "PixelRepresentation": 0,
      "PixelSpacing": [2.6829268932343, 2.6829268932343],
      "ProtocolName": "func_run-06_task-social_acq-ap-mb8",
      "RepetitionTime": 460.0,
      "Rows": 656,
      "SAR": 0.08646717138811,
      "SamplesPerPixel": 1,
      "ScanOptions": "FS",
      "ScanningSequence": "EP",
      "SequenceName": "epfid2d1_82",
      "SequenceVariant": [
        "SK",
        "SS"
],
      "SeriesDescription": "func_run-06_task-social_acq-ap-mb8",
      "SeriesNumber": 22,
      "SeriesTime": "092824.784000",
      "SliceLocation": -67.647469513969,
      "SliceThickness": 2.7000000476837,
      "SmallestImagePixelValue": 0,
      "SoftwareVersions": "syngo MR E11",
      "SpacingBetweenSlices": 2.6999999573475,
      "SpecificCharacterSet": "ISO_IR 100",
      "StudyID": "1",
      "StudyTime": "082255.910000",
      "TransmitCoilName": "Body",
      "VariableFlipAngleFlag": "N",
      "WindowCenterWidthExplanation": "Algo1"
    },
    "slices": {}
  },
  "time": {
    "samples": {
      "AcquisitionNumber": [1, 2, 3, 4, 5, 6, 7, 8, 9, 10, 11, 12, 13, 14, 15, 16, 17, 18, 19, 20, 21, 22, 23, 24, 25, 26, 27, 28, 29, 30, 31, 32, 33, 34, 35, 36, 37, 38, 39, 40, 41, 42, 43, 44, 45, 46, 47, 48, 49, 50, 51, 52, 53, 54, 55, 56, 57, 58, 59, 60, 61, 62, 63, 64, 65, 66, 67, 68, 69, 70, 71, 72, 73, 74, 75, 76, 77, 78, 79, 80, 81, 82, 83, 84, 85, 86, 87, 88, 89, 90, 91, 92, 93, 94, 95, 96, 97, 98, 99, 100, 101, 102, 103, 104, 105, 106, 107, 108, 109, 110, 111, 112, 113, 114, 115, 116, 117, 118, 119, 120, 121, 122, 123, 124, 125, 126, 127, 128, 129, 130, 131, 132, 133, 134, 135, 136, 137, 138, 139, 140, 141, 142, 143, 144, 145, 146, 147, 148, 149, 150, 151, 152, 153, 154, 155, 156, 157, 158, 159, 160, 161, 162, 163, 164, 165, 166, 167, 168, 169, 170, 171, 172, 173, 174, 175, 176, 177, 178, 179, 180, 181, 182, 183, 184, 185, 186, 187, 188, 189, 190, 191, 192, 193, 194, 195, 196, 197, 198, 199, 200, 201, 202, 203, 204, 205, 206, 207, 208, 209, 210, 211, 212, 213, 214, 215, 216, 217, 218, 219, 220, 221, 222, 223, 224, 225, 226, 227, 228, 229, 230, 231, 232, 233, 234, 235, 236, 237, 238, 239, 240, 241, 242, 243, 244, 245, 246, 247, 248, 249, 250, 251, 252, 253, 254, 255, 256, 257, 258, 259, 260, 261, 262, 263, 264, 265, 266, 267, 268, 269, 270, 271, 272, 273, 274, 275, 276, 277, 278, 279, 280, 281, 282, 283, 284, 285, 286, 287, 288, 289, 290, 291, 292, 293, 294, 295, 296, 297, 298, 299, 300, 301, 302, 303, 304, 305, 306, 307, 308, 309, 310, 311, 312, 313, 314, 315, 316, 317, 318, 319, 320, 321, 322, 323, 324, 325, 326, 327, 328, 329, 330, 331, 332, 333, 334, 335, 336, 337, 338, 339, 340, 341, 342, 343, 344, 345, 346, 347, 348, 349, 350, 351, 352, 353, 354, 355, 356, 357, 358, 359, 360, 361, 362, 363, 364, 365, 366, 367, 368, 369, 370, 371, 372, 373, 374, 375, 376, 377, 378, 379, 380, 381, 382, 383, 384, 385, 386, 387, 388, 389, 390, 391, 392, 393, 394, 395, 396, 397, 398, 399, 400, 401, 402, 403, 404, 405, 406, 407, 408, 409, 410, 411, 412, 413, 414, 415, 416, 417, 418, 419, 420, 421, 422, 423, 424, 425, 426, 427, 428, 429, 430, 431, 432, 433, 434, 435, 436, 437, 438, 439, 440, 441, 442, 443, 444, 445, 446, 447, 448, 449, 450, 451, 452, 453, 454, 455, 456, 457, 458, 459, 460, 461, 462, 463, 464, 465, 466, 467, 468, 469, 470, 471, 472, 473, 474, 475, 476, 477, 478, 479, 480, 481, 482, 483, 484, 485, 486, 487, 488, 489, 490, 491, 492, 493, 494, 495, 496, 497, 498, 499, 500, 501, 502, 503, 504, 505, 506, 507, 508, 509, 510, 511, 512, 513, 514, 515, 516, 517, 518, 519, 520, 521, 522, 523, 524, 525, 526, 527, 528, 529, 530, 531, 532, 533, 534, 535, 536, 537, 538, 539, 540, 541, 542, 543, 544, 545, 546, 547, 548, 549, 550, 551, 552, 553, 554, 555, 556, 557, 558, 559, 560, 561, 562, 563, 564, 565, 566, 567, 568, 569, 570, 571, 572, 573, 574, 575, 576, 577, 578, 579, 580, 581, 582, 583, 584, 585, 586, 587, 588, 589, 590, 591, 592, 593, 594, 595, 596, 597, 598, 599, 600, 601, 602, 603, 604, 605, 606, 607, 608, 609, 610, 611, 612, 613, 614, 615, 616, 617, 618, 619, 620, 621, 622, 623, 624, 625, 626, 627, 628, 629, 630, 631, 632, 633, 634, 635, 636, 637, 638, 639, 640, 641, 642, 643, 644, 645, 646, 647, 648, 649, 650, 651, 652, 653, 654, 655, 656, 657, 658, 659, 660, 661, 662, 663, 664, 665, 666, 667, 668, 669, 670, 671, 672, 673, 674, 675, 676, 677, 678, 679, 680, 681, 682, 683, 684, 685, 686, 687, 688, 689, 690, 691, 692, 693, 694, 695, 696, 697, 698, 699, 700, 701, 702, 703, 704, 705, 706, 707, 708, 709, 710, 711, 712, 713, 714, 715, 716, 717, 718, 719, 720, 721, 722, 723, 724, 725, 726, 727, 728, 729, 730, 731, 732, 733, 734, 735, 736, 737, 738, 739, 740, 741, 742, 743, 744, 745, 746, 747, 748, 749, 750, 751, 752, 753, 754, 755, 756, 757, 758, 759, 760, 761, 762, 763, 764, 765, 766, 767, 768, 769, 770, 771, 772, 773, 774, 775, 776, 777, 778, 779, 780, 781, 782, 783, 784, 785, 786, 787, 788, 789, 790, 791, 792, 793, 794, 795, 796, 797, 798, 799, 800, 801, 802, 803, 804, 805, 806, 807, 808, 809, 810, 811, 812, 813, 814, 815, 816, 817, 818, 819, 820, 821, 822, 823, 824, 825, 826, 827, 828, 829, 830, 831, 832, 833, 834, 835, 836, 837, 838, 839, 840, 841, 842, 843, 844, 845, 846, 847, 848, 849, 850, 851, 852, 853, 854, 855, 856, 857, 858, 859, 860, 861, 862, 863, 864, 865, 866, 867, 868, 869, 870, 871, 872],
      "AcquisitionTime": ["092757.162500", "092757.622500", "092758.082500", "092758.542500", "092759.002500", "092759.462500", "092759.922500", "092800.382500", "092800.842500", "092801.302500", "092801.762500", "092802.222500", "092802.682500", "092803.142500", "092803.602500", "092804.062500", "092804.522500", "092804.982500", "092805.442500", "092805.902500", "092806.362500", "092806.822500", "092807.282500", "092807.742500", "092808.202500", "092808.662500", "092809.122500", "092809.582500", "092810.042500", "092810.502500", "092810.962500", "092811.422500", "092811.882500", "092812.342500", "092812.802500", "092813.262500", "092813.722500", "092814.182500", "092814.642500", "092815.102500", "092815.562500", "092816.022500", "092816.482500", "092816.942500", "092817.402500", "092817.862500", "092818.322500", "092818.782500", "092819.242500", "092819.702500", "092820.162500", "092820.622500", "092821.082500", "092821.542500", "092822.002500", "092822.462500", "092822.922500", "092823.382500", "092823.842500", "092824.302500", "092824.762500", "092825.222500", "092825.682500", "092826.142500", "092826.602500", "092827.062500", "092827.522500", "092827.982500", "092828.442500", "092828.902500", "092829.362500", "092829.822500", "092830.282500", "092830.742500", "092831.202500", "092831.662500", "092832.122500", "092832.582500", "092833.042500", "092833.502500", "092833.962500", "092834.422500", "092834.882500", "092835.342500", "092835.802500", "092836.262500", "092836.722500", "092837.182500", "092837.642500", "092838.102500", "092838.562500", "092839.022500", "092839.482500", "092839.942500", "092840.402500", "092840.862500", "092841.322500", "092841.782500", "092842.242500", "092842.702500", "092843.162500", "092843.622500", "092844.082500", "092844.542500", "092845.002500", "092845.462500", "092845.922500", "092846.382500", "092846.842500", "092847.302500", "092847.762500", "092848.222500", "092848.682500", "092849.142500", "092849.602500", "092850.062500", "092850.522500", "092850.982500", "092851.442500", "092851.902500", "092852.362500", "092852.822500", "092853.282500", "092853.742500", "092854.202500", "092854.662500", "092855.122500", "092855.582500", "092856.042500", "092856.502500", "092856.962500", "092857.422500", "092857.882500", "092858.342500", "092858.802500", "092859.262500", "092859.722500", "092900.182500", "092900.642500", "092901.102500", "092901.562500", "092902.022500", "092902.482500", "092902.942500", "092903.402500", "092903.862500", "092904.322500", "092904.782500", "092905.242500", "092905.702500", "092906.162500", "092906.622500", "092907.082500", "092907.542500", "092908.002500", "092908.462500", "092908.922500", "092909.382500", "092909.842500", "092910.302500", "092910.762500", "092911.222500", "092911.682500", "092912.142500", "092912.602500", "092913.062500", "092913.522500", "092913.982500", "092914.442500", "092914.902500", "092915.362500", "092915.822500", "092916.282500", "092916.742500", "092917.202500", "092917.662500", "092918.122500", "092918.582500", "092919.042500", "092919.502500", "092919.962500", "092920.422500", "092920.882500", "092921.342500", "092921.802500", "092922.262500", "092922.722500", "092923.182500", "092923.642500", "092924.102500", "092924.562500", "092925.022500", "092925.482500", "092925.942500", "092926.402500", "092926.862500", "092927.322500", "092927.782500", "092928.242500", "092928.702500", "092929.162500", "092929.622500", "092930.082500", "092930.542500", "092931.002500", "092931.462500", "092931.922500", "092932.382500", "092932.842500", "092933.302500", "092933.762500", "092934.222500", "092934.682500", "092935.142500", "092935.602500", "092936.062500", "092936.522500", "092936.982500", "092937.442500", "092937.902500", "092938.362500", "092938.822500", "092939.282500", "092939.742500", "092940.202500", "092940.662500", "092941.122500", "092941.582500", "092942.042500", "092942.502500", "092942.962500", "092943.422500", "092943.882500", "092944.342500", "092944.802500", "092945.262500", "092945.722500", "092946.182500", "092946.642500", "092947.102500", "092947.562500", "092948.022500", "092948.482500", "092948.942500", "092949.402500", "092949.862500", "092950.322500", "092950.782500", "092951.242500", "092951.702500", "092952.162500", "092952.622500", "092953.082500", "092953.542500", "092954.002500", "092954.462500", "092954.922500", "092955.382500", "092955.842500", "092956.302500", "092956.762500", "092957.222500", "092957.682500", "092958.142500", "092958.602500", "092959.062500", "092959.522500", "092959.982500", "093000.442500", "093000.902500", "093001.362500", "093001.822500", "093002.282500", "093002.742500", "093003.202500", "093003.662500", "093004.122500", "093004.582500", "093005.042500", "093005.502500", "093005.962500", "093006.422500", "093006.882500", "093007.342500", "093007.802500", "093008.262500", "093008.722500", "093009.182500", "093009.642500", "093010.102500", "093010.562500", "093011.022500", "093011.482500", "093011.942500", "093012.402500", "093012.862500", "093013.322500", "093013.782500", "093014.242500", "093014.702500", "093015.162500", "093015.622500", "093016.082500", "093016.542500", "093017.002500", "093017.462500", "093017.922500", "093018.382500", "093018.842500", "093019.302500", "093019.762500", "093020.222500", "093020.682500", "093021.142500", "093021.602500", "093022.062500", "093022.522500", "093022.982500", "093023.442500", "093023.902500", "093024.362500", "093024.822500", "093025.282500", "093025.742500", "093026.202500", "093026.662500", "093027.122500", "093027.582500", "093028.042500", "093028.502500", "093028.962500", "093029.422500", "093029.882500", "093030.342500", "093030.802500", "093031.262500", "093031.722500", "093032.182500", "093032.642500", "093033.102500", "093033.562500", "093034.022500", "093034.482500", "093034.942500", "093035.402500", "093035.862500", "093036.322500", "093036.782500", "093037.242500", "093037.702500", "093038.162500", "093038.622500", "093039.082500", "093039.542500", "093040.002500", "093040.462500", "093040.922500", "093041.382500", "093041.842500", "093042.302500", "093042.762500", "093043.222500", "093043.682500", "093044.142500", "093044.602500", "093045.062500", "093045.522500", "093045.982500", "093046.442500", "093046.902500", "093047.362500", "093047.822500", "093048.282500", "093048.742500", "093049.202500", "093049.662500", "093050.122500", "093050.582500", "093051.042500", "093051.502500", "093051.962500", "093052.422500", "093052.882500", "093053.342500", "093053.802500", "093054.262500", "093054.722500", "093055.182500", "093055.642500", "093056.102500", "093056.562500", "093057.022500", "093057.482500", "093057.942500", "093058.402500", "093058.862500", "093059.322500", "093059.782500", "093100.242500", "093100.702500", "093101.162500", "093101.622500", "093102.082500", "093102.542500", "093103.002500", "093103.462500", "093103.922500", "093104.382500", "093104.842500", "093105.302500", "093105.762500", "093106.222500", "093106.682500", "093107.142500", "093107.602500", "093108.062500", "093108.522500", "093108.982500", "093109.442500", "093109.902500", "093110.362500", "093110.822500", "093111.282500", "093111.742500", "093112.202500", "093112.662500", "093113.122500", "093113.582500", "093114.042500", "093114.502500", "093114.962500", "093115.422500", "093115.882500", "093116.342500", "093116.802500", "093117.262500", "093117.722500", "093118.182500", "093118.642500", "093119.102500", "093119.562500", "093120.022500", "093120.482500", "093120.942500", "093121.402500", "093121.862500", "093122.322500", "093122.782500", "093123.242500", "093123.702500", "093124.162500", "093124.622500", "093125.082500", "093125.542500", "093126.002500", "093126.462500", "093126.922500", "093127.382500", "093127.842500", "093128.302500", "093128.762500", "093129.222500", "093129.682500", "093130.142500", "093130.602500", "093131.062500", "093131.522500", "093131.982500", "093132.442500", "093132.902500", "093133.362500", "093133.822500", "093134.282500", "093134.742500", "093135.202500", "093135.662500", "093136.122500", "093136.582500", "093137.042500", "093137.502500", "093137.962500", "093138.422500", "093138.882500", "093139.342500", "093139.802500", "093140.262500", "093140.722500", "093141.182500", "093141.642500", "093142.102500", "093142.562500", "093143.022500", "093143.482500", "093143.942500", "093144.402500", "093144.862500", "093145.322500", "093145.782500", "093146.242500", "093146.702500", "093147.162500", "093147.622500", "093148.082500", "093148.542500", "093149.002500", "093149.462500", "093149.922500", "093150.382500", "093150.842500", "093151.302500", "093151.762500", "093152.222500", "093152.682500", "093153.142500", "093153.602500", "093154.062500", "093154.522500", "093154.982500", "093155.442500", "093155.902500", "093156.362500", "093156.822500", "093157.282500", "093157.742500", "093158.202500", "093158.662500", "093159.122500", "093159.582500", "093200.042500", "093200.502500", "093200.962500", "093201.422500", "093201.882500", "093202.342500", "093202.802500", "093203.262500", "093203.722500", "093204.182500", "093204.642500", "093205.102500", "093205.562500", "093206.022500", "093206.482500", "093206.942500", "093207.402500", "093207.862500", "093208.322500", "093208.782500", "093209.242500", "093209.702500", "093210.162500", "093210.622500", "093211.082500", "093211.542500", "093212.002500", "093212.462500", "093212.922500", "093213.382500", "093213.842500", "093214.302500", "093214.762500", "093215.222500", "093215.682500", "093216.142500", "093216.602500", "093217.062500", "093217.522500", "093217.982500", "093218.442500", "093218.902500", "093219.362500", "093219.822500", "093220.282500", "093220.742500", "093221.202500", "093221.662500", "093222.122500", "093222.582500", "093223.042500", "093223.502500", "093223.962500", "093224.422500", "093224.882500", "093225.342500", "093225.802500", "093226.262500", "093226.722500", "093227.182500", "093227.642500", "093228.102500", "093228.562500", "093229.022500", "093229.482500", "093229.942500", "093230.402500", "093230.862500", "093231.322500", "093231.782500", "093232.242500", "093232.702500", "093233.162500", "093233.622500", "093234.082500", "093234.542500", "093235.002500", "093235.462500", "093235.922500", "093236.382500", "093236.842500", "093237.302500", "093237.762500", "093238.222500", "093238.682500", "093239.142500", "093239.602500", "093240.062500", "093240.522500", "093240.982500", "093241.442500", "093241.902500", "093242.362500", "093242.822500", "093243.282500", "093243.742500", "093244.202500", "093244.662500", "093245.122500", "093245.582500", "093246.042500", "093246.502500", "093246.962500", "093247.422500", "093247.882500", "093248.342500", "093248.802500", "093249.262500", "093249.722500", "093250.182500", "093250.642500", "093251.102500", "093251.562500", "093252.022500", "093252.482500", "093252.942500", "093253.402500", "093253.862500", "093254.322500", "093254.782500", "093255.242500", "093255.702500", "093256.162500", "093256.622500", "093257.082500", "093257.542500", "093258.002500", "093258.462500", "093258.922500", "093259.382500", "093259.842500", "093300.302500", "093300.762500", "093301.222500", "093301.682500", "093302.142500", "093302.602500", "093303.062500", "093303.522500", "093303.982500", "093304.442500", "093304.902500", "093305.362500", "093305.822500", "093306.282500", "093306.742500", "093307.202500", "093307.662500", "093308.122500", "093308.582500", "093309.042500", "093309.502500", "093309.962500", "093310.422500", "093310.882500", "093311.342500", "093311.802500", "093312.262500", "093312.722500", "093313.182500", "093313.642500", "093314.102500", "093314.562500", "093315.022500", "093315.482500", "093315.942500", "093316.402500", "093316.862500", "093317.322500", "093317.782500", "093318.242500", "093318.702500", "093319.162500", "093319.622500", "093320.082500", "093320.542500", "093321.002500", "093321.462500", "093321.922500", "093322.382500", "093322.842500", "093323.302500", "093323.762500", "093324.222500", "093324.682500", "093325.142500", "093325.602500", "093326.062500", "093326.522500", "093326.982500", "093327.442500", "093327.902500", "093328.362500", "093328.822500", "093329.282500", "093329.742500", "093330.202500", "093330.662500", "093331.122500", "093331.582500", "093332.042500", "093332.502500", "093332.962500", "093333.422500", "093333.882500", "093334.342500", "093334.802500", "093335.262500", "093335.722500", "093336.182500", "093336.642500", "093337.102500", "093337.562500", "093338.022500", "093338.482500", "093338.942500", "093339.402500", "093339.862500", "093340.322500", "093340.782500", "093341.242500", "093341.702500", "093342.162500", "093342.622500", "093343.082500", "093343.542500", "093344.002500", "093344.462500", "093344.922500", "093345.382500", "093345.842500", "093346.302500", "093346.762500", "093347.222500", "093347.682500", "093348.142500", "093348.602500", "093349.062500", "093349.522500", "093349.982500", "093350.442500", "093350.902500", "093351.362500", "093351.822500", "093352.282500", "093352.742500", "093353.202500", "093353.662500", "093354.122500", "093354.582500", "093355.042500", "093355.502500", "093355.962500", "093356.422500", "093356.882500", "093357.342500", "093357.802500", "093358.262500", "093358.722500", "093359.182500", "093359.642500", "093400.102500", "093400.562500", "093401.022500", "093401.482500", "093401.942500", "093402.402500", "093402.862500", "093403.322500", "093403.782500", "093404.242500", "093404.702500", "093405.162500", "093405.622500", "093406.082500", "093406.542500", "093407.002500", "093407.462500", "093407.922500", "093408.382500", "093408.842500", "093409.302500", "093409.762500", "093410.222500", "093410.682500", "093411.142500", "093411.602500", "093412.062500", "093412.522500", "093412.982500", "093413.442500", "093413.902500", "093414.362500", "093414.822500", "093415.282500", "093415.742500", "093416.202500", "093416.662500", "093417.122500", "093417.582500", "093418.042500", "093418.502500", "093418.962500", "093419.422500", "093419.882500", "093420.342500", "093420.802500", "093421.262500", "093421.722500", "093422.182500", "093422.642500", "093423.102500", "093423.562500", "093424.022500", "093424.482500", "093424.942500", "093425.402500", "093425.862500", "093426.322500", "093426.782500", "093427.242500", "093427.702500", "093428.162500", "093428.622500", "093429.082500", "093429.542500", "093430.002500", "093430.462500", "093430.922500", "093431.382500", "093431.842500", "093432.302500", "093432.762500", "093433.222500", "093433.682500", "093434.142500", "093434.602500", "093435.062500", "093435.522500", "093435.982500", "093436.442500", "093436.902500", "093437.362500", "093437.822500"],
