{
  "AcquisitionMatrixPE": 82,
  "AcquisitionNumber": 1,
  "AcquisitionTime": "09:12:55.542500",
  "BandwidthPerPixelPhaseEncode": 24.888,
  "BaseResolution": 82,
  "BodyPartExamined": "BRAIN",
  "ConsistencyInfo": "N4_VE11E_LATEST_20181129",
  "ConversionSoftware": "dcm2niix",
  "ConversionSoftwareVersion": "v1.0.20201102",
  "DerivedVendorReportedEchoSpacing": 0.00049,
  "DeviceSerialNumber": "66112",
  "DwellTime": 2e-06,
  "EchoTime": 0.0272,
  "EchoTrainLength": 82,
  "EffectiveEchoSpacing": 0.00049,
  "FlipAngle": 44,
  "ImageComments": "Unaliased MB8/PE3",
  "ImageOrientationPatientDICOM": [0.999055, 0.0227096, -0.0370688, -0.0193573, 0.995896, 0.0884142],
  "ImageType": [
    "ORIGINAL",
    "PRIMARY",
    "M",
    "MB",
    "ND",
    "NORM",
    "MOSAIC"
],
  "ImagingFrequency": 123.252,
  "InPlanePhaseEncodingDirectionDICOM": "COL",
  "InstitutionAddress": "Maynard 3,Hanover,NH,US,03755",
  "InstitutionName": "Dartmouth College - PBS",
  "InstitutionalDepartmentName": "Department",
  "MRAcquisitionType": "2D",
  "MagneticFieldStrength": 3,
  "Manufacturer": "Siemens",
  "ManufacturersModelName": "Prisma",
  "Modality": "MR",
  "MultibandAccelerationFactor": 8,
  "PartialFourier": 1,
  "PatientPosition": "HFS",
  "PercentPhaseFOV": 100,
  "PercentSampling": 100,
  "PhaseEncodingDirection": "j-",
  "PhaseEncodingSteps": 82,
  "PhaseResolution": 1,
  "PixelBandwidth": 3050,
  "ProcedureStepDescription": "Wager_Wager^1076_spacetop",
  "ProtocolName": "func_run-04_task-social_acq-ap-mb8",
  "PulseSequenceDetails": "%CustomerSeq%\\cmrr_mbep2d_bold",
  "ReceiveCoilActiveElements": "HEA;HEP",
  "ReceiveCoilName": "Head_32",
  "ReconMatrixPE": 82,
  "RepetitionTime": 0.46,
  "SAR": 0.0864672,
  "ScanOptions": "FS",
  "ScanningSequence": "EP",
  "SequenceName": "epfid2d1_82",
  "SequenceVariant": "SK\\SS",
  "SeriesDescription": "func_run-04_task-social_acq-ap-mb8",
  "SeriesNumber": 18,
  "ShimSetting": [4140, -7704, -7290, 589, -41, 12, 78, 135],
  "SliceThickness": 2.7,
  "SliceTiming": [0, 0.2525, 0.065, 0.315, 0.1275, 0.3775, 0.19, 0, 0.2525, 0.065, 0.315, 0.1275, 0.3775, 0.19, 0, 0.2525, 0.065, 0.315, 0.1275, 0.3775, 0.19, 0, 0.2525, 0.065, 0.315, 0.1275, 0.3775, 0.19, 0, 0.2525, 0.065, 0.315, 0.1275, 0.3775, 0.19, 0, 0.2525, 0.065, 0.315, 0.1275, 0.3775, 0.19, 0, 0.2525, 0.065, 0.315, 0.1275, 0.3775, 0.19, 0, 0.2525, 0.065, 0.315, 0.1275, 0.3775, 0.19],
  "SoftwareVersions": "syngo MR E11",
  "SpacingBetweenSlices": 2.7,
  "StationName": "AWP66112",
  "TaskName": "social",
  "TotalReadoutTime": 0.03969,
  "TxRefAmp": 245.544,
  "WipMemBlock": "d58b8809-d7d7-4d15-be88-a34f860b7e98||Sequence: R016 ve11e/master r/434b28f1; Aug  7 2019 18:53:46 by eja",
  "dcmmeta_affine": [
    [-2.6803905963897705, -0.051934096962213516, -0.10509602725505829, 116.50434875488281],
    [-0.0609280988574028, 2.671915292739868, 0.23655515909194946, -94.67160034179688],
    [-0.09945274889469147, -0.23720870912075043, 2.687563180923462, -55.071807861328125],
    [0.0, 0.0, 0.0, 1.0]
],
  "dcmmeta_reorient_transform": [
    [0.0, -1.0, 0.0, 81.0],
    [1.0, 0.0, 0.0, 0.0],
    [0.0, 0.0, 1.0, 0.0],
    [0.0, 0.0, 0.0, 1.0]
],
  "dcmmeta_shape": [82, 82, 56, 872],
  "dcmmeta_slice_dim": 2,
  "dcmmeta_version": 0.6,
  "global": {
    "const": {
      "AccessionNumber": "A004056",
      "AcquisitionMatrix": [82, 0, 0, 82],
      "AngioFlag": "N",
      "BitsAllocated": 16,
      "BitsStored": 16,
      "BodyPartExamined": "BRAIN",
      "Columns": 656,
      "EchoNumbers": 1,
      "EchoTime": 27.2,
      "EchoTrainLength": 82,
      "FlipAngle": 44.0,
      "HighBit": 15,
      "ImageOrientationPatient": [0.99905464488843, 0.02270956384227, -0.03706875014, -0.0193572541487, 0.99589569438269, 0.08841415396776],
      "ImagePositionPatient": [-866.66469927079, -906.0796111946, -113.82167464635],
      "ImageType": [
        "ORIGINAL",
        "PRIMARY",
        "M",
        "MB",
        "ND",
        "NORM",
        "MOSAIC"
],
      "ImagedNucleus": "1H",
      "ImagingFrequency": 123.252216,
      "InPlanePhaseEncodingDirection": "COL",
      "MRAcquisitionType": "2D",
      "MagneticFieldStrength": 3.0,
      "Manufacturer": "SIEMENS",
      "ManufacturerModelName": "Prisma",
      "Modality": "MR",
      "NumberOfAverages": 1.0,
      "NumberOfPhaseEncodingSteps": 82,
      "PercentPhaseFieldOfView": 100.0,
      "PercentSampling": 100.0,
      "PerformedProcedureStepStartTime": "082255.994000",
      "PhotometricInterpretation": "MONOCHROME2",
      "PixelBandwidth": 3050.0,
      "PixelRepresentation": 0,
      "PixelSpacing": [2.6829268932343, 2.6829268932343],
      "ProtocolName": "func_run-04_task-social_acq-ap-mb8",
      "RepetitionTime": 460.0,
      "Rows": 656,
      "SAR": 0.08646717138811,
      "SamplesPerPixel": 1,
      "ScanOptions": "FS",
      "ScanningSequence": "EP",
      "SequenceName": "epfid2d1_82",
      "SequenceVariant": [
        "SK",
        "SS"
],
      "SeriesDescription": "func_run-04_task-social_acq-ap-mb8",
      "SeriesNumber": 18,
      "SeriesTime": "091324.862000",
      "SliceLocation": -67.647469513969,
      "SliceThickness": 2.7000000476837,
      "SmallestImagePixelValue": 0,
      "SoftwareVersions": "syngo MR E11",
      "SpacingBetweenSlices": 2.6999999573475,
      "SpecificCharacterSet": "ISO_IR 100",
      "StudyID": "1",
      "StudyTime": "082255.910000",
      "TransmitCoilName": "Body",
      "VariableFlipAngleFlag": "N",
      "WindowCenterWidthExplanation": "Algo1"
    },
    "slices": {}
  },
  "time": {
    "samples": {
      "AcquisitionNumber": [1, 2, 3, 4, 5, 6, 7, 8, 9, 10, 11, 12, 13, 14, 15, 16, 17, 18, 19, 20, 21, 22, 23, 24, 25, 26, 27, 28, 29, 30, 31, 32, 33, 34, 35, 36, 37, 38, 39, 40, 41, 42, 43, 44, 45, 46, 47, 48, 49, 50, 51, 52, 53, 54, 55, 56, 57, 58, 59, 60, 61, 62, 63, 64, 65, 66, 67, 68, 69, 70, 71, 72, 73, 74, 75, 76, 77, 78, 79, 80, 81, 82, 83, 84, 85, 86, 87, 88, 89, 90, 91, 92, 93, 94, 95, 96, 97, 98, 99, 100, 101, 102, 103, 104, 105, 106, 107, 108, 109, 110, 111, 112, 113, 114, 115, 116, 117, 118, 119, 120, 121, 122, 123, 124, 125, 126, 127, 128, 129, 130, 131, 132, 133, 134, 135, 136, 137, 138, 139, 140, 141, 142, 143, 144, 145, 146, 147, 148, 149, 150, 151, 152, 153, 154, 155, 156, 157, 158, 159, 160, 161, 162, 163, 164, 165, 166, 167, 168, 169, 170, 171, 172, 173, 174, 175, 176, 177, 178, 179, 180, 181, 182, 183, 184, 185, 186, 187, 188, 189, 190, 191, 192, 193, 194, 195, 196, 197, 198, 199, 200, 201, 202, 203, 204, 205, 206, 207, 208, 209, 210, 211, 212, 213, 214, 215, 216, 217, 218, 219, 220, 221, 222, 223, 224, 225, 226, 227, 228, 229, 230, 231, 232, 233, 234, 235, 236, 237, 238, 239, 240, 241, 242, 243, 244, 245, 246, 247, 248, 249, 250, 251, 252, 253, 254, 255, 256, 257, 258, 259, 260, 261, 262, 263, 264, 265, 266, 267, 268, 269, 270, 271, 272, 273, 274, 275, 276, 277, 278, 279, 280, 281, 282, 283, 284, 285, 286, 287, 288, 289, 290, 291, 292, 293, 294, 295, 296, 297, 298, 299, 300, 301, 302, 303, 304, 305, 306, 307, 308, 309, 310, 311, 312, 313, 314, 315, 316, 317, 318, 319, 320, 321, 322, 323, 324, 325, 326, 327, 328, 329, 330, 331, 332, 333, 334, 335, 336, 337, 338, 339, 340, 341, 342, 343, 344, 345, 346, 347, 348, 349, 350, 351, 352, 353, 354, 355, 356, 357, 358, 359, 360, 361, 362, 363, 364, 365, 366, 367, 368, 369, 370, 371, 372, 373, 374, 375, 376, 377, 378, 379, 380, 381, 382, 383, 384, 385, 386, 387, 388, 389, 390, 391, 392, 393, 394, 395, 396, 397, 398, 399, 400, 401, 402, 403, 404, 405, 406, 407, 408, 409, 410, 411, 412, 413, 414, 415, 416, 417, 418, 419, 420, 421, 422, 423, 424, 425, 426, 427, 428, 429, 430, 431, 432, 433, 434, 435, 436, 437, 438, 439, 440, 441, 442, 443, 444, 445, 446, 447, 448, 449, 450, 451, 452, 453, 454, 455, 456, 457, 458, 459, 460, 461, 462, 463, 464, 465, 466, 467, 468, 469, 470, 471, 472, 473, 474, 475, 476, 477, 478, 479, 480, 481, 482, 483, 484, 485, 486, 487, 488, 489, 490, 491, 492, 493, 494, 495, 496, 497, 498, 499, 500, 501, 502, 503, 504, 505, 506, 507, 508, 509, 510, 511, 512, 513, 514, 515, 516, 517, 518, 519, 520, 521, 522, 523, 524, 525, 526, 527, 528, 529, 530, 531, 532, 533, 534, 535, 536, 537, 538, 539, 540, 541, 542, 543, 544, 545, 546, 547, 548, 549, 550, 551, 552, 553, 554, 555, 556, 557, 558, 559, 560, 561, 562, 563, 564, 565, 566, 567, 568, 569, 570, 571, 572, 573, 574, 575, 576, 577, 578, 579, 580, 581, 582, 583, 584, 585, 586, 587, 588, 589, 590, 591, 592, 593, 594, 595, 596, 597, 598, 599, 600, 601, 602, 603, 604, 605, 606, 607, 608, 609, 610, 611, 612, 613, 614, 615, 616, 617, 618, 619, 620, 621, 622, 623, 624, 625, 626, 627, 628, 629, 630, 631, 632, 633, 634, 635, 636, 637, 638, 639, 640, 641, 642, 643, 644, 645, 646, 647, 648, 649, 650, 651, 652, 653, 654, 655, 656, 657, 658, 659, 660, 661, 662, 663, 664, 665, 666, 667, 668, 669, 670, 671, 672, 673, 674, 675, 676, 677, 678, 679, 680, 681, 682, 683, 684, 685, 686, 687, 688, 689, 690, 691, 692, 693, 694, 695, 696, 697, 698, 699, 700, 701, 702, 703, 704, 705, 706, 707, 708, 709, 710, 711, 712, 713, 714, 715, 716, 717, 718, 719, 720, 721, 722, 723, 724, 725, 726, 727, 728, 729, 730, 731, 732, 733, 734, 735, 736, 737, 738, 739, 740, 741, 742, 743, 744, 745, 746, 747, 748, 749, 750, 751, 752, 753, 754, 755, 756, 757, 758, 759, 760, 761, 762, 763, 764, 765, 766, 767, 768, 769, 770, 771, 772, 773, 774, 775, 776, 777, 778, 779, 780, 781, 782, 783, 784, 785, 786, 787, 788, 789, 790, 791, 792, 793, 794, 795, 796, 797, 798, 799, 800, 801, 802, 803, 804, 805, 806, 807, 808, 809, 810, 811, 812, 813, 814, 815, 816, 817, 818, 819, 820, 821, 822, 823, 824, 825, 826, 827, 828, 829, 830, 831, 832, 833, 834, 835, 836, 837, 838, 839, 840, 841, 842, 843, 844, 845, 846, 847, 848, 849, 850, 851, 852, 853, 854, 855, 856, 857, 858, 859, 860, 861, 862, 863, 864, 865, 866, 867, 868, 869, 870, 871, 872],
      "AcquisitionTime": ["091255.542500", "091256.002500", "091256.462500", "091256.922500", "091257.382500", "091257.842500", "091258.302500", "091258.762500", "091259.222500", "091259.682500", "091300.142500", "091300.602500", "091301.062500", "091301.522500", "091301.982500", "091302.442500", "091302.902500", "091303.362500", "091303.822500", "091304.282500", "091304.742500", "091305.202500", "091305.662500", "091306.122500", "091306.582500", "091307.042500", "091307.502500", "091307.962500", "091308.422500", "091308.882500", "091309.342500", "091309.802500", "091310.262500", "091310.722500", "091311.182500", "091311.642500", "091312.102500", "091312.562500", "091313.022500", "091313.482500", "091313.942500", "091314.402500", "091314.862500", "091315.322500", "091315.782500", "091316.242500", "091316.702500", "091317.162500", "091317.622500", "091318.082500", "091318.542500", "091319.002500", "091319.462500", "091319.922500", "091320.382500", "091320.842500", "091321.302500", "091321.762500", "091322.222500", "091322.682500", "091323.142500", "091323.602500", "091324.062500", "091324.522500", "091324.982500", "091325.442500", "091325.902500", "091326.362500", "091326.822500", "091327.282500", "091327.742500", "091328.202500", "091328.662500", "091329.122500", "091329.582500", "091330.042500", "091330.502500", "091330.962500", "091331.422500", "091331.882500", "091332.342500", "091332.802500", "091333.262500", "091333.722500", "091334.182500", "091334.642500", "091335.102500", "091335.562500", "091336.022500", "091336.482500", "091336.942500", "091337.402500", "091337.862500", "091338.322500", "091338.782500", "091339.242500", "091339.702500", "091340.162500", "091340.622500", "091341.082500", "091341.542500", "091342.002500", "091342.462500", "091342.922500", "091343.382500", "091343.842500", "091344.302500", "091344.762500", "091345.222500", "091345.682500", "091346.142500", "091346.602500", "091347.062500", "091347.522500", "091347.982500", "091348.442500", "091348.902500", "091349.362500", "091349.822500", "091350.282500", "091350.742500", "091351.202500", "091351.662500", "091352.122500", "091352.582500", "091353.042500", "091353.502500", "091353.962500", "091354.422500", "091354.882500", "091355.342500", "091355.802500", "091356.262500", "091356.722500", "091357.182500", "091357.642500", "091358.102500", "091358.562500", "091359.022500", "091359.482500", "091359.942500", "091400.402500", "091400.862500", "091401.322500", "091401.782500", "091402.242500", "091402.702500", "091403.162500", "091403.622500", "091404.082500", "091404.542500", "091405.002500", "091405.462500", "091405.922500", "091406.382500", "091406.842500", "091407.302500", "091407.762500", "091408.222500", "091408.682500", "091409.142500", "091409.602500", "091410.062500", "091410.522500", "091410.982500", "091411.442500", "091411.902500", "091412.362500", "091412.822500", "091413.282500", "091413.742500", "091414.202500", "091414.662500", "091415.122500", "091415.582500", "091416.042500", "091416.502500", "091416.962500", "091417.422500", "091417.882500", "091418.342500", "091418.802500", "091419.262500", "091419.722500", "091420.182500", "091420.642500", "091421.102500", "091421.562500", "091422.022500", "091422.482500", "091422.942500", "091423.402500", "091423.862500", "091424.322500", "091424.782500", "091425.242500", "091425.702500", "091426.162500", "091426.622500", "091427.082500", "091427.542500", "091428.002500", "091428.462500", "091428.922500", "091429.382500", "091429.842500", "091430.302500", "091430.762500", "091431.222500", "091431.682500", "091432.142500", "091432.602500", "091433.062500", "091433.522500", "091433.982500", "091434.442500", "091434.902500", "091435.362500", "091435.822500", "091436.282500", "091436.742500", "091437.202500", "091437.662500", "091438.122500", "091438.582500", "091439.042500", "091439.502500", "091439.962500", "091440.422500", "091440.882500", "091441.342500", "091441.802500", "091442.262500", "091442.722500", "091443.182500", "091443.642500", "091444.102500", "091444.562500", "091445.022500", "091445.482500", "091445.942500", "091446.402500", "091446.862500", "091447.322500", "091447.782500", "091448.242500", "091448.702500", "091449.162500", "091449.622500", "091450.082500", "091450.542500", "091451.002500", "091451.462500", "091451.922500", "091452.382500", "091452.842500", "091453.302500", "091453.762500", "091454.222500", "091454.682500", "091455.142500", "091455.602500", "091456.062500", "091456.522500", "091456.982500", "091457.442500", "091457.902500", "091458.362500", "091458.822500", "091459.282500", "091459.742500", "091500.202500", "091500.662500", "091501.122500", "091501.582500", "091502.042500", "091502.502500", "091502.962500", "091503.422500", "091503.882500", "091504.342500", "091504.802500", "091505.262500", "091505.722500", "091506.182500", "091506.642500", "091507.102500", "091507.562500", "091508.022500", "091508.482500", "091508.942500", "091509.402500", "091509.862500", "091510.322500", "091510.782500", "091511.242500", "091511.702500", "091512.162500", "091512.622500", "091513.082500", "091513.542500", "091514.002500", "091514.462500", "091514.922500", "091515.382500", "091515.842500", "091516.302500", "091516.762500", "091517.222500", "091517.682500", "091518.142500", "091518.602500", "091519.062500", "091519.522500", "091519.982500", "091520.442500", "091520.902500", "091521.362500", "091521.822500", "091522.282500", "091522.742500", "091523.202500", "091523.662500", "091524.122500", "091524.582500", "091525.042500", "091525.502500", "091525.962500", "091526.422500", "091526.882500", "091527.342500", "091527.802500", "091528.262500", "091528.722500", "091529.182500", "091529.642500", "091530.102500", "091530.562500", "091531.022500", "091531.482500", "091531.942500", "091532.402500", "091532.862500", "091533.322500", "091533.782500", "091534.242500", "091534.702500", "091535.162500", "091535.622500", "091536.082500", "091536.542500", "091537.002500", "091537.462500", "091537.922500", "091538.382500", "091538.842500", "091539.302500", "091539.762500", "091540.222500", "091540.682500", "091541.142500", "091541.602500", "091542.062500", "091542.522500", "091542.982500", "091543.442500", "091543.902500", "091544.362500", "091544.822500", "091545.282500", "091545.742500", "091546.202500", "091546.662500", "091547.122500", "091547.582500", "091548.042500", "091548.502500", "091548.962500", "091549.422500", "091549.882500", "091550.342500", "091550.802500", "091551.262500", "091551.722500", "091552.182500", "091552.642500", "091553.102500", "091553.562500", "091554.022500", "091554.482500", "091554.942500", "091555.402500", "091555.862500", "091556.322500", "091556.782500", "091557.242500", "091557.702500", "091558.162500", "091558.622500", "091559.082500", "091559.542500", "091600.002500", "091600.462500", "091600.922500", "091601.382500", "091601.842500", "091602.302500", "091602.762500", "091603.222500", "091603.682500", "091604.142500", "091604.602500", "091605.062500", "091605.522500", "091605.982500", "091606.442500", "091606.902500", "091607.362500", "091607.822500", "091608.282500", "091608.742500", "091609.202500", "091609.662500", "091610.122500", "091610.582500", "091611.042500", "091611.502500", "091611.962500", "091612.422500", "091612.882500", "091613.342500", "091613.802500", "091614.262500", "091614.722500", "091615.182500", "091615.642500", "091616.102500", "091616.562500", "091617.022500", "091617.482500", "091617.942500", "091618.402500", "091618.862500", "091619.322500", "091619.782500", "091620.242500", "091620.702500", "091621.162500", "091621.622500", "091622.082500", "091622.542500", "091623.002500", "091623.462500", "091623.922500", "091624.382500", "091624.842500", "091625.302500", "091625.762500", "091626.222500", "091626.682500", "091627.142500", "091627.602500", "091628.062500", "091628.522500", "091628.982500", "091629.442500", "091629.902500", "091630.362500", "091630.822500", "091631.282500", "091631.742500", "091632.202500", "091632.662500", "091633.122500", "091633.582500", "091634.042500", "091634.502500", "091634.962500", "091635.422500", "091635.882500", "091636.342500", "091636.802500", "091637.262500", "091637.722500", "091638.182500", "091638.642500", "091639.102500", "091639.562500", "091640.022500", "091640.482500", "091640.942500", "091641.402500", "091641.862500", "091642.322500", "091642.782500", "091643.242500", "091643.702500", "091644.162500", "091644.622500", "091645.082500", "091645.542500", "091646.002500", "091646.462500", "091646.922500", "091647.382500", "091647.842500", "091648.302500", "091648.762500", "091649.222500", "091649.682500", "091650.142500", "091650.602500", "091651.062500", "091651.522500", "091651.982500", "091652.442500", "091652.902500", "091653.362500", "091653.822500", "091654.282500", "091654.742500", "091655.202500", "091655.662500", "091656.122500", "091656.582500", "091657.042500", "091657.502500", "091657.962500", "091658.422500", "091658.882500", "091659.342500", "091659.802500", "091700.262500", "091700.722500", "091701.182500", "091701.642500", "091702.102500", "091702.562500", "091703.022500", "091703.482500", "091703.942500", "091704.402500", "091704.862500", "091705.322500", "091705.782500", "091706.242500", "091706.702500", "091707.162500", "091707.622500", "091708.082500", "091708.542500", "091709.002500", "091709.462500", "091709.922500", "091710.382500", "091710.842500", "091711.302500", "091711.762500", "091712.222500", "091712.682500", "091713.142500", "091713.602500", "091714.062500", "091714.522500", "091714.982500", "091715.442500", "091715.902500", "091716.362500", "091716.822500", "091717.282500", "091717.742500", "091718.202500", "091718.662500", "091719.122500", "091719.582500", "091720.042500", "091720.502500", "091720.962500", "091721.422500", "091721.882500", "091722.342500", "091722.802500", "091723.262500", "091723.722500", "091724.182500", "091724.642500", "091725.102500", "091725.562500", "091726.022500", "091726.482500", "091726.942500", "091727.402500", "091727.862500", "091728.322500", "091728.782500", "091729.242500", "091729.702500", "091730.162500", "091730.622500", "091731.082500", "091731.542500", "091732.002500", "091732.462500", "091732.922500", "091733.382500", "091733.842500", "091734.302500", "091734.762500", "091735.222500", "091735.682500", "091736.142500", "091736.602500", "091737.062500", "091737.522500", "091737.982500", "091738.442500", "091738.902500", "091739.362500", "091739.822500", "091740.282500", "091740.742500", "091741.202500", "091741.662500", "091742.122500", "091742.582500", "091743.042500", "091743.502500", "091743.962500", "091744.422500", "091744.882500", "091745.342500", "091745.802500", "091746.262500", "091746.722500", "091747.182500", "091747.642500", "091748.102500", "091748.562500", "091749.022500", "091749.482500", "091749.942500", "091750.402500", "091750.862500", "091751.322500", "091751.782500", "091752.242500", "091752.702500", "091753.162500", "091753.622500", "091754.082500", "091754.542500", "091755.002500", "091755.462500", "091755.922500", "091756.382500", "091756.842500", "091757.302500", "091757.762500", "091758.222500", "091758.682500", "091759.142500", "091759.602500", "091800.062500", "091800.522500", "091800.982500", "091801.442500", "091801.902500", "091802.362500", "091802.822500", "091803.282500", "091803.742500", "091804.202500", "091804.662500", "091805.122500", "091805.582500", "091806.042500", "091806.502500", "091806.962500", "091807.422500", "091807.882500", "091808.342500", "091808.802500", "091809.262500", "091809.722500", "091810.182500", "091810.642500", "091811.102500", "091811.562500", "091812.022500", "091812.482500", "091812.942500", "091813.402500", "091813.862500", "091814.322500", "091814.782500", "091815.242500", "091815.702500", "091816.162500", "091816.622500", "091817.082500", "091817.542500", "091818.002500", "091818.462500", "091818.922500", "091819.382500", "091819.842500", "091820.302500", "091820.762500", "091821.222500", "091821.682500", "091822.142500", "091822.602500", "091823.062500", "091823.522500", "091823.982500", "091824.442500", "091824.902500", "091825.362500", "091825.822500", "091826.282500", "091826.742500", "091827.202500", "091827.662500", "091828.122500", "091828.582500", "091829.042500", "091829.502500", "091829.962500", "091830.422500", "091830.882500", "091831.342500", "091831.802500", "091832.262500", "091832.722500", "091833.182500", "091833.642500", "091834.102500", "091834.562500", "091835.022500", "091835.482500", "091835.942500", "091836.402500", "091836.862500", "091837.322500", "091837.782500", "091838.242500", "091838.702500", "091839.162500", "091839.622500", "091840.082500", "091840.542500", "091841.002500", "091841.462500", "091841.922500", "091842.382500", "091842.842500", "091843.302500", "091843.762500", "091844.222500", "091844.682500", "091845.142500", "091845.602500", "091846.062500", "091846.522500", "091846.982500", "091847.442500", "091847.902500", "091848.362500", "091848.822500", "091849.282500", "091849.742500", "091850.202500", "091850.662500", "091851.122500", "091851.582500", "091852.042500", "091852.502500", "091852.962500", "091853.422500", "091853.882500", "091854.342500", "091854.802500", "091855.262500", "091855.722500", "091856.182500", "091856.642500", "091857.102500", "091857.562500", "091858.022500", "091858.482500", "091858.942500", "091859.402500", "091859.862500", "091900.322500", "091900.782500", "091901.242500", "091901.702500", "091902.162500", "091902.622500", "091903.082500", "091903.542500", "091904.002500", "091904.462500", "091904.922500", "091905.382500", "091905.842500", "091906.302500", "091906.762500", "091907.222500", "091907.682500", "091908.142500", "091908.602500", "091909.062500", "091909.522500", "091909.982500", "091910.442500", "091910.902500", "091911.362500", "091911.822500", "091912.282500", "091912.742500", "091913.202500", "091913.662500", "091914.122500", "091914.582500", "091915.042500", "091915.502500", "091915.962500", "091916.422500", "091916.882500", "091917.342500", "091917.802500", "091918.262500", "091918.722500", "091919.182500", "091919.642500", "091920.102500", "091920.562500", "091921.022500", "091921.482500", "091921.942500", "091922.402500", "091922.862500", "091923.322500", "091923.782500", "091924.242500", "091924.702500", "091925.162500", "091925.622500", "091926.082500", "091926.542500", "091927.002500", "091927.462500", "091927.922500", "091928.382500", "091928.842500", "091929.302500", "091929.762500", "091930.222500", "091930.682500", "091931.142500", "091931.602500", "091932.062500", "091932.522500", "091932.982500", "091933.442500", "091933.902500", "091934.362500", "091934.822500", "091935.282500", "091935.742500", "091936.202500"],
