{
  "AcquisitionMatrixPE": 82,
  "AcquisitionNumber": 1,
  "AcquisitionTime": "09:19:55.292500",
  "BandwidthPerPixelPhaseEncode": 24.888,
  "BaseResolution": 82,
  "BodyPartExamined": "BRAIN",
  "ConsistencyInfo": "N4_VE11E_LATEST_20181129",
  "ConversionSoftware": "dcm2niix",
  "ConversionSoftwareVersion": "v1.0.20201102",
  "DerivedVendorReportedEchoSpacing": 0.00049,
  "DeviceSerialNumber": "66112",
  "DwellTime": 2e-06,
  "EchoTime": 0.0272,
  "EchoTrainLength": 82,
  "EffectiveEchoSpacing": 0.00049,
  "FlipAngle": 44,
  "ImageComments": "Unaliased MB8/PE3",
  "ImageOrientationPatientDICOM": [0.999055, 0.0227096, -0.0370688, -0.0193573, 0.995896, 0.0884142],
  "ImageType": [
    "ORIGINAL",
    "PRIMARY",
    "M",
    "MB",
    "ND",
    "NORM",
    "MOSAIC"
],
  "ImagingFrequency": 123.252,
  "InPlanePhaseEncodingDirectionDICOM": "COL",
  "InstitutionAddress": "Maynard 3,Hanover,NH,US,03755",
  "InstitutionName": "Dartmouth College - PBS",
  "InstitutionalDepartmentName": "Department",
  "MRAcquisitionType": "2D",
  "MagneticFieldStrength": 3,
  "Manufacturer": "Siemens",
  "ManufacturersModelName": "Prisma",
  "Modality": "MR",
  "MultibandAccelerationFactor": 8,
  "PartialFourier": 1,
  "PatientPosition": "HFS",
  "PercentPhaseFOV": 100,
  "PercentSampling": 100,
  "PhaseEncodingDirection": "j-",
  "PhaseEncodingSteps": 82,
  "PhaseResolution": 1,
  "PixelBandwidth": 3050,
  "ProcedureStepDescription": "Wager_Wager^1076_spacetop",
  "ProtocolName": "func_run-05_task-social_acq-ap-mb8",
  "PulseSequenceDetails": "%CustomerSeq%\\cmrr_mbep2d_bold",
  "ReceiveCoilActiveElements": "HEA;HEP",
  "ReceiveCoilName": "Head_32",
  "ReconMatrixPE": 82,
  "RepetitionTime": 0.46,
  "SAR": 0.0864672,
  "ScanOptions": "FS",
  "ScanningSequence": "EP",
  "SequenceName": "epfid2d1_82",
  "SequenceVariant": "SK\\SS",
  "SeriesDescription": "func_run-05_task-social_acq-ap-mb8",
  "SeriesNumber": 20,
  "ShimSetting": [4140, -7704, -7290, 589, -41, 12, 78, 135],
  "SliceThickness": 2.7,
  "SliceTiming": [0, 0.2525, 0.0625, 0.315, 0.125, 0.3775, 0.19, 0, 0.2525, 0.0625, 0.315, 0.125, 0.3775, 0.19, 0, 0.2525, 0.0625, 0.315, 0.125, 0.3775, 0.19, 0, 0.2525, 0.0625, 0.315, 0.125, 0.3775, 0.19, 0, 0.2525, 0.0625, 0.315, 0.125, 0.3775, 0.19, 0, 0.2525, 0.0625, 0.315, 0.125, 0.3775, 0.19, 0, 0.2525, 0.0625, 0.315, 0.125, 0.3775, 0.19, 0, 0.2525, 0.0625, 0.315, 0.125, 0.3775, 0.19],
  "SoftwareVersions": "syngo MR E11",
  "SpacingBetweenSlices": 2.7,
  "StationName": "AWP66112",
  "TaskName": "social",
  "TotalReadoutTime": 0.03969,
  "TxRefAmp": 245.544,
  "WipMemBlock": "26ef2e5c-ab50-4748-8608-e13d717ee138||Sequence: R016 ve11e/master r/434b28f1; Aug  7 2019 18:53:46 by eja",
  "dcmmeta_affine": [
    [-2.6803905963897705, -0.051934096962213516, -0.10509602725505829, 116.50434875488281],
    [-0.0609280988574028, 2.671915292739868, 0.23655515909194946, -94.67160034179688],
    [-0.09945274889469147, -0.23720870912075043, 2.687563180923462, -55.071807861328125],
    [0.0, 0.0, 0.0, 1.0]
],
  "dcmmeta_reorient_transform": [
    [0.0, -1.0, 0.0, 81.0],
    [1.0, 0.0, 0.0, 0.0],
    [0.0, 0.0, 1.0, 0.0],
    [0.0, 0.0, 0.0, 1.0]
],
  "dcmmeta_shape": [82, 82, 56, 872],
  "dcmmeta_slice_dim": 2,
  "dcmmeta_version": 0.6,
  "global": {
    "const": {
      "AccessionNumber": "A004056",
      "AcquisitionMatrix": [82, 0, 0, 82],
      "AngioFlag": "N",
      "BitsAllocated": 16,
      "BitsStored": 16,
      "BodyPartExamined": "BRAIN",
      "Columns": 656,
      "EchoNumbers": 1,
      "EchoTime": 27.2,
      "EchoTrainLength": 82,
      "FlipAngle": 44.0,
      "HighBit": 15,
      "ImageOrientationPatient": [0.99905464488843, 0.02270956384227, -0.03706875014, -0.0193572541487, 0.99589569438269, 0.08841415396776],
      "ImagePositionPatient": [-866.66469927079, -906.0796111946, -113.82167464635],
      "ImageType": [
        "ORIGINAL",
        "PRIMARY",
        "M",
        "MB",
        "ND",
        "NORM",
        "MOSAIC"
],
      "ImagedNucleus": "1H",
      "ImagingFrequency": 123.252216,
      "InPlanePhaseEncodingDirection": "COL",
      "MRAcquisitionType": "2D",
      "MagneticFieldStrength": 3.0,
      "Manufacturer": "SIEMENS",
      "ManufacturerModelName": "Prisma",
      "Modality": "MR",
      "NumberOfAverages": 1.0,
      "NumberOfPhaseEncodingSteps": 82,
      "PercentPhaseFieldOfView": 100.0,
      "PercentSampling": 100.0,
      "PerformedProcedureStepStartTime": "082255.994000",
      "PhotometricInterpretation": "MONOCHROME2",
      "PixelBandwidth": 3050.0,
      "PixelRepresentation": 0,
      "PixelSpacing": [2.6829268932343, 2.6829268932343],
      "ProtocolName": "func_run-05_task-social_acq-ap-mb8",
      "RepetitionTime": 460.0,
      "Rows": 656,
      "SAR": 0.08646717138811,
      "SamplesPerPixel": 1,
      "ScanOptions": "FS",
      "ScanningSequence": "EP",
      "SequenceName": "epfid2d1_82",
      "SequenceVariant": [
        "SK",
        "SS"
],
      "SeriesDescription": "func_run-05_task-social_acq-ap-mb8",
      "SeriesNumber": 20,
      "SeriesTime": "092024.684000",
      "SliceLocation": -67.647469513969,
      "SliceThickness": 2.7000000476837,
      "SmallestImagePixelValue": 0,
      "SoftwareVersions": "syngo MR E11",
      "SpacingBetweenSlices": 2.6999999573475,
      "SpecificCharacterSet": "ISO_IR 100",
      "StudyID": "1",
      "StudyTime": "082255.910000",
      "TransmitCoilName": "Body",
      "VariableFlipAngleFlag": "N",
      "WindowCenterWidthExplanation": "Algo1"
    },
    "slices": {}
  },
  "time": {
    "samples": {
      "AcquisitionNumber": [1, 2, 3, 4, 5, 6, 7, 8, 9, 10, 11, 12, 13, 14, 15, 16, 17, 18, 19, 20, 21, 22, 23, 24, 25, 26, 27, 28, 29, 30, 31, 32, 33, 34, 35, 36, 37, 38, 39, 40, 41, 42, 43, 44, 45, 46, 47, 48, 49, 50, 51, 52, 53, 54, 55, 56, 57, 58, 59, 60, 61, 62, 63, 64, 65, 66, 67, 68, 69, 70, 71, 72, 73, 74, 75, 76, 77, 78, 79, 80, 81, 82, 83, 84, 85, 86, 87, 88, 89, 90, 91, 92, 93, 94, 95, 96, 97, 98, 99, 100, 101, 102, 103, 104, 105, 106, 107, 108, 109, 110, 111, 112, 113, 114, 115, 116, 117, 118, 119, 120, 121, 122, 123, 124, 125, 126, 127, 128, 129, 130, 131, 132, 133, 134, 135, 136, 137, 138, 139, 140, 141, 142, 143, 144, 145, 146, 147, 148, 149, 150, 151, 152, 153, 154, 155, 156, 157, 158, 159, 160, 161, 162, 163, 164, 165, 166, 167, 168, 169, 170, 171, 172, 173, 174, 175, 176, 177, 178, 179, 180, 181, 182, 183, 184, 185, 186, 187, 188, 189, 190, 191, 192, 193, 194, 195, 196, 197, 198, 199, 200, 201, 202, 203, 204, 205, 206, 207, 208, 209, 210, 211, 212, 213, 214, 215, 216, 217, 218, 219, 220, 221, 222, 223, 224, 225, 226, 227, 228, 229, 230, 231, 232, 233, 234, 235, 236, 237, 238, 239, 240, 241, 242, 243, 244, 245, 246, 247, 248, 249, 250, 251, 252, 253, 254, 255, 256, 257, 258, 259, 260, 261, 262, 263, 264, 265, 266, 267, 268, 269, 270, 271, 272, 273, 274, 275, 276, 277, 278, 279, 280, 281, 282, 283, 284, 285, 286, 287, 288, 289, 290, 291, 292, 293, 294, 295, 296, 297, 298, 299, 300, 301, 302, 303, 304, 305, 306, 307, 308, 309, 310, 311, 312, 313, 314, 315, 316, 317, 318, 319, 320, 321, 322, 323, 324, 325, 326, 327, 328, 329, 330, 331, 332, 333, 334, 335, 336, 337, 338, 339, 340, 341, 342, 343, 344, 345, 346, 347, 348, 349, 350, 351, 352, 353, 354, 355, 356, 357, 358, 359, 360, 361, 362, 363, 364, 365, 366, 367, 368, 369, 370, 371, 372, 373, 374, 375, 376, 377, 378, 379, 380, 381, 382, 383, 384, 385, 386, 387, 388, 389, 390, 391, 392, 393, 394, 395, 396, 397, 398, 399, 400, 401, 402, 403, 404, 405, 406, 407, 408, 409, 410, 411, 412, 413, 414, 415, 416, 417, 418, 419, 420, 421, 422, 423, 424, 425, 426, 427, 428, 429, 430, 431, 432, 433, 434, 435, 436, 437, 438, 439, 440, 441, 442, 443, 444, 445, 446, 447, 448, 449, 450, 451, 452, 453, 454, 455, 456, 457, 458, 459, 460, 461, 462, 463, 464, 465, 466, 467, 468, 469, 470, 471, 472, 473, 474, 475, 476, 477, 478, 479, 480, 481, 482, 483, 484, 485, 486, 487, 488, 489, 490, 491, 492, 493, 494, 495, 496, 497, 498, 499, 500, 501, 502, 503, 504, 505, 506, 507, 508, 509, 510, 511, 512, 513, 514, 515, 516, 517, 518, 519, 520, 521, 522, 523, 524, 525, 526, 527, 528, 529, 530, 531, 532, 533, 534, 535, 536, 537, 538, 539, 540, 541, 542, 543, 544, 545, 546, 547, 548, 549, 550, 551, 552, 553, 554, 555, 556, 557, 558, 559, 560, 561, 562, 563, 564, 565, 566, 567, 568, 569, 570, 571, 572, 573, 574, 575, 576, 577, 578, 579, 580, 581, 582, 583, 584, 585, 586, 587, 588, 589, 590, 591, 592, 593, 594, 595, 596, 597, 598, 599, 600, 601, 602, 603, 604, 605, 606, 607, 608, 609, 610, 611, 612, 613, 614, 615, 616, 617, 618, 619, 620, 621, 622, 623, 624, 625, 626, 627, 628, 629, 630, 631, 632, 633, 634, 635, 636, 637, 638, 639, 640, 641, 642, 643, 644, 645, 646, 647, 648, 649, 650, 651, 652, 653, 654, 655, 656, 657, 658, 659, 660, 661, 662, 663, 664, 665, 666, 667, 668, 669, 670, 671, 672, 673, 674, 675, 676, 677, 678, 679, 680, 681, 682, 683, 684, 685, 686, 687, 688, 689, 690, 691, 692, 693, 694, 695, 696, 697, 698, 699, 700, 701, 702, 703, 704, 705, 706, 707, 708, 709, 710, 711, 712, 713, 714, 715, 716, 717, 718, 719, 720, 721, 722, 723, 724, 725, 726, 727, 728, 729, 730, 731, 732, 733, 734, 735, 736, 737, 738, 739, 740, 741, 742, 743, 744, 745, 746, 747, 748, 749, 750, 751, 752, 753, 754, 755, 756, 757, 758, 759, 760, 761, 762, 763, 764, 765, 766, 767, 768, 769, 770, 771, 772, 773, 774, 775, 776, 777, 778, 779, 780, 781, 782, 783, 784, 785, 786, 787, 788, 789, 790, 791, 792, 793, 794, 795, 796, 797, 798, 799, 800, 801, 802, 803, 804, 805, 806, 807, 808, 809, 810, 811, 812, 813, 814, 815, 816, 817, 818, 819, 820, 821, 822, 823, 824, 825, 826, 827, 828, 829, 830, 831, 832, 833, 834, 835, 836, 837, 838, 839, 840, 841, 842, 843, 844, 845, 846, 847, 848, 849, 850, 851, 852, 853, 854, 855, 856, 857, 858, 859, 860, 861, 862, 863, 864, 865, 866, 867, 868, 869, 870, 871, 872],
      "AcquisitionTime": ["091955.292500", "091955.752500", "091956.212500", "091956.672500", "091957.132500", "091957.592500", "091958.052500", "091958.512500", "091958.972500", "091959.432500", "091959.892500", "092000.352500", "092000.812500", "092001.272500", "092001.732500", "092002.192500", "092002.652500", "092003.112500", "092003.572500", "092004.032500", "092004.492500", "092004.952500", "092005.412500", "092005.872500", "092006.332500", "092006.792500", "092007.252500", "092007.712500", "092008.172500", "092008.632500", "092009.092500", "092009.552500", "092010.012500", "092010.472500", "092010.932500", "092011.392500", "092011.852500", "092012.312500", "092012.772500", "092013.232500", "092013.692500", "092014.152500", "092014.612500", "092015.072500", "092015.532500", "092015.992500", "092016.452500", "092016.912500", "092017.372500", "092017.832500", "092018.292500", "092018.752500", "092019.212500", "092019.672500", "092020.132500", "092020.592500", "092021.052500", "092021.512500", "092021.972500", "092022.432500", "092022.892500", "092023.352500", "092023.812500", "092024.272500", "092024.732500", "092025.192500", "092025.652500", "092026.112500", "092026.572500", "092027.032500", "092027.492500", "092027.952500", "092028.412500", "092028.872500", "092029.332500", "092029.792500", "092030.252500", "092030.712500", "092031.172500", "092031.632500", "092032.092500", "092032.552500", "092033.012500", "092033.472500", "092033.932500", "092034.392500", "092034.852500", "092035.312500", "092035.772500", "092036.232500", "092036.692500", "092037.152500", "092037.612500", "092038.072500", "092038.532500", "092038.992500", "092039.452500", "092039.912500", "092040.372500", "092040.832500", "092041.292500", "092041.752500", "092042.212500", "092042.672500", "092043.132500", "092043.592500", "092044.052500", "092044.512500", "092044.972500", "092045.432500", "092045.892500", "092046.352500", "092046.812500", "092047.272500", "092047.732500", "092048.192500", "092048.652500", "092049.112500", "092049.572500", "092050.032500", "092050.492500", "092050.952500", "092051.412500", "092051.872500", "092052.332500", "092052.792500", "092053.252500", "092053.712500", "092054.172500", "092054.632500", "092055.092500", "092055.552500", "092056.012500", "092056.472500", "092056.932500", "092057.392500", "092057.852500", "092058.312500", "092058.772500", "092059.232500", "092059.692500", "092100.152500", "092100.612500", "092101.072500", "092101.532500", "092101.992500", "092102.452500", "092102.912500", "092103.372500", "092103.832500", "092104.292500", "092104.752500", "092105.212500", "092105.672500", "092106.132500", "092106.592500", "092107.052500", "092107.512500", "092107.972500", "092108.432500", "092108.892500", "092109.352500", "092109.812500", "092110.272500", "092110.732500", "092111.192500", "092111.652500", "092112.112500", "092112.572500", "092113.032500", "092113.492500", "092113.952500", "092114.412500", "092114.872500", "092115.332500", "092115.792500", "092116.252500", "092116.712500", "092117.172500", "092117.632500", "092118.092500", "092118.552500", "092119.012500", "092119.472500", "092119.932500", "092120.392500", "092120.852500", "092121.312500", "092121.772500", "092122.232500", "092122.692500", "092123.152500", "092123.612500", "092124.072500", "092124.532500", "092124.992500", "092125.452500", "092125.912500", "092126.372500", "092126.832500", "092127.292500", "092127.752500", "092128.212500", "092128.672500", "092129.132500", "092129.592500", "092130.052500", "092130.512500", "092130.972500", "092131.432500", "092131.892500", "092132.352500", "092132.812500", "092133.272500", "092133.732500", "092134.192500", "092134.652500", "092135.112500", "092135.572500", "092136.032500", "092136.492500", "092136.952500", "092137.412500", "092137.872500", "092138.332500", "092138.792500", "092139.252500", "092139.712500", "092140.172500", "092140.632500", "092141.092500", "092141.552500", "092142.012500", "092142.472500", "092142.932500", "092143.392500", "092143.852500", "092144.312500", "092144.772500", "092145.232500", "092145.692500", "092146.152500", "092146.612500", "092147.072500", "092147.532500", "092147.992500", "092148.452500", "092148.912500", "092149.372500", "092149.832500", "092150.292500", "092150.752500", "092151.212500", "092151.672500", "092152.132500", "092152.592500", "092153.052500", "092153.512500", "092153.972500", "092154.432500", "092154.892500", "092155.352500", "092155.812500", "092156.272500", "092156.732500", "092157.192500", "092157.652500", "092158.112500", "092158.572500", "092159.032500", "092159.492500", "092159.952500", "092200.412500", "092200.872500", "092201.332500", "092201.792500", "092202.252500", "092202.712500", "092203.172500", "092203.632500", "092204.092500", "092204.552500", "092205.012500", "092205.472500", "092205.932500", "092206.392500", "092206.852500", "092207.312500", "092207.772500", "092208.232500", "092208.692500", "092209.152500", "092209.612500", "092210.072500", "092210.532500", "092210.992500", "092211.452500", "092211.912500", "092212.372500", "092212.832500", "092213.292500", "092213.752500", "092214.212500", "092214.672500", "092215.132500", "092215.592500", "092216.052500", "092216.512500", "092216.972500", "092217.432500", "092217.892500", "092218.352500", "092218.812500", "092219.272500", "092219.732500", "092220.192500", "092220.652500", "092221.112500", "092221.572500", "092222.032500", "092222.492500", "092222.952500", "092223.412500", "092223.872500", "092224.332500", "092224.792500", "092225.252500", "092225.712500", "092226.172500", "092226.632500", "092227.092500", "092227.552500", "092228.012500", "092228.472500", "092228.932500", "092229.392500", "092229.852500", "092230.312500", "092230.772500", "092231.232500", "092231.692500", "092232.152500", "092232.612500", "092233.072500", "092233.532500", "092233.992500", "092234.452500", "092234.912500", "092235.372500", "092235.832500", "092236.292500", "092236.752500", "092237.212500", "092237.672500", "092238.132500", "092238.592500", "092239.052500", "092239.512500", "092239.972500", "092240.432500", "092240.892500", "092241.352500", "092241.812500", "092242.272500", "092242.732500", "092243.192500", "092243.652500", "092244.112500", "092244.572500", "092245.032500", "092245.492500", "092245.952500", "092246.412500", "092246.872500", "092247.332500", "092247.792500", "092248.252500", "092248.712500", "092249.172500", "092249.632500", "092250.092500", "092250.552500", "092251.012500", "092251.472500", "092251.932500", "092252.392500", "092252.852500", "092253.312500", "092253.772500", "092254.232500", "092254.692500", "092255.152500", "092255.612500", "092256.072500", "092256.532500", "092256.992500", "092257.452500", "092257.912500", "092258.372500", "092258.832500", "092259.292500", "092259.752500", "092300.212500", "092300.672500", "092301.132500", "092301.592500", "092302.052500", "092302.512500", "092302.972500", "092303.432500", "092303.892500", "092304.352500", "092304.812500", "092305.272500", "092305.732500", "092306.192500", "092306.652500", "092307.112500", "092307.572500", "092308.032500", "092308.492500", "092308.952500", "092309.412500", "092309.872500", "092310.332500", "092310.792500", "092311.252500", "092311.712500", "092312.172500", "092312.632500", "092313.092500", "092313.552500", "092314.012500", "092314.472500", "092314.932500", "092315.392500", "092315.852500", "092316.312500", "092316.772500", "092317.232500", "092317.692500", "092318.152500", "092318.612500", "092319.072500", "092319.532500", "092319.992500", "092320.452500", "092320.912500", "092321.372500", "092321.832500", "092322.292500", "092322.752500", "092323.212500", "092323.672500", "092324.132500", "092324.592500", "092325.052500", "092325.512500", "092325.972500", "092326.432500", "092326.892500", "092327.352500", "092327.812500", "092328.272500", "092328.732500", "092329.192500", "092329.652500", "092330.112500", "092330.572500", "092331.032500", "092331.492500", "092331.952500", "092332.412500", "092332.872500", "092333.332500", "092333.792500", "092334.252500", "092334.712500", "092335.172500", "092335.632500", "092336.092500", "092336.552500", "092337.012500", "092337.472500", "092337.932500", "092338.392500", "092338.852500", "092339.312500", "092339.772500", "092340.232500", "092340.692500", "092341.152500", "092341.612500", "092342.072500", "092342.532500", "092342.992500", "092343.452500", "092343.912500", "092344.372500", "092344.832500", "092345.292500", "092345.752500", "092346.212500", "092346.672500", "092347.132500", "092347.592500", "092348.052500", "092348.512500", "092348.972500", "092349.432500", "092349.892500", "092350.352500", "092350.812500", "092351.272500", "092351.732500", "092352.192500", "092352.652500", "092353.112500", "092353.572500", "092354.032500", "092354.492500", "092354.952500", "092355.412500", "092355.872500", "092356.332500", "092356.792500", "092357.252500", "092357.712500", "092358.172500", "092358.632500", "092359.092500", "092359.552500", "092400.012500", "092400.472500", "092400.932500", "092401.392500", "092401.852500", "092402.312500", "092402.772500", "092403.232500", "092403.692500", "092404.152500", "092404.612500", "092405.072500", "092405.532500", "092405.992500", "092406.452500", "092406.912500", "092407.372500", "092407.832500", "092408.292500", "092408.752500", "092409.212500", "092409.672500", "092410.132500", "092410.592500", "092411.052500", "092411.512500", "092411.972500", "092412.432500", "092412.892500", "092413.352500", "092413.812500", "092414.272500", "092414.732500", "092415.192500", "092415.652500", "092416.112500", "092416.572500", "092417.032500", "092417.492500", "092417.952500", "092418.412500", "092418.872500", "092419.332500", "092419.792500", "092420.252500", "092420.712500", "092421.172500", "092421.632500", "092422.092500", "092422.552500", "092423.012500", "092423.472500", "092423.932500", "092424.392500", "092424.852500", "092425.312500", "092425.772500", "092426.232500", "092426.692500", "092427.152500", "092427.612500", "092428.072500", "092428.532500", "092428.992500", "092429.452500", "092429.912500", "092430.372500", "092430.832500", "092431.292500", "092431.752500", "092432.212500", "092432.672500", "092433.132500", "092433.592500", "092434.052500", "092434.512500", "092434.972500", "092435.432500", "092435.892500", "092436.352500", "092436.812500", "092437.272500", "092437.732500", "092438.192500", "092438.652500", "092439.112500", "092439.572500", "092440.032500", "092440.492500", "092440.952500", "092441.412500", "092441.872500", "092442.332500", "092442.792500", "092443.252500", "092443.712500", "092444.172500", "092444.632500", "092445.092500", "092445.552500", "092446.012500", "092446.472500", "092446.932500", "092447.392500", "092447.852500", "092448.312500", "092448.772500", "092449.232500", "092449.692500", "092450.152500", "092450.612500", "092451.072500", "092451.532500", "092451.992500", "092452.452500", "092452.912500", "092453.372500", "092453.832500", "092454.292500", "092454.752500", "092455.212500", "092455.672500", "092456.132500", "092456.592500", "092457.052500", "092457.512500", "092457.972500", "092458.432500", "092458.892500", "092459.352500", "092459.812500", "092500.272500", "092500.732500", "092501.192500", "092501.652500", "092502.112500", "092502.572500", "092503.032500", "092503.492500", "092503.952500", "092504.412500", "092504.872500", "092505.332500", "092505.792500", "092506.252500", "092506.712500", "092507.172500", "092507.632500", "092508.092500", "092508.552500", "092509.012500", "092509.472500", "092509.932500", "092510.392500", "092510.852500", "092511.312500", "092511.772500", "092512.232500", "092512.692500", "092513.152500", "092513.612500", "092514.072500", "092514.532500", "092514.992500", "092515.452500", "092515.912500", "092516.372500", "092516.832500", "092517.292500", "092517.752500", "092518.212500", "092518.672500", "092519.132500", "092519.592500", "092520.052500", "092520.512500", "092520.972500", "092521.432500", "092521.892500", "092522.352500", "092522.812500", "092523.272500", "092523.732500", "092524.192500", "092524.652500", "092525.112500", "092525.572500", "092526.032500", "092526.492500", "092526.952500", "092527.412500", "092527.872500", "092528.332500", "092528.792500", "092529.252500", "092529.712500", "092530.172500", "092530.632500", "092531.092500", "092531.552500", "092532.012500", "092532.472500", "092532.932500", "092533.392500", "092533.852500", "092534.312500", "092534.772500", "092535.232500", "092535.692500", "092536.152500", "092536.612500", "092537.072500", "092537.532500", "092537.992500", "092538.452500", "092538.912500", "092539.372500", "092539.832500", "092540.292500", "092540.752500", "092541.212500", "092541.672500", "092542.132500", "092542.592500", "092543.052500", "092543.512500", "092543.972500", "092544.432500", "092544.892500", "092545.352500", "092545.812500", "092546.272500", "092546.732500", "092547.192500", "092547.652500", "092548.112500", "092548.572500", "092549.032500", "092549.492500", "092549.952500", "092550.412500", "092550.872500", "092551.332500", "092551.792500", "092552.252500", "092552.712500", "092553.172500", "092553.632500", "092554.092500", "092554.552500", "092555.012500", "092555.472500", "092555.932500", "092556.392500", "092556.852500", "092557.312500", "092557.772500", "092558.232500", "092558.692500", "092559.152500", "092559.612500", "092600.072500", "092600.532500", "092600.992500", "092601.452500", "092601.912500", "092602.372500", "092602.832500", "092603.292500", "092603.752500", "092604.212500", "092604.672500", "092605.132500", "092605.592500", "092606.052500", "092606.512500", "092606.972500", "092607.432500", "092607.892500", "092608.352500", "092608.812500", "092609.272500", "092609.732500", "092610.192500", "092610.652500", "092611.112500", "092611.572500", "092612.032500", "092612.492500", "092612.952500", "092613.412500", "092613.872500", "092614.332500", "092614.792500", "092615.252500", "092615.712500", "092616.172500", "092616.632500", "092617.092500", "092617.552500", "092618.012500", "092618.472500", "092618.932500", "092619.392500", "092619.852500", "092620.312500", "092620.772500", "092621.232500", "092621.692500", "092622.152500", "092622.612500", "092623.072500", "092623.532500", "092623.992500", "092624.452500", "092624.912500", "092625.372500", "092625.832500", "092626.292500", "092626.752500", "092627.212500", "092627.672500", "092628.132500", "092628.592500", "092629.052500", "092629.512500", "092629.972500", "092630.432500", "092630.892500", "092631.352500", "092631.812500", "092632.272500", "092632.732500", "092633.192500", "092633.652500", "092634.112500", "092634.572500", "092635.032500", "092635.492500", "092635.952500"],
