{
  "AcquisitionMatrixPE": 140,
  "AcquisitionNumber": 1,
  "AcquisitionTime": "08:55:24.050000",
  "BandwidthPerPixelPhaseEncode": 10.352,
  "BaseResolution": 140,
  "BodyPartExamined": "BRAIN",
  "ConsistencyInfo": "N4_VE11E_LATEST_20181129",
  "ConversionSoftware": "dcm2niix",
  "ConversionSoftwareVersion": "v1.0.20201102",
  "DerivedVendorReportedEchoSpacing": 0.000689998,
  "DeviceSerialNumber": "66112",
  "DiffusionScheme": "Monopolar",
  "DwellTime": 2.1e-06,
  "EchoTime": 0.0884,
  "EchoTrainLength": 105,
  "EffectiveEchoSpacing": 0.000689998,
  "FlipAngle": 90,
  "ImageComments": "Unaliased MB3/PE3 SENSE1",
  "ImageOrientationPatientDICOM": [0.999384, 0.0041996, 0.0348305, -0.0109893, 0.980319, 0.197113],
  "ImageType": [
    "ORIGINAL",
    "PRIMARY",
    "DIFFUSION",
    "NONE",
    "MB",
    "ND",
    "MOSAIC"
],
  "ImagingFrequency": 123.252,
  "InPlanePhaseEncodingDirectionDICOM": "COL",
  "InstitutionAddress": "Maynard 3,Hanover,NH,US,03755",
  "InstitutionName": "Dartmouth College - PBS",
  "InstitutionalDepartmentName": "Department",
  "MRAcquisitionType": "2D",
  "MagneticFieldStrength": 3,
  "Manufacturer": "Siemens",
  "ManufacturersModelName": "Prisma",
  "Modality": "MR",
  "MultibandAccelerationFactor": 3,
  "PartialFourier": 0.75,
  "PatientPosition": "HFS",
  "PercentPhaseFOV": 100,
  "PercentSampling": 100,
  "PhaseEncodingDirection": "j-",
  "PhaseEncodingSteps": 105,
  "PhaseResolution": 1,
  "PixelBandwidth": 1700,
  "ProcedureStepDescription": "Wager_Wager^1076_spacetop",
  "ProtocolName": "dwi_acq-96dir-6b0-mb",
  "PulseSequenceDetails": "%CustomerSeq%\\cmrr_mbep2d_diff",
  "ReceiveCoilActiveElements": "HEA;HEP",
  "ReceiveCoilName": "Head_32",
  "ReconMatrixPE": 140,
  "RepetitionTime": 4.11,
  "SAR": 0.236979,
  "ScanOptions": "PFP\\FS",
  "ScanningSequence": "EP",
  "SequenceName": "ep_b5#1",
  "SequenceVariant": "SK\\SS",
  "SeriesDescription": "dwi_acq-96dir-6b0-mb",
  "SeriesNumber": 8,
  "ShimSetting": [4152, -7741, -7306, 623, -82, -83, 92, 98],
  "SliceThickness": 1.7,
  "SliceTiming": [0, 2.1225, 0.1525, 2.2725, 0.305, 2.425, 0.455, 2.5775, 0.6075, 2.7275, 0.7575, 2.88, 0.91, 3.03, 1.0625, 3.1825, 1.2125, 3.335, 1.365, 3.485, 1.515, 3.6375, 1.6675, 3.7875, 1.82, 3.94, 1.97, 0, 2.1225, 0.1525, 2.2725, 0.305, 2.425, 0.455, 2.5775, 0.6075, 2.7275, 0.7575, 2.88, 0.91, 3.03, 1.0625, 3.1825, 1.2125, 3.335, 1.365, 3.485, 1.515, 3.6375, 1.6675, 3.7875, 1.82, 3.94, 1.97, 0, 2.1225, 0.1525, 2.2725, 0.305, 2.425, 0.455, 2.5775, 0.6075, 2.7275, 0.7575, 2.88, 0.91, 3.03, 1.0625, 3.1825, 1.2125, 3.335, 1.365, 3.485, 1.515, 3.6375, 1.6675, 3.7875, 1.82, 3.94, 1.97],
  "SoftwareVersions": "syngo MR E11",
  "SpacingBetweenSlices": 1.7,
  "StationName": "AWP66112",
  "TotalReadoutTime": 0.0959097,
  "TxRefAmp": 236.123,
  "WipMemBlock": "eff1bd9a-961d-45de-bcf5-fd35532d9067||Sequence: R016 ve11e/master r/434b28f1; Aug  7 2019 19:06:17 by eja",
  "dcmmeta_affine": [
    [-1.7132304906845093, -0.01883876323699951, 0.056639280170202255, 121.94084167480469],
    [-0.00719932047650218, 1.6805469989776611, 0.33553722500801086, -99.09970092773438],
    [0.05970945954322815, -0.33790871500968933, 1.6655950546264648, -59.43327331542969],
    [0.0, 0.0, 0.0, 1.0]
],
  "dcmmeta_reorient_transform": [
    [0.0, -1.0, 0.0, 139.0],
    [1.0, 0.0, 0.0, 0.0],
    [0.0, 0.0, 1.0, 0.0],
    [0.0, 0.0, 0.0, 1.0]
],
  "dcmmeta_shape": [140, 140, 81, 103],
  "dcmmeta_slice_dim": 2,
  "dcmmeta_version": 0.6,
  "global": {
    "const": {
      "AccessionNumber": "A004112",
      "AcquisitionMatrix": [140, 0, 0, 140],
      "AngioFlag": "N",
      "BitsAllocated": 16,
      "BitsStored": 16,
      "BodyPartExamined": "BRAIN",
      "Columns": 1260,
      "EchoNumbers": 1,
      "EchoTime": 88.4,
      "EchoTrainLength": 105,
      "FlipAngle": 90.0,
      "HighBit": 15,
      "ImageOrientationPatient": [0.99938440974181, 0.00419960368872, 0.03483051670406, -0.0109892786378, 0.98031910010733, 0.19711341334312],
      "ImagePositionPatient": [-1068.1815900457, -1079.6343003994, -329.06875998876],
      "ImageType": [
        "ORIGINAL",
        "PRIMARY",
        "DIFFUSION",
        "NONE",
        "MB",
        "ND",
        "MOSAIC"
],
      "ImagedNucleus": "1H",
      "ImagingFrequency": 123.252209,
      "InPlanePhaseEncodingDirection": "COL",
      "MRAcquisitionType": "2D",
      "MagneticFieldStrength": 3.0,
      "Manufacturer": "SIEMENS",
      "ManufacturerModelName": "Prisma",
      "Modality": "MR",
      "NumberOfAverages": 1.0,
      "NumberOfPhaseEncodingSteps": 105,
      "PercentPhaseFieldOfView": 100.0,
      "PercentSampling": 100.0,
      "PerformedProcedureStepStartTime": "083142.651000",
      "PhotometricInterpretation": "MONOCHROME2",
      "PixelBandwidth": 1700.0,
      "PixelRepresentation": 0,
      "PixelSpacing": [1.7142857313156, 1.7142857313156],
      "ProtocolName": "dwi_acq-96dir-6b0-mb",
      "RepetitionTime": 4110.0,
      "Rows": 1260,
      "SAR": 0.2369785813575,
      "SamplesPerPixel": 1,
      "ScanOptions": [
        "PFP",
        "FS"
],
      "ScanningSequence": "EP",
      "SequenceVariant": [
        "SK",
        "SS"
],
      "SeriesDescription": "dwi_acq-96dir-6b0-mb",
      "SeriesNumber": 8,
      "SeriesTime": "085647.611000",
      "SliceLocation": -73.727507512356,
      "SliceThickness": 1.7000000476837,
      "SmallestImagePixelValue": 0,
      "SoftwareVersions": "syngo MR E11",
      "SpacingBetweenSlices": 1.7000000351237,
      "SpecificCharacterSet": "ISO_IR 100",
      "StudyID": "1",
      "StudyTime": "083142.475000",
      "TransmitCoilName": "Body",
      "VariableFlipAngleFlag": "N",
      "WindowCenterWidthExplanation": "Algo1"
    },
    "slices": {}
  },
  "time": {
    "samples": {
      "AcquisitionNumber": [1, 2, 3, 4, 5, 6, 7, 8, 9, 10, 11, 12, 13, 14, 15, 16, 17, 18, 19, 20, 21, 22, 23, 24, 25, 26, 27, 28, 29, 30, 31, 32, 33, 34, 35, 36, 37, 38, 39, 40, 41, 42, 43, 44, 45, 46, 47, 48, 49, 50, 51, 52, 53, 54, 55, 56, 57, 58, 59, 60, 61, 62, 63, 64, 65, 66, 67, 68, 69, 70, 71, 72, 73, 74, 75, 76, 77, 78, 79, 80, 81, 82, 83, 84, 85, 86, 87, 88, 89, 90, 91, 92, 93, 94, 95, 96, 97, 98, 99, 100, 101, 102, 103],
      "AcquisitionTime": ["085524.050000", "085528.160000", "085532.270000", "085536.380000", "085540.490000", "085544.600000", "085548.710000", "085552.820000", "085556.930000", "085601.040000", "085605.150000", "085609.260000", "085613.370000", "085617.480000", "085621.590000", "085625.700000", "085629.810000", "085633.920000", "085638.030000", "085642.140000", "085646.250000", "085650.360000", "085654.470000", "085658.580000", "085702.690000", "085706.800000", "085710.910000", "085715.020000", "085719.130000", "085723.240000", "085727.350000", "085731.460000", "085735.570000", "085739.680000", "085743.790000", "085747.900000", "085752.010000", "085756.120000", "085800.230000", "085804.340000", "085808.450000", "085812.560000", "085816.670000", "085820.780000", "085824.890000", "085829.000000", "085833.110000", "085837.220000", "085841.330000", "085845.440000", "085849.550000", "085853.660000", "085857.770000", "085901.880000", "085905.990000", "085910.100000", "085914.210000", "085918.320000", "085922.430000", "085926.540000", "085930.650000", "085934.760000", "085938.870000", "085942.980000", "085947.090000", "085951.200000", "085955.310000", "085959.420000", "090003.530000", "090007.640000", "090011.750000", "090015.860000", "090019.970000", "090024.080000", "090028.190000", "090032.300000", "090036.410000", "090040.520000", "090044.630000", "090048.740000", "090052.850000", "090056.960000", "090101.070000", "090105.180000", "090109.290000", "090113.400000", "090117.510000", "090121.620000", "090125.730000", "090129.840000", "090133.950000", "090138.060000", "090142.170000", "090146.280000", "090150.390000", "090154.500000", "090158.610000", "090202.720000", "090206.830000", "090210.940000", "090215.050000", "090219.160000", "090223.270000"],
      "ContentTime": ["085647.615000", "085647.620000", "085647.637000", "085647.640000", "085647.643000", "085647.658000", "085647.662000", "085647.665000", "085647.670000", "085647.676000", "085647.688000", "085647.691000", "085647.694000", "085647.697000", "085647.700000", "085647.703000", "085647.706000", "085647.709000", "085647.712000", "085647.719000", "085827.610000", "085827.613000", "085827.616000", "085827.619000", "085827.622000", "085827.626000", "085827.629000", "085827.632000", "085827.635000", "085827.638000", "085827.641000", "085827.644000", "085827.647000", "085827.650000", "085827.653000", "085827.656000", "085827.659000", "085827.662000", "085827.665000", "085827.668000", "085827.671000", "085827.674000", "085827.677000", "085827.680000", "085947.611000", "085947.614000", "085947.617000", "085947.620000", "085947.623000", "085947.626000", "085947.629000", "085947.641000", "085947.644000", "085947.647000", "085947.650000", "085947.653000", "085947.656000", "085947.659000", "085947.662000", "085947.665000", "085947.668000", "085947.671000", "085947.674000", "090107.610000", "090107.613000", "090107.616000", "090107.619000", "090107.622000", "090107.625000", "090107.628000", "090107.631000", "090107.634000", "090107.637000", "090107.640000", "090107.644000", "090107.655000", "090107.658000", "090107.662000", "090107.665000", "090107.668000", "090107.671000", "090107.677000", "090107.680000", "090228.283000", "090228.286000", "090228.289000", "090228.292000", "090228.295000", "090228.299000", "090228.302000", "090228.305000", "090228.308000", "090228.311000", "090228.314000", "090228.317000", "090228.321000", "090228.324000", "090228.327000", "090228.330000", "090228.333000", "090228.336000", "090228.340000", "090228.343000"],
      "InstanceCreationTime": ["085647.615000", "085647.620000", "085647.637000", "085647.640000", "085647.643000", "085647.658000", "085647.662000", "085647.665000", "085647.670000", "085647.676000", "085647.688000", "085647.691000", "085647.694000", "085647.697000", "085647.700000", "085647.703000", "085647.706000", "085647.709000", "085647.712000", "085647.719000", "085827.610000", "085827.613000", "085827.616000", "085827.619000", "085827.622000", "085827.626000", "085827.629000", "085827.632000", "085827.635000", "085827.638000", "085827.641000", "085827.644000", "085827.647000", "085827.650000", "085827.653000", "085827.656000", "085827.659000", "085827.662000", "085827.665000", "085827.668000", "085827.671000", "085827.674000", "085827.677000", "085827.680000", "085947.611000", "085947.614000", "085947.617000", "085947.620000", "085947.623000", "085947.626000", "085947.629000", "085947.641000", "085947.644000", "085947.647000", "085947.650000", "085947.653000", "085947.656000", "085947.659000", "085947.662000", "085947.665000", "085947.668000", "085947.671000", "085947.674000", "090107.610000", "090107.613000", "090107.616000", "090107.619000", "090107.622000", "090107.625000", "090107.628000", "090107.631000", "090107.634000", "090107.637000", "090107.640000", "090107.644000", "090107.655000", "090107.658000", "090107.662000", "090107.665000", "090107.668000", "090107.671000", "090107.677000", "090107.680000", "090228.283000", "090228.286000", "090228.289000", "090228.292000", "090228.295000", "090228.299000", "090228.302000", "090228.305000", "090228.308000", "090228.311000", "090228.314000", "090228.317000", "090228.321000", "090228.324000", "090228.327000", "090228.330000", "090228.333000", "090228.336000", "090228.340000", "090228.343000"],
      "InstanceNumber": [1, 2, 3, 4, 5, 6, 7, 8, 9, 10, 11, 12, 13, 14, 15, 16, 17, 18, 19, 20, 21, 22, 23, 24, 25, 26, 27, 28, 29, 30, 31, 32, 33, 34, 35, 36, 37, 38, 39, 40, 41, 42, 43, 44, 45, 46, 47, 48, 49, 50, 51, 52, 53, 54, 55, 56, 57, 58, 59, 60, 61, 62, 63, 64, 65, 66, 67, 68, 69, 70, 71, 72, 73, 74, 75, 76, 77, 78, 79, 80, 81, 82, 83, 84, 85, 86, 87, 88, 89, 90, 91, 92, 93, 94, 95, 96, 97, 98, 99, 100, 101, 102, 103],
      "LargestImagePixelValue": [65535, 65535, 49921, 52600, 53944, 56525, 50768, 51399, 65535, 35690, 37662, 39008, 38308, 35524, 35331, 38991, 34683, 35958, 34328, 36458, 34639, 35009, 38565, 34989, 65535, 19092, 21162, 19052, 18624, 20831, 21738, 17049, 22325, 18887, 18992, 21164, 18746, 19108, 20167, 17736, 65535, 14648, 13157, 15296, 13397, 11198, 10537, 11927, 12006, 11512, 12576, 12633, 10192, 14016, 12493, 9638, 18220, 11079, 12000, 14202, 10141, 14740, 10853, 9877, 10554, 10757, 12065, 11096, 12820, 12126, 12085, 10483, 11641, 65535, 13263, 11512, 11141, 9991, 13111, 11937, 9932, 14091, 11901, 11161, 12490, 12873, 13266, 13880, 14735, 14450, 12013, 11567, 13626, 11154, 12738, 17951, 10698, 10984, 13704, 9639, 15700, 9951, 65535],
      "SequenceName": [
 "ep_b5#1",
 "ep_b5#1",
 "ep_b500#2",
 "ep_b500#3",
 "ep_b500#4",
 "ep_b505#5",
 "ep_b495#6",
 "ep_b500#7",
 "ep_b5#8",
 "ep_b1000#9",
 "ep_b1005#10",
 "ep_b1000#11",
 "ep_b1005#12",
 "ep_b995#13",
 "ep_b995#14",
 "ep_b1005#15",
 "ep_b1000#16",
 "ep_b1000#17",
 "ep_b995#18",
 "ep_b1000#19",
 "ep_b995#20",
 "ep_b1000#21",
 "ep_b1005#22",
 "ep_b1005#23",
 "ep_b5#24",
 "ep_b2000#25",
 "ep_b2000#26",
 "ep_b1995#27",
 "ep_b1995#28",
 "ep_b2005#29",
 "ep_b2010#30",
 "ep_b2005#31",
 "ep_b2005#32",
 "ep_b1995#33",
 "ep_b1990#34",
 "ep_b1995#35",
 "ep_b2005#36",
 "ep_b2000#37",
 "ep_b2010#38",
 "ep_b2000#39",
 "ep_b5#40",
 "ep_b3000#41",
 "ep_b3005#42",
 "ep_b3010#43",
 "ep_b3010#44",
 "ep_b2995#45",
 "ep_b2995#46",
 "ep_b2990#47",
 "ep_b3005#48",
 "ep_b3000#49",
 "ep_b2990#50",
 "ep_b2990#51",
 "ep_b2995#52",
 "ep_b2995#53",
 "ep_b3010#54",
 "ep_b3000#55",
 "ep_b2995#56",
 "ep_b3000#57",
 "ep_b2990#58",
 "ep_b2990#59",
 "ep_b3000#60",
 "ep_b2990#61",
 "ep_b2990#62",
 "ep_b2995#63",
 "ep_b3005#64",
 "ep_b3010#65",
 "ep_b3000#66",
 "ep_b3005#67",
 "ep_b3010#68",
 "ep_b3005#69",
 "ep_b3005#70",
 "ep_b3010#71",
 "ep_b2990#72",
 "ep_b5#73",
 "ep_b3010#74",
 "ep_b3000#75",
 "ep_b3005#76",
 "ep_b3005#77",
 "ep_b2995#78",
 "ep_b3005#79",
 "ep_b2995#80",
 "ep_b3010#81",
 "ep_b3010#82",
 "ep_b3005#83",
 "ep_b3000#84",
 "ep_b3000#85",
 "ep_b3010#86",
 "ep_b3010#87",
 "ep_b2990#88",
 "ep_b3010#89",
 "ep_b2995#90",
 "ep_b2995#91",
 "ep_b2995#92",
 "ep_b2995#93",
 "ep_b3005#94",
 "ep_b3005#95",
 "ep_b2995#96",
 "ep_b3000#97",
 "ep_b2990#98",
 "ep_b3000#99",
 "ep_b3000#100",
 "ep_b2995#101",
 "ep_b5#102"
],
      "WindowCenter": [12086.0, 12078.0, 7960.0, 8023.0, 7963.0, 7923.0, 8020.0, 7996.0, 12076.0, 5807.0, 5830.0, 5839.0, 5794.0, 5798.0, 5828.0, 5842.0, 5801.0, 5779.0, 5840.0, 5793.0, 5823.0, 5793.0, 5844.0, 5796.0, 12087.0, 3717.0, 3726.0, 3696.0, 3700.0, 3730.0, 3744.0, 3645.0, 3724.0, 3702.0, 3752.0, 3772.0, 3665.0, 3645.0, 3706.0, 3625.0, 12085.0, 2673.0, 2585.0, 2700.0, 2653.0, 2551.0, 2534.0, 2632.0, 2548.0, 2570.0, 2607.0, 2640.0, 2551.0, 2669.0, 2616.0, 2494.0, 2758.0, 2512.0, 2634.0, 2676.0, 2507.0, 2674.0, 2595.0, 2530.0, 2546.0, 2571.0, 2572.0, 2534.0, 2615.0, 2594.0, 2608.0, 2564.0, 2623.0, 12105.0, 2652.0, 2549.0, 2530.0, 2513.0, 2601.0, 2552.0, 2515.0, 2645.0, 2593.0, 2555.0, 2603.0, 2631.0, 2602.0, 2616.0, 2683.0, 2672.0, 2632.0, 2554.0, 2618.0, 2580.0, 2609.0, 2746.0, 2581.0, 2520.0, 2677.0, 2486.0, 2699.0, 2551.0, 12105.0],
      "WindowWidth": [28461.0, 28441.0, 16894.0, 17032.0, 16889.0, 16831.0, 17033.0, 16979.0, 28432.0, 12497.0, 12580.0, 12560.0, 12491.0, 12518.0, 12562.0, 12576.0, 12501.0, 12471.0, 12584.0, 12476.0, 12545.0, 12480.0, 12582.0, 12490.0, 28454.0, 8403.0, 8413.0, 8373.0, 8372.0, 8433.0, 8457.0, 8283.0, 8414.0, 8381.0, 8490.0, 8514.0, 8312.0, 8260.0, 8387.0, 8234.0, 28457.0, 6353.0, 6159.0, 6395.0, 6313.0, 6151.0, 6106.0, 6292.0, 6096.0, 6193.0, 6211.0, 6284.0, 6179.0, 6365.0, 6264.0, 6062.0, 6494.0, 6039.0, 6292.0, 6344.0, 6048.0, 6339.0, 6230.0, 6119.0, 6118.0, 6190.0, 6172.0, 6106.0, 6259.0, 6235.0, 6259.0, 6163.0, 6277.0, 28511.0, 6310.0, 6105.0, 6083.0, 6077.0, 6186.0, 6118.0, 6084.0, 6281.0, 6225.0, 6155.0, 6247.0, 6298.0, 6196.0, 6222.0, 6349.0, 6333.0, 6297.0, 6113.0, 6229.0, 6210.0, 6236.0, 6470.0, 6207.0, 6078.0, 6355.0, 6018.0, 6396.0, 6176.0, 28501.0]
    },
    "slices": {}
  }
}