{
  "AcquisitionMatrixPE": 82,
  "AcquisitionNumber": 1,
  "AcquisitionTime": "20:54:22.775000",
  "BandwidthPerPixelPhaseEncode": 24.888,
  "BaseResolution": 82,
  "BodyPartExamined": "BRAIN",
  "ConsistencyInfo": "N4_VE11E_LATEST_20181129",
  "ConversionSoftware": "dcm2niix",
  "ConversionSoftwareVersion": "v1.0.20201102",
  "DerivedVendorReportedEchoSpacing": 0.00049,
  "DeviceSerialNumber": "66112",
  "DwellTime": 2e-06,
  "EchoTime": 0.0272,
  "EchoTrainLength": 82,
  "EffectiveEchoSpacing": 0.00049,
  "FlipAngle": 44,
  "ImageComments": "Unaliased MB8/PE3",
  "ImageOrientationPatientDICOM": [0.997625, 0.0688718, -0.00139776, -0.0688859, 0.997455, -0.0184055],
  "ImageType": [
    "ORIGINAL",
    "PRIMARY",
    "M",
    "MB",
    "ND",
    "NORM",
    "MOSAIC"
],
  "ImagingFrequency": 123.259,
  "InPlanePhaseEncodingDirectionDICOM": "COL",
  "InstitutionAddress": "Maynard 3,Hanover,NH,US,03755",
  "InstitutionName": "Dartmouth College - PBS",
  "InstitutionalDepartmentName": "Department",
  "MRAcquisitionType": "2D",
  "MagneticFieldStrength": 3,
  "Manufacturer": "Siemens",
  "ManufacturersModelName": "Prisma",
  "Modality": "MR",
  "MultibandAccelerationFactor": 8,
  "PartialFourier": 1,
  "PatientPosition": "HFS",
  "PercentPhaseFOV": 100,
  "PercentSampling": 100,
  "PhaseEncodingDirection": "j-",
  "PhaseEncodingSteps": 82,
  "PhaseResolution": 1,
  "PixelBandwidth": 3050,
  "ProcedureStepDescription": "Wager_Wager^1076_spacetop",
  "ProtocolName": "func_run-02_task-alignvideo_acq-ap-mb8",
  "PulseSequenceDetails": "%CustomerSeq%\\cmrr_mbep2d_bold",
  "ReceiveCoilActiveElements": "HEA;HEP",
  "ReceiveCoilName": "Head_32",
  "ReconMatrixPE": 82,
  "RepetitionTime": 0.46,
  "SAR": 0.097809,
  "ScanOptions": "FS",
  "ScanningSequence": "EP",
  "SequenceName": "epfid2d1_82",
  "SequenceVariant": "SK\\SS",
  "SeriesDescription": "func_run-02_task-alignvideo_acq-ap-mb8",
  "SeriesNumber": 28,
  "ShimSetting": [4206, -7789, -7223, 189, -152, -106, -8, 67],
  "SliceThickness": 2.7,
  "SliceTiming": [0, 0.25, 0.0625, 0.3125, 0.125, 0.3775, 0.1875, 0, 0.25, 0.0625, 0.3125, 0.125, 0.3775, 0.1875, 0, 0.25, 0.0625, 0.3125, 0.125, 0.3775, 0.1875, 0, 0.25, 0.0625, 0.3125, 0.125, 0.3775, 0.1875, 0, 0.25, 0.0625, 0.3125, 0.125, 0.3775, 0.1875, 0, 0.25, 0.0625, 0.3125, 0.125, 0.3775, 0.1875, 0, 0.25, 0.0625, 0.3125, 0.125, 0.3775, 0.1875, 0, 0.25, 0.0625, 0.3125, 0.125, 0.3775, 0.1875],
  "SoftwareVersions": "syngo MR E11",
  "SpacingBetweenSlices": 2.7,
  "StationName": "AWP66112",
  "TaskName": "alignvideo",
  "TotalReadoutTime": 0.03969,
  "TxRefAmp": 271.681,
  "WipMemBlock": "5b2fc811-a8e3-4efa-b215-6c3956822c5d||Sequence: R016 ve11e/master r/434b28f1; Aug  7 2019 18:53:46 by eja",
  "dcmmeta_affine": [
    [-2.676553726196289, -0.18481583893299103, -0.0003417551051825285, 120.1112289428711],
    [-0.184778094291687, 2.676098108291626, -0.04983682185411453, -87.01775360107422],
    [-0.003750075586140156, 0.04938066005706787, 2.69953989982605, -74.92903900146484],
    [0.0, 0.0, 0.0, 1.0]
],
  "dcmmeta_reorient_transform": [
    [0.0, -1.0, 0.0, 81.0],
    [1.0, 0.0, 0.0, 0.0],
    [0.0, 0.0, 1.0, 0.0],
    [0.0, 0.0, 0.0, 1.0]
],
  "dcmmeta_shape": [82, 82, 56, 926],
  "dcmmeta_slice_dim": 2,
  "dcmmeta_version": 0.6,
  "global": {
    "const": {
      "AccessionNumber": "A004936",
      "AcquisitionMatrix": [82, 0, 0, 82],
      "AngioFlag": "N",
      "BitsAllocated": 16,
      "BitsStored": 16,
      "BodyPartExamined": "BRAIN",
      "Columns": 656,
      "EchoNumbers": 1,
      "EchoTime": 27.2,
      "EchoTrainLength": 82,
      "FlipAngle": 44.0,
      "HighBit": 15,
      "ImageOrientationPatient": [0.99762453697508, 0.06887183390208, -0.0013977554205, -0.0688858998909, 0.99745474568173, -0.0184055185535],
      "ImagePositionPatient": [-820.26991690363, -950.8176811516, -55.680685320924],
      "ImageType": [
        "ORIGINAL",
        "PRIMARY",
        "M",
        "MB",
        "ND",
        "NORM",
        "MOSAIC"
],
      "ImagedNucleus": "1H",
      "ImagingFrequency": 123.259022,
      "InPlanePhaseEncodingDirection": "COL",
      "MRAcquisitionType": "2D",
      "MagneticFieldStrength": 3.0,
      "Manufacturer": "SIEMENS",
      "ManufacturerModelName": "Prisma",
      "Modality": "MR",
      "NumberOfAverages": 1.0,
      "NumberOfPhaseEncodingSteps": 82,
      "PercentPhaseFieldOfView": 100.0,
      "PercentSampling": 100.0,
      "PerformedProcedureStepStartTime": "195122.688000",
      "PhotometricInterpretation": "MONOCHROME2",
      "PixelBandwidth": 3050.0,
      "PixelRepresentation": 0,
      "PixelSpacing": [2.6829268932343, 2.6829268932343],
      "ProtocolName": "func_run-02_task-alignvideo_acq-ap-mb8",
      "RepetitionTime": 460.0,
      "Rows": 656,
      "SAR": 0.09780898730318,
      "SamplesPerPixel": 1,
      "ScanOptions": "FS",
      "ScanningSequence": "EP",
      "SequenceName": "epfid2d1_82",
      "SequenceVariant": [
        "SK",
        "SS"
],
      "SeriesDescription": "func_run-02_task-alignvideo_acq-ap-mb8",
      "SeriesNumber": 28,
      "SeriesTime": "205436.941000",
      "SliceLocation": -73.325296554869,
      "SliceThickness": 2.7000000476837,
      "SmallestImagePixelValue": 0,
      "SoftwareVersions": "syngo MR E11",
      "SpacingBetweenSlices": 2.7000000239979,
      "SpecificCharacterSet": "ISO_IR 100",
      "StudyID": "5",
      "StudyTime": "195122.487000",
      "TransmitCoilName": "Body",
      "VariableFlipAngleFlag": "N",
      "WindowCenterWidthExplanation": "Algo1"
    },
    "slices": {}
  },
  "time": {
    "samples": {
      "AcquisitionNumber": [1, 2, 3, 4, 5, 6, 7, 8, 9, 10, 11, 12, 13, 14, 15, 16, 17, 18, 19, 20, 21, 22, 23, 24, 25, 26, 27, 28, 29, 30, 31, 32, 33, 34, 35, 36, 37, 38, 39, 40, 41, 42, 43, 44, 45, 46, 47, 48, 49, 50, 51, 52, 53, 54, 55, 56, 57, 58, 59, 60, 61, 62, 63, 64, 65, 66, 67, 68, 69, 70, 71, 72, 73, 74, 75, 76, 77, 78, 79, 80, 81, 82, 83, 84, 85, 86, 87, 88, 89, 90, 91, 92, 93, 94, 95, 96, 97, 98, 99, 100, 101, 102, 103, 104, 105, 106, 107, 108, 109, 110, 111, 112, 113, 114, 115, 116, 117, 118, 119, 120, 121, 122, 123, 124, 125, 126, 127, 128, 129, 130, 131, 132, 133, 134, 135, 136, 137, 138, 139, 140, 141, 142, 143, 144, 145, 146, 147, 148, 149, 150, 151, 152, 153, 154, 155, 156, 157, 158, 159, 160, 161, 162, 163, 164, 165, 166, 167, 168, 169, 170, 171, 172, 173, 174, 175, 176, 177, 178, 179, 180, 181, 182, 183, 184, 185, 186, 187, 188, 189, 190, 191, 192, 193, 194, 195, 196, 197, 198, 199, 200, 201, 202, 203, 204, 205, 206, 207, 208, 209, 210, 211, 212, 213, 214, 215, 216, 217, 218, 219, 220, 221, 222, 223, 224, 225, 226, 227, 228, 229, 230, 231, 232, 233, 234, 235, 236, 237, 238, 239, 240, 241, 242, 243, 244, 245, 246, 247, 248, 249, 250, 251, 252, 253, 254, 255, 256, 257, 258, 259, 260, 261, 262, 263, 264, 265, 266, 267, 268, 269, 270, 271, 272, 273, 274, 275, 276, 277, 278, 279, 280, 281, 282, 283, 284, 285, 286, 287, 288, 289, 290, 291, 292, 293, 294, 295, 296, 297, 298, 299, 300, 301, 302, 303, 304, 305, 306, 307, 308, 309, 310, 311, 312, 313, 314, 315, 316, 317, 318, 319, 320, 321, 322, 323, 324, 325, 326, 327, 328, 329, 330, 331, 332, 333, 334, 335, 336, 337, 338, 339, 340, 341, 342, 343, 344, 345, 346, 347, 348, 349, 350, 351, 352, 353, 354, 355, 356, 357, 358, 359, 360, 361, 362, 363, 364, 365, 366, 367, 368, 369, 370, 371, 372, 373, 374, 375, 376, 377, 378, 379, 380, 381, 382, 383, 384, 385, 386, 387, 388, 389, 390, 391, 392, 393, 394, 395, 396, 397, 398, 399, 400, 401, 402, 403, 404, 405, 406, 407, 408, 409, 410, 411, 412, 413, 414, 415, 416, 417, 418, 419, 420, 421, 422, 423, 424, 425, 426, 427, 428, 429, 430, 431, 432, 433, 434, 435, 436, 437, 438, 439, 440, 441, 442, 443, 444, 445, 446, 447, 448, 449, 450, 451, 452, 453, 454, 455, 456, 457, 458, 459, 460, 461, 462, 463, 464, 465, 466, 467, 468, 469, 470, 471, 472, 473, 474, 475, 476, 477, 478, 479, 480, 481, 482, 483, 484, 485, 486, 487, 488, 489, 490, 491, 492, 493, 494, 495, 496, 497, 498, 499, 500, 501, 502, 503, 504, 505, 506, 507, 508, 509, 510, 511, 512, 513, 514, 515, 516, 517, 518, 519, 520, 521, 522, 523, 524, 525, 526, 527, 528, 529, 530, 531, 532, 533, 534, 535, 536, 537, 538, 539, 540, 541, 542, 543, 544, 545, 546, 547, 548, 549, 550, 551, 552, 553, 554, 555, 556, 557, 558, 559, 560, 561, 562, 563, 564, 565, 566, 567, 568, 569, 570, 571, 572, 573, 574, 575, 576, 577, 578, 579, 580, 581, 582, 583, 584, 585, 586, 587, 588, 589, 590, 591, 592, 593, 594, 595, 596, 597, 598, 599, 600, 601, 602, 603, 604, 605, 606, 607, 608, 609, 610, 611, 612, 613, 614, 615, 616, 617, 618, 619, 620, 621, 622, 623, 624, 625, 626, 627, 628, 629, 630, 631, 632, 633, 634, 635, 636, 637, 638, 639, 640, 641, 642, 643, 644, 645, 646, 647, 648, 649, 650, 651, 652, 653, 654, 655, 656, 657, 658, 659, 660, 661, 662, 663, 664, 665, 666, 667, 668, 669, 670, 671, 672, 673, 674, 675, 676, 677, 678, 679, 680, 681, 682, 683, 684, 685, 686, 687, 688, 689, 690, 691, 692, 693, 694, 695, 696, 697, 698, 699, 700, 701, 702, 703, 704, 705, 706, 707, 708, 709, 710, 711, 712, 713, 714, 715, 716, 717, 718, 719, 720, 721, 722, 723, 724, 725, 726, 727, 728, 729, 730, 731, 732, 733, 734, 735, 736, 737, 738, 739, 740, 741, 742, 743, 744, 745, 746, 747, 748, 749, 750, 751, 752, 753, 754, 755, 756, 757, 758, 759, 760, 761, 762, 763, 764, 765, 766, 767, 768, 769, 770, 771, 772, 773, 774, 775, 776, 777, 778, 779, 780, 781, 782, 783, 784, 785, 786, 787, 788, 789, 790, 791, 792, 793, 794, 795, 796, 797, 798, 799, 800, 801, 802, 803, 804, 805, 806, 807, 808, 809, 810, 811, 812, 813, 814, 815, 816, 817, 818, 819, 820, 821, 822, 823, 824, 825, 826, 827, 828, 829, 830, 831, 832, 833, 834, 835, 836, 837, 838, 839, 840, 841, 842, 843, 844, 845, 846, 847, 848, 849, 850, 851, 852, 853, 854, 855, 856, 857, 858, 859, 860, 861, 862, 863, 864, 865, 866, 867, 868, 869, 870, 871, 872, 873, 874, 875, 876, 877, 878, 879, 880, 881, 882, 883, 884, 885, 886, 887, 888, 889, 890, 891, 892, 893, 894, 895, 896, 897, 898, 899, 900, 901, 902, 903, 904, 905, 906, 907, 908, 909, 910, 911, 912, 913, 914, 915, 916, 917, 918, 919, 920, 921, 922, 923, 924, 925, 926],
      "AcquisitionTime": ["205422.775000", "205423.235000", "205423.695000", "205424.155000", "205424.615000", "205425.075000", "205425.535000", "205425.995000", "205426.455000", "205426.915000", "205427.375000", "205427.835000", "205428.295000", "205428.755000", "205429.215000", "205429.675000", "205430.135000", "205430.595000", "205431.055000", "205431.515000", "205431.975000", "205432.435000", "205432.895000", "205433.355000", "205433.815000", "205434.275000", "205434.735000", "205435.195000", "205435.655000", "205436.115000", "205436.575000", "205437.035000", "205437.495000", "205437.955000", "205438.415000", "205438.875000", "205439.335000", "205439.795000", "205440.255000", "205440.715000", "205441.175000", "205441.635000", "205442.095000", "205442.555000", "205443.015000", "205443.475000", "205443.935000", "205444.395000", "205444.855000", "205445.315000", "205445.775000", "205446.235000", "205446.695000", "205447.155000", "205447.615000", "205448.075000", "205448.535000", "205448.995000", "205449.455000", "205449.915000", "205450.375000", "205450.835000", "205451.295000", "205451.755000", "205452.215000", "205452.675000", "205453.135000", "205453.595000", "205454.055000", "205454.515000", "205454.975000", "205455.435000", "205455.895000", "205456.355000", "205456.815000", "205457.275000", "205457.735000", "205458.195000", "205458.655000", "205459.115000", "205459.575000", "205500.035000", "205500.495000", "205500.955000", "205501.415000", "205501.875000", "205502.335000", "205502.795000", "205503.255000", "205503.715000", "205504.175000", "205504.635000", "205505.095000", "205505.555000", "205506.015000", "205506.475000", "205506.935000", "205507.395000", "205507.855000", "205508.315000", "205508.775000", "205509.235000", "205509.695000", "205510.155000", "205510.615000", "205511.075000", "205511.535000", "205511.995000", "205512.455000", "205512.915000", "205513.375000", "205513.835000", "205514.295000", "205514.755000", "205515.215000", "205515.675000", "205516.135000", "205516.595000", "205517.055000", "205517.515000", "205517.975000", "205518.435000", "205518.895000", "205519.355000", "205519.815000", "205520.275000", "205520.735000", "205521.195000", "205521.655000", "205522.115000", "205522.575000", "205523.035000", "205523.495000", "205523.955000", "205524.415000", "205524.875000", "205525.335000", "205525.795000", "205526.255000", "205526.715000", "205527.175000", "205527.635000", "205528.095000", "205528.555000", "205529.015000", "205529.475000", "205529.935000", "205530.395000", "205530.855000", "205531.315000", "205531.775000", "205532.235000", "205532.695000", "205533.155000", "205533.615000", "205534.075000", "205534.535000", "205534.995000", "205535.455000", "205535.915000", "205536.375000", "205536.835000", "205537.295000", "205537.755000", "205538.215000", "205538.675000", "205539.135000", "205539.595000", "205540.055000", "205540.515000", "205540.975000", "205541.435000", "205541.895000", "205542.355000", "205542.815000", "205543.275000", "205543.735000", "205544.195000", "205544.655000", "205545.115000", "205545.575000", "205546.035000", "205546.495000", "205546.955000", "205547.415000", "205547.875000", "205548.335000", "205548.795000", "205549.255000", "205549.715000", "205550.175000", "205550.635000", "205551.095000", "205551.555000", "205552.015000", "205552.475000", "205552.935000", "205553.395000", "205553.855000", "205554.315000", "205554.775000", "205555.235000", "205555.695000", "205556.155000", "205556.615000", "205557.075000", "205557.535000", "205557.995000", "205558.455000", "205558.915000", "205559.375000", "205559.835000", "205600.295000", "205600.755000", "205601.215000", "205601.675000", "205602.135000", "205602.595000", "205603.055000", "205603.515000", "205603.975000", "205604.435000", "205604.895000", "205605.355000", "205605.815000", "205606.275000", "205606.735000", "205607.195000", "205607.655000", "205608.115000", "205608.575000", "205609.035000", "205609.495000", "205609.955000", "205610.415000", "205610.875000", "205611.335000", "205611.795000", "205612.255000", "205612.715000", "205613.175000", "205613.635000", "205614.095000", "205614.555000", "205615.015000", "205615.475000", "205615.935000", "205616.395000", "205616.855000", "205617.315000", "205617.775000", "205618.235000", "205618.695000", "205619.155000", "205619.615000", "205620.075000", "205620.535000", "205620.995000", "205621.455000", "205621.915000", "205622.375000", "205622.835000", "205623.295000", "205623.755000", "205624.215000", "205624.675000", "205625.135000", "205625.595000", "205626.055000", "205626.515000", "205626.975000", "205627.435000", "205627.895000", "205628.355000", "205628.815000", "205629.275000", "205629.735000", "205630.195000", "205630.655000", "205631.115000", "205631.575000", "205632.035000", "205632.495000", "205632.955000", "205633.415000", "205633.875000", "205634.335000", "205634.795000", "205635.255000", "205635.715000", "205636.175000", "205636.635000", "205637.095000", "205637.555000", "205638.015000", "205638.475000", "205638.935000", "205639.395000", "205639.855000", "205640.315000", "205640.775000", "205641.235000", "205641.695000", "205642.155000", "205642.615000", "205643.075000", "205643.535000", "205643.995000", "205644.455000", "205644.915000", "205645.375000", "205645.835000", "205646.295000", "205646.755000", "205647.215000", "205647.675000", "205648.135000", "205648.595000", "205649.055000", "205649.515000", "205649.975000", "205650.435000", "205650.895000", "205651.355000", "205651.815000", "205652.275000", "205652.735000", "205653.195000", "205653.655000", "205654.115000", "205654.575000", "205655.035000", "205655.495000", "205655.955000", "205656.415000", "205656.875000", "205657.335000", "205657.795000", "205658.255000", "205658.715000", "205659.175000", "205659.635000", "205700.095000", "205700.555000", "205701.015000", "205701.475000", "205701.935000", "205702.395000", "205702.855000", "205703.315000", "205703.775000", "205704.235000", "205704.695000", "205705.155000", "205705.615000", "205706.075000", "205706.535000", "205706.995000", "205707.455000", "205707.915000", "205708.375000", "205708.835000", "205709.295000", "205709.755000", "205710.215000", "205710.675000", "205711.135000", "205711.595000", "205712.055000", "205712.515000", "205712.975000", "205713.435000", "205713.895000", "205714.355000", "205714.815000", "205715.275000", "205715.735000", "205716.195000", "205716.655000", "205717.115000", "205717.575000", "205718.035000", "205718.495000", "205718.955000", "205719.415000", "205719.875000", "205720.335000", "205720.795000", "205721.255000", "205721.715000", "205722.175000", "205722.635000", "205723.095000", "205723.555000", "205724.015000", "205724.475000", "205724.935000", "205725.395000", "205725.855000", "205726.315000", "205726.775000", "205727.235000", "205727.695000", "205728.155000", "205728.615000", "205729.075000", "205729.535000", "205729.995000", "205730.455000", "205730.915000", "205731.375000", "205731.835000", "205732.295000", "205732.755000", "205733.215000", "205733.675000", "205734.135000", "205734.595000", "205735.055000", "205735.515000", "205735.975000", "205736.435000", "205736.895000", "205737.355000", "205737.815000", "205738.275000", "205738.735000", "205739.195000", "205739.655000", "205740.115000", "205740.575000", "205741.035000", "205741.495000", "205741.955000", "205742.415000", "205742.875000", "205743.335000", "205743.795000", "205744.255000", "205744.715000", "205745.175000", "205745.635000", "205746.095000", "205746.555000", "205747.015000", "205747.475000", "205747.935000", "205748.395000", "205748.855000", "205749.315000", "205749.775000", "205750.235000", "205750.695000", "205751.155000", "205751.615000", "205752.075000", "205752.535000", "205752.995000", "205753.455000", "205753.915000", "205754.375000", "205754.835000", "205755.295000", "205755.755000", "205756.215000", "205756.675000", "205757.135000", "205757.595000", "205758.055000", "205758.515000", "205758.975000", "205759.435000", "205759.895000", "205800.355000", "205800.815000", "205801.275000", "205801.735000", "205802.195000", "205802.655000", "205803.115000", "205803.575000", "205804.035000", "205804.495000", "205804.955000", "205805.415000", "205805.875000", "205806.335000", "205806.795000", "205807.255000", "205807.715000", "205808.175000", "205808.635000", "205809.095000", "205809.555000", "205810.015000", "205810.475000", "205810.935000", "205811.395000", "205811.855000", "205812.315000", "205812.775000", "205813.235000", "205813.695000", "205814.155000", "205814.615000", "205815.075000", "205815.535000", "205815.995000", "205816.455000", "205816.915000", "205817.375000", "205817.835000", "205818.295000", "205818.755000", "205819.215000", "205819.675000", "205820.135000", "205820.595000", "205821.055000", "205821.515000", "205821.975000", "205822.435000", "205822.895000", "205823.355000", "205823.815000", "205824.275000", "205824.735000", "205825.195000", "205825.655000", "205826.115000", "205826.575000", "205827.035000", "205827.495000", "205827.955000", "205828.415000", "205828.875000", "205829.335000", "205829.795000", "205830.255000", "205830.715000", "205831.175000", "205831.635000", "205832.095000", "205832.555000", "205833.015000", "205833.475000", "205833.935000", "205834.395000", "205834.855000", "205835.315000", "205835.775000", "205836.235000", "205836.695000", "205837.155000", "205837.615000", "205838.075000", "205838.535000", "205838.995000", "205839.455000", "205839.915000", "205840.375000", "205840.835000", "205841.295000", "205841.755000", "205842.215000", "205842.675000", "205843.135000", "205843.595000", "205844.055000", "205844.515000", "205844.975000", "205845.435000", "205845.895000", "205846.355000", "205846.815000", "205847.275000", "205847.735000", "205848.195000", "205848.655000", "205849.115000", "205849.575000", "205850.035000", "205850.495000", "205850.955000", "205851.415000", "205851.875000", "205852.335000", "205852.795000", "205853.255000", "205853.715000", "205854.175000", "205854.635000", "205855.095000", "205855.555000", "205856.015000", "205856.475000", "205856.935000", "205857.395000", "205857.855000", "205858.315000", "205858.775000", "205859.235000", "205859.695000", "205900.155000", "205900.615000", "205901.075000", "205901.535000", "205901.995000", "205902.455000", "205902.915000", "205903.375000", "205903.835000", "205904.295000", "205904.755000", "205905.215000", "205905.675000", "205906.135000", "205906.595000", "205907.055000", "205907.515000", "205907.975000", "205908.435000", "205908.895000", "205909.355000", "205909.815000", "205910.275000", "205910.735000", "205911.195000", "205911.655000", "205912.115000", "205912.575000", "205913.035000", "205913.495000", "205913.955000", "205914.415000", "205914.875000", "205915.335000", "205915.795000", "205916.255000", "205916.715000", "205917.175000", "205917.635000", "205918.095000", "205918.555000", "205919.015000", "205919.475000", "205919.935000", "205920.395000", "205920.855000", "205921.315000", "205921.775000", "205922.235000", "205922.695000", "205923.155000", "205923.615000", "205924.075000", "205924.535000", "205924.995000", "205925.455000", "205925.915000", "205926.375000", "205926.835000", "205927.295000", "205927.755000", "205928.215000", "205928.675000", "205929.135000", "205929.595000", "205930.055000", "205930.515000", "205930.975000", "205931.435000", "205931.895000", "205932.355000", "205932.815000", "205933.275000", "205933.735000", "205934.195000", "205934.655000", "205935.115000", "205935.575000", "205936.035000", "205936.495000", "205936.955000", "205937.415000", "205937.875000", "205938.335000", "205938.795000", "205939.255000", "205939.715000", "205940.175000", "205940.635000", "205941.095000", "205941.555000", "205942.015000", "205942.475000", "205942.935000", "205943.395000", "205943.855000", "205944.315000", "205944.775000", "205945.235000", "205945.695000", "205946.155000", "205946.615000", "205947.075000", "205947.535000", "205947.995000", "205948.455000", "205948.915000", "205949.375000", "205949.835000", "205950.295000", "205950.755000", "205951.215000", "205951.675000", "205952.135000", "205952.595000", "205953.055000", "205953.515000", "205953.975000", "205954.435000", "205954.895000", "205955.355000", "205955.815000", "205956.275000", "205956.735000", "205957.195000", "205957.655000", "205958.115000", "205958.575000", "205959.035000", "205959.495000", "205959.955000", "210000.415000", "210000.875000", "210001.335000", "210001.795000", "210002.255000", "210002.715000", "210003.175000", "210003.635000", "210004.095000", "210004.555000", "210005.015000", "210005.475000", "210005.935000", "210006.395000", "210006.855000", "210007.315000", "210007.775000", "210008.235000", "210008.695000", "210009.155000", "210009.615000", "210010.075000", "210010.535000", "210010.995000", "210011.455000", "210011.915000", "210012.375000", "210012.835000", "210013.295000", "210013.755000", "210014.215000", "210014.675000", "210015.135000", "210015.595000", "210016.055000", "210016.515000", "210016.975000", "210017.435000", "210017.895000", "210018.355000", "210018.815000", "210019.275000", "210019.735000", "210020.195000", "210020.655000", "210021.115000", "210021.575000", "210022.035000", "210022.495000", "210022.955000", "210023.415000", "210023.875000", "210024.335000", "210024.795000", "210025.255000", "210025.715000", "210026.175000", "210026.635000", "210027.095000", "210027.555000", "210028.015000", "210028.475000", "210028.935000", "210029.395000", "210029.855000", "210030.315000", "210030.775000", "210031.235000", "210031.695000", "210032.155000", "210032.615000", "210033.075000", "210033.535000", "210033.995000", "210034.455000", "210034.915000", "210035.375000", "210035.835000", "210036.295000", "210036.755000", "210037.215000", "210037.675000", "210038.135000", "210038.595000", "210039.055000", "210039.515000", "210039.975000", "210040.435000", "210040.895000", "210041.355000", "210041.815000", "210042.275000", "210042.735000", "210043.195000", "210043.655000", "210044.115000", "210044.575000", "210045.035000", "210045.495000", "210045.955000", "210046.415000", "210046.875000", "210047.335000", "210047.795000", "210048.255000", "210048.715000", "210049.175000", "210049.635000", "210050.095000", "210050.555000", "210051.015000", "210051.475000", "210051.935000", "210052.395000", "210052.855000", "210053.315000", "210053.775000", "210054.235000", "210054.695000", "210055.155000", "210055.615000", "210056.075000", "210056.535000", "210056.995000", "210057.455000", "210057.915000", "210058.375000", "210058.835000", "210059.295000", "210059.755000", "210100.215000", "210100.675000", "210101.135000", "210101.595000", "210102.055000", "210102.515000", "210102.975000", "210103.435000", "210103.895000", "210104.355000", "210104.815000", "210105.275000", "210105.735000", "210106.195000", "210106.655000", "210107.115000", "210107.575000", "210108.035000", "210108.495000", "210108.955000", "210109.415000", "210109.875000", "210110.335000", "210110.795000", "210111.255000", "210111.715000", "210112.175000", "210112.635000", "210113.095000", "210113.555000", "210114.015000", "210114.475000", "210114.935000", "210115.395000", "210115.855000", "210116.315000", "210116.775000", "210117.235000", "210117.695000", "210118.155000", "210118.615000", "210119.075000", "210119.535000", "210119.995000", "210120.455000", "210120.915000", "210121.375000", "210121.835000", "210122.295000", "210122.755000", "210123.215000", "210123.675000", "210124.135000", "210124.595000", "210125.055000", "210125.515000", "210125.975000", "210126.435000", "210126.895000", "210127.355000", "210127.815000", "210128.275000"],
