{
  "AcquisitionMatrixPE": 82,
  "AcquisitionNumber": 1,
  "AcquisitionTime": "19:56:25.647500",
  "BandwidthPerPixelPhaseEncode": 24.888,
  "BaseResolution": 82,
  "BodyPartExamined": "BRAIN",
  "ConsistencyInfo": "N4_VE11E_LATEST_20181129",
  "ConversionSoftware": "dcm2niix",
  "ConversionSoftwareVersion": "v1.0.20201102",
  "DerivedVendorReportedEchoSpacing": 0.00049,
  "DeviceSerialNumber": "66112",
  "DwellTime": 2e-06,
  "EchoTime": 0.0272,
  "EchoTrainLength": 82,
  "EffectiveEchoSpacing": 0.00049,
  "FlipAngle": 44,
  "ImageComments": "Unaliased MB8/PE3",
  "ImageOrientationPatientDICOM": [0.997847, 0.0652106, 0.00693037, -0.0652275, 0.997868, 0.00224575],
  "ImageType": [
    "ORIGINAL",
    "PRIMARY",
    "M",
    "MB",
    "ND",
    "NORM",
    "MOSAIC"
],
  "ImagingFrequency": 123.259,
  "InPlanePhaseEncodingDirectionDICOM": "COL",
  "InstitutionAddress": "Maynard 3,Hanover,NH,US,03755",
  "InstitutionName": "Dartmouth College - PBS",
  "InstitutionalDepartmentName": "Department",
  "MRAcquisitionType": "2D",
  "MagneticFieldStrength": 3,
  "Manufacturer": "Siemens",
  "ManufacturersModelName": "Prisma",
  "Modality": "MR",
  "MultibandAccelerationFactor": 8,
  "PartialFourier": 1,
  "PatientPosition": "HFS",
  "PercentPhaseFOV": 100,
  "PercentSampling": 100,
  "PhaseEncodingDirection": "j-",
  "PhaseEncodingSteps": 82,
  "PhaseResolution": 1,
  "PixelBandwidth": 3050,
  "ProcedureStepDescription": "Wager_Wager^1076_spacetop",
  "ProtocolName": "func_run-01_task-social_acq-ap-mb8",
  "PulseSequenceDetails": "%CustomerSeq%\\cmrr_mbep2d_bold",
  "ReceiveCoilActiveElements": "HEA;HEP",
  "ReceiveCoilName": "Head_32",
  "ReconMatrixPE": 82,
  "RepetitionTime": 0.46,
  "SAR": 0.0977736,
  "ScanOptions": "FS",
  "ScanningSequence": "EP",
  "SequenceName": "epfid2d1_82",
  "SequenceVariant": "SK\\SS",
  "SeriesDescription": "func_run-01_task-social_acq-ap-mb8",
  "SeriesNumber": 8,
  "ShimSetting": [4206, -7789, -7225, 202, -152, -107, -11, 68],
  "SliceThickness": 2.7,
  "SliceTiming": [0, 0.25, 0.0625, 0.3125, 0.125, 0.375, 0.1875, 0, 0.25, 0.0625, 0.3125, 0.125, 0.375, 0.1875, 0, 0.25, 0.0625, 0.3125, 0.125, 0.375, 0.1875, 0, 0.25, 0.0625, 0.3125, 0.125, 0.375, 0.1875, 0, 0.25, 0.0625, 0.3125, 0.125, 0.375, 0.1875, 0, 0.25, 0.0625, 0.3125, 0.125, 0.375, 0.1875, 0, 0.25, 0.0625, 0.3125, 0.125, 0.375, 0.1875, 0, 0.25, 0.0625, 0.3125, 0.125, 0.375, 0.1875],
  "SoftwareVersions": "syngo MR E11",
  "SpacingBetweenSlices": 2.7,
  "StationName": "AWP66112",
  "TaskName": "social",
  "TotalReadoutTime": 0.03969,
  "TxRefAmp": 271.681,
  "WipMemBlock": "90ca3afd-f56d-45d6-a6f9-3ab240e7ee3c||Sequence: R016 ve11e/master r/434b28f1; Aug  7 2019 18:53:46 by eja",
  "dcmmeta_affine": [
    [-2.677151679992676, -0.17500057816505432, 0.018276702612638474, 120.29663848876953],
    [-0.17495514452457428, 2.677206516265869, 0.007271010894328356, -88.12971496582031],
    [0.01859368197619915, -0.006025183945894241, 2.6999282836914062, -73.49849700927734],
    [0.0, 0.0, 0.0, 1.0]
],
  "dcmmeta_reorient_transform": [
    [0.0, -1.0, 0.0, 81.0],
    [1.0, 0.0, 0.0, 0.0],
    [0.0, 0.0, 1.0, 0.0],
    [0.0, 0.0, 0.0, 1.0]
],
  "dcmmeta_shape": [82, 82, 56, 872],
  "dcmmeta_slice_dim": 2,
  "dcmmeta_version": 0.6,
  "global": {
    "const": {
      "AccessionNumber": "A004936",
      "AcquisitionMatrix": [82, 0, 0, 82],
      "AngioFlag": "N",
      "BitsAllocated": 16,
      "BitsStored": 16,
      "BodyPartExamined": "BRAIN",
      "Columns": 656,
      "EchoNumbers": 1,
      "EchoTime": 27.2,
      "EchoTrainLength": 82,
      "FlipAngle": 44.0,
      "HighBit": 15,
      "ImageOrientationPatient": [0.99784746011068, 0.06521055350026, 0.00693037249013, -0.0652274862676, 0.99786789287983, 0.00224575038239],
      "ImagePositionPatient": [-824.23898540216, -947.29444025058, -81.05215354251],
      "ImageType": [
        "ORIGINAL",
        "PRIMARY",
        "M",
        "MB",
        "ND",
        "NORM",
        "MOSAIC"
],
      "ImagedNucleus": "1H",
      "ImagingFrequency": 123.259003,
      "InPlanePhaseEncodingDirection": "COL",
      "MRAcquisitionType": "2D",
      "MagneticFieldStrength": 3.0,
      "Manufacturer": "SIEMENS",
      "ManufacturerModelName": "Prisma",
      "Modality": "MR",
      "NumberOfAverages": 1.0,
      "NumberOfPhaseEncodingSteps": 82,
      "PercentPhaseFieldOfView": 100.0,
      "PercentSampling": 100.0,
      "PerformedProcedureStepStartTime": "195122.688000",
      "PhotometricInterpretation": "MONOCHROME2",
      "PixelBandwidth": 3050.0,
      "PixelRepresentation": 0,
      "PixelSpacing": [2.6829268932343, 2.6829268932343],
      "ProtocolName": "func_run-01_task-social_acq-ap-mb8",
      "RepetitionTime": 460.0,
      "Rows": 656,
      "SAR": 0.09777357545665,
      "SamplesPerPixel": 1,
      "ScanOptions": "FS",
      "ScanningSequence": "EP",
      "SequenceName": "epfid2d1_82",
      "SequenceVariant": [
        "SK",
        "SS"
],
      "SeriesDescription": "func_run-01_task-social_acq-ap-mb8",
      "SeriesNumber": 8,
      "SeriesTime": "195636.867000",
      "SliceLocation": -72.919572929279,
      "SliceThickness": 2.7000000476837,
      "SmallestImagePixelValue": 0,
      "SoftwareVersions": "syngo MR E11",
      "SpacingBetweenSlices": 2.6999999337958,
      "SpecificCharacterSet": "ISO_IR 100",
      "StudyID": "5",
      "StudyTime": "195122.487000",
      "TransmitCoilName": "Body",
      "VariableFlipAngleFlag": "N",
      "WindowCenterWidthExplanation": "Algo1"
    },
    "slices": {}
  },
  "time": {
    "samples": {
      "AcquisitionNumber": [1, 2, 3, 4, 5, 6, 7, 8, 9, 10, 11, 12, 13, 14, 15, 16, 17, 18, 19, 20, 21, 22, 23, 24, 25, 26, 27, 28, 29, 30, 31, 32, 33, 34, 35, 36, 37, 38, 39, 40, 41, 42, 43, 44, 45, 46, 47, 48, 49, 50, 51, 52, 53, 54, 55, 56, 57, 58, 59, 60, 61, 62, 63, 64, 65, 66, 67, 68, 69, 70, 71, 72, 73, 74, 75, 76, 77, 78, 79, 80, 81, 82, 83, 84, 85, 86, 87, 88, 89, 90, 91, 92, 93, 94, 95, 96, 97, 98, 99, 100, 101, 102, 103, 104, 105, 106, 107, 108, 109, 110, 111, 112, 113, 114, 115, 116, 117, 118, 119, 120, 121, 122, 123, 124, 125, 126, 127, 128, 129, 130, 131, 132, 133, 134, 135, 136, 137, 138, 139, 140, 141, 142, 143, 144, 145, 146, 147, 148, 149, 150, 151, 152, 153, 154, 155, 156, 157, 158, 159, 160, 161, 162, 163, 164, 165, 166, 167, 168, 169, 170, 171, 172, 173, 174, 175, 176, 177, 178, 179, 180, 181, 182, 183, 184, 185, 186, 187, 188, 189, 190, 191, 192, 193, 194, 195, 196, 197, 198, 199, 200, 201, 202, 203, 204, 205, 206, 207, 208, 209, 210, 211, 212, 213, 214, 215, 216, 217, 218, 219, 220, 221, 222, 223, 224, 225, 226, 227, 228, 229, 230, 231, 232, 233, 234, 235, 236, 237, 238, 239, 240, 241, 242, 243, 244, 245, 246, 247, 248, 249, 250, 251, 252, 253, 254, 255, 256, 257, 258, 259, 260, 261, 262, 263, 264, 265, 266, 267, 268, 269, 270, 271, 272, 273, 274, 275, 276, 277, 278, 279, 280, 281, 282, 283, 284, 285, 286, 287, 288, 289, 290, 291, 292, 293, 294, 295, 296, 297, 298, 299, 300, 301, 302, 303, 304, 305, 306, 307, 308, 309, 310, 311, 312, 313, 314, 315, 316, 317, 318, 319, 320, 321, 322, 323, 324, 325, 326, 327, 328, 329, 330, 331, 332, 333, 334, 335, 336, 337, 338, 339, 340, 341, 342, 343, 344, 345, 346, 347, 348, 349, 350, 351, 352, 353, 354, 355, 356, 357, 358, 359, 360, 361, 362, 363, 364, 365, 366, 367, 368, 369, 370, 371, 372, 373, 374, 375, 376, 377, 378, 379, 380, 381, 382, 383, 384, 385, 386, 387, 388, 389, 390, 391, 392, 393, 394, 395, 396, 397, 398, 399, 400, 401, 402, 403, 404, 405, 406, 407, 408, 409, 410, 411, 412, 413, 414, 415, 416, 417, 418, 419, 420, 421, 422, 423, 424, 425, 426, 427, 428, 429, 430, 431, 432, 433, 434, 435, 436, 437, 438, 439, 440, 441, 442, 443, 444, 445, 446, 447, 448, 449, 450, 451, 452, 453, 454, 455, 456, 457, 458, 459, 460, 461, 462, 463, 464, 465, 466, 467, 468, 469, 470, 471, 472, 473, 474, 475, 476, 477, 478, 479, 480, 481, 482, 483, 484, 485, 486, 487, 488, 489, 490, 491, 492, 493, 494, 495, 496, 497, 498, 499, 500, 501, 502, 503, 504, 505, 506, 507, 508, 509, 510, 511, 512, 513, 514, 515, 516, 517, 518, 519, 520, 521, 522, 523, 524, 525, 526, 527, 528, 529, 530, 531, 532, 533, 534, 535, 536, 537, 538, 539, 540, 541, 542, 543, 544, 545, 546, 547, 548, 549, 550, 551, 552, 553, 554, 555, 556, 557, 558, 559, 560, 561, 562, 563, 564, 565, 566, 567, 568, 569, 570, 571, 572, 573, 574, 575, 576, 577, 578, 579, 580, 581, 582, 583, 584, 585, 586, 587, 588, 589, 590, 591, 592, 593, 594, 595, 596, 597, 598, 599, 600, 601, 602, 603, 604, 605, 606, 607, 608, 609, 610, 611, 612, 613, 614, 615, 616, 617, 618, 619, 620, 621, 622, 623, 624, 625, 626, 627, 628, 629, 630, 631, 632, 633, 634, 635, 636, 637, 638, 639, 640, 641, 642, 643, 644, 645, 646, 647, 648, 649, 650, 651, 652, 653, 654, 655, 656, 657, 658, 659, 660, 661, 662, 663, 664, 665, 666, 667, 668, 669, 670, 671, 672, 673, 674, 675, 676, 677, 678, 679, 680, 681, 682, 683, 684, 685, 686, 687, 688, 689, 690, 691, 692, 693, 694, 695, 696, 697, 698, 699, 700, 701, 702, 703, 704, 705, 706, 707, 708, 709, 710, 711, 712, 713, 714, 715, 716, 717, 718, 719, 720, 721, 722, 723, 724, 725, 726, 727, 728, 729, 730, 731, 732, 733, 734, 735, 736, 737, 738, 739, 740, 741, 742, 743, 744, 745, 746, 747, 748, 749, 750, 751, 752, 753, 754, 755, 756, 757, 758, 759, 760, 761, 762, 763, 764, 765, 766, 767, 768, 769, 770, 771, 772, 773, 774, 775, 776, 777, 778, 779, 780, 781, 782, 783, 784, 785, 786, 787, 788, 789, 790, 791, 792, 793, 794, 795, 796, 797, 798, 799, 800, 801, 802, 803, 804, 805, 806, 807, 808, 809, 810, 811, 812, 813, 814, 815, 816, 817, 818, 819, 820, 821, 822, 823, 824, 825, 826, 827, 828, 829, 830, 831, 832, 833, 834, 835, 836, 837, 838, 839, 840, 841, 842, 843, 844, 845, 846, 847, 848, 849, 850, 851, 852, 853, 854, 855, 856, 857, 858, 859, 860, 861, 862, 863, 864, 865, 866, 867, 868, 869, 870, 871, 872],
      "AcquisitionTime": ["195625.647500", "195626.107500", "195626.567500", "195627.027500", "195627.487500", "195627.947500", "195628.407500", "195628.867500", "195629.327500", "195629.787500", "195630.247500", "195630.707500", "195631.167500", "195631.627500", "195632.087500", "195632.547500", "195633.007500", "195633.467500", "195633.927500", "195634.387500", "195634.847500", "195635.307500", "195635.767500", "195636.227500", "195636.687500", "195637.147500", "195637.607500", "195638.067500", "195638.527500", "195638.987500", "195639.447500", "195639.907500", "195640.367500", "195640.827500", "195641.287500", "195641.747500", "195642.207500", "195642.667500", "195643.127500", "195643.587500", "195644.047500", "195644.507500", "195644.967500", "195645.427500", "195645.887500", "195646.347500", "195646.807500", "195647.267500", "195647.727500", "195648.187500", "195648.647500", "195649.107500", "195649.567500", "195650.027500", "195650.487500", "195650.947500", "195651.407500", "195651.867500", "195652.327500", "195652.787500", "195653.247500", "195653.707500", "195654.167500", "195654.627500", "195655.087500", "195655.547500", "195656.007500", "195656.467500", "195656.927500", "195657.387500", "195657.847500", "195658.307500", "195658.767500", "195659.227500", "195659.687500", "195700.147500", "195700.607500", "195701.067500", "195701.527500", "195701.987500", "195702.447500", "195702.907500", "195703.367500", "195703.827500", "195704.287500", "195704.747500", "195705.207500", "195705.667500", "195706.127500", "195706.587500", "195707.047500", "195707.507500", "195707.967500", "195708.427500", "195708.887500", "195709.347500", "195709.807500", "195710.267500", "195710.727500", "195711.187500", "195711.647500", "195712.107500", "195712.567500", "195713.027500", "195713.487500", "195713.947500", "195714.407500", "195714.867500", "195715.327500", "195715.787500", "195716.247500", "195716.707500", "195717.167500", "195717.627500", "195718.087500", "195718.547500", "195719.007500", "195719.467500", "195719.927500", "195720.387500", "195720.847500", "195721.307500", "195721.767500", "195722.227500", "195722.687500", "195723.147500", "195723.607500", "195724.067500", "195724.527500", "195724.987500", "195725.447500", "195725.907500", "195726.367500", "195726.827500", "195727.287500", "195727.747500", "195728.207500", "195728.667500", "195729.127500", "195729.587500", "195730.047500", "195730.507500", "195730.967500", "195731.427500", "195731.887500", "195732.347500", "195732.807500", "195733.267500", "195733.727500", "195734.187500", "195734.647500", "195735.107500", "195735.567500", "195736.027500", "195736.487500", "195736.947500", "195737.407500", "195737.867500", "195738.327500", "195738.787500", "195739.247500", "195739.707500", "195740.167500", "195740.627500", "195741.087500", "195741.547500", "195742.007500", "195742.467500", "195742.927500", "195743.387500", "195743.847500", "195744.307500", "195744.767500", "195745.227500", "195745.687500", "195746.147500", "195746.607500", "195747.067500", "195747.527500", "195747.987500", "195748.447500", "195748.907500", "195749.367500", "195749.827500", "195750.287500", "195750.747500", "195751.207500", "195751.667500", "195752.127500", "195752.587500", "195753.047500", "195753.507500", "195753.967500", "195754.427500", "195754.887500", "195755.347500", "195755.807500", "195756.267500", "195756.727500", "195757.187500", "195757.647500", "195758.107500", "195758.567500", "195759.027500", "195759.487500", "195759.947500", "195800.407500", "195800.867500", "195801.327500", "195801.787500", "195802.247500", "195802.707500", "195803.167500", "195803.627500", "195804.087500", "195804.547500", "195805.007500", "195805.467500", "195805.927500", "195806.387500", "195806.847500", "195807.307500", "195807.767500", "195808.227500", "195808.687500", "195809.147500", "195809.607500", "195810.067500", "195810.527500", "195810.987500", "195811.447500", "195811.907500", "195812.367500", "195812.827500", "195813.287500", "195813.747500", "195814.207500", "195814.667500", "195815.127500", "195815.587500", "195816.047500", "195816.507500", "195816.967500", "195817.427500", "195817.887500", "195818.347500", "195818.807500", "195819.267500", "195819.727500", "195820.187500", "195820.647500", "195821.107500", "195821.567500", "195822.027500", "195822.487500", "195822.947500", "195823.407500", "195823.867500", "195824.327500", "195824.787500", "195825.247500", "195825.707500", "195826.167500", "195826.627500", "195827.087500", "195827.547500", "195828.007500", "195828.467500", "195828.927500", "195829.387500", "195829.847500", "195830.307500", "195830.767500", "195831.227500", "195831.687500", "195832.147500", "195832.607500", "195833.067500", "195833.527500", "195833.987500", "195834.447500", "195834.907500", "195835.367500", "195835.827500", "195836.287500", "195836.747500", "195837.207500", "195837.667500", "195838.127500", "195838.587500", "195839.047500", "195839.507500", "195839.967500", "195840.427500", "195840.887500", "195841.347500", "195841.807500", "195842.267500", "195842.727500", "195843.187500", "195843.647500", "195844.107500", "195844.567500", "195845.027500", "195845.487500", "195845.947500", "195846.407500", "195846.867500", "195847.327500", "195847.787500", "195848.247500", "195848.707500", "195849.167500", "195849.627500", "195850.087500", "195850.547500", "195851.007500", "195851.467500", "195851.927500", "195852.387500", "195852.847500", "195853.307500", "195853.767500", "195854.227500", "195854.687500", "195855.147500", "195855.607500", "195856.067500", "195856.527500", "195856.987500", "195857.447500", "195857.907500", "195858.367500", "195858.827500", "195859.287500", "195859.747500", "195900.207500", "195900.667500", "195901.127500", "195901.587500", "195902.047500", "195902.507500", "195902.967500", "195903.427500", "195903.887500", "195904.347500", "195904.807500", "195905.267500", "195905.727500", "195906.187500", "195906.647500", "195907.107500", "195907.567500", "195908.027500", "195908.487500", "195908.947500", "195909.407500", "195909.867500", "195910.327500", "195910.787500", "195911.247500", "195911.707500", "195912.167500", "195912.627500", "195913.087500", "195913.547500", "195914.007500", "195914.467500", "195914.927500", "195915.387500", "195915.847500", "195916.307500", "195916.767500", "195917.227500", "195917.687500", "195918.147500", "195918.607500", "195919.067500", "195919.527500", "195919.987500", "195920.447500", "195920.907500", "195921.367500", "195921.827500", "195922.287500", "195922.747500", "195923.207500", "195923.667500", "195924.127500", "195924.587500", "195925.047500", "195925.507500", "195925.967500", "195926.427500", "195926.887500", "195927.347500", "195927.807500", "195928.267500", "195928.727500", "195929.187500", "195929.647500", "195930.107500", "195930.567500", "195931.027500", "195931.487500", "195931.947500", "195932.407500", "195932.867500", "195933.327500", "195933.787500", "195934.247500", "195934.707500", "195935.167500", "195935.627500", "195936.087500", "195936.547500", "195937.007500", "195937.467500", "195937.927500", "195938.387500", "195938.847500", "195939.307500", "195939.767500", "195940.227500", "195940.687500", "195941.147500", "195941.607500", "195942.067500", "195942.527500", "195942.987500", "195943.447500", "195943.907500", "195944.367500", "195944.827500", "195945.287500", "195945.747500", "195946.207500", "195946.667500", "195947.127500", "195947.587500", "195948.047500", "195948.507500", "195948.967500", "195949.427500", "195949.887500", "195950.347500", "195950.807500", "195951.267500", "195951.727500", "195952.187500", "195952.647500", "195953.107500", "195953.567500", "195954.027500", "195954.487500", "195954.947500", "195955.407500", "195955.867500", "195956.327500", "195956.787500", "195957.247500", "195957.707500", "195958.167500", "195958.627500", "195959.087500", "195959.547500", "200000.007500", "200000.467500", "200000.927500", "200001.387500", "200001.847500", "200002.307500", "200002.767500", "200003.227500", "200003.687500", "200004.147500", "200004.607500", "200005.067500", "200005.527500", "200005.987500", "200006.447500", "200006.907500", "200007.367500", "200007.827500", "200008.287500", "200008.747500", "200009.207500", "200009.667500", "200010.127500", "200010.587500", "200011.047500", "200011.507500", "200011.967500", "200012.427500", "200012.887500", "200013.347500", "200013.807500", "200014.267500", "200014.727500", "200015.187500", "200015.647500", "200016.107500", "200016.567500", "200017.027500", "200017.487500", "200017.947500", "200018.407500", "200018.867500", "200019.327500", "200019.787500", "200020.247500", "200020.707500", "200021.167500", "200021.627500", "200022.087500", "200022.547500", "200023.007500", "200023.467500", "200023.927500", "200024.387500", "200024.847500", "200025.307500", "200025.767500", "200026.227500", "200026.687500", "200027.147500", "200027.607500", "200028.067500", "200028.527500", "200028.987500", "200029.447500", "200029.907500", "200030.367500", "200030.827500", "200031.287500", "200031.747500", "200032.207500", "200032.667500", "200033.127500", "200033.587500", "200034.047500", "200034.507500", "200034.967500", "200035.427500", "200035.887500", "200036.347500", "200036.807500", "200037.267500", "200037.727500", "200038.187500", "200038.647500", "200039.107500", "200039.567500", "200040.027500", "200040.487500", "200040.947500", "200041.407500", "200041.867500", "200042.327500", "200042.787500", "200043.247500", "200043.707500", "200044.167500", "200044.627500", "200045.087500", "200045.547500", "200046.007500", "200046.467500", "200046.927500", "200047.387500", "200047.847500", "200048.307500", "200048.767500", "200049.227500", "200049.687500", "200050.147500", "200050.607500", "200051.067500", "200051.527500", "200051.987500", "200052.447500", "200052.907500", "200053.367500", "200053.827500", "200054.287500", "200054.747500", "200055.207500", "200055.667500", "200056.127500", "200056.587500", "200057.047500", "200057.507500", "200057.967500", "200058.427500", "200058.887500", "200059.347500", "200059.807500", "200100.267500", "200100.727500", "200101.187500", "200101.647500", "200102.107500", "200102.567500", "200103.027500", "200103.487500", "200103.947500", "200104.407500", "200104.867500", "200105.327500", "200105.787500", "200106.247500", "200106.707500", "200107.167500", "200107.627500", "200108.087500", "200108.547500", "200109.007500", "200109.467500", "200109.927500", "200110.387500", "200110.847500", "200111.307500", "200111.767500", "200112.227500", "200112.687500", "200113.147500", "200113.607500", "200114.067500", "200114.527500", "200114.987500", "200115.447500", "200115.907500", "200116.367500", "200116.827500", "200117.287500", "200117.747500", "200118.207500", "200118.667500", "200119.127500", "200119.587500", "200120.047500", "200120.507500", "200120.967500", "200121.427500", "200121.887500", "200122.347500", "200122.807500", "200123.267500", "200123.727500", "200124.187500", "200124.647500", "200125.107500", "200125.567500", "200126.027500", "200126.487500", "200126.947500", "200127.407500", "200127.867500", "200128.327500", "200128.787500", "200129.247500", "200129.707500", "200130.167500", "200130.627500", "200131.087500", "200131.547500", "200132.007500", "200132.467500", "200132.927500", "200133.387500", "200133.847500", "200134.307500", "200134.767500", "200135.227500", "200135.687500", "200136.147500", "200136.607500", "200137.067500", "200137.527500", "200137.987500", "200138.447500", "200138.907500", "200139.367500", "200139.827500", "200140.287500", "200140.747500", "200141.207500", "200141.667500", "200142.127500", "200142.587500", "200143.047500", "200143.507500", "200143.967500", "200144.427500", "200144.887500", "200145.347500", "200145.807500", "200146.267500", "200146.727500", "200147.187500", "200147.647500", "200148.107500", "200148.567500", "200149.027500", "200149.487500", "200149.947500", "200150.407500", "200150.867500", "200151.327500", "200151.787500", "200152.247500", "200152.707500", "200153.167500", "200153.627500", "200154.087500", "200154.547500", "200155.007500", "200155.467500", "200155.927500", "200156.387500", "200156.847500", "200157.307500", "200157.767500", "200158.227500", "200158.687500", "200159.147500", "200159.607500", "200200.067500", "200200.527500", "200200.987500", "200201.447500", "200201.907500", "200202.367500", "200202.827500", "200203.287500", "200203.747500", "200204.207500", "200204.667500", "200205.127500", "200205.587500", "200206.047500", "200206.507500", "200206.967500", "200207.427500", "200207.887500", "200208.347500", "200208.807500", "200209.267500", "200209.727500", "200210.187500", "200210.647500", "200211.107500", "200211.567500", "200212.027500", "200212.487500", "200212.947500", "200213.407500", "200213.867500", "200214.327500", "200214.787500", "200215.247500", "200215.707500", "200216.167500", "200216.627500", "200217.087500", "200217.547500", "200218.007500", "200218.467500", "200218.927500", "200219.387500", "200219.847500", "200220.307500", "200220.767500", "200221.227500", "200221.687500", "200222.147500", "200222.607500", "200223.067500", "200223.527500", "200223.987500", "200224.447500", "200224.907500", "200225.367500", "200225.827500", "200226.287500", "200226.747500", "200227.207500", "200227.667500", "200228.127500", "200228.587500", "200229.047500", "200229.507500", "200229.967500", "200230.427500", "200230.887500", "200231.347500", "200231.807500", "200232.267500", "200232.727500", "200233.187500", "200233.647500", "200234.107500", "200234.567500", "200235.027500", "200235.487500", "200235.947500", "200236.407500", "200236.867500", "200237.327500", "200237.787500", "200238.247500", "200238.707500", "200239.167500", "200239.627500", "200240.087500", "200240.547500", "200241.007500", "200241.467500", "200241.927500", "200242.387500", "200242.847500", "200243.307500", "200243.767500", "200244.227500", "200244.687500", "200245.147500", "200245.607500", "200246.067500", "200246.527500", "200246.987500", "200247.447500", "200247.907500", "200248.367500", "200248.827500", "200249.287500", "200249.747500", "200250.207500", "200250.667500", "200251.127500", "200251.587500", "200252.047500", "200252.507500", "200252.967500", "200253.427500", "200253.887500", "200254.347500", "200254.807500", "200255.267500", "200255.727500", "200256.187500", "200256.647500", "200257.107500", "200257.567500", "200258.027500", "200258.487500", "200258.947500", "200259.407500", "200259.867500", "200300.327500", "200300.787500", "200301.247500", "200301.707500", "200302.167500", "200302.627500", "200303.087500", "200303.547500", "200304.007500", "200304.467500", "200304.927500", "200305.387500", "200305.847500", "200306.307500"],
