{
  "AcquisitionMatrixPE": 82,
  "AcquisitionNumber": 1,
  "AcquisitionTime": "20:12:17.577500",
  "BandwidthPerPixelPhaseEncode": 24.888,
  "BaseResolution": 82,
  "BodyPartExamined": "BRAIN",
  "ConsistencyInfo": "N4_VE11E_LATEST_20181129",
  "ConversionSoftware": "dcm2niix",
  "ConversionSoftwareVersion": "v1.0.20201102",
  "DerivedVendorReportedEchoSpacing": 0.00049,
  "DeviceSerialNumber": "66112",
  "DwellTime": 2e-06,
  "EchoTime": 0.0272,
  "EchoTrainLength": 82,
  "EffectiveEchoSpacing": 0.00049,
  "FlipAngle": 44,
  "ImageComments": "Unaliased MB8/PE3",
  "ImageOrientationPatientDICOM": [0.997847, 0.0652106, 0.00693037, -0.0652275, 0.997868, 0.00224575],
  "ImageType": [
    "ORIGINAL",
    "PRIMARY",
    "M",
    "MB",
    "ND",
    "NORM",
    "MOSAIC"
],
  "ImagingFrequency": 123.259,
  "InPlanePhaseEncodingDirectionDICOM": "COL",
  "InstitutionAddress": "Maynard 3,Hanover,NH,US,03755",
  "InstitutionName": "Dartmouth College - PBS",
  "InstitutionalDepartmentName": "Department",
  "MRAcquisitionType": "2D",
  "MagneticFieldStrength": 3,
  "Manufacturer": "Siemens",
  "ManufacturersModelName": "Prisma",
  "Modality": "MR",
  "MultibandAccelerationFactor": 8,
  "PartialFourier": 1,
  "PatientPosition": "HFS",
  "PercentPhaseFOV": 100,
  "PercentSampling": 100,
  "PhaseEncodingDirection": "j-",
  "PhaseEncodingSteps": 82,
  "PhaseResolution": 1,
  "PixelBandwidth": 3050,
  "ProcedureStepDescription": "Wager_Wager^1076_spacetop",
  "ProtocolName": "func_run-03_task-social_acq-ap-mb8",
  "PulseSequenceDetails": "%CustomerSeq%\\cmrr_mbep2d_bold",
  "ReceiveCoilActiveElements": "HEA;HEP",
  "ReceiveCoilName": "Head_32",
  "ReconMatrixPE": 82,
  "RepetitionTime": 0.46,
  "SAR": 0.0977736,
  "ScanOptions": "FS",
  "ScanningSequence": "EP",
  "SequenceName": "epfid2d1_82",
  "SequenceVariant": "SK\\SS",
  "SeriesDescription": "func_run-03_task-social_acq-ap-mb8",
  "SeriesNumber": 12,
  "ShimSetting": [4206, -7789, -7225, 202, -152, -107, -11, 68],
  "SliceThickness": 2.7,
  "SliceTiming": [0, 0.2525, 0.0625, 0.315, 0.1275, 0.3775, 0.19, 0, 0.2525, 0.0625, 0.315, 0.1275, 0.3775, 0.19, 0, 0.2525, 0.0625, 0.315, 0.1275, 0.3775, 0.19, 0, 0.2525, 0.0625, 0.315, 0.1275, 0.3775, 0.19, 0, 0.2525, 0.0625, 0.315, 0.1275, 0.3775, 0.19, 0, 0.2525, 0.0625, 0.315, 0.1275, 0.3775, 0.19, 0, 0.2525, 0.0625, 0.315, 0.1275, 0.3775, 0.19, 0, 0.2525, 0.0625, 0.315, 0.1275, 0.3775, 0.19],
  "SoftwareVersions": "syngo MR E11",
  "SpacingBetweenSlices": 2.7,
  "StationName": "AWP66112",
  "TaskName": "social",
  "TotalReadoutTime": 0.03969,
  "TxRefAmp": 271.681,
  "WipMemBlock": "ad0f4c61-6b94-4a66-9d9d-cd548eab64ec||Sequence: R016 ve11e/master r/434b28f1; Aug  7 2019 18:53:46 by eja",
  "dcmmeta_affine": [
    [-2.677151679992676, -0.17500057816505432, 0.018276702612638474, 120.29663848876953],
    [-0.17495514452457428, 2.677206516265869, 0.007271010894328356, -88.12971496582031],
    [0.01859368197619915, -0.006025183945894241, 2.6999282836914062, -73.49849700927734],
    [0.0, 0.0, 0.0, 1.0]
],
  "dcmmeta_reorient_transform": [
    [0.0, -1.0, 0.0, 81.0],
    [1.0, 0.0, 0.0, 0.0],
    [0.0, 0.0, 1.0, 0.0],
    [0.0, 0.0, 0.0, 1.0]
],
  "dcmmeta_shape": [82, 82, 56, 872],
  "dcmmeta_slice_dim": 2,
  "dcmmeta_version": 0.6,
  "global": {
    "const": {
      "AccessionNumber": "A004936",
      "AcquisitionMatrix": [82, 0, 0, 82],
      "AngioFlag": "N",
      "BitsAllocated": 16,
      "BitsStored": 16,
      "BodyPartExamined": "BRAIN",
      "Columns": 656,
      "EchoNumbers": 1,
      "EchoTime": 27.2,
      "EchoTrainLength": 82,
      "FlipAngle": 44.0,
      "HighBit": 15,
      "ImageOrientationPatient": [0.99784746011068, 0.06521055350026, 0.00693037249013, -0.0652274862676, 0.99786789287983, 0.00224575038239],
      "ImagePositionPatient": [-824.23898540216, -947.29444025058, -81.05215354251],
      "ImageType": [
        "ORIGINAL",
        "PRIMARY",
        "M",
        "MB",
        "ND",
        "NORM",
        "MOSAIC"
],
      "ImagedNucleus": "1H",
      "ImagingFrequency": 123.259013,
      "InPlanePhaseEncodingDirection": "COL",
      "MRAcquisitionType": "2D",
      "MagneticFieldStrength": 3.0,
      "Manufacturer": "SIEMENS",
      "ManufacturerModelName": "Prisma",
      "Modality": "MR",
      "NumberOfAverages": 1.0,
      "NumberOfPhaseEncodingSteps": 82,
      "PercentPhaseFieldOfView": 100.0,
      "PercentSampling": 100.0,
      "PerformedProcedureStepStartTime": "195122.688000",
      "PhotometricInterpretation": "MONOCHROME2",
      "PixelBandwidth": 3050.0,
      "PixelRepresentation": 0,
      "PixelSpacing": [2.6829268932343, 2.6829268932343],
      "ProtocolName": "func_run-03_task-social_acq-ap-mb8",
      "RepetitionTime": 460.0,
      "Rows": 656,
      "SAR": 0.09777357545665,
      "SamplesPerPixel": 1,
      "ScanOptions": "FS",
      "ScanningSequence": "EP",
      "SequenceName": "epfid2d1_82",
      "SequenceVariant": [
        "SK",
        "SS"
],
      "SeriesDescription": "func_run-03_task-social_acq-ap-mb8",
      "SeriesNumber": 12,
      "SeriesTime": "201236.759000",
      "SliceLocation": -72.919572929279,
      "SliceThickness": 2.7000000476837,
      "SmallestImagePixelValue": 0,
      "SoftwareVersions": "syngo MR E11",
      "SpacingBetweenSlices": 2.6999999337958,
      "SpecificCharacterSet": "ISO_IR 100",
      "StudyID": "5",
      "StudyTime": "195122.487000",
      "TransmitCoilName": "Body",
      "VariableFlipAngleFlag": "N",
      "WindowCenterWidthExplanation": "Algo1"
    },
    "slices": {}
  },
  "time": {
    "samples": {
      "AcquisitionNumber": [1, 2, 3, 4, 5, 6, 7, 8, 9, 10, 11, 12, 13, 14, 15, 16, 17, 18, 19, 20, 21, 22, 23, 24, 25, 26, 27, 28, 29, 30, 31, 32, 33, 34, 35, 36, 37, 38, 39, 40, 41, 42, 43, 44, 45, 46, 47, 48, 49, 50, 51, 52, 53, 54, 55, 56, 57, 58, 59, 60, 61, 62, 63, 64, 65, 66, 67, 68, 69, 70, 71, 72, 73, 74, 75, 76, 77, 78, 79, 80, 81, 82, 83, 84, 85, 86, 87, 88, 89, 90, 91, 92, 93, 94, 95, 96, 97, 98, 99, 100, 101, 102, 103, 104, 105, 106, 107, 108, 109, 110, 111, 112, 113, 114, 115, 116, 117, 118, 119, 120, 121, 122, 123, 124, 125, 126, 127, 128, 129, 130, 131, 132, 133, 134, 135, 136, 137, 138, 139, 140, 141, 142, 143, 144, 145, 146, 147, 148, 149, 150, 151, 152, 153, 154, 155, 156, 157, 158, 159, 160, 161, 162, 163, 164, 165, 166, 167, 168, 169, 170, 171, 172, 173, 174, 175, 176, 177, 178, 179, 180, 181, 182, 183, 184, 185, 186, 187, 188, 189, 190, 191, 192, 193, 194, 195, 196, 197, 198, 199, 200, 201, 202, 203, 204, 205, 206, 207, 208, 209, 210, 211, 212, 213, 214, 215, 216, 217, 218, 219, 220, 221, 222, 223, 224, 225, 226, 227, 228, 229, 230, 231, 232, 233, 234, 235, 236, 237, 238, 239, 240, 241, 242, 243, 244, 245, 246, 247, 248, 249, 250, 251, 252, 253, 254, 255, 256, 257, 258, 259, 260, 261, 262, 263, 264, 265, 266, 267, 268, 269, 270, 271, 272, 273, 274, 275, 276, 277, 278, 279, 280, 281, 282, 283, 284, 285, 286, 287, 288, 289, 290, 291, 292, 293, 294, 295, 296, 297, 298, 299, 300, 301, 302, 303, 304, 305, 306, 307, 308, 309, 310, 311, 312, 313, 314, 315, 316, 317, 318, 319, 320, 321, 322, 323, 324, 325, 326, 327, 328, 329, 330, 331, 332, 333, 334, 335, 336, 337, 338, 339, 340, 341, 342, 343, 344, 345, 346, 347, 348, 349, 350, 351, 352, 353, 354, 355, 356, 357, 358, 359, 360, 361, 362, 363, 364, 365, 366, 367, 368, 369, 370, 371, 372, 373, 374, 375, 376, 377, 378, 379, 380, 381, 382, 383, 384, 385, 386, 387, 388, 389, 390, 391, 392, 393, 394, 395, 396, 397, 398, 399, 400, 401, 402, 403, 404, 405, 406, 407, 408, 409, 410, 411, 412, 413, 414, 415, 416, 417, 418, 419, 420, 421, 422, 423, 424, 425, 426, 427, 428, 429, 430, 431, 432, 433, 434, 435, 436, 437, 438, 439, 440, 441, 442, 443, 444, 445, 446, 447, 448, 449, 450, 451, 452, 453, 454, 455, 456, 457, 458, 459, 460, 461, 462, 463, 464, 465, 466, 467, 468, 469, 470, 471, 472, 473, 474, 475, 476, 477, 478, 479, 480, 481, 482, 483, 484, 485, 486, 487, 488, 489, 490, 491, 492, 493, 494, 495, 496, 497, 498, 499, 500, 501, 502, 503, 504, 505, 506, 507, 508, 509, 510, 511, 512, 513, 514, 515, 516, 517, 518, 519, 520, 521, 522, 523, 524, 525, 526, 527, 528, 529, 530, 531, 532, 533, 534, 535, 536, 537, 538, 539, 540, 541, 542, 543, 544, 545, 546, 547, 548, 549, 550, 551, 552, 553, 554, 555, 556, 557, 558, 559, 560, 561, 562, 563, 564, 565, 566, 567, 568, 569, 570, 571, 572, 573, 574, 575, 576, 577, 578, 579, 580, 581, 582, 583, 584, 585, 586, 587, 588, 589, 590, 591, 592, 593, 594, 595, 596, 597, 598, 599, 600, 601, 602, 603, 604, 605, 606, 607, 608, 609, 610, 611, 612, 613, 614, 615, 616, 617, 618, 619, 620, 621, 622, 623, 624, 625, 626, 627, 628, 629, 630, 631, 632, 633, 634, 635, 636, 637, 638, 639, 640, 641, 642, 643, 644, 645, 646, 647, 648, 649, 650, 651, 652, 653, 654, 655, 656, 657, 658, 659, 660, 661, 662, 663, 664, 665, 666, 667, 668, 669, 670, 671, 672, 673, 674, 675, 676, 677, 678, 679, 680, 681, 682, 683, 684, 685, 686, 687, 688, 689, 690, 691, 692, 693, 694, 695, 696, 697, 698, 699, 700, 701, 702, 703, 704, 705, 706, 707, 708, 709, 710, 711, 712, 713, 714, 715, 716, 717, 718, 719, 720, 721, 722, 723, 724, 725, 726, 727, 728, 729, 730, 731, 732, 733, 734, 735, 736, 737, 738, 739, 740, 741, 742, 743, 744, 745, 746, 747, 748, 749, 750, 751, 752, 753, 754, 755, 756, 757, 758, 759, 760, 761, 762, 763, 764, 765, 766, 767, 768, 769, 770, 771, 772, 773, 774, 775, 776, 777, 778, 779, 780, 781, 782, 783, 784, 785, 786, 787, 788, 789, 790, 791, 792, 793, 794, 795, 796, 797, 798, 799, 800, 801, 802, 803, 804, 805, 806, 807, 808, 809, 810, 811, 812, 813, 814, 815, 816, 817, 818, 819, 820, 821, 822, 823, 824, 825, 826, 827, 828, 829, 830, 831, 832, 833, 834, 835, 836, 837, 838, 839, 840, 841, 842, 843, 844, 845, 846, 847, 848, 849, 850, 851, 852, 853, 854, 855, 856, 857, 858, 859, 860, 861, 862, 863, 864, 865, 866, 867, 868, 869, 870, 871, 872],
      "AcquisitionTime": ["201217.577500", "201218.037500", "201218.497500", "201218.957500", "201219.417500", "201219.877500", "201220.337500", "201220.797500", "201221.257500", "201221.717500", "201222.177500", "201222.637500", "201223.097500", "201223.557500", "201224.017500", "201224.477500", "201224.937500", "201225.397500", "201225.857500", "201226.317500", "201226.777500", "201227.237500", "201227.697500", "201228.157500", "201228.617500", "201229.077500", "201229.537500", "201229.997500", "201230.457500", "201230.917500", "201231.377500", "201231.837500", "201232.297500", "201232.757500", "201233.217500", "201233.677500", "201234.137500", "201234.597500", "201235.057500", "201235.517500", "201235.977500", "201236.437500", "201236.897500", "201237.357500", "201237.817500", "201238.277500", "201238.737500", "201239.197500", "201239.657500", "201240.117500", "201240.577500", "201241.037500", "201241.497500", "201241.957500", "201242.417500", "201242.877500", "201243.337500", "201243.797500", "201244.257500", "201244.717500", "201245.177500", "201245.637500", "201246.097500", "201246.557500", "201247.017500", "201247.477500", "201247.937500", "201248.397500", "201248.857500", "201249.317500", "201249.777500", "201250.237500", "201250.697500", "201251.157500", "201251.617500", "201252.077500", "201252.537500", "201252.997500", "201253.457500", "201253.917500", "201254.377500", "201254.837500", "201255.297500", "201255.757500", "201256.217500", "201256.677500", "201257.137500", "201257.597500", "201258.057500", "201258.517500", "201258.977500", "201259.437500", "201259.897500", "201300.357500", "201300.817500", "201301.277500", "201301.737500", "201302.197500", "201302.657500", "201303.117500", "201303.577500", "201304.037500", "201304.497500", "201304.957500", "201305.417500", "201305.877500", "201306.337500", "201306.797500", "201307.257500", "201307.717500", "201308.177500", "201308.637500", "201309.097500", "201309.557500", "201310.017500", "201310.477500", "201310.937500", "201311.397500", "201311.857500", "201312.317500", "201312.777500", "201313.237500", "201313.697500", "201314.157500", "201314.617500", "201315.077500", "201315.537500", "201315.997500", "201316.457500", "201316.917500", "201317.377500", "201317.837500", "201318.297500", "201318.757500", "201319.217500", "201319.677500", "201320.137500", "201320.597500", "201321.057500", "201321.517500", "201321.977500", "201322.437500", "201322.897500", "201323.357500", "201323.817500", "201324.277500", "201324.737500", "201325.197500", "201325.657500", "201326.117500", "201326.577500", "201327.037500", "201327.497500", "201327.957500", "201328.417500", "201328.877500", "201329.337500", "201329.797500", "201330.257500", "201330.717500", "201331.177500", "201331.637500", "201332.097500", "201332.557500", "201333.017500", "201333.477500", "201333.937500", "201334.397500", "201334.857500", "201335.317500", "201335.777500", "201336.237500", "201336.697500", "201337.157500", "201337.617500", "201338.077500", "201338.537500", "201338.997500", "201339.457500", "201339.917500", "201340.377500", "201340.837500", "201341.297500", "201341.757500", "201342.217500", "201342.677500", "201343.137500", "201343.597500", "201344.057500", "201344.517500", "201344.977500", "201345.437500", "201345.897500", "201346.357500", "201346.817500", "201347.277500", "201347.737500", "201348.197500", "201348.657500", "201349.117500", "201349.577500", "201350.037500", "201350.497500", "201350.957500", "201351.417500", "201351.877500", "201352.337500", "201352.797500", "201353.257500", "201353.717500", "201354.177500", "201354.637500", "201355.097500", "201355.557500", "201356.017500", "201356.477500", "201356.937500", "201357.397500", "201357.857500", "201358.317500", "201358.777500", "201359.237500", "201359.697500", "201400.157500", "201400.617500", "201401.077500", "201401.537500", "201401.997500", "201402.457500", "201402.917500", "201403.377500", "201403.837500", "201404.297500", "201404.757500", "201405.217500", "201405.677500", "201406.137500", "201406.597500", "201407.057500", "201407.517500", "201407.977500", "201408.437500", "201408.897500", "201409.357500", "201409.817500", "201410.277500", "201410.737500", "201411.197500", "201411.657500", "201412.117500", "201412.577500", "201413.037500", "201413.497500", "201413.957500", "201414.417500", "201414.877500", "201415.337500", "201415.797500", "201416.257500", "201416.717500", "201417.177500", "201417.637500", "201418.097500", "201418.557500", "201419.017500", "201419.477500", "201419.937500", "201420.397500", "201420.857500", "201421.317500", "201421.777500", "201422.237500", "201422.697500", "201423.157500", "201423.617500", "201424.077500", "201424.537500", "201424.997500", "201425.457500", "201425.917500", "201426.377500", "201426.837500", "201427.297500", "201427.757500", "201428.217500", "201428.677500", "201429.137500", "201429.597500", "201430.057500", "201430.517500", "201430.977500", "201431.437500", "201431.897500", "201432.357500", "201432.817500", "201433.277500", "201433.737500", "201434.197500", "201434.657500", "201435.117500", "201435.577500", "201436.037500", "201436.497500", "201436.957500", "201437.417500", "201437.877500", "201438.337500", "201438.797500", "201439.257500", "201439.717500", "201440.177500", "201440.637500", "201441.097500", "201441.557500", "201442.017500", "201442.477500", "201442.937500", "201443.397500", "201443.857500", "201444.317500", "201444.777500", "201445.237500", "201445.697500", "201446.157500", "201446.617500", "201447.077500", "201447.537500", "201447.997500", "201448.457500", "201448.917500", "201449.377500", "201449.837500", "201450.297500", "201450.757500", "201451.217500", "201451.677500", "201452.137500", "201452.597500", "201453.057500", "201453.517500", "201453.977500", "201454.437500", "201454.897500", "201455.357500", "201455.817500", "201456.277500", "201456.737500", "201457.197500", "201457.657500", "201458.117500", "201458.577500", "201459.037500", "201459.497500", "201459.957500", "201500.417500", "201500.877500", "201501.337500", "201501.797500", "201502.257500", "201502.717500", "201503.177500", "201503.637500", "201504.097500", "201504.557500", "201505.017500", "201505.477500", "201505.937500", "201506.397500", "201506.857500", "201507.317500", "201507.777500", "201508.237500", "201508.697500", "201509.157500", "201509.617500", "201510.077500", "201510.537500", "201510.997500", "201511.457500", "201511.917500", "201512.377500", "201512.837500", "201513.297500", "201513.757500", "201514.217500", "201514.677500", "201515.137500", "201515.597500", "201516.057500", "201516.517500", "201516.977500", "201517.437500", "201517.897500", "201518.357500", "201518.817500", "201519.277500", "201519.737500", "201520.197500", "201520.657500", "201521.117500", "201521.577500", "201522.037500", "201522.497500", "201522.957500", "201523.417500", "201523.877500", "201524.337500", "201524.797500", "201525.257500", "201525.717500", "201526.177500", "201526.637500", "201527.097500", "201527.557500", "201528.017500", "201528.477500", "201528.937500", "201529.397500", "201529.857500", "201530.317500", "201530.777500", "201531.237500", "201531.697500", "201532.157500", "201532.617500", "201533.077500", "201533.537500", "201533.997500", "201534.457500", "201534.917500", "201535.377500", "201535.837500", "201536.297500", "201536.757500", "201537.217500", "201537.677500", "201538.137500", "201538.597500", "201539.057500", "201539.517500", "201539.977500", "201540.437500", "201540.897500", "201541.357500", "201541.817500", "201542.277500", "201542.737500", "201543.197500", "201543.657500", "201544.117500", "201544.577500", "201545.037500", "201545.497500", "201545.957500", "201546.417500", "201546.877500", "201547.337500", "201547.797500", "201548.257500", "201548.717500", "201549.177500", "201549.637500", "201550.097500", "201550.557500", "201551.017500", "201551.477500", "201551.937500", "201552.397500", "201552.857500", "201553.317500", "201553.777500", "201554.237500", "201554.697500", "201555.157500", "201555.617500", "201556.077500", "201556.537500", "201556.997500", "201557.457500", "201557.917500", "201558.377500", "201558.837500", "201559.297500", "201559.757500", "201600.217500", "201600.677500", "201601.137500", "201601.597500", "201602.057500", "201602.517500", "201602.977500", "201603.437500", "201603.897500", "201604.357500", "201604.817500", "201605.277500", "201605.737500", "201606.197500", "201606.657500", "201607.117500", "201607.577500", "201608.037500", "201608.497500", "201608.957500", "201609.417500", "201609.877500", "201610.337500", "201610.797500", "201611.257500", "201611.717500", "201612.177500", "201612.637500", "201613.097500", "201613.557500", "201614.017500", "201614.477500", "201614.937500", "201615.397500", "201615.857500", "201616.317500", "201616.777500", "201617.237500", "201617.697500", "201618.157500", "201618.617500", "201619.077500", "201619.537500", "201619.997500", "201620.457500", "201620.917500", "201621.377500", "201621.837500", "201622.297500", "201622.757500", "201623.217500", "201623.677500", "201624.137500", "201624.597500", "201625.057500", "201625.517500", "201625.977500", "201626.437500", "201626.897500", "201627.357500", "201627.817500", "201628.277500", "201628.737500", "201629.197500", "201629.657500", "201630.117500", "201630.577500", "201631.037500", "201631.497500", "201631.957500", "201632.417500", "201632.877500", "201633.337500", "201633.797500", "201634.257500", "201634.717500", "201635.177500", "201635.637500", "201636.097500", "201636.557500", "201637.017500", "201637.477500", "201637.937500", "201638.397500", "201638.857500", "201639.317500", "201639.777500", "201640.237500", "201640.697500", "201641.157500", "201641.617500", "201642.077500", "201642.537500", "201642.997500", "201643.457500", "201643.917500", "201644.377500", "201644.837500", "201645.297500", "201645.757500", "201646.217500", "201646.677500", "201647.137500", "201647.597500", "201648.057500", "201648.517500", "201648.977500", "201649.437500", "201649.897500", "201650.357500", "201650.817500", "201651.277500", "201651.737500", "201652.197500", "201652.657500", "201653.117500", "201653.577500", "201654.037500", "201654.497500", "201654.957500", "201655.417500", "201655.877500", "201656.337500", "201656.797500", "201657.257500", "201657.717500", "201658.177500", "201658.637500", "201659.097500", "201659.557500", "201700.017500", "201700.477500", "201700.937500", "201701.397500", "201701.857500", "201702.317500", "201702.777500", "201703.237500", "201703.697500", "201704.157500", "201704.617500", "201705.077500", "201705.537500", "201705.997500", "201706.457500", "201706.917500", "201707.377500", "201707.837500", "201708.297500", "201708.757500", "201709.217500", "201709.677500", "201710.137500", "201710.597500", "201711.057500", "201711.517500", "201711.977500", "201712.437500", "201712.897500", "201713.357500", "201713.817500", "201714.277500", "201714.737500", "201715.197500", "201715.657500", "201716.117500", "201716.577500", "201717.037500", "201717.497500", "201717.957500", "201718.417500", "201718.877500", "201719.337500", "201719.797500", "201720.257500", "201720.717500", "201721.177500", "201721.637500", "201722.097500", "201722.557500", "201723.017500", "201723.477500", "201723.937500", "201724.397500", "201724.857500", "201725.317500", "201725.777500", "201726.237500", "201726.697500", "201727.157500", "201727.617500", "201728.077500", "201728.537500", "201728.997500", "201729.457500", "201729.917500", "201730.377500", "201730.837500", "201731.297500", "201731.757500", "201732.217500", "201732.677500", "201733.137500", "201733.597500", "201734.057500", "201734.517500", "201734.977500", "201735.437500", "201735.897500", "201736.357500", "201736.817500", "201737.277500", "201737.737500", "201738.197500", "201738.657500", "201739.117500", "201739.577500", "201740.037500", "201740.497500", "201740.957500", "201741.417500", "201741.877500", "201742.337500", "201742.797500", "201743.257500", "201743.717500", "201744.177500", "201744.637500", "201745.097500", "201745.557500", "201746.017500", "201746.477500", "201746.937500", "201747.397500", "201747.857500", "201748.317500", "201748.777500", "201749.237500", "201749.697500", "201750.157500", "201750.617500", "201751.077500", "201751.537500", "201751.997500", "201752.457500", "201752.917500", "201753.377500", "201753.837500", "201754.297500", "201754.757500", "201755.217500", "201755.677500", "201756.137500", "201756.597500", "201757.057500", "201757.517500", "201757.977500", "201758.437500", "201758.897500", "201759.357500", "201759.817500", "201800.277500", "201800.737500", "201801.197500", "201801.657500", "201802.117500", "201802.577500", "201803.037500", "201803.497500", "201803.957500", "201804.417500", "201804.877500", "201805.337500", "201805.797500", "201806.257500", "201806.717500", "201807.177500", "201807.637500", "201808.097500", "201808.557500", "201809.017500", "201809.477500", "201809.937500", "201810.397500", "201810.857500", "201811.317500", "201811.777500", "201812.237500", "201812.697500", "201813.157500", "201813.617500", "201814.077500", "201814.537500", "201814.997500", "201815.457500", "201815.917500", "201816.377500", "201816.837500", "201817.297500", "201817.757500", "201818.217500", "201818.677500", "201819.137500", "201819.597500", "201820.057500", "201820.517500", "201820.977500", "201821.437500", "201821.897500", "201822.357500", "201822.817500", "201823.277500", "201823.737500", "201824.197500", "201824.657500", "201825.117500", "201825.577500", "201826.037500", "201826.497500", "201826.957500", "201827.417500", "201827.877500", "201828.337500", "201828.797500", "201829.257500", "201829.717500", "201830.177500", "201830.637500", "201831.097500", "201831.557500", "201832.017500", "201832.477500", "201832.937500", "201833.397500", "201833.857500", "201834.317500", "201834.777500", "201835.237500", "201835.697500", "201836.157500", "201836.617500", "201837.077500", "201837.537500", "201837.997500", "201838.457500", "201838.917500", "201839.377500", "201839.837500", "201840.297500", "201840.757500", "201841.217500", "201841.677500", "201842.137500", "201842.597500", "201843.057500", "201843.517500", "201843.977500", "201844.437500", "201844.897500", "201845.357500", "201845.817500", "201846.277500", "201846.737500", "201847.197500", "201847.657500", "201848.117500", "201848.577500", "201849.037500", "201849.497500", "201849.957500", "201850.417500", "201850.877500", "201851.337500", "201851.797500", "201852.257500", "201852.717500", "201853.177500", "201853.637500", "201854.097500", "201854.557500", "201855.017500", "201855.477500", "201855.937500", "201856.397500", "201856.857500", "201857.317500", "201857.777500", "201858.237500"],
