{
  "AcquisitionMatrixPE": 82,
  "AcquisitionNumber": 1,
  "AcquisitionTime": "17:38:46.752500",
  "BandwidthPerPixelPhaseEncode": 24.888,
  "BaseResolution": 82,
  "BodyPartExamined": "BRAIN",
  "ConsistencyInfo": "N4_VE11E_LATEST_20181129",
  "ConversionSoftware": "dcm2niix",
  "ConversionSoftwareVersion": "v1.0.20201102",
  "DerivedVendorReportedEchoSpacing": 0.00049,
  "DeviceSerialNumber": "66112",
  "DwellTime": 2e-06,
  "EchoTime": 0.0272,
  "EchoTrainLength": 82,
  "EffectiveEchoSpacing": 0.00049,
  "FlipAngle": 44,
  "ImageComments": "Unaliased MB8/PE3",
  "ImageOrientationPatientDICOM": [0.998387, 0.055141, -0.0135254, -0.0551194, 0.998478, 0.00196478],
  "ImageType": [
    "ORIGINAL",
    "PRIMARY",
    "M",
    "MB",
    "ND",
    "NORM",
    "MOSAIC"
],
  "ImagingFrequency": 123.259,
  "InPlanePhaseEncodingDirectionDICOM": "COL",
  "InstitutionAddress": "Maynard 3,Hanover,NH,US,03755",
  "InstitutionName": "Dartmouth College - PBS",
  "InstitutionalDepartmentName": "Department",
  "MRAcquisitionType": "2D",
  "MagneticFieldStrength": 3,
  "Manufacturer": "Siemens",
  "ManufacturersModelName": "Prisma",
  "Modality": "MR",
  "MultibandAccelerationFactor": 8,
  "PartialFourier": 1,
  "PatientPosition": "HFS",
  "PercentPhaseFOV": 100,
  "PercentSampling": 100,
  "PhaseEncodingDirection": "j-",
  "PhaseEncodingSteps": 82,
  "PhaseResolution": 1,
  "PixelBandwidth": 3050,
  "ProcedureStepDescription": "Wager_Wager^1076_spacetop",
  "ProtocolName": "func_run-02_task-social_acq-ap-mb8",
  "PulseSequenceDetails": "%CustomerSeq%\\cmrr_mbep2d_bold",
  "ReceiveCoilActiveElements": "HEA;HEP",
  "ReceiveCoilName": "Head_32",
  "ReconMatrixPE": 82,
  "RepetitionTime": 0.46,
  "SAR": 0.083023,
  "ScanOptions": "FS",
  "ScanningSequence": "EP",
  "SequenceName": "epfid2d1_82",
  "SequenceVariant": "SK\\SS",
  "SeriesDescription": "func_run-02_task-social_acq-ap-mb8",
  "SeriesNumber": 14,
  "ShimSetting": [4225, -7735, -7255, 334, -107, -21, 98, 94],
  "SliceThickness": 2.7,
  "SliceTiming": [0, 0.2525, 0.0625, 0.315, 0.1275, 0.3775, 0.19, 0, 0.2525, 0.0625, 0.315, 0.1275, 0.3775, 0.19, 0, 0.2525, 0.0625, 0.315, 0.1275, 0.3775, 0.19, 0, 0.2525, 0.0625, 0.315, 0.1275, 0.3775, 0.19, 0, 0.2525, 0.0625, 0.315, 0.1275, 0.3775, 0.19, 0, 0.2525, 0.0625, 0.315, 0.1275, 0.3775, 0.19, 0, 0.2525, 0.0625, 0.315, 0.1275, 0.3775, 0.19, 0, 0.2525, 0.0625, 0.315, 0.1275, 0.3775, 0.19],
  "SoftwareVersions": "syngo MR E11",
  "SpacingBetweenSlices": 2.7,
  "StationName": "AWP66112",
  "TaskName": "social",
  "TotalReadoutTime": 0.03969,
  "TxRefAmp": 233.349,
  "WipMemBlock": "b9a099f9-5ebb-47d5-8bef-c343940dfb2f||Sequence: R016 ve11e/master r/434b28f1; Aug  7 2019 18:53:46 by eja",
  "dcmmeta_affine": [
    [-2.6785993576049805, -0.14788125455379486, -0.036755383014678955, 119.82816314697266],
    [-0.14793920516967773, 2.6788430213928223, 0.0032834799494594336, -102.79147338867188],
    [-0.03628753125667572, -0.005271366331726313, 2.6997478008270264, -68.75568389892578],
    [0.0, 0.0, 0.0, 1.0]
],
  "dcmmeta_reorient_transform": [
    [0.0, -1.0, 0.0, 81.0],
    [1.0, 0.0, 0.0, 0.0],
    [0.0, 0.0, 1.0, 0.0],
    [0.0, 0.0, 0.0, 1.0]
],
  "dcmmeta_shape": [82, 82, 56, 872],
  "dcmmeta_slice_dim": 2,
  "dcmmeta_version": 0.6,
  "global": {
    "const": {
      "AccessionNumber": "A004935",
      "AcquisitionMatrix": [82, 0, 0, 82],
      "AngioFlag": "N",
      "BitsAllocated": 16,
      "BitsStored": 16,
      "BodyPartExamined": "BRAIN",
      "Columns": 656,
      "EchoNumbers": 1,
      "EchoTime": 27.2,
      "EchoTrainLength": 82,
      "FlipAngle": 44.0,
      "HighBit": 15,
      "ImageOrientationPatient": [0.99838696790179, 0.05514097546358, -0.0135253520763, -0.0551193769495, 0.99847783847055, 0.00196478188899],
      "ImagePositionPatient": [-834.16584044289, -925.48131711162, -60.281028436983],
      "ImageType": [
        "ORIGINAL",
        "PRIMARY",
        "M",
        "MB",
        "ND",
        "NORM",
        "MOSAIC"
],
      "ImagedNucleus": "1H",
      "ImagingFrequency": 123.259069,
      "InPlanePhaseEncodingDirection": "COL",
      "MRAcquisitionType": "2D",
      "MagneticFieldStrength": 3.0,
      "Manufacturer": "SIEMENS",
      "ManufacturerModelName": "Prisma",
      "Modality": "MR",
      "NumberOfAverages": 1.0,
      "NumberOfPhaseEncodingSteps": 82,
      "PercentPhaseFieldOfView": 100.0,
      "PercentSampling": 100.0,
      "PerformedProcedureStepStartTime": "165703.935000",
      "PhotometricInterpretation": "MONOCHROME2",
      "PixelBandwidth": 3050.0,
      "PixelRepresentation": 0,
      "PixelSpacing": [2.6829268932343, 2.6829268932343],
      "ProtocolName": "func_run-02_task-social_acq-ap-mb8",
      "RepetitionTime": 460.0,
      "Rows": 656,
      "SAR": 0.08302300572705,
      "SamplesPerPixel": 1,
      "ScanOptions": "FS",
      "ScanningSequence": "EP",
      "SequenceName": "epfid2d1_82",
      "SequenceVariant": [
        "SK",
        "SS"
],
      "SeriesDescription": "func_run-02_task-social_acq-ap-mb8",
      "SeriesNumber": 14,
      "SeriesTime": "173859.749000",
      "SliceLocation": -70.505503436111,
      "SliceThickness": 2.7000000476837,
      "SmallestImagePixelValue": 0,
      "SoftwareVersions": "syngo MR E11",
      "SpacingBetweenSlices": 2.6999999995922,
      "SpecificCharacterSet": "ISO_IR 100",
      "StudyID": "4",
      "StudyTime": "165703.880000",
      "TransmitCoilName": "Body",
      "VariableFlipAngleFlag": "N",
      "WindowCenterWidthExplanation": "Algo1"
    },
    "slices": {}
  },
  "time": {
    "samples": {
      "AcquisitionNumber": [1, 2, 3, 4, 5, 6, 7, 8, 9, 10, 11, 12, 13, 14, 15, 16, 17, 18, 19, 20, 21, 22, 23, 24, 25, 26, 27, 28, 29, 30, 31, 32, 33, 34, 35, 36, 37, 38, 39, 40, 41, 42, 43, 44, 45, 46, 47, 48, 49, 50, 51, 52, 53, 54, 55, 56, 57, 58, 59, 60, 61, 62, 63, 64, 65, 66, 67, 68, 69, 70, 71, 72, 73, 74, 75, 76, 77, 78, 79, 80, 81, 82, 83, 84, 85, 86, 87, 88, 89, 90, 91, 92, 93, 94, 95, 96, 97, 98, 99, 100, 101, 102, 103, 104, 105, 106, 107, 108, 109, 110, 111, 112, 113, 114, 115, 116, 117, 118, 119, 120, 121, 122, 123, 124, 125, 126, 127, 128, 129, 130, 131, 132, 133, 134, 135, 136, 137, 138, 139, 140, 141, 142, 143, 144, 145, 146, 147, 148, 149, 150, 151, 152, 153, 154, 155, 156, 157, 158, 159, 160, 161, 162, 163, 164, 165, 166, 167, 168, 169, 170, 171, 172, 173, 174, 175, 176, 177, 178, 179, 180, 181, 182, 183, 184, 185, 186, 187, 188, 189, 190, 191, 192, 193, 194, 195, 196, 197, 198, 199, 200, 201, 202, 203, 204, 205, 206, 207, 208, 209, 210, 211, 212, 213, 214, 215, 216, 217, 218, 219, 220, 221, 222, 223, 224, 225, 226, 227, 228, 229, 230, 231, 232, 233, 234, 235, 236, 237, 238, 239, 240, 241, 242, 243, 244, 245, 246, 247, 248, 249, 250, 251, 252, 253, 254, 255, 256, 257, 258, 259, 260, 261, 262, 263, 264, 265, 266, 267, 268, 269, 270, 271, 272, 273, 274, 275, 276, 277, 278, 279, 280, 281, 282, 283, 284, 285, 286, 287, 288, 289, 290, 291, 292, 293, 294, 295, 296, 297, 298, 299, 300, 301, 302, 303, 304, 305, 306, 307, 308, 309, 310, 311, 312, 313, 314, 315, 316, 317, 318, 319, 320, 321, 322, 323, 324, 325, 326, 327, 328, 329, 330, 331, 332, 333, 334, 335, 336, 337, 338, 339, 340, 341, 342, 343, 344, 345, 346, 347, 348, 349, 350, 351, 352, 353, 354, 355, 356, 357, 358, 359, 360, 361, 362, 363, 364, 365, 366, 367, 368, 369, 370, 371, 372, 373, 374, 375, 376, 377, 378, 379, 380, 381, 382, 383, 384, 385, 386, 387, 388, 389, 390, 391, 392, 393, 394, 395, 396, 397, 398, 399, 400, 401, 402, 403, 404, 405, 406, 407, 408, 409, 410, 411, 412, 413, 414, 415, 416, 417, 418, 419, 420, 421, 422, 423, 424, 425, 426, 427, 428, 429, 430, 431, 432, 433, 434, 435, 436, 437, 438, 439, 440, 441, 442, 443, 444, 445, 446, 447, 448, 449, 450, 451, 452, 453, 454, 455, 456, 457, 458, 459, 460, 461, 462, 463, 464, 465, 466, 467, 468, 469, 470, 471, 472, 473, 474, 475, 476, 477, 478, 479, 480, 481, 482, 483, 484, 485, 486, 487, 488, 489, 490, 491, 492, 493, 494, 495, 496, 497, 498, 499, 500, 501, 502, 503, 504, 505, 506, 507, 508, 509, 510, 511, 512, 513, 514, 515, 516, 517, 518, 519, 520, 521, 522, 523, 524, 525, 526, 527, 528, 529, 530, 531, 532, 533, 534, 535, 536, 537, 538, 539, 540, 541, 542, 543, 544, 545, 546, 547, 548, 549, 550, 551, 552, 553, 554, 555, 556, 557, 558, 559, 560, 561, 562, 563, 564, 565, 566, 567, 568, 569, 570, 571, 572, 573, 574, 575, 576, 577, 578, 579, 580, 581, 582, 583, 584, 585, 586, 587, 588, 589, 590, 591, 592, 593, 594, 595, 596, 597, 598, 599, 600, 601, 602, 603, 604, 605, 606, 607, 608, 609, 610, 611, 612, 613, 614, 615, 616, 617, 618, 619, 620, 621, 622, 623, 624, 625, 626, 627, 628, 629, 630, 631, 632, 633, 634, 635, 636, 637, 638, 639, 640, 641, 642, 643, 644, 645, 646, 647, 648, 649, 650, 651, 652, 653, 654, 655, 656, 657, 658, 659, 660, 661, 662, 663, 664, 665, 666, 667, 668, 669, 670, 671, 672, 673, 674, 675, 676, 677, 678, 679, 680, 681, 682, 683, 684, 685, 686, 687, 688, 689, 690, 691, 692, 693, 694, 695, 696, 697, 698, 699, 700, 701, 702, 703, 704, 705, 706, 707, 708, 709, 710, 711, 712, 713, 714, 715, 716, 717, 718, 719, 720, 721, 722, 723, 724, 725, 726, 727, 728, 729, 730, 731, 732, 733, 734, 735, 736, 737, 738, 739, 740, 741, 742, 743, 744, 745, 746, 747, 748, 749, 750, 751, 752, 753, 754, 755, 756, 757, 758, 759, 760, 761, 762, 763, 764, 765, 766, 767, 768, 769, 770, 771, 772, 773, 774, 775, 776, 777, 778, 779, 780, 781, 782, 783, 784, 785, 786, 787, 788, 789, 790, 791, 792, 793, 794, 795, 796, 797, 798, 799, 800, 801, 802, 803, 804, 805, 806, 807, 808, 809, 810, 811, 812, 813, 814, 815, 816, 817, 818, 819, 820, 821, 822, 823, 824, 825, 826, 827, 828, 829, 830, 831, 832, 833, 834, 835, 836, 837, 838, 839, 840, 841, 842, 843, 844, 845, 846, 847, 848, 849, 850, 851, 852, 853, 854, 855, 856, 857, 858, 859, 860, 861, 862, 863, 864, 865, 866, 867, 868, 869, 870, 871, 872],
      "AcquisitionTime": ["173846.752500", "173847.212500", "173847.672500", "173848.132500", "173848.592500", "173849.052500", "173849.512500", "173849.972500", "173850.432500", "173850.892500", "173851.352500", "173851.812500", "173852.272500", "173852.732500", "173853.192500", "173853.652500", "173854.112500", "173854.572500", "173855.032500", "173855.492500", "173855.952500", "173856.412500", "173856.872500", "173857.332500", "173857.792500", "173858.252500", "173858.712500", "173859.172500", "173859.632500", "173900.092500", "173900.552500", "173901.012500", "173901.472500", "173901.932500", "173902.392500", "173902.852500", "173903.312500", "173903.772500", "173904.232500", "173904.692500", "173905.152500", "173905.612500", "173906.072500", "173906.532500", "173906.992500", "173907.452500", "173907.912500", "173908.372500", "173908.832500", "173909.292500", "173909.752500", "173910.212500", "173910.672500", "173911.132500", "173911.592500", "173912.052500", "173912.512500", "173912.972500", "173913.432500", "173913.892500", "173914.352500", "173914.812500", "173915.272500", "173915.732500", "173916.192500", "173916.652500", "173917.112500", "173917.572500", "173918.032500", "173918.492500", "173918.952500", "173919.412500", "173919.872500", "173920.332500", "173920.792500", "173921.252500", "173921.712500", "173922.172500", "173922.632500", "173923.092500", "173923.552500", "173924.012500", "173924.472500", "173924.932500", "173925.392500", "173925.852500", "173926.312500", "173926.772500", "173927.232500", "173927.692500", "173928.152500", "173928.612500", "173929.072500", "173929.532500", "173929.992500", "173930.452500", "173930.912500", "173931.372500", "173931.832500", "173932.292500", "173932.752500", "173933.212500", "173933.672500", "173934.132500", "173934.592500", "173935.052500", "173935.512500", "173935.972500", "173936.432500", "173936.892500", "173937.352500", "173937.812500", "173938.272500", "173938.732500", "173939.192500", "173939.652500", "173940.112500", "173940.572500", "173941.032500", "173941.492500", "173941.952500", "173942.412500", "173942.872500", "173943.332500", "173943.792500", "173944.252500", "173944.712500", "173945.172500", "173945.632500", "173946.092500", "173946.552500", "173947.012500", "173947.472500", "173947.932500", "173948.392500", "173948.852500", "173949.312500", "173949.772500", "173950.232500", "173950.692500", "173951.152500", "173951.612500", "173952.072500", "173952.532500", "173952.992500", "173953.452500", "173953.912500", "173954.372500", "173954.832500", "173955.292500", "173955.752500", "173956.212500", "173956.672500", "173957.132500", "173957.592500", "173958.052500", "173958.512500", "173958.972500", "173959.432500", "173959.892500", "174000.352500", "174000.812500", "174001.272500", "174001.732500", "174002.192500", "174002.652500", "174003.112500", "174003.572500", "174004.032500", "174004.492500", "174004.952500", "174005.412500", "174005.872500", "174006.332500", "174006.792500", "174007.252500", "174007.712500", "174008.172500", "174008.632500", "174009.092500", "174009.552500", "174010.012500", "174010.472500", "174010.932500", "174011.392500", "174011.852500", "174012.312500", "174012.772500", "174013.232500", "174013.692500", "174014.152500", "174014.612500", "174015.072500", "174015.532500", "174015.992500", "174016.452500", "174016.912500", "174017.372500", "174017.832500", "174018.292500", "174018.752500", "174019.212500", "174019.672500", "174020.132500", "174020.592500", "174021.052500", "174021.512500", "174021.972500", "174022.432500", "174022.892500", "174023.352500", "174023.812500", "174024.272500", "174024.732500", "174025.192500", "174025.652500", "174026.112500", "174026.572500", "174027.032500", "174027.492500", "174027.952500", "174028.412500", "174028.872500", "174029.332500", "174029.792500", "174030.252500", "174030.712500", "174031.172500", "174031.632500", "174032.092500", "174032.552500", "174033.012500", "174033.472500", "174033.932500", "174034.392500", "174034.852500", "174035.312500", "174035.772500", "174036.232500", "174036.692500", "174037.152500", "174037.612500", "174038.072500", "174038.532500", "174038.992500", "174039.452500", "174039.912500", "174040.372500", "174040.832500", "174041.292500", "174041.752500", "174042.212500", "174042.672500", "174043.132500", "174043.592500", "174044.052500", "174044.512500", "174044.972500", "174045.432500", "174045.892500", "174046.352500", "174046.812500", "174047.272500", "174047.732500", "174048.192500", "174048.652500", "174049.112500", "174049.572500", "174050.032500", "174050.492500", "174050.952500", "174051.412500", "174051.872500", "174052.332500", "174052.792500", "174053.252500", "174053.712500", "174054.172500", "174054.632500", "174055.092500", "174055.552500", "174056.012500", "174056.472500", "174056.932500", "174057.392500", "174057.852500", "174058.312500", "174058.772500", "174059.232500", "174059.692500", "174100.152500", "174100.612500", "174101.072500", "174101.532500", "174101.992500", "174102.452500", "174102.912500", "174103.372500", "174103.832500", "174104.292500", "174104.752500", "174105.212500", "174105.672500", "174106.132500", "174106.592500", "174107.052500", "174107.512500", "174107.972500", "174108.432500", "174108.892500", "174109.352500", "174109.812500", "174110.272500", "174110.732500", "174111.192500", "174111.652500", "174112.112500", "174112.572500", "174113.032500", "174113.492500", "174113.952500", "174114.412500", "174114.872500", "174115.332500", "174115.792500", "174116.252500", "174116.712500", "174117.172500", "174117.632500", "174118.092500", "174118.552500", "174119.012500", "174119.472500", "174119.932500", "174120.392500", "174120.852500", "174121.312500", "174121.772500", "174122.232500", "174122.692500", "174123.152500", "174123.612500", "174124.072500", "174124.532500", "174124.992500", "174125.452500", "174125.912500", "174126.372500", "174126.832500", "174127.292500", "174127.752500", "174128.212500", "174128.672500", "174129.132500", "174129.592500", "174130.052500", "174130.512500", "174130.972500", "174131.432500", "174131.892500", "174132.352500", "174132.812500", "174133.272500", "174133.732500", "174134.192500", "174134.652500", "174135.112500", "174135.572500", "174136.032500", "174136.492500", "174136.952500", "174137.412500", "174137.872500", "174138.332500", "174138.792500", "174139.252500", "174139.712500", "174140.172500", "174140.632500", "174141.092500", "174141.552500", "174142.012500", "174142.472500", "174142.932500", "174143.392500", "174143.852500", "174144.312500", "174144.772500", "174145.232500", "174145.692500", "174146.152500", "174146.612500", "174147.072500", "174147.532500", "174147.992500", "174148.452500", "174148.912500", "174149.372500", "174149.832500", "174150.292500", "174150.752500", "174151.212500", "174151.672500", "174152.132500", "174152.592500", "174153.052500", "174153.512500", "174153.972500", "174154.432500", "174154.892500", "174155.352500", "174155.812500", "174156.272500", "174156.732500", "174157.192500", "174157.652500", "174158.112500", "174158.572500", "174159.032500", "174159.492500", "174159.952500", "174200.412500", "174200.872500", "174201.332500", "174201.792500", "174202.252500", "174202.712500", "174203.172500", "174203.632500", "174204.092500", "174204.552500", "174205.012500", "174205.472500", "174205.932500", "174206.392500", "174206.852500", "174207.312500", "174207.772500", "174208.232500", "174208.692500", "174209.152500", "174209.612500", "174210.072500", "174210.532500", "174210.992500", "174211.452500", "174211.912500", "174212.372500", "174212.832500", "174213.292500", "174213.752500", "174214.212500", "174214.672500", "174215.132500", "174215.592500", "174216.052500", "174216.512500", "174216.972500", "174217.432500", "174217.892500", "174218.352500", "174218.812500", "174219.272500", "174219.732500", "174220.192500", "174220.652500", "174221.112500", "174221.572500", "174222.032500", "174222.492500", "174222.952500", "174223.412500", "174223.872500", "174224.332500", "174224.792500", "174225.252500", "174225.712500", "174226.172500", "174226.632500", "174227.092500", "174227.552500", "174228.012500", "174228.472500", "174228.932500", "174229.392500", "174229.852500", "174230.312500", "174230.772500", "174231.232500", "174231.692500", "174232.152500", "174232.612500", "174233.072500", "174233.532500", "174233.992500", "174234.452500", "174234.912500", "174235.372500", "174235.832500", "174236.292500", "174236.752500", "174237.212500", "174237.672500", "174238.132500", "174238.592500", "174239.052500", "174239.512500", "174239.972500", "174240.432500", "174240.892500", "174241.352500", "174241.812500", "174242.272500", "174242.732500", "174243.192500", "174243.652500", "174244.112500", "174244.572500", "174245.032500", "174245.492500", "174245.952500", "174246.412500", "174246.872500", "174247.332500", "174247.792500", "174248.252500", "174248.712500", "174249.172500", "174249.632500", "174250.092500", "174250.552500", "174251.012500", "174251.472500", "174251.932500", "174252.392500", "174252.852500", "174253.312500", "174253.772500", "174254.232500", "174254.692500", "174255.152500", "174255.612500", "174256.072500", "174256.532500", "174256.992500", "174257.452500", "174257.912500", "174258.372500", "174258.832500", "174259.292500", "174259.752500", "174300.212500", "174300.672500", "174301.132500", "174301.592500", "174302.052500", "174302.512500", "174302.972500", "174303.432500", "174303.892500", "174304.352500", "174304.812500", "174305.272500", "174305.732500", "174306.192500", "174306.652500", "174307.112500", "174307.572500", "174308.032500", "174308.492500", "174308.952500", "174309.412500", "174309.872500", "174310.332500", "174310.792500", "174311.252500", "174311.712500", "174312.172500", "174312.632500", "174313.092500", "174313.552500", "174314.012500", "174314.472500", "174314.932500", "174315.392500", "174315.852500", "174316.312500", "174316.772500", "174317.232500", "174317.692500", "174318.152500", "174318.612500", "174319.072500", "174319.532500", "174319.992500", "174320.452500", "174320.912500", "174321.372500", "174321.832500", "174322.292500", "174322.752500", "174323.212500", "174323.672500", "174324.132500", "174324.592500", "174325.052500", "174325.512500", "174325.972500", "174326.432500", "174326.892500", "174327.352500", "174327.812500", "174328.272500", "174328.732500", "174329.192500", "174329.652500", "174330.112500", "174330.572500", "174331.032500", "174331.492500", "174331.952500", "174332.412500", "174332.872500", "174333.332500", "174333.792500", "174334.252500", "174334.712500", "174335.172500", "174335.632500", "174336.092500", "174336.552500", "174337.012500", "174337.472500", "174337.932500", "174338.392500", "174338.852500", "174339.312500", "174339.772500", "174340.232500", "174340.692500", "174341.152500", "174341.612500", "174342.072500", "174342.532500", "174342.992500", "174343.452500", "174343.912500", "174344.372500", "174344.832500", "174345.292500", "174345.752500", "174346.212500", "174346.672500", "174347.132500", "174347.592500", "174348.052500", "174348.512500", "174348.972500", "174349.432500", "174349.892500", "174350.352500", "174350.812500", "174351.272500", "174351.732500", "174352.192500", "174352.652500", "174353.112500", "174353.572500", "174354.032500", "174354.492500", "174354.952500", "174355.412500", "174355.872500", "174356.332500", "174356.792500", "174357.252500", "174357.712500", "174358.172500", "174358.632500", "174359.092500", "174359.552500", "174400.012500", "174400.472500", "174400.932500", "174401.392500", "174401.852500", "174402.312500", "174402.772500", "174403.232500", "174403.692500", "174404.152500", "174404.612500", "174405.072500", "174405.532500", "174405.992500", "174406.452500", "174406.912500", "174407.372500", "174407.832500", "174408.292500", "174408.752500", "174409.212500", "174409.672500", "174410.132500", "174410.592500", "174411.052500", "174411.512500", "174411.972500", "174412.432500", "174412.892500", "174413.352500", "174413.812500", "174414.272500", "174414.732500", "174415.192500", "174415.652500", "174416.112500", "174416.572500", "174417.032500", "174417.492500", "174417.952500", "174418.412500", "174418.872500", "174419.332500", "174419.792500", "174420.252500", "174420.712500", "174421.172500", "174421.632500", "174422.092500", "174422.552500", "174423.012500", "174423.472500", "174423.932500", "174424.392500", "174424.852500", "174425.312500", "174425.772500", "174426.232500", "174426.692500", "174427.152500", "174427.612500", "174428.072500", "174428.532500", "174428.992500", "174429.452500", "174429.912500", "174430.372500", "174430.832500", "174431.292500", "174431.752500", "174432.212500", "174432.672500", "174433.132500", "174433.592500", "174434.052500", "174434.512500", "174434.972500", "174435.432500", "174435.892500", "174436.352500", "174436.812500", "174437.272500", "174437.732500", "174438.192500", "174438.652500", "174439.112500", "174439.572500", "174440.032500", "174440.492500", "174440.952500", "174441.412500", "174441.872500", "174442.332500", "174442.792500", "174443.252500", "174443.712500", "174444.172500", "174444.632500", "174445.092500", "174445.552500", "174446.012500", "174446.472500", "174446.932500", "174447.392500", "174447.852500", "174448.312500", "174448.772500", "174449.232500", "174449.692500", "174450.152500", "174450.612500", "174451.072500", "174451.532500", "174451.992500", "174452.452500", "174452.912500", "174453.372500", "174453.832500", "174454.292500", "174454.752500", "174455.212500", "174455.672500", "174456.132500", "174456.592500", "174457.052500", "174457.512500", "174457.972500", "174458.432500", "174458.892500", "174459.352500", "174459.812500", "174500.272500", "174500.732500", "174501.192500", "174501.652500", "174502.112500", "174502.572500", "174503.032500", "174503.492500", "174503.952500", "174504.412500", "174504.872500", "174505.332500", "174505.792500", "174506.252500", "174506.712500", "174507.172500", "174507.632500", "174508.092500", "174508.552500", "174509.012500", "174509.472500", "174509.932500", "174510.392500", "174510.852500", "174511.312500", "174511.772500", "174512.232500", "174512.692500", "174513.152500", "174513.612500", "174514.072500", "174514.532500", "174514.992500", "174515.452500", "174515.912500", "174516.372500", "174516.832500", "174517.292500", "174517.752500", "174518.212500", "174518.672500", "174519.132500", "174519.592500", "174520.052500", "174520.512500", "174520.972500", "174521.432500", "174521.892500", "174522.352500", "174522.812500", "174523.272500", "174523.732500", "174524.192500", "174524.652500", "174525.112500", "174525.572500", "174526.032500", "174526.492500", "174526.952500", "174527.412500"],
