{
  "AcquisitionMatrixPE": 82,
  "AcquisitionNumber": 1,
  "AcquisitionTime": "18:09:14.282500",
  "BandwidthPerPixelPhaseEncode": 24.888,
  "BaseResolution": 82,
  "BodyPartExamined": "BRAIN",
  "ConsistencyInfo": "N4_VE11E_LATEST_20181129",
  "ConversionSoftware": "dcm2niix",
  "ConversionSoftwareVersion": "v1.0.20201102",
  "DerivedVendorReportedEchoSpacing": 0.00049,
  "DeviceSerialNumber": "66112",
  "DwellTime": 2e-06,
  "EchoTime": 0.0272,
  "EchoTrainLength": 82,
  "EffectiveEchoSpacing": 0.00049,
  "FlipAngle": 44,
  "ImageComments": "Unaliased MB8/PE3",
  "ImageOrientationPatientDICOM": [0.998387, 0.055141, -0.0135254, -0.0551194, 0.998478, 0.00196478],
  "ImageType": [
    "ORIGINAL",
    "PRIMARY",
    "M",
    "MB",
    "ND",
    "NORM",
    "MOSAIC"
],
  "ImagingFrequency": 123.259,
  "InPlanePhaseEncodingDirectionDICOM": "COL",
  "InstitutionAddress": "Maynard 3,Hanover,NH,US,03755",
  "InstitutionName": "Dartmouth College - PBS",
  "InstitutionalDepartmentName": "Department",
  "MRAcquisitionType": "2D",
  "MagneticFieldStrength": 3,
  "Manufacturer": "Siemens",
  "ManufacturersModelName": "Prisma",
  "Modality": "MR",
  "MultibandAccelerationFactor": 8,
  "PartialFourier": 1,
  "PatientPosition": "HFS",
  "PercentPhaseFOV": 100,
  "PercentSampling": 100,
  "PhaseEncodingDirection": "j-",
  "PhaseEncodingSteps": 82,
  "PhaseResolution": 1,
  "PixelBandwidth": 3050,
  "ProcedureStepDescription": "Wager_Wager^1076_spacetop",
  "ProtocolName": "func_run-06_task-social_acq-ap-mb8",
  "PulseSequenceDetails": "%CustomerSeq%\\cmrr_mbep2d_bold",
  "ReceiveCoilActiveElements": "HEA;HEP",
  "ReceiveCoilName": "Head_32",
  "ReconMatrixPE": 82,
  "RepetitionTime": 0.46,
  "SAR": 0.083023,
  "ScanOptions": "FS",
  "ScanningSequence": "EP",
  "SequenceName": "epfid2d1_82",
  "SequenceVariant": "SK\\SS",
  "SeriesDescription": "func_run-06_task-social_acq-ap-mb8",
  "SeriesNumber": 22,
  "ShimSetting": [4225, -7735, -7255, 334, -107, -21, 98, 94],
  "SliceThickness": 2.7,
  "SliceTiming": [0, 0.25, 0.0625, 0.3125, 0.125, 0.375, 0.1875, 0, 0.25, 0.0625, 0.3125, 0.125, 0.375, 0.1875, 0, 0.25, 0.0625, 0.3125, 0.125, 0.375, 0.1875, 0, 0.25, 0.0625, 0.3125, 0.125, 0.375, 0.1875, 0, 0.25, 0.0625, 0.3125, 0.125, 0.375, 0.1875, 0, 0.25, 0.0625, 0.3125, 0.125, 0.375, 0.1875, 0, 0.25, 0.0625, 0.3125, 0.125, 0.375, 0.1875, 0, 0.25, 0.0625, 0.3125, 0.125, 0.375, 0.1875],
  "SoftwareVersions": "syngo MR E11",
  "SpacingBetweenSlices": 2.7,
  "StationName": "AWP66112",
  "TaskName": "social",
  "TotalReadoutTime": 0.03969,
  "TxRefAmp": 233.349,
  "WipMemBlock": "28b769c4-49c3-4f78-b707-ef253d14f3c7||Sequence: R016 ve11e/master r/434b28f1; Aug  7 2019 18:53:46 by eja",
  "dcmmeta_affine": [
    [-2.6785993576049805, -0.14788125455379486, -0.036755383014678955, 119.82816314697266],
    [-0.14793920516967773, 2.6788430213928223, 0.0032834799494594336, -102.79147338867188],
    [-0.03628753125667572, -0.005271366331726313, 2.6997478008270264, -68.75568389892578],
    [0.0, 0.0, 0.0, 1.0]
],
  "dcmmeta_reorient_transform": [
    [0.0, -1.0, 0.0, 81.0],
    [1.0, 0.0, 0.0, 0.0],
    [0.0, 0.0, 1.0, 0.0],
    [0.0, 0.0, 0.0, 1.0]
],
  "dcmmeta_shape": [82, 82, 56, 872],
  "dcmmeta_slice_dim": 2,
  "dcmmeta_version": 0.6,
  "global": {
    "const": {
      "AccessionNumber": "A004935",
      "AcquisitionMatrix": [82, 0, 0, 82],
      "AngioFlag": "N",
      "BitsAllocated": 16,
      "BitsStored": 16,
      "BodyPartExamined": "BRAIN",
      "Columns": 656,
      "EchoNumbers": 1,
      "EchoTime": 27.2,
      "EchoTrainLength": 82,
      "FlipAngle": 44.0,
      "HighBit": 15,
      "ImageOrientationPatient": [0.99838696790179, 0.05514097546358, -0.0135253520763, -0.0551193769495, 0.99847783847055, 0.00196478188899],
      "ImagePositionPatient": [-834.16584044289, -925.48131711162, -60.281028436983],
      "ImageType": [
        "ORIGINAL",
        "PRIMARY",
        "M",
        "MB",
        "ND",
        "NORM",
        "MOSAIC"
],
      "ImagedNucleus": "1H",
      "ImagingFrequency": 123.259075,
      "InPlanePhaseEncodingDirection": "COL",
      "MRAcquisitionType": "2D",
      "MagneticFieldStrength": 3.0,
      "Manufacturer": "SIEMENS",
      "ManufacturerModelName": "Prisma",
      "Modality": "MR",
      "NumberOfAverages": 1.0,
      "NumberOfPhaseEncodingSteps": 82,
      "PercentPhaseFieldOfView": 100.0,
      "PercentSampling": 100.0,
      "PerformedProcedureStepStartTime": "165703.935000",
      "PhotometricInterpretation": "MONOCHROME2",
      "PixelBandwidth": 3050.0,
      "PixelRepresentation": 0,
      "PixelSpacing": [2.6829268932343, 2.6829268932343],
      "ProtocolName": "func_run-06_task-social_acq-ap-mb8",
      "RepetitionTime": 460.0,
      "Rows": 656,
      "SAR": 0.08302300572705,
      "SamplesPerPixel": 1,
      "ScanOptions": "FS",
      "ScanningSequence": "EP",
      "SequenceName": "epfid2d1_82",
      "SequenceVariant": [
        "SK",
        "SS"
],
      "SeriesDescription": "func_run-06_task-social_acq-ap-mb8",
      "SeriesNumber": 22,
      "SeriesTime": "180939.661000",
      "SliceLocation": -70.505503436111,
      "SliceThickness": 2.7000000476837,
      "SmallestImagePixelValue": 0,
      "SoftwareVersions": "syngo MR E11",
      "SpacingBetweenSlices": 2.6999999995922,
      "SpecificCharacterSet": "ISO_IR 100",
      "StudyID": "4",
      "StudyTime": "165703.880000",
      "TransmitCoilName": "Body",
      "VariableFlipAngleFlag": "N",
      "WindowCenterWidthExplanation": "Algo1"
    },
    "slices": {}
  },
  "time": {
    "samples": {
      "AcquisitionNumber": [1, 2, 3, 4, 5, 6, 7, 8, 9, 10, 11, 12, 13, 14, 15, 16, 17, 18, 19, 20, 21, 22, 23, 24, 25, 26, 27, 28, 29, 30, 31, 32, 33, 34, 35, 36, 37, 38, 39, 40, 41, 42, 43, 44, 45, 46, 47, 48, 49, 50, 51, 52, 53, 54, 55, 56, 57, 58, 59, 60, 61, 62, 63, 64, 65, 66, 67, 68, 69, 70, 71, 72, 73, 74, 75, 76, 77, 78, 79, 80, 81, 82, 83, 84, 85, 86, 87, 88, 89, 90, 91, 92, 93, 94, 95, 96, 97, 98, 99, 100, 101, 102, 103, 104, 105, 106, 107, 108, 109, 110, 111, 112, 113, 114, 115, 116, 117, 118, 119, 120, 121, 122, 123, 124, 125, 126, 127, 128, 129, 130, 131, 132, 133, 134, 135, 136, 137, 138, 139, 140, 141, 142, 143, 144, 145, 146, 147, 148, 149, 150, 151, 152, 153, 154, 155, 156, 157, 158, 159, 160, 161, 162, 163, 164, 165, 166, 167, 168, 169, 170, 171, 172, 173, 174, 175, 176, 177, 178, 179, 180, 181, 182, 183, 184, 185, 186, 187, 188, 189, 190, 191, 192, 193, 194, 195, 196, 197, 198, 199, 200, 201, 202, 203, 204, 205, 206, 207, 208, 209, 210, 211, 212, 213, 214, 215, 216, 217, 218, 219, 220, 221, 222, 223, 224, 225, 226, 227, 228, 229, 230, 231, 232, 233, 234, 235, 236, 237, 238, 239, 240, 241, 242, 243, 244, 245, 246, 247, 248, 249, 250, 251, 252, 253, 254, 255, 256, 257, 258, 259, 260, 261, 262, 263, 264, 265, 266, 267, 268, 269, 270, 271, 272, 273, 274, 275, 276, 277, 278, 279, 280, 281, 282, 283, 284, 285, 286, 287, 288, 289, 290, 291, 292, 293, 294, 295, 296, 297, 298, 299, 300, 301, 302, 303, 304, 305, 306, 307, 308, 309, 310, 311, 312, 313, 314, 315, 316, 317, 318, 319, 320, 321, 322, 323, 324, 325, 326, 327, 328, 329, 330, 331, 332, 333, 334, 335, 336, 337, 338, 339, 340, 341, 342, 343, 344, 345, 346, 347, 348, 349, 350, 351, 352, 353, 354, 355, 356, 357, 358, 359, 360, 361, 362, 363, 364, 365, 366, 367, 368, 369, 370, 371, 372, 373, 374, 375, 376, 377, 378, 379, 380, 381, 382, 383, 384, 385, 386, 387, 388, 389, 390, 391, 392, 393, 394, 395, 396, 397, 398, 399, 400, 401, 402, 403, 404, 405, 406, 407, 408, 409, 410, 411, 412, 413, 414, 415, 416, 417, 418, 419, 420, 421, 422, 423, 424, 425, 426, 427, 428, 429, 430, 431, 432, 433, 434, 435, 436, 437, 438, 439, 440, 441, 442, 443, 444, 445, 446, 447, 448, 449, 450, 451, 452, 453, 454, 455, 456, 457, 458, 459, 460, 461, 462, 463, 464, 465, 466, 467, 468, 469, 470, 471, 472, 473, 474, 475, 476, 477, 478, 479, 480, 481, 482, 483, 484, 485, 486, 487, 488, 489, 490, 491, 492, 493, 494, 495, 496, 497, 498, 499, 500, 501, 502, 503, 504, 505, 506, 507, 508, 509, 510, 511, 512, 513, 514, 515, 516, 517, 518, 519, 520, 521, 522, 523, 524, 525, 526, 527, 528, 529, 530, 531, 532, 533, 534, 535, 536, 537, 538, 539, 540, 541, 542, 543, 544, 545, 546, 547, 548, 549, 550, 551, 552, 553, 554, 555, 556, 557, 558, 559, 560, 561, 562, 563, 564, 565, 566, 567, 568, 569, 570, 571, 572, 573, 574, 575, 576, 577, 578, 579, 580, 581, 582, 583, 584, 585, 586, 587, 588, 589, 590, 591, 592, 593, 594, 595, 596, 597, 598, 599, 600, 601, 602, 603, 604, 605, 606, 607, 608, 609, 610, 611, 612, 613, 614, 615, 616, 617, 618, 619, 620, 621, 622, 623, 624, 625, 626, 627, 628, 629, 630, 631, 632, 633, 634, 635, 636, 637, 638, 639, 640, 641, 642, 643, 644, 645, 646, 647, 648, 649, 650, 651, 652, 653, 654, 655, 656, 657, 658, 659, 660, 661, 662, 663, 664, 665, 666, 667, 668, 669, 670, 671, 672, 673, 674, 675, 676, 677, 678, 679, 680, 681, 682, 683, 684, 685, 686, 687, 688, 689, 690, 691, 692, 693, 694, 695, 696, 697, 698, 699, 700, 701, 702, 703, 704, 705, 706, 707, 708, 709, 710, 711, 712, 713, 714, 715, 716, 717, 718, 719, 720, 721, 722, 723, 724, 725, 726, 727, 728, 729, 730, 731, 732, 733, 734, 735, 736, 737, 738, 739, 740, 741, 742, 743, 744, 745, 746, 747, 748, 749, 750, 751, 752, 753, 754, 755, 756, 757, 758, 759, 760, 761, 762, 763, 764, 765, 766, 767, 768, 769, 770, 771, 772, 773, 774, 775, 776, 777, 778, 779, 780, 781, 782, 783, 784, 785, 786, 787, 788, 789, 790, 791, 792, 793, 794, 795, 796, 797, 798, 799, 800, 801, 802, 803, 804, 805, 806, 807, 808, 809, 810, 811, 812, 813, 814, 815, 816, 817, 818, 819, 820, 821, 822, 823, 824, 825, 826, 827, 828, 829, 830, 831, 832, 833, 834, 835, 836, 837, 838, 839, 840, 841, 842, 843, 844, 845, 846, 847, 848, 849, 850, 851, 852, 853, 854, 855, 856, 857, 858, 859, 860, 861, 862, 863, 864, 865, 866, 867, 868, 869, 870, 871, 872],
      "AcquisitionTime": ["180914.282500", "180914.742500", "180915.202500", "180915.662500", "180916.122500", "180916.582500", "180917.042500", "180917.502500", "180917.962500", "180918.422500", "180918.882500", "180919.342500", "180919.802500", "180920.262500", "180920.722500", "180921.182500", "180921.642500", "180922.102500", "180922.562500", "180923.022500", "180923.482500", "180923.942500", "180924.402500", "180924.862500", "180925.322500", "180925.782500", "180926.242500", "180926.702500", "180927.162500", "180927.622500", "180928.082500", "180928.542500", "180929.002500", "180929.462500", "180929.922500", "180930.382500", "180930.842500", "180931.302500", "180931.762500", "180932.222500", "180932.682500", "180933.142500", "180933.602500", "180934.062500", "180934.522500", "180934.982500", "180935.442500", "180935.902500", "180936.362500", "180936.822500", "180937.282500", "180937.742500", "180938.202500", "180938.662500", "180939.122500", "180939.582500", "180940.042500", "180940.502500", "180940.962500", "180941.422500", "180941.882500", "180942.342500", "180942.802500", "180943.262500", "180943.722500", "180944.182500", "180944.642500", "180945.102500", "180945.562500", "180946.022500", "180946.482500", "180946.942500", "180947.402500", "180947.862500", "180948.322500", "180948.782500", "180949.242500", "180949.702500", "180950.162500", "180950.622500", "180951.082500", "180951.542500", "180952.002500", "180952.462500", "180952.922500", "180953.382500", "180953.842500", "180954.302500", "180954.762500", "180955.222500", "180955.682500", "180956.142500", "180956.602500", "180957.062500", "180957.522500", "180957.982500", "180958.442500", "180958.902500", "180959.362500", "180959.822500", "181000.282500", "181000.742500", "181001.202500", "181001.662500", "181002.122500", "181002.582500", "181003.042500", "181003.502500", "181003.962500", "181004.422500", "181004.882500", "181005.342500", "181005.802500", "181006.262500", "181006.722500", "181007.182500", "181007.642500", "181008.102500", "181008.562500", "181009.022500", "181009.482500", "181009.942500", "181010.402500", "181010.862500", "181011.322500", "181011.782500", "181012.242500", "181012.702500", "181013.162500", "181013.622500", "181014.082500", "181014.542500", "181015.002500", "181015.462500", "181015.922500", "181016.382500", "181016.842500", "181017.302500", "181017.762500", "181018.222500", "181018.682500", "181019.142500", "181019.602500", "181020.062500", "181020.522500", "181020.982500", "181021.442500", "181021.902500", "181022.362500", "181022.822500", "181023.282500", "181023.742500", "181024.202500", "181024.662500", "181025.122500", "181025.582500", "181026.042500", "181026.502500", "181026.962500", "181027.422500", "181027.882500", "181028.342500", "181028.802500", "181029.262500", "181029.722500", "181030.182500", "181030.642500", "181031.102500", "181031.562500", "181032.022500", "181032.482500", "181032.942500", "181033.402500", "181033.862500", "181034.322500", "181034.782500", "181035.242500", "181035.702500", "181036.162500", "181036.622500", "181037.082500", "181037.542500", "181038.002500", "181038.462500", "181038.922500", "181039.382500", "181039.842500", "181040.302500", "181040.762500", "181041.222500", "181041.682500", "181042.142500", "181042.602500", "181043.062500", "181043.522500", "181043.982500", "181044.442500", "181044.902500", "181045.362500", "181045.822500", "181046.282500", "181046.742500", "181047.202500", "181047.662500", "181048.122500", "181048.582500", "181049.042500", "181049.502500", "181049.962500", "181050.422500", "181050.882500", "181051.342500", "181051.802500", "181052.262500", "181052.722500", "181053.182500", "181053.642500", "181054.102500", "181054.562500", "181055.022500", "181055.482500", "181055.942500", "181056.402500", "181056.862500", "181057.322500", "181057.782500", "181058.242500", "181058.702500", "181059.162500", "181059.622500", "181100.082500", "181100.542500", "181101.002500", "181101.462500", "181101.922500", "181102.382500", "181102.842500", "181103.302500", "181103.762500", "181104.222500", "181104.682500", "181105.142500", "181105.602500", "181106.062500", "181106.522500", "181106.982500", "181107.442500", "181107.902500", "181108.362500", "181108.822500", "181109.282500", "181109.742500", "181110.202500", "181110.662500", "181111.122500", "181111.582500", "181112.042500", "181112.502500", "181112.962500", "181113.422500", "181113.882500", "181114.342500", "181114.802500", "181115.262500", "181115.722500", "181116.182500", "181116.642500", "181117.102500", "181117.562500", "181118.022500", "181118.482500", "181118.942500", "181119.402500", "181119.862500", "181120.322500", "181120.782500", "181121.242500", "181121.702500", "181122.162500", "181122.622500", "181123.082500", "181123.542500", "181124.002500", "181124.462500", "181124.922500", "181125.382500", "181125.842500", "181126.302500", "181126.762500", "181127.222500", "181127.682500", "181128.142500", "181128.602500", "181129.062500", "181129.522500", "181129.982500", "181130.442500", "181130.902500", "181131.362500", "181131.822500", "181132.282500", "181132.742500", "181133.202500", "181133.662500", "181134.122500", "181134.582500", "181135.042500", "181135.502500", "181135.962500", "181136.422500", "181136.882500", "181137.342500", "181137.802500", "181138.262500", "181138.722500", "181139.182500", "181139.642500", "181140.102500", "181140.562500", "181141.022500", "181141.482500", "181141.942500", "181142.402500", "181142.862500", "181143.322500", "181143.782500", "181144.242500", "181144.702500", "181145.162500", "181145.622500", "181146.082500", "181146.542500", "181147.002500", "181147.462500", "181147.922500", "181148.382500", "181148.842500", "181149.302500", "181149.762500", "181150.222500", "181150.682500", "181151.142500", "181151.602500", "181152.062500", "181152.522500", "181152.982500", "181153.442500", "181153.902500", "181154.362500", "181154.822500", "181155.282500", "181155.742500", "181156.202500", "181156.662500", "181157.122500", "181157.582500", "181158.042500", "181158.502500", "181158.962500", "181159.422500", "181159.882500", "181200.342500", "181200.802500", "181201.262500", "181201.722500", "181202.182500", "181202.642500", "181203.102500", "181203.562500", "181204.022500", "181204.482500", "181204.942500", "181205.402500", "181205.862500", "181206.322500", "181206.782500", "181207.242500", "181207.702500", "181208.162500", "181208.622500", "181209.082500", "181209.542500", "181210.002500", "181210.462500", "181210.922500", "181211.382500", "181211.842500", "181212.302500", "181212.762500", "181213.222500", "181213.682500", "181214.142500", "181214.602500", "181215.062500", "181215.522500", "181215.982500", "181216.442500", "181216.902500", "181217.362500", "181217.822500", "181218.282500", "181218.742500", "181219.202500", "181219.662500", "181220.122500", "181220.582500", "181221.042500", "181221.502500", "181221.962500", "181222.422500", "181222.882500", "181223.342500", "181223.802500", "181224.262500", "181224.722500", "181225.182500", "181225.642500", "181226.102500", "181226.562500", "181227.022500", "181227.482500", "181227.942500", "181228.402500", "181228.862500", "181229.322500", "181229.782500", "181230.242500", "181230.702500", "181231.162500", "181231.622500", "181232.082500", "181232.542500", "181233.002500", "181233.462500", "181233.922500", "181234.382500", "181234.842500", "181235.302500", "181235.762500", "181236.222500", "181236.682500", "181237.142500", "181237.602500", "181238.062500", "181238.522500", "181238.982500", "181239.442500", "181239.902500", "181240.362500", "181240.822500", "181241.282500", "181241.742500", "181242.202500", "181242.662500", "181243.122500", "181243.582500", "181244.042500", "181244.502500", "181244.962500", "181245.422500", "181245.882500", "181246.342500", "181246.802500", "181247.262500", "181247.722500", "181248.182500", "181248.642500", "181249.102500", "181249.562500", "181250.022500", "181250.482500", "181250.942500", "181251.402500", "181251.862500", "181252.322500", "181252.782500", "181253.242500", "181253.702500", "181254.162500", "181254.622500", "181255.082500", "181255.542500", "181256.002500", "181256.462500", "181256.922500", "181257.382500", "181257.842500", "181258.302500", "181258.762500", "181259.222500", "181259.682500", "181300.142500", "181300.602500", "181301.062500", "181301.522500", "181301.982500", "181302.442500", "181302.902500", "181303.362500", "181303.822500", "181304.282500", "181304.742500", "181305.202500", "181305.662500", "181306.122500", "181306.582500", "181307.042500", "181307.502500", "181307.962500", "181308.422500", "181308.882500", "181309.342500", "181309.802500", "181310.262500", "181310.722500", "181311.182500", "181311.642500", "181312.102500", "181312.562500", "181313.022500", "181313.482500", "181313.942500", "181314.402500", "181314.862500", "181315.322500", "181315.782500", "181316.242500", "181316.702500", "181317.162500", "181317.622500", "181318.082500", "181318.542500", "181319.002500", "181319.462500", "181319.922500", "181320.382500", "181320.842500", "181321.302500", "181321.762500", "181322.222500", "181322.682500", "181323.142500", "181323.602500", "181324.062500", "181324.522500", "181324.982500", "181325.442500", "181325.902500", "181326.362500", "181326.822500", "181327.282500", "181327.742500", "181328.202500", "181328.662500", "181329.122500", "181329.582500", "181330.042500", "181330.502500", "181330.962500", "181331.422500", "181331.882500", "181332.342500", "181332.802500", "181333.262500", "181333.722500", "181334.182500", "181334.642500", "181335.102500", "181335.562500", "181336.022500", "181336.482500", "181336.942500", "181337.402500", "181337.862500", "181338.322500", "181338.782500", "181339.242500", "181339.702500", "181340.162500", "181340.622500", "181341.082500", "181341.542500", "181342.002500", "181342.462500", "181342.922500", "181343.382500", "181343.842500", "181344.302500", "181344.762500", "181345.222500", "181345.682500", "181346.142500", "181346.602500", "181347.062500", "181347.522500", "181347.982500", "181348.442500", "181348.902500", "181349.362500", "181349.822500", "181350.282500", "181350.742500", "181351.202500", "181351.662500", "181352.122500", "181352.582500", "181353.042500", "181353.502500", "181353.962500", "181354.422500", "181354.882500", "181355.342500", "181355.802500", "181356.262500", "181356.722500", "181357.182500", "181357.642500", "181358.102500", "181358.562500", "181359.022500", "181359.482500", "181359.942500", "181400.402500", "181400.862500", "181401.322500", "181401.782500", "181402.242500", "181402.702500", "181403.162500", "181403.622500", "181404.082500", "181404.542500", "181405.002500", "181405.462500", "181405.922500", "181406.382500", "181406.842500", "181407.302500", "181407.762500", "181408.222500", "181408.682500", "181409.142500", "181409.602500", "181410.062500", "181410.522500", "181410.982500", "181411.442500", "181411.902500", "181412.362500", "181412.822500", "181413.282500", "181413.742500", "181414.202500", "181414.662500", "181415.122500", "181415.582500", "181416.042500", "181416.502500", "181416.962500", "181417.422500", "181417.882500", "181418.342500", "181418.802500", "181419.262500", "181419.722500", "181420.182500", "181420.642500", "181421.102500", "181421.562500", "181422.022500", "181422.482500", "181422.942500", "181423.402500", "181423.862500", "181424.322500", "181424.782500", "181425.242500", "181425.702500", "181426.162500", "181426.622500", "181427.082500", "181427.542500", "181428.002500", "181428.462500", "181428.922500", "181429.382500", "181429.842500", "181430.302500", "181430.762500", "181431.222500", "181431.682500", "181432.142500", "181432.602500", "181433.062500", "181433.522500", "181433.982500", "181434.442500", "181434.902500", "181435.362500", "181435.822500", "181436.282500", "181436.742500", "181437.202500", "181437.662500", "181438.122500", "181438.582500", "181439.042500", "181439.502500", "181439.962500", "181440.422500", "181440.882500", "181441.342500", "181441.802500", "181442.262500", "181442.722500", "181443.182500", "181443.642500", "181444.102500", "181444.562500", "181445.022500", "181445.482500", "181445.942500", "181446.402500", "181446.862500", "181447.322500", "181447.782500", "181448.242500", "181448.702500", "181449.162500", "181449.622500", "181450.082500", "181450.542500", "181451.002500", "181451.462500", "181451.922500", "181452.382500", "181452.842500", "181453.302500", "181453.762500", "181454.222500", "181454.682500", "181455.142500", "181455.602500", "181456.062500", "181456.522500", "181456.982500", "181457.442500", "181457.902500", "181458.362500", "181458.822500", "181459.282500", "181459.742500", "181500.202500", "181500.662500", "181501.122500", "181501.582500", "181502.042500", "181502.502500", "181502.962500", "181503.422500", "181503.882500", "181504.342500", "181504.802500", "181505.262500", "181505.722500", "181506.182500", "181506.642500", "181507.102500", "181507.562500", "181508.022500", "181508.482500", "181508.942500", "181509.402500", "181509.862500", "181510.322500", "181510.782500", "181511.242500", "181511.702500", "181512.162500", "181512.622500", "181513.082500", "181513.542500", "181514.002500", "181514.462500", "181514.922500", "181515.382500", "181515.842500", "181516.302500", "181516.762500", "181517.222500", "181517.682500", "181518.142500", "181518.602500", "181519.062500", "181519.522500", "181519.982500", "181520.442500", "181520.902500", "181521.362500", "181521.822500", "181522.282500", "181522.742500", "181523.202500", "181523.662500", "181524.122500", "181524.582500", "181525.042500", "181525.502500", "181525.962500", "181526.422500", "181526.882500", "181527.342500", "181527.802500", "181528.262500", "181528.722500", "181529.182500", "181529.642500", "181530.102500", "181530.562500", "181531.022500", "181531.482500", "181531.942500", "181532.402500", "181532.862500", "181533.322500", "181533.782500", "181534.242500", "181534.702500", "181535.162500", "181535.622500", "181536.082500", "181536.542500", "181537.002500", "181537.462500", "181537.922500", "181538.382500", "181538.842500", "181539.302500", "181539.762500", "181540.222500", "181540.682500", "181541.142500", "181541.602500", "181542.062500", "181542.522500", "181542.982500", "181543.442500", "181543.902500", "181544.362500", "181544.822500", "181545.282500", "181545.742500", "181546.202500", "181546.662500", "181547.122500", "181547.582500", "181548.042500", "181548.502500", "181548.962500", "181549.422500", "181549.882500", "181550.342500", "181550.802500", "181551.262500", "181551.722500", "181552.182500", "181552.642500", "181553.102500", "181553.562500", "181554.022500", "181554.482500", "181554.942500"],
