{
  "AcquisitionMatrixPE": 82,
  "AcquisitionNumber": 1,
  "AcquisitionTime": "17:31:48.552500",
  "BandwidthPerPixelPhaseEncode": 24.888,
  "BaseResolution": 82,
  "BodyPartExamined": "BRAIN",
  "ConsistencyInfo": "N4_VE11E_LATEST_20181129",
  "ConversionSoftware": "dcm2niix",
  "ConversionSoftwareVersion": "v1.0.20201102",
  "DerivedVendorReportedEchoSpacing": 0.00049,
  "DeviceSerialNumber": "66112",
  "DwellTime": 2e-06,
  "EchoTime": 0.0272,
  "EchoTrainLength": 82,
  "EffectiveEchoSpacing": 0.00049,
  "FlipAngle": 44,
  "ImageComments": "Unaliased MB8/PE3",
  "ImageOrientationPatientDICOM": [0.998387, 0.055141, -0.0135254, -0.0551194, 0.998478, 0.00196478],
  "ImageType": [
    "ORIGINAL",
    "PRIMARY",
    "M",
    "MB",
    "ND",
    "NORM",
    "MOSAIC"
],
  "ImagingFrequency": 123.259,
  "InPlanePhaseEncodingDirectionDICOM": "COL",
  "InstitutionAddress": "Maynard 3,Hanover,NH,US,03755",
  "InstitutionName": "Dartmouth College - PBS",
  "InstitutionalDepartmentName": "Department",
  "MRAcquisitionType": "2D",
  "MagneticFieldStrength": 3,
  "Manufacturer": "Siemens",
  "ManufacturersModelName": "Prisma",
  "Modality": "MR",
  "MultibandAccelerationFactor": 8,
  "PartialFourier": 1,
  "PatientPosition": "HFS",
  "PercentPhaseFOV": 100,
  "PercentSampling": 100,
  "PhaseEncodingDirection": "j-",
  "PhaseEncodingSteps": 82,
  "PhaseResolution": 1,
  "PixelBandwidth": 3050,
  "ProcedureStepDescription": "Wager_Wager^1076_spacetop",
  "ProtocolName": "func_run-01_task-social_acq-ap-mb8",
  "PulseSequenceDetails": "%CustomerSeq%\\cmrr_mbep2d_bold",
  "ReceiveCoilActiveElements": "HEA;HEP",
  "ReceiveCoilName": "Head_32",
  "ReconMatrixPE": 82,
  "RepetitionTime": 0.46,
  "SAR": 0.083023,
  "ScanOptions": "FS",
  "ScanningSequence": "EP",
  "SequenceName": "epfid2d1_82",
  "SequenceVariant": "SK\\SS",
  "SeriesDescription": "func_run-01_task-social_acq-ap-mb8",
  "SeriesNumber": 12,
  "ShimSetting": [4225, -7735, -7255, 334, -107, -21, 98, 94],
  "SliceThickness": 2.7,
  "SliceTiming": [0, 0.2525, 0.0625, 0.315, 0.125, 0.3775, 0.1875, 0, 0.2525, 0.0625, 0.315, 0.125, 0.3775, 0.1875, 0, 0.2525, 0.0625, 0.315, 0.125, 0.3775, 0.1875, 0, 0.2525, 0.0625, 0.315, 0.125, 0.3775, 0.1875, 0, 0.2525, 0.0625, 0.315, 0.125, 0.3775, 0.1875, 0, 0.2525, 0.0625, 0.315, 0.125, 0.3775, 0.1875, 0, 0.2525, 0.0625, 0.315, 0.125, 0.3775, 0.1875, 0, 0.2525, 0.0625, 0.315, 0.125, 0.3775, 0.1875],
  "SoftwareVersions": "syngo MR E11",
  "SpacingBetweenSlices": 2.7,
  "StationName": "AWP66112",
  "TaskName": "social",
  "TotalReadoutTime": 0.03969,
  "TxRefAmp": 233.349,
  "WipMemBlock": "c9497c42-c71b-49ce-b815-a90ebf5769f6||Sequence: R016 ve11e/master r/434b28f1; Aug  7 2019 18:53:46 by eja",
  "dcmmeta_affine": [
    [-2.6785993576049805, -0.14788125455379486, -0.036755383014678955, 119.82816314697266],
    [-0.14793920516967773, 2.6788430213928223, 0.0032834799494594336, -102.79147338867188],
    [-0.03628753125667572, -0.005271366331726313, 2.6997478008270264, -68.75568389892578],
    [0.0, 0.0, 0.0, 1.0]
],
  "dcmmeta_reorient_transform": [
    [0.0, -1.0, 0.0, 81.0],
    [1.0, 0.0, 0.0, 0.0],
    [0.0, 0.0, 1.0, 0.0],
    [0.0, 0.0, 0.0, 1.0]
],
  "dcmmeta_shape": [82, 82, 56, 872],
  "dcmmeta_slice_dim": 2,
  "dcmmeta_version": 0.6,
  "global": {
    "const": {
      "AccessionNumber": "A004935",
      "AcquisitionMatrix": [82, 0, 0, 82],
      "AngioFlag": "N",
      "BitsAllocated": 16,
      "BitsStored": 16,
      "BodyPartExamined": "BRAIN",
      "Columns": 656,
      "EchoNumbers": 1,
      "EchoTime": 27.2,
      "EchoTrainLength": 82,
      "FlipAngle": 44.0,
      "HighBit": 15,
      "ImageOrientationPatient": [0.99838696790179, 0.05514097546358, -0.0135253520763, -0.0551193769495, 0.99847783847055, 0.00196478188899],
      "ImagePositionPatient": [-834.16584044289, -925.48131711162, -60.281028436983],
      "ImageType": [
        "ORIGINAL",
        "PRIMARY",
        "M",
        "MB",
        "ND",
        "NORM",
        "MOSAIC"
],
      "ImagedNucleus": "1H",
      "ImagingFrequency": 123.259062,
      "InPlanePhaseEncodingDirection": "COL",
      "MRAcquisitionType": "2D",
      "MagneticFieldStrength": 3.0,
      "Manufacturer": "SIEMENS",
      "ManufacturerModelName": "Prisma",
      "Modality": "MR",
      "NumberOfAverages": 1.0,
      "NumberOfPhaseEncodingSteps": 82,
      "PercentPhaseFieldOfView": 100.0,
      "PercentSampling": 100.0,
      "PerformedProcedureStepStartTime": "165703.935000",
      "PhotometricInterpretation": "MONOCHROME2",
      "PixelBandwidth": 3050.0,
      "PixelRepresentation": 0,
      "PixelSpacing": [2.6829268932343, 2.6829268932343],
      "ProtocolName": "func_run-01_task-social_acq-ap-mb8",
      "RepetitionTime": 460.0,
      "Rows": 656,
      "SAR": 0.08302300572705,
      "SamplesPerPixel": 1,
      "ScanOptions": "FS",
      "ScanningSequence": "EP",
      "SequenceName": "epfid2d1_82",
      "SequenceVariant": [
        "SK",
        "SS"
],
      "SeriesDescription": "func_run-01_task-social_acq-ap-mb8",
      "SeriesNumber": 12,
      "SeriesTime": "173159.559000",
      "SliceLocation": -70.505503436111,
      "SliceThickness": 2.7000000476837,
      "SmallestImagePixelValue": 0,
      "SoftwareVersions": "syngo MR E11",
      "SpacingBetweenSlices": 2.6999999995922,
      "SpecificCharacterSet": "ISO_IR 100",
      "StudyID": "4",
      "StudyTime": "165703.880000",
      "TransmitCoilName": "Body",
      "VariableFlipAngleFlag": "N",
      "WindowCenterWidthExplanation": "Algo1"
    },
    "slices": {}
  },
  "time": {
    "samples": {
      "AcquisitionNumber": [1, 2, 3, 4, 5, 6, 7, 8, 9, 10, 11, 12, 13, 14, 15, 16, 17, 18, 19, 20, 21, 22, 23, 24, 25, 26, 27, 28, 29, 30, 31, 32, 33, 34, 35, 36, 37, 38, 39, 40, 41, 42, 43, 44, 45, 46, 47, 48, 49, 50, 51, 52, 53, 54, 55, 56, 57, 58, 59, 60, 61, 62, 63, 64, 65, 66, 67, 68, 69, 70, 71, 72, 73, 74, 75, 76, 77, 78, 79, 80, 81, 82, 83, 84, 85, 86, 87, 88, 89, 90, 91, 92, 93, 94, 95, 96, 97, 98, 99, 100, 101, 102, 103, 104, 105, 106, 107, 108, 109, 110, 111, 112, 113, 114, 115, 116, 117, 118, 119, 120, 121, 122, 123, 124, 125, 126, 127, 128, 129, 130, 131, 132, 133, 134, 135, 136, 137, 138, 139, 140, 141, 142, 143, 144, 145, 146, 147, 148, 149, 150, 151, 152, 153, 154, 155, 156, 157, 158, 159, 160, 161, 162, 163, 164, 165, 166, 167, 168, 169, 170, 171, 172, 173, 174, 175, 176, 177, 178, 179, 180, 181, 182, 183, 184, 185, 186, 187, 188, 189, 190, 191, 192, 193, 194, 195, 196, 197, 198, 199, 200, 201, 202, 203, 204, 205, 206, 207, 208, 209, 210, 211, 212, 213, 214, 215, 216, 217, 218, 219, 220, 221, 222, 223, 224, 225, 226, 227, 228, 229, 230, 231, 232, 233, 234, 235, 236, 237, 238, 239, 240, 241, 242, 243, 244, 245, 246, 247, 248, 249, 250, 251, 252, 253, 254, 255, 256, 257, 258, 259, 260, 261, 262, 263, 264, 265, 266, 267, 268, 269, 270, 271, 272, 273, 274, 275, 276, 277, 278, 279, 280, 281, 282, 283, 284, 285, 286, 287, 288, 289, 290, 291, 292, 293, 294, 295, 296, 297, 298, 299, 300, 301, 302, 303, 304, 305, 306, 307, 308, 309, 310, 311, 312, 313, 314, 315, 316, 317, 318, 319, 320, 321, 322, 323, 324, 325, 326, 327, 328, 329, 330, 331, 332, 333, 334, 335, 336, 337, 338, 339, 340, 341, 342, 343, 344, 345, 346, 347, 348, 349, 350, 351, 352, 353, 354, 355, 356, 357, 358, 359, 360, 361, 362, 363, 364, 365, 366, 367, 368, 369, 370, 371, 372, 373, 374, 375, 376, 377, 378, 379, 380, 381, 382, 383, 384, 385, 386, 387, 388, 389, 390, 391, 392, 393, 394, 395, 396, 397, 398, 399, 400, 401, 402, 403, 404, 405, 406, 407, 408, 409, 410, 411, 412, 413, 414, 415, 416, 417, 418, 419, 420, 421, 422, 423, 424, 425, 426, 427, 428, 429, 430, 431, 432, 433, 434, 435, 436, 437, 438, 439, 440, 441, 442, 443, 444, 445, 446, 447, 448, 449, 450, 451, 452, 453, 454, 455, 456, 457, 458, 459, 460, 461, 462, 463, 464, 465, 466, 467, 468, 469, 470, 471, 472, 473, 474, 475, 476, 477, 478, 479, 480, 481, 482, 483, 484, 485, 486, 487, 488, 489, 490, 491, 492, 493, 494, 495, 496, 497, 498, 499, 500, 501, 502, 503, 504, 505, 506, 507, 508, 509, 510, 511, 512, 513, 514, 515, 516, 517, 518, 519, 520, 521, 522, 523, 524, 525, 526, 527, 528, 529, 530, 531, 532, 533, 534, 535, 536, 537, 538, 539, 540, 541, 542, 543, 544, 545, 546, 547, 548, 549, 550, 551, 552, 553, 554, 555, 556, 557, 558, 559, 560, 561, 562, 563, 564, 565, 566, 567, 568, 569, 570, 571, 572, 573, 574, 575, 576, 577, 578, 579, 580, 581, 582, 583, 584, 585, 586, 587, 588, 589, 590, 591, 592, 593, 594, 595, 596, 597, 598, 599, 600, 601, 602, 603, 604, 605, 606, 607, 608, 609, 610, 611, 612, 613, 614, 615, 616, 617, 618, 619, 620, 621, 622, 623, 624, 625, 626, 627, 628, 629, 630, 631, 632, 633, 634, 635, 636, 637, 638, 639, 640, 641, 642, 643, 644, 645, 646, 647, 648, 649, 650, 651, 652, 653, 654, 655, 656, 657, 658, 659, 660, 661, 662, 663, 664, 665, 666, 667, 668, 669, 670, 671, 672, 673, 674, 675, 676, 677, 678, 679, 680, 681, 682, 683, 684, 685, 686, 687, 688, 689, 690, 691, 692, 693, 694, 695, 696, 697, 698, 699, 700, 701, 702, 703, 704, 705, 706, 707, 708, 709, 710, 711, 712, 713, 714, 715, 716, 717, 718, 719, 720, 721, 722, 723, 724, 725, 726, 727, 728, 729, 730, 731, 732, 733, 734, 735, 736, 737, 738, 739, 740, 741, 742, 743, 744, 745, 746, 747, 748, 749, 750, 751, 752, 753, 754, 755, 756, 757, 758, 759, 760, 761, 762, 763, 764, 765, 766, 767, 768, 769, 770, 771, 772, 773, 774, 775, 776, 777, 778, 779, 780, 781, 782, 783, 784, 785, 786, 787, 788, 789, 790, 791, 792, 793, 794, 795, 796, 797, 798, 799, 800, 801, 802, 803, 804, 805, 806, 807, 808, 809, 810, 811, 812, 813, 814, 815, 816, 817, 818, 819, 820, 821, 822, 823, 824, 825, 826, 827, 828, 829, 830, 831, 832, 833, 834, 835, 836, 837, 838, 839, 840, 841, 842, 843, 844, 845, 846, 847, 848, 849, 850, 851, 852, 853, 854, 855, 856, 857, 858, 859, 860, 861, 862, 863, 864, 865, 866, 867, 868, 869, 870, 871, 872],
      "AcquisitionTime": ["173148.552500", "173149.012500", "173149.472500", "173149.932500", "173150.392500", "173150.852500", "173151.312500", "173151.772500", "173152.232500", "173152.692500", "173153.152500", "173153.612500", "173154.072500", "173154.532500", "173154.992500", "173155.452500", "173155.912500", "173156.372500", "173156.832500", "173157.292500", "173157.752500", "173158.212500", "173158.672500", "173159.132500", "173159.592500", "173200.052500", "173200.512500", "173200.972500", "173201.432500", "173201.892500", "173202.352500", "173202.812500", "173203.272500", "173203.732500", "173204.192500", "173204.652500", "173205.112500", "173205.572500", "173206.032500", "173206.492500", "173206.952500", "173207.412500", "173207.872500", "173208.332500", "173208.792500", "173209.252500", "173209.712500", "173210.172500", "173210.632500", "173211.092500", "173211.552500", "173212.012500", "173212.472500", "173212.932500", "173213.392500", "173213.852500", "173214.312500", "173214.772500", "173215.232500", "173215.692500", "173216.152500", "173216.612500", "173217.072500", "173217.532500", "173217.992500", "173218.452500", "173218.912500", "173219.372500", "173219.832500", "173220.292500", "173220.752500", "173221.212500", "173221.672500", "173222.132500", "173222.592500", "173223.052500", "173223.512500", "173223.972500", "173224.432500", "173224.892500", "173225.352500", "173225.812500", "173226.272500", "173226.732500", "173227.192500", "173227.652500", "173228.112500", "173228.572500", "173229.032500", "173229.492500", "173229.952500", "173230.412500", "173230.872500", "173231.332500", "173231.792500", "173232.252500", "173232.712500", "173233.172500", "173233.632500", "173234.092500", "173234.552500", "173235.012500", "173235.472500", "173235.932500", "173236.392500", "173236.852500", "173237.312500", "173237.772500", "173238.232500", "173238.692500", "173239.152500", "173239.612500", "173240.072500", "173240.532500", "173240.992500", "173241.452500", "173241.912500", "173242.372500", "173242.832500", "173243.292500", "173243.752500", "173244.212500", "173244.672500", "173245.132500", "173245.592500", "173246.052500", "173246.512500", "173246.972500", "173247.432500", "173247.892500", "173248.352500", "173248.812500", "173249.272500", "173249.732500", "173250.192500", "173250.652500", "173251.112500", "173251.572500", "173252.032500", "173252.492500", "173252.952500", "173253.412500", "173253.872500", "173254.332500", "173254.792500", "173255.252500", "173255.712500", "173256.172500", "173256.632500", "173257.092500", "173257.552500", "173258.012500", "173258.472500", "173258.932500", "173259.392500", "173259.852500", "173300.312500", "173300.772500", "173301.232500", "173301.692500", "173302.152500", "173302.612500", "173303.072500", "173303.532500", "173303.992500", "173304.452500", "173304.912500", "173305.372500", "173305.832500", "173306.292500", "173306.752500", "173307.212500", "173307.672500", "173308.132500", "173308.592500", "173309.052500", "173309.512500", "173309.972500", "173310.432500", "173310.892500", "173311.352500", "173311.812500", "173312.272500", "173312.732500", "173313.192500", "173313.652500", "173314.112500", "173314.572500", "173315.032500", "173315.492500", "173315.952500", "173316.412500", "173316.872500", "173317.332500", "173317.792500", "173318.252500", "173318.712500", "173319.172500", "173319.632500", "173320.092500", "173320.552500", "173321.012500", "173321.472500", "173321.932500", "173322.392500", "173322.852500", "173323.312500", "173323.772500", "173324.232500", "173324.692500", "173325.152500", "173325.612500", "173326.072500", "173326.532500", "173326.992500", "173327.452500", "173327.912500", "173328.372500", "173328.832500", "173329.292500", "173329.752500", "173330.212500", "173330.672500", "173331.132500", "173331.592500", "173332.052500", "173332.512500", "173332.972500", "173333.432500", "173333.892500", "173334.352500", "173334.812500", "173335.272500", "173335.732500", "173336.192500", "173336.652500", "173337.112500", "173337.572500", "173338.032500", "173338.492500", "173338.952500", "173339.412500", "173339.872500", "173340.332500", "173340.792500", "173341.252500", "173341.712500", "173342.172500", "173342.632500", "173343.092500", "173343.552500", "173344.012500", "173344.472500", "173344.932500", "173345.392500", "173345.852500", "173346.312500", "173346.772500", "173347.232500", "173347.692500", "173348.152500", "173348.612500", "173349.072500", "173349.532500", "173349.992500", "173350.452500", "173350.912500", "173351.372500", "173351.832500", "173352.292500", "173352.752500", "173353.212500", "173353.672500", "173354.132500", "173354.592500", "173355.052500", "173355.512500", "173355.972500", "173356.432500", "173356.892500", "173357.352500", "173357.812500", "173358.272500", "173358.732500", "173359.192500", "173359.652500", "173400.112500", "173400.572500", "173401.032500", "173401.492500", "173401.952500", "173402.412500", "173402.872500", "173403.332500", "173403.792500", "173404.252500", "173404.712500", "173405.172500", "173405.632500", "173406.092500", "173406.552500", "173407.012500", "173407.472500", "173407.932500", "173408.392500", "173408.852500", "173409.312500", "173409.772500", "173410.232500", "173410.692500", "173411.152500", "173411.612500", "173412.072500", "173412.532500", "173412.992500", "173413.452500", "173413.912500", "173414.372500", "173414.832500", "173415.292500", "173415.752500", "173416.212500", "173416.672500", "173417.132500", "173417.592500", "173418.052500", "173418.512500", "173418.972500", "173419.432500", "173419.892500", "173420.352500", "173420.812500", "173421.272500", "173421.732500", "173422.192500", "173422.652500", "173423.112500", "173423.572500", "173424.032500", "173424.492500", "173424.952500", "173425.412500", "173425.872500", "173426.332500", "173426.792500", "173427.252500", "173427.712500", "173428.172500", "173428.632500", "173429.092500", "173429.552500", "173430.012500", "173430.472500", "173430.932500", "173431.392500", "173431.852500", "173432.312500", "173432.772500", "173433.232500", "173433.692500", "173434.152500", "173434.612500", "173435.072500", "173435.532500", "173435.992500", "173436.452500", "173436.912500", "173437.372500", "173437.832500", "173438.292500", "173438.752500", "173439.212500", "173439.672500", "173440.132500", "173440.592500", "173441.052500", "173441.512500", "173441.972500", "173442.432500", "173442.892500", "173443.352500", "173443.812500", "173444.272500", "173444.732500", "173445.192500", "173445.652500", "173446.112500", "173446.572500", "173447.032500", "173447.492500", "173447.952500", "173448.412500", "173448.872500", "173449.332500", "173449.792500", "173450.252500", "173450.712500", "173451.172500", "173451.632500", "173452.092500", "173452.552500", "173453.012500", "173453.472500", "173453.932500", "173454.392500", "173454.852500", "173455.312500", "173455.772500", "173456.232500", "173456.692500", "173457.152500", "173457.612500", "173458.072500", "173458.532500", "173458.992500", "173459.452500", "173459.912500", "173500.372500", "173500.832500", "173501.292500", "173501.752500", "173502.212500", "173502.672500", "173503.132500", "173503.592500", "173504.052500", "173504.512500", "173504.972500", "173505.432500", "173505.892500", "173506.352500", "173506.812500", "173507.272500", "173507.732500", "173508.192500", "173508.652500", "173509.112500", "173509.572500", "173510.032500", "173510.492500", "173510.952500", "173511.412500", "173511.872500", "173512.332500", "173512.792500", "173513.252500", "173513.712500", "173514.172500", "173514.632500", "173515.092500", "173515.552500", "173516.012500", "173516.472500", "173516.932500", "173517.392500", "173517.852500", "173518.312500", "173518.772500", "173519.232500", "173519.692500", "173520.152500", "173520.612500", "173521.072500", "173521.532500", "173521.992500", "173522.452500", "173522.912500", "173523.372500", "173523.832500", "173524.292500", "173524.752500", "173525.212500", "173525.672500", "173526.132500", "173526.592500", "173527.052500", "173527.512500", "173527.972500", "173528.432500", "173528.892500", "173529.352500", "173529.812500", "173530.272500", "173530.732500", "173531.192500", "173531.652500", "173532.112500", "173532.572500", "173533.032500", "173533.492500", "173533.952500", "173534.412500", "173534.872500", "173535.332500", "173535.792500", "173536.252500", "173536.712500", "173537.172500", "173537.632500", "173538.092500", "173538.552500", "173539.012500", "173539.472500", "173539.932500", "173540.392500", "173540.852500", "173541.312500", "173541.772500", "173542.232500", "173542.692500", "173543.152500", "173543.612500", "173544.072500", "173544.532500", "173544.992500", "173545.452500", "173545.912500", "173546.372500", "173546.832500", "173547.292500", "173547.752500", "173548.212500", "173548.672500", "173549.132500", "173549.592500", "173550.052500", "173550.512500", "173550.972500", "173551.432500", "173551.892500", "173552.352500", "173552.812500", "173553.272500", "173553.732500", "173554.192500", "173554.652500", "173555.112500", "173555.572500", "173556.032500", "173556.492500", "173556.952500", "173557.412500", "173557.872500", "173558.332500", "173558.792500", "173559.252500", "173559.712500", "173600.172500", "173600.632500", "173601.092500", "173601.552500", "173602.012500", "173602.472500", "173602.932500", "173603.392500", "173603.852500", "173604.312500", "173604.772500", "173605.232500", "173605.692500", "173606.152500", "173606.612500", "173607.072500", "173607.532500", "173607.992500", "173608.452500", "173608.912500", "173609.372500", "173609.832500", "173610.292500", "173610.752500", "173611.212500", "173611.672500", "173612.132500", "173612.592500", "173613.052500", "173613.512500", "173613.972500", "173614.432500", "173614.892500", "173615.352500", "173615.812500", "173616.272500", "173616.732500", "173617.192500", "173617.652500", "173618.112500", "173618.572500", "173619.032500", "173619.492500", "173619.952500", "173620.412500", "173620.872500", "173621.332500", "173621.792500", "173622.252500", "173622.712500", "173623.172500", "173623.632500", "173624.092500", "173624.552500", "173625.012500", "173625.472500", "173625.932500", "173626.392500", "173626.852500", "173627.312500", "173627.772500", "173628.232500", "173628.692500", "173629.152500", "173629.612500", "173630.072500", "173630.532500", "173630.992500", "173631.452500", "173631.912500", "173632.372500", "173632.832500", "173633.292500", "173633.752500", "173634.212500", "173634.672500", "173635.132500", "173635.592500", "173636.052500", "173636.512500", "173636.972500", "173637.432500", "173637.892500", "173638.352500", "173638.812500", "173639.272500", "173639.732500", "173640.192500", "173640.652500", "173641.112500", "173641.572500", "173642.032500", "173642.492500", "173642.952500", "173643.412500", "173643.872500", "173644.332500", "173644.792500", "173645.252500", "173645.712500", "173646.172500", "173646.632500", "173647.092500", "173647.552500", "173648.012500", "173648.472500", "173648.932500", "173649.392500", "173649.852500", "173650.312500", "173650.772500", "173651.232500", "173651.692500", "173652.152500", "173652.612500", "173653.072500", "173653.532500", "173653.992500", "173654.452500", "173654.912500", "173655.372500", "173655.832500", "173656.292500", "173656.752500", "173657.212500", "173657.672500", "173658.132500", "173658.592500", "173659.052500", "173659.512500", "173659.972500", "173700.432500", "173700.892500", "173701.352500", "173701.812500", "173702.272500", "173702.732500", "173703.192500", "173703.652500", "173704.112500", "173704.572500", "173705.032500", "173705.492500", "173705.952500", "173706.412500", "173706.872500", "173707.332500", "173707.792500", "173708.252500", "173708.712500", "173709.172500", "173709.632500", "173710.092500", "173710.552500", "173711.012500", "173711.472500", "173711.932500", "173712.392500", "173712.852500", "173713.312500", "173713.772500", "173714.232500", "173714.692500", "173715.152500", "173715.612500", "173716.072500", "173716.532500", "173716.992500", "173717.452500", "173717.912500", "173718.372500", "173718.832500", "173719.292500", "173719.752500", "173720.212500", "173720.672500", "173721.132500", "173721.592500", "173722.052500", "173722.512500", "173722.972500", "173723.432500", "173723.892500", "173724.352500", "173724.812500", "173725.272500", "173725.732500", "173726.192500", "173726.652500", "173727.112500", "173727.572500", "173728.032500", "173728.492500", "173728.952500", "173729.412500", "173729.872500", "173730.332500", "173730.792500", "173731.252500", "173731.712500", "173732.172500", "173732.632500", "173733.092500", "173733.552500", "173734.012500", "173734.472500", "173734.932500", "173735.392500", "173735.852500", "173736.312500", "173736.772500", "173737.232500", "173737.692500", "173738.152500", "173738.612500", "173739.072500", "173739.532500", "173739.992500", "173740.452500", "173740.912500", "173741.372500", "173741.832500", "173742.292500", "173742.752500", "173743.212500", "173743.672500", "173744.132500", "173744.592500", "173745.052500", "173745.512500", "173745.972500", "173746.432500", "173746.892500", "173747.352500", "173747.812500", "173748.272500", "173748.732500", "173749.192500", "173749.652500", "173750.112500", "173750.572500", "173751.032500", "173751.492500", "173751.952500", "173752.412500", "173752.872500", "173753.332500", "173753.792500", "173754.252500", "173754.712500", "173755.172500", "173755.632500", "173756.092500", "173756.552500", "173757.012500", "173757.472500", "173757.932500", "173758.392500", "173758.852500", "173759.312500", "173759.772500", "173800.232500", "173800.692500", "173801.152500", "173801.612500", "173802.072500", "173802.532500", "173802.992500", "173803.452500", "173803.912500", "173804.372500", "173804.832500", "173805.292500", "173805.752500", "173806.212500", "173806.672500", "173807.132500", "173807.592500", "173808.052500", "173808.512500", "173808.972500", "173809.432500", "173809.892500", "173810.352500", "173810.812500", "173811.272500", "173811.732500", "173812.192500", "173812.652500", "173813.112500", "173813.572500", "173814.032500", "173814.492500", "173814.952500", "173815.412500", "173815.872500", "173816.332500", "173816.792500", "173817.252500", "173817.712500", "173818.172500", "173818.632500", "173819.092500", "173819.552500", "173820.012500", "173820.472500", "173820.932500", "173821.392500", "173821.852500", "173822.312500", "173822.772500", "173823.232500", "173823.692500", "173824.152500", "173824.612500", "173825.072500", "173825.532500", "173825.992500", "173826.452500", "173826.912500", "173827.372500", "173827.832500", "173828.292500", "173828.752500", "173829.212500"],
