{
  "AcquisitionMatrixPE": 82,
  "AcquisitionNumber": 1,
  "AcquisitionTime": "12:02:48.005000",
  "BandwidthPerPixelPhaseEncode": 24.888,
  "BaseResolution": 82,
  "BodyPartExamined": "BRAIN",
  "ConsistencyInfo": "N4_VE11E_LATEST_20181129",
  "ConversionSoftware": "dcm2niix",
  "ConversionSoftwareVersion": "v1.0.20201102",
  "DerivedVendorReportedEchoSpacing": 0.00049,
  "DeviceSerialNumber": "66112",
  "DwellTime": 2e-06,
  "EchoTime": 0.0272,
  "EchoTrainLength": 82,
  "EffectiveEchoSpacing": 0.00049,
  "FlipAngle": 44,
  "ImageComments": "Unaliased MB8/PE3",
  "ImageOrientationPatientDICOM": [0.999566, 0.0127449, -0.026576, -0.0102933, 0.99585, 0.0904241],
  "ImageType": [
    "ORIGINAL",
    "PRIMARY",
    "M",
    "MB",
    "ND",
    "NORM",
    "MOSAIC"
],
  "ImagingFrequency": 123.252,
  "InPlanePhaseEncodingDirectionDICOM": "COL",
  "InstitutionAddress": "Maynard 3,Hanover,NH,US,03755",
  "InstitutionName": "Dartmouth College - PBS",
  "InstitutionalDepartmentName": "Department",
  "MRAcquisitionType": "2D",
  "MagneticFieldStrength": 3,
  "Manufacturer": "Siemens",
  "ManufacturersModelName": "Prisma",
  "Modality": "MR",
  "MultibandAccelerationFactor": 8,
  "PartialFourier": 1,
  "PatientPosition": "HFS",
  "PercentPhaseFOV": 100,
  "PercentSampling": 100,
  "PhaseEncodingDirection": "j-",
  "PhaseEncodingSteps": 82,
  "PhaseResolution": 1,
  "PixelBandwidth": 3050,
  "ProcedureStepDescription": "Wager_Wager^1076_spacetop",
  "ProtocolName": "func_run-02_task-alignvideo_acq-ap-mb8",
  "PulseSequenceDetails": "%CustomerSeq%\\cmrr_mbep2d_bold",
  "ReceiveCoilActiveElements": "HEA;HEP",
  "ReceiveCoilName": "Head_32",
  "ReconMatrixPE": 82,
  "RepetitionTime": 0.46,
  "SAR": 0.0981749,
  "ScanOptions": "FS",
  "ScanningSequence": "EP",
  "SequenceName": "epfid2d1_82",
  "SequenceVariant": "SK\\SS",
  "SeriesDescription": "func_run-02_task-alignvideo_acq-ap-mb8",
  "SeriesNumber": 32,
  "ShimSetting": [4156, -7733, -7313, 773, 4, -44, -27, 94],
  "SliceThickness": 2.7,
  "SliceTiming": [0, 0.2525, 0.065, 0.315, 0.1275, 0.3775, 0.19, 0, 0.2525, 0.065, 0.315, 0.1275, 0.3775, 0.19, 0, 0.2525, 0.065, 0.315, 0.1275, 0.3775, 0.19, 0, 0.2525, 0.065, 0.315, 0.1275, 0.3775, 0.19, 0, 0.2525, 0.065, 0.315, 0.1275, 0.3775, 0.19, 0, 0.2525, 0.065, 0.315, 0.1275, 0.3775, 0.19, 0, 0.2525, 0.065, 0.315, 0.1275, 0.3775, 0.19, 0, 0.2525, 0.065, 0.315, 0.1275, 0.3775, 0.19],
  "SoftwareVersions": "syngo MR E11",
  "SpacingBetweenSlices": 2.7,
  "StationName": "AWP66112",
  "TaskName": "alignvideo",
  "TotalReadoutTime": 0.03969,
  "TxRefAmp": 241.281,
  "WipMemBlock": "605cbc61-6da7-4bf4-bf38-12adc49869a0||Sequence: R016 ve11e/master r/434b28f1; Aug  7 2019 18:53:46 by eja",
  "dcmmeta_affine": [
    [-2.6817612648010254, -0.02761627919971943, -0.07456903159618378, 113.71365356445312],
    [-0.03419354930520058, 2.671793222427368, 0.2433004081249237, -99.25140380859375],
    [-0.07130147516727448, -0.24260124564170837, 2.687981367111206, -60.59220886230469],
    [0.0, 0.0, 0.0, 1.0]
],
  "dcmmeta_reorient_transform": [
    [0.0, -1.0, 0.0, 81.0],
    [1.0, 0.0, 0.0, 0.0],
    [0.0, 0.0, 1.0, 0.0],
    [0.0, 0.0, 0.0, 1.0]
],
  "dcmmeta_shape": [82, 82, 56, 926],
  "dcmmeta_slice_dim": 2,
  "dcmmeta_version": 0.6,
  "global": {
    "const": {
      "AccessionNumber": "A004052",
      "AcquisitionMatrix": [82, 0, 0, 82],
      "AngioFlag": "N",
      "BitsAllocated": 16,
      "BitsStored": 16,
      "BodyPartExamined": "BRAIN",
      "Columns": 656,
      "EchoNumbers": 1,
      "EchoTime": 27.2,
      "EchoTrainLength": 82,
      "FlipAngle": 44.0,
      "HighBit": 15,
      "ImageOrientationPatient": [0.9995655478375, 0.01274486838207, -0.0265760024504, -0.0102933399802, 0.99585015396314, 0.09042410078977],
      "ImagePositionPatient": [-873.21635035042, -893.78202652136, -129.40594762922],
      "ImageType": [
        "ORIGINAL",
        "PRIMARY",
        "M",
        "MB",
        "ND",
        "NORM",
        "MOSAIC"
],
      "ImagedNucleus": "1H",
      "ImagingFrequency": 123.252241,
      "InPlanePhaseEncodingDirection": "COL",
      "MRAcquisitionType": "2D",
      "MagneticFieldStrength": 3.0,
      "Manufacturer": "SIEMENS",
      "ManufacturerModelName": "Prisma",
      "Modality": "MR",
      "NumberOfAverages": 1.0,
      "NumberOfPhaseEncodingSteps": 82,
      "PercentPhaseFieldOfView": 100.0,
      "PercentSampling": 100.0,
      "PerformedProcedureStepStartTime": "102417.371000",
      "PhotometricInterpretation": "MONOCHROME2",
      "PixelBandwidth": 3050.0,
      "PixelRepresentation": 0,
      "PixelSpacing": [2.6829268932343, 2.6829268932343],
      "ProtocolName": "func_run-02_task-alignvideo_acq-ap-mb8",
      "RepetitionTime": 460.0,
      "Rows": 656,
      "SAR": 0.09817489968963,
      "SamplesPerPixel": 1,
      "ScanOptions": "FS",
      "ScanningSequence": "EP",
      "SequenceName": "epfid2d1_82",
      "SequenceVariant": [
        "SK",
        "SS"
],
      "SeriesDescription": "func_run-02_task-alignvideo_acq-ap-mb8",
      "SeriesNumber": 32,
      "SeriesTime": "120317.688000",
      "SliceLocation": -72.40672565753,
      "SliceThickness": 2.7000000476837,
      "SmallestImagePixelValue": 0,
      "SoftwareVersions": "syngo MR E11",
      "SpacingBetweenSlices": 2.7000000173622,
      "SpecificCharacterSet": "ISO_IR 100",
      "StudyID": "4",
      "StudyTime": "102417.319000",
      "TransmitCoilName": "Body",
      "VariableFlipAngleFlag": "N",
      "WindowCenterWidthExplanation": "Algo1"
    },
    "slices": {}
  },
  "time": {
    "samples": {
      "AcquisitionNumber": [1, 2, 3, 4, 5, 6, 7, 8, 9, 10, 11, 12, 13, 14, 15, 16, 17, 18, 19, 20, 21, 22, 23, 24, 25, 26, 27, 28, 29, 30, 31, 32, 33, 34, 35, 36, 37, 38, 39, 40, 41, 42, 43, 44, 45, 46, 47, 48, 49, 50, 51, 52, 53, 54, 55, 56, 57, 58, 59, 60, 61, 62, 63, 64, 65, 66, 67, 68, 69, 70, 71, 72, 73, 74, 75, 76, 77, 78, 79, 80, 81, 82, 83, 84, 85, 86, 87, 88, 89, 90, 91, 92, 93, 94, 95, 96, 97, 98, 99, 100, 101, 102, 103, 104, 105, 106, 107, 108, 109, 110, 111, 112, 113, 114, 115, 116, 117, 118, 119, 120, 121, 122, 123, 124, 125, 126, 127, 128, 129, 130, 131, 132, 133, 134, 135, 136, 137, 138, 139, 140, 141, 142, 143, 144, 145, 146, 147, 148, 149, 150, 151, 152, 153, 154, 155, 156, 157, 158, 159, 160, 161, 162, 163, 164, 165, 166, 167, 168, 169, 170, 171, 172, 173, 174, 175, 176, 177, 178, 179, 180, 181, 182, 183, 184, 185, 186, 187, 188, 189, 190, 191, 192, 193, 194, 195, 196, 197, 198, 199, 200, 201, 202, 203, 204, 205, 206, 207, 208, 209, 210, 211, 212, 213, 214, 215, 216, 217, 218, 219, 220, 221, 222, 223, 224, 225, 226, 227, 228, 229, 230, 231, 232, 233, 234, 235, 236, 237, 238, 239, 240, 241, 242, 243, 244, 245, 246, 247, 248, 249, 250, 251, 252, 253, 254, 255, 256, 257, 258, 259, 260, 261, 262, 263, 264, 265, 266, 267, 268, 269, 270, 271, 272, 273, 274, 275, 276, 277, 278, 279, 280, 281, 282, 283, 284, 285, 286, 287, 288, 289, 290, 291, 292, 293, 294, 295, 296, 297, 298, 299, 300, 301, 302, 303, 304, 305, 306, 307, 308, 309, 310, 311, 312, 313, 314, 315, 316, 317, 318, 319, 320, 321, 322, 323, 324, 325, 326, 327, 328, 329, 330, 331, 332, 333, 334, 335, 336, 337, 338, 339, 340, 341, 342, 343, 344, 345, 346, 347, 348, 349, 350, 351, 352, 353, 354, 355, 356, 357, 358, 359, 360, 361, 362, 363, 364, 365, 366, 367, 368, 369, 370, 371, 372, 373, 374, 375, 376, 377, 378, 379, 380, 381, 382, 383, 384, 385, 386, 387, 388, 389, 390, 391, 392, 393, 394, 395, 396, 397, 398, 399, 400, 401, 402, 403, 404, 405, 406, 407, 408, 409, 410, 411, 412, 413, 414, 415, 416, 417, 418, 419, 420, 421, 422, 423, 424, 425, 426, 427, 428, 429, 430, 431, 432, 433, 434, 435, 436, 437, 438, 439, 440, 441, 442, 443, 444, 445, 446, 447, 448, 449, 450, 451, 452, 453, 454, 455, 456, 457, 458, 459, 460, 461, 462, 463, 464, 465, 466, 467, 468, 469, 470, 471, 472, 473, 474, 475, 476, 477, 478, 479, 480, 481, 482, 483, 484, 485, 486, 487, 488, 489, 490, 491, 492, 493, 494, 495, 496, 497, 498, 499, 500, 501, 502, 503, 504, 505, 506, 507, 508, 509, 510, 511, 512, 513, 514, 515, 516, 517, 518, 519, 520, 521, 522, 523, 524, 525, 526, 527, 528, 529, 530, 531, 532, 533, 534, 535, 536, 537, 538, 539, 540, 541, 542, 543, 544, 545, 546, 547, 548, 549, 550, 551, 552, 553, 554, 555, 556, 557, 558, 559, 560, 561, 562, 563, 564, 565, 566, 567, 568, 569, 570, 571, 572, 573, 574, 575, 576, 577, 578, 579, 580, 581, 582, 583, 584, 585, 586, 587, 588, 589, 590, 591, 592, 593, 594, 595, 596, 597, 598, 599, 600, 601, 602, 603, 604, 605, 606, 607, 608, 609, 610, 611, 612, 613, 614, 615, 616, 617, 618, 619, 620, 621, 622, 623, 624, 625, 626, 627, 628, 629, 630, 631, 632, 633, 634, 635, 636, 637, 638, 639, 640, 641, 642, 643, 644, 645, 646, 647, 648, 649, 650, 651, 652, 653, 654, 655, 656, 657, 658, 659, 660, 661, 662, 663, 664, 665, 666, 667, 668, 669, 670, 671, 672, 673, 674, 675, 676, 677, 678, 679, 680, 681, 682, 683, 684, 685, 686, 687, 688, 689, 690, 691, 692, 693, 694, 695, 696, 697, 698, 699, 700, 701, 702, 703, 704, 705, 706, 707, 708, 709, 710, 711, 712, 713, 714, 715, 716, 717, 718, 719, 720, 721, 722, 723, 724, 725, 726, 727, 728, 729, 730, 731, 732, 733, 734, 735, 736, 737, 738, 739, 740, 741, 742, 743, 744, 745, 746, 747, 748, 749, 750, 751, 752, 753, 754, 755, 756, 757, 758, 759, 760, 761, 762, 763, 764, 765, 766, 767, 768, 769, 770, 771, 772, 773, 774, 775, 776, 777, 778, 779, 780, 781, 782, 783, 784, 785, 786, 787, 788, 789, 790, 791, 792, 793, 794, 795, 796, 797, 798, 799, 800, 801, 802, 803, 804, 805, 806, 807, 808, 809, 810, 811, 812, 813, 814, 815, 816, 817, 818, 819, 820, 821, 822, 823, 824, 825, 826, 827, 828, 829, 830, 831, 832, 833, 834, 835, 836, 837, 838, 839, 840, 841, 842, 843, 844, 845, 846, 847, 848, 849, 850, 851, 852, 853, 854, 855, 856, 857, 858, 859, 860, 861, 862, 863, 864, 865, 866, 867, 868, 869, 870, 871, 872, 873, 874, 875, 876, 877, 878, 879, 880, 881, 882, 883, 884, 885, 886, 887, 888, 889, 890, 891, 892, 893, 894, 895, 896, 897, 898, 899, 900, 901, 902, 903, 904, 905, 906, 907, 908, 909, 910, 911, 912, 913, 914, 915, 916, 917, 918, 919, 920, 921, 922, 923, 924, 925, 926],
      "AcquisitionTime": ["120248.005000", "120248.465000", "120248.925000", "120249.385000", "120249.845000", "120250.305000", "120250.765000", "120251.225000", "120251.685000", "120252.145000", "120252.605000", "120253.065000", "120253.525000", "120253.985000", "120254.445000", "120254.905000", "120255.365000", "120255.825000", "120256.285000", "120256.745000", "120257.205000", "120257.665000", "120258.125000", "120258.585000", "120259.045000", "120259.505000", "120259.965000", "120300.425000", "120300.885000", "120301.345000", "120301.805000", "120302.265000", "120302.725000", "120303.185000", "120303.645000", "120304.105000", "120304.565000", "120305.025000", "120305.485000", "120305.945000", "120306.405000", "120306.865000", "120307.325000", "120307.785000", "120308.245000", "120308.705000", "120309.165000", "120309.625000", "120310.085000", "120310.545000", "120311.005000", "120311.465000", "120311.925000", "120312.385000", "120312.845000", "120313.305000", "120313.765000", "120314.225000", "120314.685000", "120315.145000", "120315.605000", "120316.065000", "120316.525000", "120316.985000", "120317.445000", "120317.905000", "120318.365000", "120318.825000", "120319.285000", "120319.745000", "120320.205000", "120320.665000", "120321.125000", "120321.585000", "120322.045000", "120322.505000", "120322.965000", "120323.425000", "120323.885000", "120324.345000", "120324.805000", "120325.265000", "120325.725000", "120326.185000", "120326.645000", "120327.105000", "120327.565000", "120328.025000", "120328.485000", "120328.945000", "120329.405000", "120329.865000", "120330.325000", "120330.785000", "120331.245000", "120331.705000", "120332.165000", "120332.625000", "120333.085000", "120333.545000", "120334.005000", "120334.465000", "120334.925000", "120335.385000", "120335.845000", "120336.305000", "120336.765000", "120337.225000", "120337.685000", "120338.145000", "120338.605000", "120339.065000", "120339.525000", "120339.985000", "120340.445000", "120340.905000", "120341.365000", "120341.825000", "120342.285000", "120342.745000", "120343.205000", "120343.665000", "120344.125000", "120344.585000", "120345.045000", "120345.505000", "120345.965000", "120346.425000", "120346.885000", "120347.345000", "120347.805000", "120348.265000", "120348.725000", "120349.185000", "120349.645000", "120350.105000", "120350.565000", "120351.025000", "120351.485000", "120351.945000", "120352.405000", "120352.865000", "120353.325000", "120353.785000", "120354.245000", "120354.705000", "120355.165000", "120355.625000", "120356.085000", "120356.545000", "120357.005000", "120357.465000", "120357.925000", "120358.385000", "120358.845000", "120359.305000", "120359.765000", "120400.225000", "120400.685000", "120401.145000", "120401.605000", "120402.065000", "120402.525000", "120402.985000", "120403.445000", "120403.905000", "120404.365000", "120404.825000", "120405.285000", "120405.745000", "120406.205000", "120406.665000", "120407.125000", "120407.585000", "120408.045000", "120408.505000", "120408.965000", "120409.425000", "120409.885000", "120410.345000", "120410.805000", "120411.265000", "120411.725000", "120412.185000", "120412.645000", "120413.105000", "120413.565000", "120414.025000", "120414.485000", "120414.945000", "120415.405000", "120415.865000", "120416.325000", "120416.785000", "120417.245000", "120417.705000", "120418.165000", "120418.625000", "120419.085000", "120419.545000", "120420.005000", "120420.465000", "120420.925000", "120421.385000", "120421.845000", "120422.305000", "120422.765000", "120423.225000", "120423.685000", "120424.145000", "120424.605000", "120425.065000", "120425.525000", "120425.985000", "120426.445000", "120426.905000", "120427.365000", "120427.825000", "120428.285000", "120428.745000", "120429.205000", "120429.665000", "120430.125000", "120430.585000", "120431.045000", "120431.505000", "120431.965000", "120432.425000", "120432.885000", "120433.345000", "120433.805000", "120434.265000", "120434.725000", "120435.185000", "120435.645000", "120436.105000", "120436.565000", "120437.025000", "120437.485000", "120437.945000", "120438.405000", "120438.865000", "120439.325000", "120439.785000", "120440.245000", "120440.705000", "120441.165000", "120441.625000", "120442.085000", "120442.545000", "120443.005000", "120443.465000", "120443.925000", "120444.385000", "120444.845000", "120445.305000", "120445.765000", "120446.225000", "120446.685000", "120447.145000", "120447.605000", "120448.065000", "120448.525000", "120448.985000", "120449.445000", "120449.905000", "120450.365000", "120450.825000", "120451.285000", "120451.745000", "120452.205000", "120452.665000", "120453.125000", "120453.585000", "120454.045000", "120454.505000", "120454.965000", "120455.425000", "120455.885000", "120456.345000", "120456.805000", "120457.265000", "120457.725000", "120458.185000", "120458.645000", "120459.105000", "120459.565000", "120500.025000", "120500.485000", "120500.945000", "120501.405000", "120501.865000", "120502.325000", "120502.785000", "120503.245000", "120503.705000", "120504.165000", "120504.625000", "120505.085000", "120505.545000", "120506.005000", "120506.465000", "120506.925000", "120507.385000", "120507.845000", "120508.305000", "120508.765000", "120509.225000", "120509.685000", "120510.145000", "120510.605000", "120511.065000", "120511.525000", "120511.985000", "120512.445000", "120512.905000", "120513.365000", "120513.825000", "120514.285000", "120514.745000", "120515.205000", "120515.665000", "120516.125000", "120516.585000", "120517.045000", "120517.505000", "120517.965000", "120518.425000", "120518.885000", "120519.345000", "120519.805000", "120520.265000", "120520.725000", "120521.185000", "120521.645000", "120522.105000", "120522.565000", "120523.025000", "120523.485000", "120523.945000", "120524.405000", "120524.865000", "120525.325000", "120525.785000", "120526.245000", "120526.705000", "120527.165000", "120527.625000", "120528.085000", "120528.545000", "120529.005000", "120529.465000", "120529.925000", "120530.385000", "120530.845000", "120531.305000", "120531.765000", "120532.225000", "120532.685000", "120533.145000", "120533.605000", "120534.065000", "120534.525000", "120534.985000", "120535.445000", "120535.905000", "120536.365000", "120536.825000", "120537.285000", "120537.745000", "120538.205000", "120538.665000", "120539.125000", "120539.585000", "120540.045000", "120540.505000", "120540.965000", "120541.425000", "120541.885000", "120542.345000", "120542.805000", "120543.265000", "120543.725000", "120544.185000", "120544.645000", "120545.105000", "120545.565000", "120546.025000", "120546.485000", "120546.945000", "120547.405000", "120547.865000", "120548.325000", "120548.785000", "120549.245000", "120549.705000", "120550.165000", "120550.625000", "120551.085000", "120551.545000", "120552.005000", "120552.465000", "120552.925000", "120553.385000", "120553.845000", "120554.305000", "120554.765000", "120555.225000", "120555.685000", "120556.145000", "120556.605000", "120557.065000", "120557.525000", "120557.985000", "120558.445000", "120558.905000", "120559.365000", "120559.825000", "120600.285000", "120600.745000", "120601.205000", "120601.665000", "120602.125000", "120602.585000", "120603.045000", "120603.505000", "120603.965000", "120604.425000", "120604.885000", "120605.345000", "120605.805000", "120606.265000", "120606.725000", "120607.185000", "120607.645000", "120608.105000", "120608.565000", "120609.025000", "120609.485000", "120609.945000", "120610.405000", "120610.865000", "120611.325000", "120611.785000", "120612.245000", "120612.705000", "120613.165000", "120613.625000", "120614.085000", "120614.545000", "120615.005000", "120615.465000", "120615.925000", "120616.385000", "120616.845000", "120617.305000", "120617.765000", "120618.225000", "120618.685000", "120619.145000", "120619.605000", "120620.065000", "120620.525000", "120620.985000", "120621.445000", "120621.905000", "120622.365000", "120622.825000", "120623.285000", "120623.745000", "120624.205000", "120624.665000", "120625.125000", "120625.585000", "120626.045000", "120626.505000", "120626.965000", "120627.425000", "120627.885000", "120628.345000", "120628.805000", "120629.265000", "120629.725000", "120630.185000", "120630.645000", "120631.105000", "120631.565000", "120632.025000", "120632.485000", "120632.945000", "120633.405000", "120633.865000", "120634.325000", "120634.785000", "120635.245000", "120635.705000", "120636.165000", "120636.625000", "120637.085000", "120637.545000", "120638.005000", "120638.465000", "120638.925000", "120639.385000", "120639.845000", "120640.305000", "120640.765000", "120641.225000", "120641.685000", "120642.145000", "120642.605000", "120643.065000", "120643.525000", "120643.985000", "120644.445000", "120644.905000", "120645.365000", "120645.825000", "120646.285000", "120646.745000", "120647.205000", "120647.665000", "120648.125000", "120648.585000", "120649.045000", "120649.505000", "120649.965000", "120650.425000", "120650.885000", "120651.345000", "120651.805000", "120652.265000", "120652.725000", "120653.185000", "120653.645000", "120654.105000", "120654.565000", "120655.025000", "120655.485000", "120655.945000", "120656.405000", "120656.865000", "120657.325000", "120657.785000", "120658.245000", "120658.705000", "120659.165000", "120659.625000", "120700.085000", "120700.545000", "120701.005000", "120701.465000", "120701.925000", "120702.385000", "120702.845000", "120703.305000", "120703.765000", "120704.225000", "120704.685000", "120705.145000", "120705.605000", "120706.065000", "120706.525000", "120706.985000", "120707.445000", "120707.905000", "120708.365000", "120708.825000", "120709.285000", "120709.745000", "120710.205000", "120710.665000", "120711.125000", "120711.585000", "120712.045000", "120712.505000", "120712.965000", "120713.425000", "120713.885000", "120714.345000", "120714.805000", "120715.265000", "120715.725000", "120716.185000", "120716.645000", "120717.105000", "120717.565000", "120718.025000", "120718.485000", "120718.945000", "120719.405000", "120719.865000", "120720.325000", "120720.785000", "120721.245000", "120721.705000", "120722.165000", "120722.625000", "120723.085000", "120723.545000", "120724.005000", "120724.465000", "120724.925000", "120725.385000", "120725.845000", "120726.305000", "120726.765000", "120727.225000", "120727.685000", "120728.145000", "120728.605000", "120729.065000", "120729.525000", "120729.985000", "120730.445000", "120730.905000", "120731.365000", "120731.825000", "120732.285000", "120732.745000", "120733.205000", "120733.665000", "120734.125000", "120734.585000", "120735.045000", "120735.505000", "120735.965000", "120736.425000", "120736.885000", "120737.345000", "120737.805000", "120738.265000", "120738.725000", "120739.185000", "120739.645000", "120740.105000", "120740.565000", "120741.025000", "120741.485000", "120741.945000", "120742.405000", "120742.865000", "120743.325000", "120743.785000", "120744.245000", "120744.705000", "120745.165000", "120745.625000", "120746.085000", "120746.545000", "120747.005000", "120747.465000", "120747.925000", "120748.385000", "120748.845000", "120749.305000", "120749.765000", "120750.225000", "120750.685000", "120751.145000", "120751.605000", "120752.065000", "120752.525000", "120752.985000", "120753.445000", "120753.905000", "120754.365000", "120754.825000", "120755.285000", "120755.745000", "120756.205000", "120756.665000", "120757.125000", "120757.585000", "120758.045000", "120758.505000", "120758.965000", "120759.425000", "120759.885000", "120800.345000", "120800.805000", "120801.265000", "120801.725000", "120802.185000", "120802.645000", "120803.105000", "120803.565000", "120804.025000", "120804.485000", "120804.945000", "120805.405000", "120805.865000", "120806.325000", "120806.785000", "120807.245000", "120807.705000", "120808.165000", "120808.625000", "120809.085000", "120809.545000", "120810.005000", "120810.465000", "120810.925000", "120811.385000", "120811.845000", "120812.305000", "120812.765000", "120813.225000", "120813.685000", "120814.145000", "120814.605000", "120815.065000", "120815.525000", "120815.985000", "120816.445000", "120816.905000", "120817.365000", "120817.825000", "120818.285000", "120818.745000", "120819.205000", "120819.665000", "120820.125000", "120820.585000", "120821.045000", "120821.505000", "120821.965000", "120822.425000", "120822.885000", "120823.345000", "120823.805000", "120824.265000", "120824.725000", "120825.185000", "120825.645000", "120826.105000", "120826.565000", "120827.025000", "120827.485000", "120827.945000", "120828.405000", "120828.865000", "120829.325000", "120829.785000", "120830.245000", "120830.705000", "120831.165000", "120831.625000", "120832.085000", "120832.545000", "120833.005000", "120833.465000", "120833.925000", "120834.385000", "120834.845000", "120835.305000", "120835.765000", "120836.225000", "120836.685000", "120837.145000", "120837.605000", "120838.065000", "120838.525000", "120838.985000", "120839.445000", "120839.905000", "120840.365000", "120840.825000", "120841.285000", "120841.745000", "120842.205000", "120842.665000", "120843.125000", "120843.585000", "120844.045000", "120844.505000", "120844.965000", "120845.425000", "120845.885000", "120846.345000", "120846.805000", "120847.265000", "120847.725000", "120848.185000", "120848.645000", "120849.105000", "120849.565000", "120850.025000", "120850.485000", "120850.945000", "120851.405000", "120851.865000", "120852.325000", "120852.785000", "120853.245000", "120853.705000", "120854.165000", "120854.625000", "120855.085000", "120855.545000", "120856.005000", "120856.465000", "120856.925000", "120857.385000", "120857.845000", "120858.305000", "120858.765000", "120859.225000", "120859.685000", "120900.145000", "120900.605000", "120901.065000", "120901.525000", "120901.985000", "120902.445000", "120902.905000", "120903.365000", "120903.825000", "120904.285000", "120904.745000", "120905.205000", "120905.665000", "120906.125000", "120906.585000", "120907.045000", "120907.505000", "120907.965000", "120908.425000", "120908.885000", "120909.345000", "120909.805000", "120910.265000", "120910.725000", "120911.185000", "120911.645000", "120912.105000", "120912.565000", "120913.025000", "120913.485000", "120913.945000", "120914.405000", "120914.865000", "120915.325000", "120915.785000", "120916.245000", "120916.705000", "120917.165000", "120917.625000", "120918.085000", "120918.545000", "120919.005000", "120919.465000", "120919.925000", "120920.385000", "120920.845000", "120921.305000", "120921.765000", "120922.225000", "120922.685000", "120923.145000", "120923.605000", "120924.065000", "120924.525000", "120924.985000", "120925.445000", "120925.905000", "120926.365000", "120926.825000", "120927.285000", "120927.745000", "120928.205000", "120928.665000", "120929.125000", "120929.585000", "120930.045000", "120930.505000", "120930.965000", "120931.425000", "120931.885000", "120932.345000", "120932.805000", "120933.265000", "120933.725000", "120934.185000", "120934.645000", "120935.105000", "120935.565000", "120936.025000", "120936.485000", "120936.945000", "120937.405000", "120937.865000", "120938.325000", "120938.785000", "120939.245000", "120939.705000", "120940.165000", "120940.625000", "120941.085000", "120941.545000", "120942.005000", "120942.465000", "120942.925000", "120943.385000", "120943.845000", "120944.305000", "120944.765000", "120945.225000", "120945.685000", "120946.145000", "120946.605000", "120947.065000", "120947.525000", "120947.985000", "120948.445000", "120948.905000", "120949.365000", "120949.825000", "120950.285000", "120950.745000", "120951.205000", "120951.665000", "120952.125000", "120952.585000", "120953.045000", "120953.505000"],
