{
  "AcquisitionMatrixPE": 82,
  "AcquisitionNumber": 1,
  "AcquisitionTime": "11:36:25.480000",
  "BandwidthPerPixelPhaseEncode": 24.888,
  "BaseResolution": 82,
  "BodyPartExamined": "BRAIN",
  "ConsistencyInfo": "N4_VE11E_LATEST_20181129",
  "ConversionSoftware": "dcm2niix",
  "ConversionSoftwareVersion": "v1.0.20201102",
  "DerivedVendorReportedEchoSpacing": 0.00049,
  "DeviceSerialNumber": "66112",
  "DwellTime": 2e-06,
  "EchoTime": 0.0272,
  "EchoTrainLength": 82,
  "EffectiveEchoSpacing": 0.00049,
  "FlipAngle": 44,
  "ImageComments": "Unaliased MB8/PE3",
  "ImageOrientationPatientDICOM": [0.99932, 0.0138227, -0.0341878, -0.0101164, 0.994283, 0.1063],
  "ImageType": [
    "ORIGINAL",
    "PRIMARY",
    "M",
    "MB",
    "ND",
    "NORM",
    "MOSAIC"
],
  "ImagingFrequency": 123.252,
  "InPlanePhaseEncodingDirectionDICOM": "COL",
  "InstitutionAddress": "Maynard 3,Hanover,NH,US,03755",
  "InstitutionName": "Dartmouth College - PBS",
  "InstitutionalDepartmentName": "Department",
  "MRAcquisitionType": "2D",
  "MagneticFieldStrength": 3,
  "Manufacturer": "Siemens",
  "ManufacturersModelName": "Prisma",
  "Modality": "MR",
  "MultibandAccelerationFactor": 8,
  "PartialFourier": 1,
  "PatientPosition": "HFS",
  "PercentPhaseFOV": 100,
  "PercentSampling": 100,
  "PhaseEncodingDirection": "j-",
  "PhaseEncodingSteps": 82,
  "PhaseResolution": 1,
  "PixelBandwidth": 3050,
  "ProcedureStepDescription": "Wager_Wager^1076_spacetop",
  "ProtocolName": "func_run-05_task-social_acq-ap-mb8",
  "PulseSequenceDetails": "%CustomerSeq%\\cmrr_mbep2d_bold",
  "ReceiveCoilActiveElements": "HEA;HEP",
  "ReceiveCoilName": "Head_32",
  "ReconMatrixPE": 82,
  "RepetitionTime": 0.46,
  "SAR": 0.0981394,
  "ScanOptions": "FS",
  "ScanningSequence": "EP",
  "SequenceName": "epfid2d1_82",
  "SequenceVariant": "SK\\SS",
  "SeriesDescription": "func_run-05_task-social_acq-ap-mb8",
  "SeriesNumber": 20,
  "ShimSetting": [4156, -7734, -7313, 767, 3, -53, -25, 93],
  "SliceThickness": 2.7,
  "SliceTiming": [0, 0.2525, 0.0625, 0.315, 0.125, 0.3775, 0.1875, 0, 0.2525, 0.0625, 0.315, 0.125, 0.3775, 0.1875, 0, 0.2525, 0.0625, 0.315, 0.125, 0.3775, 0.1875, 0, 0.2525, 0.0625, 0.315, 0.125, 0.3775, 0.1875, 0, 0.2525, 0.0625, 0.315, 0.125, 0.3775, 0.1875, 0, 0.2525, 0.0625, 0.315, 0.125, 0.3775, 0.1875, 0, 0.2525, 0.0625, 0.315, 0.125, 0.3775, 0.1875, 0, 0.2525, 0.0625, 0.315, 0.125, 0.3775, 0.1875],
  "SoftwareVersions": "syngo MR E11",
  "SpacingBetweenSlices": 2.7,
  "StationName": "AWP66112",
  "TaskName": "social",
  "TotalReadoutTime": 0.03969,
  "TxRefAmp": 241.281,
  "WipMemBlock": "8392e361-4c2b-42fd-93ec-4c59cb19f7cf||Sequence: R016 ve11e/master r/434b28f1; Aug  7 2019 18:53:46 by eja",
  "dcmmeta_affine": [
    [-2.6811020374298096, -0.027141498401761055, -0.0957464873790741, 114.12370300292969],
    [-0.037085242569446564, 2.6675877571105957, 0.2858806252479553, -99.89689636230469],
    [-0.09172330796718597, -0.2851947844028473, 2.683114767074585, -59.92231369018555],
    [0.0, 0.0, 0.0, 1.0]
],
  "dcmmeta_reorient_transform": [
    [0.0, -1.0, 0.0, 81.0],
    [1.0, 0.0, 0.0, 0.0],
    [0.0, 0.0, 1.0, 0.0],
    [0.0, 0.0, 0.0, 1.0]
],
  "dcmmeta_shape": [82, 82, 56, 872],
  "dcmmeta_slice_dim": 2,
  "dcmmeta_version": 0.6,
  "global": {
    "const": {
      "AccessionNumber": "A004052",
      "AcquisitionMatrix": [82, 0, 0, 82],
      "AngioFlag": "N",
      "BitsAllocated": 16,
      "BitsStored": 16,
      "BodyPartExamined": "BRAIN",
      "Columns": 656,
      "EchoNumbers": 1,
      "EchoTime": 27.2,
      "EchoTrainLength": 82,
      "FlipAngle": 44.0,
      "HighBit": 15,
      "ImageOrientationPatient": [0.99931983337396, 0.01382268111886, -0.0341877772329, -0.0101163764547, 0.99428265377173, 0.10629987458169],
      "ImagePositionPatient": [-873.61192304609, -892.41882911678, -138.54940645725],
      "ImageType": [
        "ORIGINAL",
        "PRIMARY",
        "M",
        "MB",
        "ND",
        "NORM",
        "MOSAIC"
],
      "ImagedNucleus": "1H",
      "ImagingFrequency": 123.252238,
      "InPlanePhaseEncodingDirection": "COL",
      "MRAcquisitionType": "2D",
      "MagneticFieldStrength": 3.0,
      "Manufacturer": "SIEMENS",
      "ManufacturerModelName": "Prisma",
      "Modality": "MR",
      "NumberOfAverages": 1.0,
      "NumberOfPhaseEncodingSteps": 82,
      "PercentPhaseFieldOfView": 100.0,
      "PercentSampling": 100.0,
      "PerformedProcedureStepStartTime": "102417.371000",
      "PhotometricInterpretation": "MONOCHROME2",
      "PixelBandwidth": 3050.0,
      "PixelRepresentation": 0,
      "PixelSpacing": [2.6829268932343, 2.6829268932343],
      "ProtocolName": "func_run-05_task-social_acq-ap-mb8",
      "RepetitionTime": 460.0,
      "Rows": 656,
      "SAR": 0.09813935457683,
      "SamplesPerPixel": 1,
      "ScanOptions": "FS",
      "ScanningSequence": "EP",
      "SequenceName": "epfid2d1_82",
      "SequenceVariant": [
        "SK",
        "SS"
],
      "SeriesDescription": "func_run-05_task-social_acq-ap-mb8",
      "SeriesNumber": 20,
      "SeriesTime": "113637.718000",
      "SliceLocation": -74.171841992425,
      "SliceThickness": 2.7000000476837,
      "SmallestImagePixelValue": 0,
      "SoftwareVersions": "syngo MR E11",
      "SpacingBetweenSlices": 2.6999999925431,
      "SpecificCharacterSet": "ISO_IR 100",
      "StudyID": "4",
      "StudyTime": "102417.319000",
      "TransmitCoilName": "Body",
      "VariableFlipAngleFlag": "N",
      "WindowCenterWidthExplanation": "Algo1"
    },
    "slices": {}
  },
  "time": {
    "samples": {
      "AcquisitionNumber": [1, 2, 3, 4, 5, 6, 7, 8, 9, 10, 11, 12, 13, 14, 15, 16, 17, 18, 19, 20, 21, 22, 23, 24, 25, 26, 27, 28, 29, 30, 31, 32, 33, 34, 35, 36, 37, 38, 39, 40, 41, 42, 43, 44, 45, 46, 47, 48, 49, 50, 51, 52, 53, 54, 55, 56, 57, 58, 59, 60, 61, 62, 63, 64, 65, 66, 67, 68, 69, 70, 71, 72, 73, 74, 75, 76, 77, 78, 79, 80, 81, 82, 83, 84, 85, 86, 87, 88, 89, 90, 91, 92, 93, 94, 95, 96, 97, 98, 99, 100, 101, 102, 103, 104, 105, 106, 107, 108, 109, 110, 111, 112, 113, 114, 115, 116, 117, 118, 119, 120, 121, 122, 123, 124, 125, 126, 127, 128, 129, 130, 131, 132, 133, 134, 135, 136, 137, 138, 139, 140, 141, 142, 143, 144, 145, 146, 147, 148, 149, 150, 151, 152, 153, 154, 155, 156, 157, 158, 159, 160, 161, 162, 163, 164, 165, 166, 167, 168, 169, 170, 171, 172, 173, 174, 175, 176, 177, 178, 179, 180, 181, 182, 183, 184, 185, 186, 187, 188, 189, 190, 191, 192, 193, 194, 195, 196, 197, 198, 199, 200, 201, 202, 203, 204, 205, 206, 207, 208, 209, 210, 211, 212, 213, 214, 215, 216, 217, 218, 219, 220, 221, 222, 223, 224, 225, 226, 227, 228, 229, 230, 231, 232, 233, 234, 235, 236, 237, 238, 239, 240, 241, 242, 243, 244, 245, 246, 247, 248, 249, 250, 251, 252, 253, 254, 255, 256, 257, 258, 259, 260, 261, 262, 263, 264, 265, 266, 267, 268, 269, 270, 271, 272, 273, 274, 275, 276, 277, 278, 279, 280, 281, 282, 283, 284, 285, 286, 287, 288, 289, 290, 291, 292, 293, 294, 295, 296, 297, 298, 299, 300, 301, 302, 303, 304, 305, 306, 307, 308, 309, 310, 311, 312, 313, 314, 315, 316, 317, 318, 319, 320, 321, 322, 323, 324, 325, 326, 327, 328, 329, 330, 331, 332, 333, 334, 335, 336, 337, 338, 339, 340, 341, 342, 343, 344, 345, 346, 347, 348, 349, 350, 351, 352, 353, 354, 355, 356, 357, 358, 359, 360, 361, 362, 363, 364, 365, 366, 367, 368, 369, 370, 371, 372, 373, 374, 375, 376, 377, 378, 379, 380, 381, 382, 383, 384, 385, 386, 387, 388, 389, 390, 391, 392, 393, 394, 395, 396, 397, 398, 399, 400, 401, 402, 403, 404, 405, 406, 407, 408, 409, 410, 411, 412, 413, 414, 415, 416, 417, 418, 419, 420, 421, 422, 423, 424, 425, 426, 427, 428, 429, 430, 431, 432, 433, 434, 435, 436, 437, 438, 439, 440, 441, 442, 443, 444, 445, 446, 447, 448, 449, 450, 451, 452, 453, 454, 455, 456, 457, 458, 459, 460, 461, 462, 463, 464, 465, 466, 467, 468, 469, 470, 471, 472, 473, 474, 475, 476, 477, 478, 479, 480, 481, 482, 483, 484, 485, 486, 487, 488, 489, 490, 491, 492, 493, 494, 495, 496, 497, 498, 499, 500, 501, 502, 503, 504, 505, 506, 507, 508, 509, 510, 511, 512, 513, 514, 515, 516, 517, 518, 519, 520, 521, 522, 523, 524, 525, 526, 527, 528, 529, 530, 531, 532, 533, 534, 535, 536, 537, 538, 539, 540, 541, 542, 543, 544, 545, 546, 547, 548, 549, 550, 551, 552, 553, 554, 555, 556, 557, 558, 559, 560, 561, 562, 563, 564, 565, 566, 567, 568, 569, 570, 571, 572, 573, 574, 575, 576, 577, 578, 579, 580, 581, 582, 583, 584, 585, 586, 587, 588, 589, 590, 591, 592, 593, 594, 595, 596, 597, 598, 599, 600, 601, 602, 603, 604, 605, 606, 607, 608, 609, 610, 611, 612, 613, 614, 615, 616, 617, 618, 619, 620, 621, 622, 623, 624, 625, 626, 627, 628, 629, 630, 631, 632, 633, 634, 635, 636, 637, 638, 639, 640, 641, 642, 643, 644, 645, 646, 647, 648, 649, 650, 651, 652, 653, 654, 655, 656, 657, 658, 659, 660, 661, 662, 663, 664, 665, 666, 667, 668, 669, 670, 671, 672, 673, 674, 675, 676, 677, 678, 679, 680, 681, 682, 683, 684, 685, 686, 687, 688, 689, 690, 691, 692, 693, 694, 695, 696, 697, 698, 699, 700, 701, 702, 703, 704, 705, 706, 707, 708, 709, 710, 711, 712, 713, 714, 715, 716, 717, 718, 719, 720, 721, 722, 723, 724, 725, 726, 727, 728, 729, 730, 731, 732, 733, 734, 735, 736, 737, 738, 739, 740, 741, 742, 743, 744, 745, 746, 747, 748, 749, 750, 751, 752, 753, 754, 755, 756, 757, 758, 759, 760, 761, 762, 763, 764, 765, 766, 767, 768, 769, 770, 771, 772, 773, 774, 775, 776, 777, 778, 779, 780, 781, 782, 783, 784, 785, 786, 787, 788, 789, 790, 791, 792, 793, 794, 795, 796, 797, 798, 799, 800, 801, 802, 803, 804, 805, 806, 807, 808, 809, 810, 811, 812, 813, 814, 815, 816, 817, 818, 819, 820, 821, 822, 823, 824, 825, 826, 827, 828, 829, 830, 831, 832, 833, 834, 835, 836, 837, 838, 839, 840, 841, 842, 843, 844, 845, 846, 847, 848, 849, 850, 851, 852, 853, 854, 855, 856, 857, 858, 859, 860, 861, 862, 863, 864, 865, 866, 867, 868, 869, 870, 871, 872],
      "AcquisitionTime": ["113625.480000", "113625.940000", "113626.400000", "113626.860000", "113627.320000", "113627.780000", "113628.240000", "113628.700000", "113629.160000", "113629.620000", "113630.080000", "113630.540000", "113631.000000", "113631.460000", "113631.920000", "113632.380000", "113632.840000", "113633.300000", "113633.760000", "113634.220000", "113634.680000", "113635.140000", "113635.600000", "113636.060000", "113636.520000", "113636.980000", "113637.440000", "113637.900000", "113638.360000", "113638.820000", "113639.280000", "113639.740000", "113640.200000", "113640.660000", "113641.120000", "113641.580000", "113642.040000", "113642.500000", "113642.960000", "113643.420000", "113643.880000", "113644.340000", "113644.800000", "113645.260000", "113645.720000", "113646.180000", "113646.640000", "113647.100000", "113647.560000", "113648.020000", "113648.480000", "113648.940000", "113649.400000", "113649.860000", "113650.320000", "113650.780000", "113651.240000", "113651.700000", "113652.160000", "113652.620000", "113653.080000", "113653.540000", "113654.000000", "113654.460000", "113654.920000", "113655.380000", "113655.840000", "113656.300000", "113656.760000", "113657.220000", "113657.680000", "113658.140000", "113658.600000", "113659.060000", "113659.520000", "113659.980000", "113700.440000", "113700.900000", "113701.360000", "113701.820000", "113702.280000", "113702.740000", "113703.200000", "113703.660000", "113704.120000", "113704.580000", "113705.040000", "113705.500000", "113705.960000", "113706.420000", "113706.880000", "113707.340000", "113707.800000", "113708.260000", "113708.720000", "113709.180000", "113709.640000", "113710.100000", "113710.560000", "113711.020000", "113711.480000", "113711.940000", "113712.400000", "113712.860000", "113713.320000", "113713.780000", "113714.240000", "113714.700000", "113715.160000", "113715.620000", "113716.080000", "113716.540000", "113717.000000", "113717.460000", "113717.920000", "113718.380000", "113718.840000", "113719.300000", "113719.760000", "113720.220000", "113720.680000", "113721.140000", "113721.600000", "113722.060000", "113722.520000", "113722.980000", "113723.440000", "113723.900000", "113724.360000", "113724.820000", "113725.280000", "113725.740000", "113726.200000", "113726.660000", "113727.120000", "113727.580000", "113728.040000", "113728.500000", "113728.960000", "113729.420000", "113729.880000", "113730.340000", "113730.800000", "113731.260000", "113731.720000", "113732.180000", "113732.640000", "113733.100000", "113733.560000", "113734.020000", "113734.480000", "113734.940000", "113735.400000", "113735.860000", "113736.320000", "113736.780000", "113737.240000", "113737.700000", "113738.160000", "113738.620000", "113739.080000", "113739.540000", "113740.000000", "113740.460000", "113740.920000", "113741.380000", "113741.840000", "113742.300000", "113742.760000", "113743.220000", "113743.680000", "113744.140000", "113744.600000", "113745.060000", "113745.520000", "113745.980000", "113746.440000", "113746.900000", "113747.360000", "113747.820000", "113748.280000", "113748.740000", "113749.200000", "113749.660000", "113750.120000", "113750.580000", "113751.040000", "113751.500000", "113751.960000", "113752.420000", "113752.880000", "113753.340000", "113753.800000", "113754.260000", "113754.720000", "113755.180000", "113755.640000", "113756.100000", "113756.560000", "113757.020000", "113757.480000", "113757.940000", "113758.400000", "113758.860000", "113759.320000", "113759.780000", "113800.240000", "113800.700000", "113801.160000", "113801.620000", "113802.080000", "113802.540000", "113803.000000", "113803.460000", "113803.920000", "113804.380000", "113804.840000", "113805.300000", "113805.760000", "113806.220000", "113806.680000", "113807.140000", "113807.600000", "113808.060000", "113808.520000", "113808.980000", "113809.440000", "113809.900000", "113810.360000", "113810.820000", "113811.280000", "113811.740000", "113812.200000", "113812.660000", "113813.120000", "113813.580000", "113814.040000", "113814.500000", "113814.960000", "113815.420000", "113815.880000", "113816.340000", "113816.800000", "113817.260000", "113817.720000", "113818.180000", "113818.640000", "113819.100000", "113819.560000", "113820.020000", "113820.480000", "113820.940000", "113821.400000", "113821.860000", "113822.320000", "113822.780000", "113823.240000", "113823.700000", "113824.160000", "113824.620000", "113825.080000", "113825.540000", "113826.000000", "113826.460000", "113826.920000", "113827.380000", "113827.840000", "113828.300000", "113828.760000", "113829.220000", "113829.680000", "113830.140000", "113830.600000", "113831.060000", "113831.520000", "113831.980000", "113832.440000", "113832.900000", "113833.360000", "113833.820000", "113834.280000", "113834.740000", "113835.200000", "113835.660000", "113836.120000", "113836.580000", "113837.040000", "113837.500000", "113837.960000", "113838.420000", "113838.880000", "113839.340000", "113839.800000", "113840.260000", "113840.720000", "113841.180000", "113841.640000", "113842.100000", "113842.560000", "113843.020000", "113843.480000", "113843.940000", "113844.400000", "113844.860000", "113845.320000", "113845.780000", "113846.240000", "113846.700000", "113847.160000", "113847.620000", "113848.080000", "113848.540000", "113849.000000", "113849.460000", "113849.920000", "113850.380000", "113850.840000", "113851.300000", "113851.760000", "113852.220000", "113852.680000", "113853.140000", "113853.600000", "113854.060000", "113854.520000", "113854.980000", "113855.440000", "113855.900000", "113856.360000", "113856.820000", "113857.280000", "113857.740000", "113858.200000", "113858.660000", "113859.120000", "113859.580000", "113900.040000", "113900.500000", "113900.960000", "113901.420000", "113901.880000", "113902.340000", "113902.800000", "113903.260000", "113903.720000", "113904.180000", "113904.640000", "113905.100000", "113905.560000", "113906.020000", "113906.480000", "113906.940000", "113907.400000", "113907.860000", "113908.320000", "113908.780000", "113909.240000", "113909.700000", "113910.160000", "113910.620000", "113911.080000", "113911.540000", "113912.000000", "113912.460000", "113912.920000", "113913.380000", "113913.840000", "113914.300000", "113914.760000", "113915.220000", "113915.680000", "113916.140000", "113916.600000", "113917.060000", "113917.520000", "113917.980000", "113918.440000", "113918.900000", "113919.360000", "113919.820000", "113920.280000", "113920.740000", "113921.200000", "113921.660000", "113922.120000", "113922.580000", "113923.040000", "113923.500000", "113923.960000", "113924.420000", "113924.880000", "113925.340000", "113925.800000", "113926.260000", "113926.720000", "113927.180000", "113927.640000", "113928.100000", "113928.560000", "113929.020000", "113929.480000", "113929.940000", "113930.400000", "113930.860000", "113931.320000", "113931.780000", "113932.240000", "113932.700000", "113933.160000", "113933.620000", "113934.080000", "113934.540000", "113935.000000", "113935.460000", "113935.920000", "113936.380000", "113936.840000", "113937.300000", "113937.760000", "113938.220000", "113938.680000", "113939.140000", "113939.600000", "113940.060000", "113940.520000", "113940.980000", "113941.440000", "113941.900000", "113942.360000", "113942.820000", "113943.280000", "113943.740000", "113944.200000", "113944.660000", "113945.120000", "113945.580000", "113946.040000", "113946.500000", "113946.960000", "113947.420000", "113947.880000", "113948.340000", "113948.800000", "113949.260000", "113949.720000", "113950.180000", "113950.640000", "113951.100000", "113951.560000", "113952.020000", "113952.480000", "113952.940000", "113953.400000", "113953.860000", "113954.320000", "113954.780000", "113955.240000", "113955.700000", "113956.160000", "113956.620000", "113957.080000", "113957.540000", "113958.000000", "113958.460000", "113958.920000", "113959.380000", "113959.840000", "114000.300000", "114000.760000", "114001.220000", "114001.680000", "114002.140000", "114002.600000", "114003.060000", "114003.520000", "114003.980000", "114004.440000", "114004.900000", "114005.360000", "114005.820000", "114006.280000", "114006.740000", "114007.200000", "114007.660000", "114008.120000", "114008.580000", "114009.040000", "114009.500000", "114009.960000", "114010.420000", "114010.880000", "114011.340000", "114011.800000", "114012.260000", "114012.720000", "114013.180000", "114013.640000", "114014.100000", "114014.560000", "114015.020000", "114015.480000", "114015.940000", "114016.400000", "114016.860000", "114017.320000", "114017.780000", "114018.240000", "114018.700000", "114019.160000", "114019.620000", "114020.080000", "114020.540000", "114021.000000", "114021.460000", "114021.920000", "114022.380000", "114022.840000", "114023.300000", "114023.760000", "114024.220000", "114024.680000", "114025.140000", "114025.600000", "114026.060000", "114026.520000", "114026.980000", "114027.440000", "114027.900000", "114028.360000", "114028.820000", "114029.280000", "114029.740000", "114030.200000", "114030.660000", "114031.120000", "114031.580000", "114032.040000", "114032.500000", "114032.960000", "114033.420000", "114033.880000", "114034.340000", "114034.800000", "114035.260000", "114035.720000", "114036.180000", "114036.640000", "114037.100000", "114037.560000", "114038.020000", "114038.480000", "114038.940000", "114039.400000", "114039.860000", "114040.320000", "114040.780000", "114041.240000", "114041.700000", "114042.160000", "114042.620000", "114043.080000", "114043.540000", "114044.000000", "114044.460000", "114044.920000", "114045.380000", "114045.840000", "114046.300000", "114046.760000", "114047.220000", "114047.680000", "114048.140000", "114048.600000", "114049.060000", "114049.520000", "114049.980000", "114050.440000", "114050.900000", "114051.360000", "114051.820000", "114052.280000", "114052.740000", "114053.200000", "114053.660000", "114054.120000", "114054.580000", "114055.040000", "114055.500000", "114055.960000", "114056.420000", "114056.880000", "114057.340000", "114057.800000", "114058.260000", "114058.720000", "114059.180000", "114059.640000", "114100.100000", "114100.560000", "114101.020000", "114101.480000", "114101.940000", "114102.400000", "114102.860000", "114103.320000", "114103.780000", "114104.240000", "114104.700000", "114105.160000", "114105.620000", "114106.080000", "114106.540000", "114107.000000", "114107.460000", "114107.920000", "114108.380000", "114108.840000", "114109.300000", "114109.760000", "114110.220000", "114110.680000", "114111.140000", "114111.600000", "114112.060000", "114112.520000", "114112.980000", "114113.440000", "114113.900000", "114114.360000", "114114.820000", "114115.280000", "114115.740000", "114116.200000", "114116.660000", "114117.120000", "114117.580000", "114118.040000", "114118.500000", "114118.960000", "114119.420000", "114119.880000", "114120.340000", "114120.800000", "114121.260000", "114121.720000", "114122.180000", "114122.640000", "114123.100000", "114123.560000", "114124.020000", "114124.480000", "114124.940000", "114125.400000", "114125.860000", "114126.320000", "114126.780000", "114127.240000", "114127.700000", "114128.160000", "114128.620000", "114129.080000", "114129.540000", "114130.000000", "114130.460000", "114130.920000", "114131.380000", "114131.840000", "114132.300000", "114132.760000", "114133.220000", "114133.680000", "114134.140000", "114134.600000", "114135.060000", "114135.520000", "114135.980000", "114136.440000", "114136.900000", "114137.360000", "114137.820000", "114138.280000", "114138.740000", "114139.200000", "114139.660000", "114140.120000", "114140.580000", "114141.040000", "114141.500000", "114141.960000", "114142.420000", "114142.880000", "114143.340000", "114143.800000", "114144.260000", "114144.720000", "114145.180000", "114145.640000", "114146.100000", "114146.560000", "114147.020000", "114147.480000", "114147.940000", "114148.400000", "114148.860000", "114149.320000", "114149.780000", "114150.240000", "114150.700000", "114151.160000", "114151.620000", "114152.080000", "114152.540000", "114153.000000", "114153.460000", "114153.920000", "114154.380000", "114154.840000", "114155.300000", "114155.760000", "114156.220000", "114156.680000", "114157.140000", "114157.600000", "114158.060000", "114158.520000", "114158.980000", "114159.440000", "114159.900000", "114200.360000", "114200.820000", "114201.280000", "114201.740000", "114202.200000", "114202.660000", "114203.120000", "114203.580000", "114204.040000", "114204.500000", "114204.960000", "114205.420000", "114205.880000", "114206.340000", "114206.800000", "114207.260000", "114207.720000", "114208.180000", "114208.640000", "114209.100000", "114209.560000", "114210.020000", "114210.480000", "114210.940000", "114211.400000", "114211.860000", "114212.320000", "114212.780000", "114213.240000", "114213.700000", "114214.160000", "114214.620000", "114215.080000", "114215.540000", "114216.000000", "114216.460000", "114216.920000", "114217.380000", "114217.840000", "114218.300000", "114218.760000", "114219.220000", "114219.680000", "114220.140000", "114220.600000", "114221.060000", "114221.520000", "114221.980000", "114222.440000", "114222.900000", "114223.360000", "114223.820000", "114224.280000", "114224.740000", "114225.200000", "114225.660000", "114226.120000", "114226.580000", "114227.040000", "114227.500000", "114227.960000", "114228.420000", "114228.880000", "114229.340000", "114229.800000", "114230.260000", "114230.720000", "114231.180000", "114231.640000", "114232.100000", "114232.560000", "114233.020000", "114233.480000", "114233.940000", "114234.400000", "114234.860000", "114235.320000", "114235.780000", "114236.240000", "114236.700000", "114237.160000", "114237.620000", "114238.080000", "114238.540000", "114239.000000", "114239.460000", "114239.920000", "114240.380000", "114240.840000", "114241.300000", "114241.760000", "114242.220000", "114242.680000", "114243.140000", "114243.600000", "114244.060000", "114244.520000", "114244.980000", "114245.440000", "114245.900000", "114246.360000", "114246.820000", "114247.280000", "114247.740000", "114248.200000", "114248.660000", "114249.120000", "114249.580000", "114250.040000", "114250.500000", "114250.960000", "114251.420000", "114251.880000", "114252.340000", "114252.800000", "114253.260000", "114253.720000", "114254.180000", "114254.640000", "114255.100000", "114255.560000", "114256.020000", "114256.480000", "114256.940000", "114257.400000", "114257.860000", "114258.320000", "114258.780000", "114259.240000", "114259.700000", "114300.160000", "114300.620000", "114301.080000", "114301.540000", "114302.000000", "114302.460000", "114302.920000", "114303.380000", "114303.840000", "114304.300000", "114304.760000", "114305.220000", "114305.680000", "114306.140000"],
