{
  "AcquisitionMatrixPE": 82,
  "AcquisitionNumber": 1,
  "AcquisitionTime": "15:18:23.347500",
  "BandwidthPerPixelPhaseEncode": 24.888,
  "BaseResolution": 82,
  "BodyPartExamined": "BRAIN",
  "ConsistencyInfo": "N4_VE11E_LATEST_20181129",
  "ConversionSoftware": "dcm2niix",
  "ConversionSoftwareVersion": "v1.0.20201102",
  "DerivedVendorReportedEchoSpacing": 0.00049,
  "DeviceSerialNumber": "66112",
  "DwellTime": 2e-06,
  "EchoTime": 0.0272,
  "EchoTrainLength": 82,
  "EffectiveEchoSpacing": 0.00049,
  "FlipAngle": 44,
  "ImageComments": "Unaliased MB8/PE3",
  "ImageOrientationPatientDICOM": [0.995457, 0.0745063, 0.0592865, -0.0718791, 0.996385, -0.045278],
  "ImageType": [
    "ORIGINAL",
    "PRIMARY",
    "M",
    "MB",
    "ND",
    "NORM",
    "MOSAIC"
],
  "ImagingFrequency": 123.259,
  "InPlanePhaseEncodingDirectionDICOM": "COL",
  "InstitutionAddress": "Maynard 3,Hanover,NH,US,03755",
  "InstitutionName": "Dartmouth College - PBS",
  "InstitutionalDepartmentName": "Department",
  "MRAcquisitionType": "2D",
  "MagneticFieldStrength": 3,
  "Manufacturer": "Siemens",
  "ManufacturersModelName": "Prisma",
  "Modality": "MR",
  "MultibandAccelerationFactor": 8,
  "PartialFourier": 1,
  "PatientPosition": "HFS",
  "PercentPhaseFOV": 100,
  "PercentSampling": 100,
  "PhaseEncodingDirection": "j-",
  "PhaseEncodingSteps": 82,
  "PhaseResolution": 1,
  "PixelBandwidth": 3050,
  "ProcedureStepDescription": "Wager_Wager^1076_spacetop",
  "ProtocolName": "func_run-02_task-faces_acq-ap-mb8",
  "PulseSequenceDetails": "%CustomerSeq%\\cmrr_mbep2d_bold",
  "ReceiveCoilActiveElements": "HEA;HEP",
  "ReceiveCoilName": "Head_32",
  "ReconMatrixPE": 82,
  "RepetitionTime": 0.46,
  "SAR": 0.0863689,
  "ScanOptions": "FS",
  "ScanningSequence": "EP",
  "SequenceName": "epfid2d1_82",
  "SequenceVariant": "SK\\SS",
  "SeriesDescription": "func_run-02_task-faces_acq-ap-mb8",
  "SeriesNumber": 18,
  "ShimSetting": [4217, -7792, -7257, 412, -137, -131, 44, 40],
  "SliceThickness": 2.7,
  "SliceTiming": [0, 0.25, 0.0625, 0.3125, 0.125, 0.375, 0.1875, 0, 0.25, 0.0625, 0.3125, 0.125, 0.375, 0.1875, 0, 0.25, 0.0625, 0.3125, 0.125, 0.375, 0.1875, 0, 0.25, 0.0625, 0.3125, 0.125, 0.375, 0.1875, 0, 0.25, 0.0625, 0.3125, 0.125, 0.375, 0.1875, 0, 0.25, 0.0625, 0.3125, 0.125, 0.375, 0.1875, 0, 0.25, 0.0625, 0.3125, 0.125, 0.375, 0.1875, 0, 0.25, 0.0625, 0.3125, 0.125, 0.375, 0.1875],
  "SoftwareVersions": "syngo MR E11",
  "SpacingBetweenSlices": 2.7,
  "StationName": "AWP66112",
  "TaskName": "faces",
  "TotalReadoutTime": 0.03969,
  "TxRefAmp": 239.551,
  "WipMemBlock": "e7e23f20-3b71-422a-8afc-2c63d27c7da5||Sequence: R016 ve11e/master r/434b28f1; Aug  7 2019 18:53:46 by eja",
  "dcmmeta_affine": [
    [-2.6707375049591064, -0.19284644722938538, 0.16860337555408478, 117.52903747558594],
    [-0.19989484548568726, 2.6732285022735596, -0.11018909513950348, -93.06896209716797],
    [0.15906140208244324, 0.12147743999958038, 2.692476749420166, -89.68680572509766],
    [0.0, 0.0, 0.0, 1.0]
],
  "dcmmeta_reorient_transform": [
    [0.0, -1.0, 0.0, 81.0],
    [1.0, 0.0, 0.0, 0.0],
    [0.0, 0.0, 1.0, 0.0],
    [0.0, 0.0, 0.0, 1.0]
],
  "dcmmeta_shape": [82, 82, 56, 914],
  "dcmmeta_slice_dim": 2,
  "dcmmeta_version": 0.6,
  "global": {
    "const": {
      "AccessionNumber": "A004523",
      "AcquisitionMatrix": [82, 0, 0, 82],
      "AngioFlag": "N",
      "BitsAllocated": 16,
      "BitsStored": 16,
      "BodyPartExamined": "BRAIN",
      "Columns": 656,
      "EchoNumbers": 1,
      "EchoTime": 27.2,
      "EchoTrainLength": 82,
      "FlipAngle": 44.0,
      "HighBit": 15,
      "ImageOrientationPatient": [0.99545664192326, 0.0745062599707, 0.05928651850161, -0.0718791288609, 0.99638511521721, -0.0452779527783],
      "ImagePositionPatient": [-813.06317785162, -948.04892142597, -90.633728621164],
      "ImageType": [
        "ORIGINAL",
        "PRIMARY",
        "M",
        "MB",
        "ND",
        "NORM",
        "MOSAIC"
],
      "ImagedNucleus": "1H",
      "ImagingFrequency": 123.2591,
      "InPlanePhaseEncodingDirection": "COL",
      "MRAcquisitionType": "2D",
      "MagneticFieldStrength": 3.0,
      "Manufacturer": "SIEMENS",
      "ManufacturerModelName": "Prisma",
      "Modality": "MR",
      "NumberOfAverages": 1.0,
      "NumberOfPhaseEncodingSteps": 82,
      "PercentPhaseFieldOfView": 100.0,
      "PercentSampling": 100.0,
      "PerformedProcedureStepStartTime": "141814.635000",
      "PhotometricInterpretation": "MONOCHROME2",
      "PixelBandwidth": 3050.0,
      "PixelRepresentation": 0,
      "PixelSpacing": [2.6829268932343, 2.6829268932343],
      "ProtocolName": "func_run-02_task-faces_acq-ap-mb8",
      "RepetitionTime": 460.0,
      "Rows": 656,
      "SAR": 0.08636890990889,
      "SamplesPerPixel": 1,
      "ScanOptions": "FS",
      "ScanningSequence": "EP",
      "SequenceName": "epfid2d1_82",
      "SequenceVariant": [
        "SK",
        "SS"
],
      "SeriesDescription": "func_run-02_task-faces_acq-ap-mb8",
      "SeriesNumber": 18,
      "SeriesTime": "151851.973000",
      "SliceLocation": -78.29950524846,
      "SliceThickness": 2.7000000476837,
      "SmallestImagePixelValue": 0,
      "SoftwareVersions": "syngo MR E11",
      "SpacingBetweenSlices": 2.7000000708176,
      "SpecificCharacterSet": "ISO_IR 100",
      "StudyID": "2",
      "StudyTime": "141814.555000",
      "TransmitCoilName": "Body",
      "VariableFlipAngleFlag": "N",
      "WindowCenterWidthExplanation": "Algo1"
    },
    "slices": {}
  },
  "time": {
    "samples": {
      "AcquisitionNumber": [1, 2, 3, 4, 5, 6, 7, 8, 9, 10, 11, 12, 13, 14, 15, 16, 17, 18, 19, 20, 21, 22, 23, 24, 25, 26, 27, 28, 29, 30, 31, 32, 33, 34, 35, 36, 37, 38, 39, 40, 41, 42, 43, 44, 45, 46, 47, 48, 49, 50, 51, 52, 53, 54, 55, 56, 57, 58, 59, 60, 61, 62, 63, 64, 65, 66, 67, 68, 69, 70, 71, 72, 73, 74, 75, 76, 77, 78, 79, 80, 81, 82, 83, 84, 85, 86, 87, 88, 89, 90, 91, 92, 93, 94, 95, 96, 97, 98, 99, 100, 101, 102, 103, 104, 105, 106, 107, 108, 109, 110, 111, 112, 113, 114, 115, 116, 117, 118, 119, 120, 121, 122, 123, 124, 125, 126, 127, 128, 129, 130, 131, 132, 133, 134, 135, 136, 137, 138, 139, 140, 141, 142, 143, 144, 145, 146, 147, 148, 149, 150, 151, 152, 153, 154, 155, 156, 157, 158, 159, 160, 161, 162, 163, 164, 165, 166, 167, 168, 169, 170, 171, 172, 173, 174, 175, 176, 177, 178, 179, 180, 181, 182, 183, 184, 185, 186, 187, 188, 189, 190, 191, 192, 193, 194, 195, 196, 197, 198, 199, 200, 201, 202, 203, 204, 205, 206, 207, 208, 209, 210, 211, 212, 213, 214, 215, 216, 217, 218, 219, 220, 221, 222, 223, 224, 225, 226, 227, 228, 229, 230, 231, 232, 233, 234, 235, 236, 237, 238, 239, 240, 241, 242, 243, 244, 245, 246, 247, 248, 249, 250, 251, 252, 253, 254, 255, 256, 257, 258, 259, 260, 261, 262, 263, 264, 265, 266, 267, 268, 269, 270, 271, 272, 273, 274, 275, 276, 277, 278, 279, 280, 281, 282, 283, 284, 285, 286, 287, 288, 289, 290, 291, 292, 293, 294, 295, 296, 297, 298, 299, 300, 301, 302, 303, 304, 305, 306, 307, 308, 309, 310, 311, 312, 313, 314, 315, 316, 317, 318, 319, 320, 321, 322, 323, 324, 325, 326, 327, 328, 329, 330, 331, 332, 333, 334, 335, 336, 337, 338, 339, 340, 341, 342, 343, 344, 345, 346, 347, 348, 349, 350, 351, 352, 353, 354, 355, 356, 357, 358, 359, 360, 361, 362, 363, 364, 365, 366, 367, 368, 369, 370, 371, 372, 373, 374, 375, 376, 377, 378, 379, 380, 381, 382, 383, 384, 385, 386, 387, 388, 389, 390, 391, 392, 393, 394, 395, 396, 397, 398, 399, 400, 401, 402, 403, 404, 405, 406, 407, 408, 409, 410, 411, 412, 413, 414, 415, 416, 417, 418, 419, 420, 421, 422, 423, 424, 425, 426, 427, 428, 429, 430, 431, 432, 433, 434, 435, 436, 437, 438, 439, 440, 441, 442, 443, 444, 445, 446, 447, 448, 449, 450, 451, 452, 453, 454, 455, 456, 457, 458, 459, 460, 461, 462, 463, 464, 465, 466, 467, 468, 469, 470, 471, 472, 473, 474, 475, 476, 477, 478, 479, 480, 481, 482, 483, 484, 485, 486, 487, 488, 489, 490, 491, 492, 493, 494, 495, 496, 497, 498, 499, 500, 501, 502, 503, 504, 505, 506, 507, 508, 509, 510, 511, 512, 513, 514, 515, 516, 517, 518, 519, 520, 521, 522, 523, 524, 525, 526, 527, 528, 529, 530, 531, 532, 533, 534, 535, 536, 537, 538, 539, 540, 541, 542, 543, 544, 545, 546, 547, 548, 549, 550, 551, 552, 553, 554, 555, 556, 557, 558, 559, 560, 561, 562, 563, 564, 565, 566, 567, 568, 569, 570, 571, 572, 573, 574, 575, 576, 577, 578, 579, 580, 581, 582, 583, 584, 585, 586, 587, 588, 589, 590, 591, 592, 593, 594, 595, 596, 597, 598, 599, 600, 601, 602, 603, 604, 605, 606, 607, 608, 609, 610, 611, 612, 613, 614, 615, 616, 617, 618, 619, 620, 621, 622, 623, 624, 625, 626, 627, 628, 629, 630, 631, 632, 633, 634, 635, 636, 637, 638, 639, 640, 641, 642, 643, 644, 645, 646, 647, 648, 649, 650, 651, 652, 653, 654, 655, 656, 657, 658, 659, 660, 661, 662, 663, 664, 665, 666, 667, 668, 669, 670, 671, 672, 673, 674, 675, 676, 677, 678, 679, 680, 681, 682, 683, 684, 685, 686, 687, 688, 689, 690, 691, 692, 693, 694, 695, 696, 697, 698, 699, 700, 701, 702, 703, 704, 705, 706, 707, 708, 709, 710, 711, 712, 713, 714, 715, 716, 717, 718, 719, 720, 721, 722, 723, 724, 725, 726, 727, 728, 729, 730, 731, 732, 733, 734, 735, 736, 737, 738, 739, 740, 741, 742, 743, 744, 745, 746, 747, 748, 749, 750, 751, 752, 753, 754, 755, 756, 757, 758, 759, 760, 761, 762, 763, 764, 765, 766, 767, 768, 769, 770, 771, 772, 773, 774, 775, 776, 777, 778, 779, 780, 781, 782, 783, 784, 785, 786, 787, 788, 789, 790, 791, 792, 793, 794, 795, 796, 797, 798, 799, 800, 801, 802, 803, 804, 805, 806, 807, 808, 809, 810, 811, 812, 813, 814, 815, 816, 817, 818, 819, 820, 821, 822, 823, 824, 825, 826, 827, 828, 829, 830, 831, 832, 833, 834, 835, 836, 837, 838, 839, 840, 841, 842, 843, 844, 845, 846, 847, 848, 849, 850, 851, 852, 853, 854, 855, 856, 857, 858, 859, 860, 861, 862, 863, 864, 865, 866, 867, 868, 869, 870, 871, 872, 873, 874, 875, 876, 877, 878, 879, 880, 881, 882, 883, 884, 885, 886, 887, 888, 889, 890, 891, 892, 893, 894, 895, 896, 897, 898, 899, 900, 901, 902, 903, 904, 905, 906, 907, 908, 909, 910, 911, 912, 913, 914],
      "AcquisitionTime": ["151823.347500", "151823.807500", "151824.267500", "151824.727500", "151825.187500", "151825.647500", "151826.107500", "151826.567500", "151827.027500", "151827.487500", "151827.947500", "151828.407500", "151828.867500", "151829.327500", "151829.787500", "151830.247500", "151830.707500", "151831.167500", "151831.627500", "151832.087500", "151832.547500", "151833.007500", "151833.467500", "151833.927500", "151834.387500", "151834.847500", "151835.307500", "151835.767500", "151836.227500", "151836.687500", "151837.147500", "151837.607500", "151838.067500", "151838.527500", "151838.987500", "151839.447500", "151839.907500", "151840.367500", "151840.827500", "151841.287500", "151841.747500", "151842.207500", "151842.667500", "151843.127500", "151843.587500", "151844.047500", "151844.507500", "151844.967500", "151845.427500", "151845.887500", "151846.347500", "151846.807500", "151847.267500", "151847.727500", "151848.187500", "151848.647500", "151849.107500", "151849.567500", "151850.027500", "151850.487500", "151850.947500", "151851.407500", "151851.867500", "151852.327500", "151852.787500", "151853.247500", "151853.707500", "151854.167500", "151854.627500", "151855.087500", "151855.547500", "151856.007500", "151856.467500", "151856.927500", "151857.387500", "151857.847500", "151858.307500", "151858.767500", "151859.227500", "151859.687500", "151900.147500", "151900.607500", "151901.067500", "151901.527500", "151901.987500", "151902.447500", "151902.907500", "151903.367500", "151903.827500", "151904.287500", "151904.747500", "151905.207500", "151905.667500", "151906.127500", "151906.587500", "151907.047500", "151907.507500", "151907.967500", "151908.427500", "151908.887500", "151909.347500", "151909.807500", "151910.267500", "151910.727500", "151911.187500", "151911.647500", "151912.107500", "151912.567500", "151913.027500", "151913.487500", "151913.947500", "151914.407500", "151914.867500", "151915.327500", "151915.787500", "151916.247500", "151916.707500", "151917.167500", "151917.627500", "151918.087500", "151918.547500", "151919.007500", "151919.467500", "151919.927500", "151920.387500", "151920.847500", "151921.307500", "151921.767500", "151922.227500", "151922.687500", "151923.147500", "151923.607500", "151924.067500", "151924.527500", "151924.987500", "151925.447500", "151925.907500", "151926.367500", "151926.827500", "151927.287500", "151927.747500", "151928.207500", "151928.667500", "151929.127500", "151929.587500", "151930.047500", "151930.507500", "151930.967500", "151931.427500", "151931.887500", "151932.347500", "151932.807500", "151933.267500", "151933.727500", "151934.187500", "151934.647500", "151935.107500", "151935.567500", "151936.027500", "151936.487500", "151936.947500", "151937.407500", "151937.867500", "151938.327500", "151938.787500", "151939.247500", "151939.707500", "151940.167500", "151940.627500", "151941.087500", "151941.547500", "151942.007500", "151942.467500", "151942.927500", "151943.387500", "151943.847500", "151944.307500", "151944.767500", "151945.227500", "151945.687500", "151946.147500", "151946.607500", "151947.067500", "151947.527500", "151947.987500", "151948.447500", "151948.907500", "151949.367500", "151949.827500", "151950.287500", "151950.747500", "151951.207500", "151951.667500", "151952.127500", "151952.587500", "151953.047500", "151953.507500", "151953.967500", "151954.427500", "151954.887500", "151955.347500", "151955.807500", "151956.267500", "151956.727500", "151957.187500", "151957.647500", "151958.107500", "151958.567500", "151959.027500", "151959.487500", "151959.947500", "152000.407500", "152000.867500", "152001.327500", "152001.787500", "152002.247500", "152002.707500", "152003.167500", "152003.627500", "152004.087500", "152004.547500", "152005.007500", "152005.467500", "152005.927500", "152006.387500", "152006.847500", "152007.307500", "152007.767500", "152008.227500", "152008.687500", "152009.147500", "152009.607500", "152010.067500", "152010.527500", "152010.987500", "152011.447500", "152011.907500", "152012.367500", "152012.827500", "152013.287500", "152013.747500", "152014.207500", "152014.667500", "152015.127500", "152015.587500", "152016.047500", "152016.507500", "152016.967500", "152017.427500", "152017.887500", "152018.347500", "152018.807500", "152019.267500", "152019.727500", "152020.187500", "152020.647500", "152021.107500", "152021.567500", "152022.027500", "152022.487500", "152022.947500", "152023.407500", "152023.867500", "152024.327500", "152024.787500", "152025.247500", "152025.707500", "152026.167500", "152026.627500", "152027.087500", "152027.547500", "152028.007500", "152028.467500", "152028.927500", "152029.387500", "152029.847500", "152030.307500", "152030.767500", "152031.227500", "152031.687500", "152032.147500", "152032.607500", "152033.067500", "152033.527500", "152033.987500", "152034.447500", "152034.907500", "152035.367500", "152035.827500", "152036.287500", "152036.747500", "152037.207500", "152037.667500", "152038.127500", "152038.587500", "152039.047500", "152039.507500", "152039.967500", "152040.427500", "152040.887500", "152041.347500", "152041.807500", "152042.267500", "152042.727500", "152043.187500", "152043.647500", "152044.107500", "152044.567500", "152045.027500", "152045.487500", "152045.947500", "152046.407500", "152046.867500", "152047.327500", "152047.787500", "152048.247500", "152048.707500", "152049.167500", "152049.627500", "152050.087500", "152050.547500", "152051.007500", "152051.467500", "152051.927500", "152052.387500", "152052.847500", "152053.307500", "152053.767500", "152054.227500", "152054.687500", "152055.147500", "152055.607500", "152056.067500", "152056.527500", "152056.987500", "152057.447500", "152057.907500", "152058.367500", "152058.827500", "152059.287500", "152059.747500", "152100.207500", "152100.667500", "152101.127500", "152101.587500", "152102.047500", "152102.507500", "152102.967500", "152103.427500", "152103.887500", "152104.347500", "152104.807500", "152105.267500", "152105.727500", "152106.187500", "152106.647500", "152107.107500", "152107.567500", "152108.027500", "152108.487500", "152108.947500", "152109.407500", "152109.867500", "152110.327500", "152110.787500", "152111.247500", "152111.707500", "152112.167500", "152112.627500", "152113.087500", "152113.547500", "152114.007500", "152114.467500", "152114.927500", "152115.387500", "152115.847500", "152116.307500", "152116.767500", "152117.227500", "152117.687500", "152118.147500", "152118.607500", "152119.067500", "152119.527500", "152119.987500", "152120.447500", "152120.907500", "152121.367500", "152121.827500", "152122.287500", "152122.747500", "152123.207500", "152123.667500", "152124.127500", "152124.587500", "152125.047500", "152125.507500", "152125.967500", "152126.427500", "152126.887500", "152127.347500", "152127.807500", "152128.267500", "152128.727500", "152129.187500", "152129.647500", "152130.107500", "152130.567500", "152131.027500", "152131.487500", "152131.947500", "152132.407500", "152132.867500", "152133.327500", "152133.787500", "152134.247500", "152134.707500", "152135.167500", "152135.627500", "152136.087500", "152136.547500", "152137.007500", "152137.467500", "152137.927500", "152138.387500", "152138.847500", "152139.307500", "152139.767500", "152140.227500", "152140.687500", "152141.147500", "152141.607500", "152142.067500", "152142.527500", "152142.987500", "152143.447500", "152143.907500", "152144.367500", "152144.827500", "152145.287500", "152145.747500", "152146.207500", "152146.667500", "152147.127500", "152147.587500", "152148.047500", "152148.507500", "152148.967500", "152149.427500", "152149.887500", "152150.347500", "152150.807500", "152151.267500", "152151.727500", "152152.187500", "152152.647500", "152153.107500", "152153.567500", "152154.027500", "152154.487500", "152154.947500", "152155.407500", "152155.867500", "152156.327500", "152156.787500", "152157.247500", "152157.707500", "152158.167500", "152158.627500", "152159.087500", "152159.547500", "152200.007500", "152200.467500", "152200.927500", "152201.387500", "152201.847500", "152202.307500", "152202.767500", "152203.227500", "152203.687500", "152204.147500", "152204.607500", "152205.067500", "152205.527500", "152205.987500", "152206.447500", "152206.907500", "152207.367500", "152207.827500", "152208.287500", "152208.747500", "152209.207500", "152209.667500", "152210.127500", "152210.587500", "152211.047500", "152211.507500", "152211.967500", "152212.427500", "152212.887500", "152213.347500", "152213.807500", "152214.267500", "152214.727500", "152215.187500", "152215.647500", "152216.107500", "152216.567500", "152217.027500", "152217.487500", "152217.947500", "152218.407500", "152218.867500", "152219.327500", "152219.787500", "152220.247500", "152220.707500", "152221.167500", "152221.627500", "152222.087500", "152222.547500", "152223.007500", "152223.467500", "152223.927500", "152224.387500", "152224.847500", "152225.307500", "152225.767500", "152226.227500", "152226.687500", "152227.147500", "152227.607500", "152228.067500", "152228.527500", "152228.987500", "152229.447500", "152229.907500", "152230.367500", "152230.827500", "152231.287500", "152231.747500", "152232.207500", "152232.667500", "152233.127500", "152233.587500", "152234.047500", "152234.507500", "152234.967500", "152235.427500", "152235.887500", "152236.347500", "152236.807500", "152237.267500", "152237.727500", "152238.187500", "152238.647500", "152239.107500", "152239.567500", "152240.027500", "152240.487500", "152240.947500", "152241.407500", "152241.867500", "152242.327500", "152242.787500", "152243.247500", "152243.707500", "152244.167500", "152244.627500", "152245.087500", "152245.547500", "152246.007500", "152246.467500", "152246.927500", "152247.387500", "152247.847500", "152248.307500", "152248.767500", "152249.227500", "152249.687500", "152250.147500", "152250.607500", "152251.067500", "152251.527500", "152251.987500", "152252.447500", "152252.907500", "152253.367500", "152253.827500", "152254.287500", "152254.747500", "152255.207500", "152255.667500", "152256.127500", "152256.587500", "152257.047500", "152257.507500", "152257.967500", "152258.427500", "152258.887500", "152259.347500", "152259.807500", "152300.267500", "152300.727500", "152301.187500", "152301.647500", "152302.107500", "152302.567500", "152303.027500", "152303.487500", "152303.947500", "152304.407500", "152304.867500", "152305.327500", "152305.787500", "152306.247500", "152306.707500", "152307.167500", "152307.627500", "152308.087500", "152308.547500", "152309.007500", "152309.467500", "152309.927500", "152310.387500", "152310.847500", "152311.307500", "152311.767500", "152312.227500", "152312.687500", "152313.147500", "152313.607500", "152314.067500", "152314.527500", "152314.987500", "152315.447500", "152315.907500", "152316.367500", "152316.827500", "152317.287500", "152317.747500", "152318.207500", "152318.667500", "152319.127500", "152319.587500", "152320.047500", "152320.507500", "152320.967500", "152321.427500", "152321.887500", "152322.347500", "152322.807500", "152323.267500", "152323.727500", "152324.187500", "152324.647500", "152325.107500", "152325.567500", "152326.027500", "152326.487500", "152326.947500", "152327.407500", "152327.867500", "152328.327500", "152328.787500", "152329.247500", "152329.707500", "152330.167500", "152330.627500", "152331.087500", "152331.547500", "152332.007500", "152332.467500", "152332.927500", "152333.387500", "152333.847500", "152334.307500", "152334.767500", "152335.227500", "152335.687500", "152336.147500", "152336.607500", "152337.067500", "152337.527500", "152337.987500", "152338.447500", "152338.907500", "152339.367500", "152339.827500", "152340.287500", "152340.747500", "152341.207500", "152341.667500", "152342.127500", "152342.587500", "152343.047500", "152343.507500", "152343.967500", "152344.427500", "152344.887500", "152345.347500", "152345.807500", "152346.267500", "152346.727500", "152347.187500", "152347.647500", "152348.107500", "152348.567500", "152349.027500", "152349.487500", "152349.947500", "152350.407500", "152350.867500", "152351.327500", "152351.787500", "152352.247500", "152352.707500", "152353.167500", "152353.627500", "152354.087500", "152354.547500", "152355.007500", "152355.467500", "152355.927500", "152356.387500", "152356.847500", "152357.307500", "152357.767500", "152358.227500", "152358.687500", "152359.147500", "152359.607500", "152400.067500", "152400.527500", "152400.987500", "152401.447500", "152401.907500", "152402.367500", "152402.827500", "152403.287500", "152403.747500", "152404.207500", "152404.667500", "152405.127500", "152405.587500", "152406.047500", "152406.507500", "152406.967500", "152407.427500", "152407.887500", "152408.347500", "152408.807500", "152409.267500", "152409.727500", "152410.187500", "152410.647500", "152411.107500", "152411.567500", "152412.027500", "152412.487500", "152412.947500", "152413.407500", "152413.867500", "152414.327500", "152414.787500", "152415.247500", "152415.707500", "152416.167500", "152416.627500", "152417.087500", "152417.547500", "152418.007500", "152418.467500", "152418.927500", "152419.387500", "152419.847500", "152420.307500", "152420.767500", "152421.227500", "152421.687500", "152422.147500", "152422.607500", "152423.067500", "152423.527500", "152423.987500", "152424.447500", "152424.907500", "152425.367500", "152425.827500", "152426.287500", "152426.747500", "152427.207500", "152427.667500", "152428.127500", "152428.587500", "152429.047500", "152429.507500", "152429.967500", "152430.427500", "152430.887500", "152431.347500", "152431.807500", "152432.267500", "152432.727500", "152433.187500", "152433.647500", "152434.107500", "152434.567500", "152435.027500", "152435.487500", "152435.947500", "152436.407500", "152436.867500", "152437.327500", "152437.787500", "152438.247500", "152438.707500", "152439.167500", "152439.627500", "152440.087500", "152440.547500", "152441.007500", "152441.467500", "152441.927500", "152442.387500", "152442.847500", "152443.307500", "152443.767500", "152444.227500", "152444.687500", "152445.147500", "152445.607500", "152446.067500", "152446.527500", "152446.987500", "152447.447500", "152447.907500", "152448.367500", "152448.827500", "152449.287500", "152449.747500", "152450.207500", "152450.667500", "152451.127500", "152451.587500", "152452.047500", "152452.507500", "152452.967500", "152453.427500", "152453.887500", "152454.347500", "152454.807500", "152455.267500", "152455.727500", "152456.187500", "152456.647500", "152457.107500", "152457.567500", "152458.027500", "152458.487500", "152458.947500", "152459.407500", "152459.867500", "152500.327500", "152500.787500", "152501.247500", "152501.707500", "152502.167500", "152502.627500", "152503.087500", "152503.547500", "152504.007500", "152504.467500", "152504.927500", "152505.387500", "152505.847500", "152506.307500", "152506.767500", "152507.227500", "152507.687500", "152508.147500", "152508.607500", "152509.067500", "152509.527500", "152509.987500", "152510.447500", "152510.907500", "152511.367500", "152511.827500", "152512.287500", "152512.747500", "152513.207500", "152513.667500", "152514.127500", "152514.587500", "152515.047500", "152515.507500", "152515.967500", "152516.427500", "152516.887500", "152517.347500", "152517.807500", "152518.267500", "152518.727500", "152519.187500", "152519.647500", "152520.107500", "152520.567500", "152521.027500", "152521.487500", "152521.947500", "152522.407500", "152522.867500", "152523.327500"],
